Data from N_2_div_oh_2n_065_Splice17_16.txt Node
Date: Sat Feb 29 14:04:04 EST 2020
User: sa697716
Spectrometer: FLMS03696
Trigger mode: 0
Integration Time (sec): 3.180400E-1
Scans to average: 20
Electric dark correction enabled: true
Nonlinearity correction enabled: true
Boxcar width: 5
XAxis mode: Wavelengths
Number of Pixels in Spectrum: 2048
>>>>>Begin Spectral Data<<<<<
187.83	96.12
188.298	98.88
188.766	86.02
189.233	70.73
189.701	82.05
190.169	87.76
190.636	80
191.104	61.04
191.571	-113.83
192.039	40.59
192.506	109.65
192.974	2612.79
193.441	-141.3
193.908	86.3
194.375	-41.71
194.842	68.82
195.31	75.49
195.777	77.01
196.244	32.04
196.711	28.3
197.177	26.33
197.644	26.66
198.111	27.48
198.578	27.33
199.045	27.59
199.511	28.03
199.978	28.51
200.445	28.39
200.911	28.42
201.378	28.98
201.844	29.12
202.31	30.06
202.777	30.37
203.243	30.66
203.709	31.07
204.176	30.64
204.642	30.66
205.108	30.65
205.574	31.16
206.04	31.2
206.506	30.98
206.972	30.88
207.438	30.48
207.903	30.43
208.369	29.8
208.835	29.63
209.301	29.93
209.766	30
210.232	29.7
210.697	29.39
211.163	29.15
211.628	28.94
212.094	28.82
212.559	28.68
213.024	28.44
213.49	28.45
213.955	28.3
214.42	27.57
214.885	27.17
215.35	26.77
215.815	26.15
216.28	25.52
216.745	24.65
217.21	23.81
217.675	23.09
218.14	22.4
218.604	21.66
219.069	21.06
219.534	20.59
219.998	20.17
220.463	19.8
220.927	19.44
221.392	19.13
221.856	18.87
222.32	18.65
222.785	18.4
223.249	18.17
223.713	18
224.177	17.81
224.642	17.65
225.106	17.44
225.57	17.24
226.034	17.06
226.497	16.85
226.961	16.66
227.425	16.45
227.889	16.26
228.353	16.04
228.816	15.86
229.28	15.62
229.744	15.43
230.207	15.22
230.671	15.02
231.134	14.83
231.597	14.65
232.061	14.5
232.524	14.34
232.987	14.17
233.45	14.02
233.914	13.86
234.377	13.73
234.84	13.57
235.303	13.44
235.766	13.31
236.229	13.17
236.691	13.06
237.154	12.91
237.617	12.77
238.08	12.66
238.542	12.53
239.005	12.42
239.468	12.3
239.93	12.19
240.393	12.06
240.855	11.92
241.317	11.8
241.78	11.68
242.242	11.56
242.704	11.45
243.166	11.35
243.629	11.24
244.091	11.11
244.553	11.02
245.015	10.93
245.477	10.82
245.939	10.73
246.4	10.64
246.862	10.55
247.324	10.46
247.786	10.38
248.247	10.27
248.709	10.18
249.17	10.1
249.632	10.01
250.093	9.92
250.555	9.85
251.016	9.8
251.477	9.72
251.939	9.65
252.4	9.58
252.861	9.51
253.322	9.45
253.783	9.41
254.244	9.34
254.705	9.29
255.166	9.25
255.627	9.19
256.088	9.12
256.549	9.08
257.009	9.02
257.47	8.97
257.931	8.92
258.391	8.85
258.852	8.79
259.312	8.75
259.773	8.7
260.233	8.64
260.694	8.59
261.154	8.54
261.614	8.48
262.074	8.44
262.534	8.38
262.994	8.34
263.455	8.31
263.915	8.27
264.374	8.23
264.834	8.19
265.294	8.15
265.754	8.11
266.214	8.08
266.673	8.05
267.133	8.02
267.593	7.99
268.052	7.96
268.512	7.93
268.971	7.91
269.431	7.88
269.89	7.87
270.349	7.84
270.809	7.83
271.268	7.81
271.727	7.79
272.186	7.76
272.645	7.73
273.104	7.7
273.563	7.67
274.022	7.64
274.481	7.62
274.94	7.58
275.399	7.55
275.857	7.52
276.316	7.48
276.775	7.45
277.233	7.41
277.692	7.39
278.15	7.35
278.609	7.32
279.067	7.29
279.525	7.25
279.984	7.23
280.442	7.21
280.9	7.19
281.358	7.16
281.816	7.14
282.274	7.12
282.732	7.1
283.19	7.08
283.648	7.06
284.106	7.04
284.564	7.03
285.021	7.02
285.479	7
285.937	6.98
286.394	6.97
286.852	6.96
287.309	6.95
287.767	6.93
288.224	6.9
288.682	6.89
289.139	6.86
289.596	6.83
290.053	6.79
290.511	6.76
290.968	6.73
291.425	6.69
291.882	6.65
292.339	6.62
292.796	6.58
293.252	6.55
293.709	6.52
294.166	6.49
294.623	6.47
295.079	6.45
295.536	6.42
295.992	6.4
296.449	6.39
296.905	6.37
297.362	6.35
297.818	6.34
298.274	6.33
298.731	6.31
299.187	6.3
299.643	6.28
300.099	6.27
300.555	6.25
301.011	6.24
301.467	6.23
301.923	6.21
302.379	6.21
302.835	6.2
303.291	6.18
303.746	6.17
304.202	6.16
304.658	6.14
305.113	6.13
305.569	6.12
306.024	6.1
306.479	6.08
306.935	6.07
307.39	6.05
307.845	6.03
308.301	6.02
308.756	6.01
309.211	6
309.666	5.99
310.121	5.98
310.576	5.97
311.031	5.96
311.486	5.96
311.94	5.96
312.395	5.97
312.85	5.96
313.305	5.96
313.759	5.95
314.214	5.94
314.668	5.94
315.123	5.93
315.577	5.93
316.032	5.92
316.486	5.9
316.94	5.89
317.394	5.86
317.849	5.85
318.303	5.83
318.757	5.82
319.211	5.8
319.665	5.79
320.119	5.78
320.572	5.77
321.026	5.76
321.48	5.75
321.934	5.75
322.387	5.73
322.841	5.72
323.295	5.71
323.748	5.69
324.202	5.67
324.655	5.65
325.108	5.63
325.562	5.6
326.015	5.57
326.468	5.55
326.921	5.53
327.374	5.52
327.827	5.51
328.28	5.51
328.733	5.5
329.186	5.49
329.639	5.49
330.092	5.49
330.545	5.49
330.997	5.49
331.45	5.5
331.903	5.49
332.355	5.48
332.808	5.47
333.26	5.46
333.713	5.47
334.165	5.47
334.617	5.46
335.069	5.46
335.522	5.46
335.974	5.46
336.426	5.46
336.878	5.47
337.33	5.46
337.782	5.46
338.234	5.46
338.686	5.45
339.137	5.45
339.589	5.44
340.041	5.44
340.493	5.42
340.944	5.41
341.396	5.39
341.847	5.38
342.299	5.37
342.75	5.34
343.201	5.32
343.653	5.29
344.104	5.27
344.555	5.25
345.006	5.23
345.457	5.21
345.908	5.2
346.359	5.19
346.81	5.18
347.261	5.18
347.712	5.17
348.163	5.17
348.613	5.17
349.064	5.15
349.515	5.14
349.965	5.13
350.416	5.13
350.866	5.11
351.317	5.09
351.767	5.09
352.217	5.08
352.668	5.07
353.118	5.08
353.568	5.08
354.018	5.09
354.468	5.08
354.918	5.09
355.368	5.1
355.818	5.1
356.268	5.12
356.718	5.11
357.168	5.11
357.617	5.1
358.067	5.09
358.517	5.08
358.966	5.09
359.416	5.1
359.865	5.11
360.315	5.1
360.764	5.09
361.213	5.08
361.663	5.08
362.112	5.1
362.561	5.1
363.01	5.1
363.459	5.09
363.908	5.08
364.357	5.08
364.806	5.08
365.255	5.08
365.703	5.07
366.152	5.07
366.601	5.07
367.05	5.08
367.498	5.08
367.947	5.08
368.395	5.09
368.844	5.09
369.292	5.09
369.74	5.09
370.189	5.1
370.637	5.1
371.085	5.12
371.533	5.12
371.981	5.12
372.429	5.11
372.877	5.12
373.325	5.13
373.773	5.14
374.221	5.15
374.669	5.16
375.116	5.17
375.564	5.19
376.012	5.19
376.459	5.22
376.907	5.24
377.354	5.27
377.801	5.3
378.249	5.32
378.696	5.35
379.143	5.38
379.591	5.41
380.038	5.45
380.485	5.49
380.932	5.53
381.379	5.56
381.826	5.6
382.273	5.64
382.72	5.67
383.166	5.72
383.613	5.76
384.06	5.81
384.506	5.86
384.953	5.89
385.4	5.94
385.846	5.99
386.292	6.04
386.739	6.08
387.185	6.15
387.631	6.21
388.078	6.27
388.524	6.31
388.97	6.36
389.416	6.4
389.862	6.46
390.308	6.5
390.754	6.56
391.2	6.62
391.645	6.69
392.091	6.72
392.537	6.77
392.983	6.83
393.428	6.89
393.874	6.96
394.319	7.02
394.765	7.07
395.21	7.11
395.655	7.14
396.101	7.17
396.546	7.19
396.991	7.23
397.436	7.26
397.881	7.29
398.326	7.33
398.771	7.37
399.216	7.41
399.661	7.46
400.106	7.5
400.551	7.53
400.995	7.54
401.44	7.55
401.885	7.56
402.329	7.58
402.774	7.57
403.218	7.57
403.663	7.57
404.107	7.58
404.551	7.58
404.995	7.57
405.44	7.58
405.884	7.6
406.328	7.61
406.772	7.62
407.216	7.64
407.66	7.66
408.104	7.67
408.547	7.68
408.991	7.66
409.435	7.67
409.879	7.67
410.322	7.69
410.766	7.69
411.209	7.71
411.653	7.69
412.096	7.69
412.54	7.69
412.983	7.71
413.426	7.71
413.869	7.73
414.312	7.74
414.756	7.76
415.199	7.75
415.642	7.78
416.085	7.81
416.527	7.83
416.97	7.84
417.413	7.83
417.856	7.8
418.298	7.79
418.741	7.78
419.184	7.76
419.626	7.75
420.069	7.75
420.511	7.72
420.953	7.7
421.396	7.7
421.838	7.7
422.28	7.72
422.722	7.74
423.164	7.75
423.606	7.77
424.048	7.77
424.49	7.78
424.932	7.77
425.374	7.77
425.816	7.74
426.258	7.72
426.699	7.69
427.141	7.67
427.582	7.65
428.024	7.64
428.465	7.63
428.907	7.66
429.348	7.65
429.789	7.65
430.231	7.65
430.672	7.68
431.113	7.71
431.554	7.73
431.995	7.75
432.436	7.75
432.877	7.76
433.318	7.76
433.759	7.77
434.2	7.77
434.64	7.81
435.081	7.82
435.522	7.84
435.962	7.87
436.403	7.9
436.843	7.93
437.284	7.99
437.724	8.04
438.164	8.07
438.604	8.09
439.045	8.13
439.485	8.17
439.925	8.21
440.365	8.23
440.805	8.25
441.245	8.28
441.685	8.32
442.125	8.33
442.564	8.35
443.004	8.4
443.444	8.46
443.883	8.5
444.323	8.52
444.762	8.59
445.202	8.65
445.641	8.73
446.081	8.79
446.52	8.83
446.959	8.9
447.398	9
447.837	9.07
448.276	9.12
448.716	9.18
449.154	9.28
449.593	9.31
450.032	9.35
450.471	9.38
450.91	9.41
451.349	9.45
451.787	9.45
452.226	9.44
452.664	9.45
453.103	9.46
453.541	9.48
453.98	9.47
454.418	9.48
454.856	9.47
455.295	9.47
455.733	9.47
456.171	9.46
456.609	9.49
457.047	9.5
457.485	9.52
457.923	9.52
458.361	9.51
458.798	9.51
459.236	9.53
459.674	9.54
460.111	9.55
460.549	9.55
460.987	9.57
461.424	9.57
461.862	9.58
462.299	9.57
462.736	9.57
463.173	9.57
463.611	9.58
464.048	9.58
464.485	9.58
464.922	9.58
465.359	9.61
465.796	9.6
466.233	9.61
466.67	9.62
467.106	9.63
467.543	9.64
467.98	9.67
468.416	9.68
468.853	9.69
469.29	9.7
469.726	9.72
470.162	9.7
470.599	9.72
471.035	9.73
471.471	9.74
471.907	9.76
472.344	9.79
472.78	9.8
473.216	9.8
473.652	9.81
474.088	9.82
474.523	9.84
474.959	9.85
475.395	9.85
475.831	9.86
476.266	9.85
476.702	9.84
477.138	9.82
477.573	9.81
478.008	9.8
478.444	9.8
478.879	9.8
479.314	9.79
479.75	9.81
480.185	9.8
480.62	9.78
481.055	9.78
481.49	9.78
481.925	9.79
482.36	9.79
482.795	9.79
483.229	9.8
483.664	9.8
484.099	9.81
484.534	9.8
484.968	9.82
485.403	9.85
485.837	9.88
486.271	9.9
486.706	9.92
487.14	9.97
487.574	10.01
488.009	10.05
488.443	10.09
488.877	10.13
489.311	10.19
489.745	10.25
490.179	10.31
490.613	10.36
491.046	10.44
491.48	10.52
491.914	10.59
492.348	10.67
492.781	10.75
493.215	10.84
493.648	10.95
494.082	11.05
494.515	11.15
494.948	11.28
495.382	11.39
495.815	11.52
496.248	11.65
496.681	11.78
497.114	11.91
497.547	12.06
497.98	12.22
498.413	12.38
498.846	12.55
499.279	12.73
499.711	12.89
500.144	13.07
500.577	13.27
501.009	13.47
501.442	13.69
501.874	13.93
502.306	14.17
502.739	14.41
503.171	14.65
503.603	14.9
504.036	15.17
504.468	15.45
504.9	15.75
505.332	16.05
505.764	16.36
506.196	16.67
506.627	16.99
507.059	17.33
507.491	17.67
507.923	18.04
508.354	18.41
508.786	18.78
509.217	19.14
509.649	19.51
510.08	19.91
510.512	20.29
510.943	20.69
511.374	21.08
511.805	21.46
512.237	21.86
512.668	22.26
513.099	22.69
513.53	23.12
513.961	23.56
514.391	23.98
514.822	24.42
515.253	24.85
515.684	25.28
516.114	25.73
516.545	26.18
516.975	26.63
517.406	27.07
517.836	27.47
518.267	27.91
518.697	28.35
519.127	28.78
519.558	29.18
519.988	29.59
520.418	30.01
520.848	30.4
521.278	30.8
521.708	31.09
522.138	31.45
522.567	31.83
522.997	32.18
523.427	32.54
523.857	32.87
524.286	33.2
524.716	33.52
525.145	33.84
525.575	34.17
526.004	34.46
526.433	34.85
526.863	35.13
527.292	35.39
527.721	35.66
528.15	35.88
528.579	36.14
529.008	36.38
529.437	36.63
529.866	36.83
530.295	37.03
530.724	37.23
531.152	37.43
531.581	37.63
532.01	37.81
532.438	37.97
532.867	38.17
533.295	38.33
533.723	38.49
534.152	38.62
534.58	38.74
535.008	38.84
535.436	38.98
535.865	39.09
536.293	39.2
536.721	39.29
537.149	39.4
537.576	39.48
538.004	39.56
538.432	39.64
538.86	39.71
539.287	39.8
539.715	39.88
540.143	39.93
540.57	40
540.998	40.07
541.425	40.13
541.852	40.19
542.28	40.24
542.707	40.29
543.134	40.33
543.561	40.36
543.988	40.43
544.415	40.48
544.842	40.51
545.269	40.55
545.696	40.56
546.123	40.62
546.549	40.64
546.976	40.69
547.403	40.7
547.829	40.75
548.256	40.79
548.682	40.78
549.108	40.83
549.535	40.88
549.961	40.91
550.387	40.95
550.813	40.95
551.24	40.97
551.666	40.97
552.092	41
552.518	41
552.943	41.01
553.369	41.03
553.795	41
554.221	40.98
554.646	40.94
555.072	40.92
555.498	40.88
555.923	40.86
556.349	40.81
556.774	40.77
557.199	40.71
557.625	40.65
558.05	40.62
558.475	40.55
558.9	40.5
559.325	40.45
559.75	40.34
560.175	40.28
560.6	40.17
561.025	40.06
561.449	39.93
561.874	39.83
562.299	39.7
562.723	39.55
563.148	39.44
563.572	39.3
563.997	39.18
564.421	39.06
564.846	38.91
565.27	38.8
565.694	38.65
566.118	38.52
566.542	38.37
566.966	38.23
567.39	38.06
567.814	37.88
568.238	37.68
568.662	37.5
569.086	37.31
569.509	37.13
569.933	36.94
570.357	36.74
570.78	36.53
571.204	36.33
571.627	36.13
572.05	35.96
572.474	35.78
572.897	35.61
573.32	35.42
573.743	35.25
574.166	35.06
574.589	34.87
575.012	34.72
575.435	34.56
575.858	34.42
576.281	34.27
576.704	34.11
577.126	33.97
577.549	33.85
577.972	33.75
578.394	33.61
578.817	33.51
579.239	33.42
579.661	33.31
580.084	33.21
580.506	33.11
580.928	33.01
581.35	32.94
581.772	32.88
582.194	32.76
582.616	32.66
583.038	32.57
583.46	32.47
583.882	32.38
584.303	32.29
584.725	32.21
585.147	32.1
585.568	32.01
585.99	31.9
586.411	31.8
586.833	31.71
587.254	31.61
587.675	31.54
588.096	31.48
588.518	31.4
588.939	31.34
589.36	31.26
589.781	31.19
590.202	31.13
590.623	31.07
591.043	31.02
591.464	30.96
591.885	30.94
592.305	30.89
592.726	30.81
593.147	30.76
593.567	30.7
593.987	30.68
594.408	30.64
594.828	30.59
595.248	30.56
595.669	30.51
596.089	30.46
596.509	30.4
596.929	30.34
597.349	30.29
597.769	30.24
598.189	30.18
598.608	30.12
599.028	30.07
599.448	30.02
599.867	29.95
600.287	29.89
600.706	29.84
601.126	29.77
601.545	29.7
601.965	29.64
602.384	29.58
602.803	29.5
603.222	29.4
603.641	29.32
604.061	29.22
604.48	29.11
604.898	29
605.317	28.88
605.736	28.77
606.155	28.66
606.574	28.54
606.992	28.41
607.411	28.28
607.829	28.13
608.248	28.01
608.666	27.89
609.085	27.77
609.503	27.64
609.921	27.52
610.339	27.41
610.758	27.32
611.176	27.21
611.594	27.11
612.012	26.98
612.43	26.91
612.847	26.79
613.265	26.7
613.683	26.58
614.101	26.47
614.518	26.36
614.936	26.24
615.353	26.11
615.771	26
616.188	25.89
616.606	25.8
617.023	25.7
617.44	25.6
617.857	25.5
618.274	25.42
618.691	25.35
619.108	25.25
619.525	25.18
619.942	25.11
620.359	25.06
620.776	24.99
621.192	24.96
621.609	24.91
622.026	24.86
622.442	24.81
622.859	24.78
623.275	24.77
623.691	24.76
624.108	24.74
624.524	24.73
624.94	24.7
625.356	24.67
625.772	24.65
626.188	24.65
626.604	24.62
627.02	24.61
627.436	24.58
627.852	24.55
628.268	24.54
628.683	24.51
629.099	24.5
629.514	24.46
629.93	24.44
630.345	24.38
630.761	24.34
631.176	24.31
631.591	24.25
632.007	24.19
632.422	24.13
632.837	24.04
633.252	23.96
633.667	23.86
634.082	23.77
634.497	23.65
634.911	23.53
635.326	23.37
635.741	23.21
636.155	23.06
636.57	22.89
636.984	22.67
637.399	22.49
637.813	22.29
638.228	22.07
638.642	21.86
639.056	21.65
639.47	21.44
639.884	21.23
640.298	21.01
640.712	20.78
641.126	20.55
641.54	20.32
641.954	20.09
642.368	19.85
642.781	19.63
643.195	19.39
643.609	19.17
644.022	18.93
644.436	18.71
644.849	18.5
645.262	18.29
645.676	18.09
646.089	17.9
646.502	17.72
646.915	17.54
647.328	17.38
647.741	17.24
648.154	17.09
648.567	16.97
648.98	16.86
649.393	16.75
649.805	16.63
650.218	16.53
650.631	16.44
651.043	16.35
651.456	16.28
651.868	16.19
652.28	16.1
652.693	15.99
653.105	15.89
653.517	15.77
653.929	15.65
654.341	15.54
654.753	15.43
655.165	15.3
655.577	15.15
655.989	14.99
656.401	14.82
656.813	14.65
657.224	14.51
657.636	14.33
658.047	14.15
658.459	13.96
658.87	13.78
659.282	13.6
659.693	13.39
660.104	13.2
660.515	13
660.926	12.82
661.338	12.62
661.749	12.41
662.159	12.21
662.57	12.03
662.981	11.86
663.392	11.68
663.803	11.5
664.213	11.33
664.624	11.19
665.035	11.03
665.445	10.88
665.855	10.74
666.266	10.61
666.676	10.49
667.086	10.38
667.497	10.26
667.907	10.16
668.317	10.05
668.727	9.99
669.137	9.92
669.547	9.88
669.956	9.83
670.366	9.79
670.776	9.76
671.186	9.73
671.595	9.71
672.005	9.69
672.414	9.68
672.824	9.68
673.233	9.68
673.642	9.66
674.052	9.66
674.461	9.66
674.87	9.66
675.279	9.67
675.688	9.69
676.097	9.73
676.506	9.77
676.915	9.82
677.323	9.89
677.732	9.96
678.141	10.05
678.549	10.13
678.958	10.24
679.366	10.38
679.775	10.51
680.183	10.68
680.592	10.86
681	11.07
681.408	11.29
681.816	11.54
682.224	11.83
682.632	12.16
683.04	12.51
683.448	12.89
683.856	13.32
684.264	13.79
684.671	14.27
685.079	14.8
685.487	15.37
685.894	16
686.302	16.65
686.709	17.32
687.116	18.03
687.524	18.79
687.931	19.56
688.338	20.37
688.745	21.19
689.152	22.08
689.559	22.96
689.966	23.82
690.373	24.72
690.78	25.61
691.187	26.52
691.593	27.42
692	28.31
692.407	29.22
692.813	30.11
693.22	30.98
693.626	31.83
694.032	32.69
694.439	33.58
694.845	34.38
695.251	35.21
695.657	36.02
696.063	36.81
696.469	37.58
696.875	38.31
697.281	39.03
697.687	39.78
698.093	40.47
698.498	41.16
698.904	41.81
699.31	42.46
699.715	43.1
700.12	43.69
700.526	44.29
700.931	44.86
701.337	45.43
701.742	45.96
702.147	46.46
702.552	46.98
702.957	47.46
703.362	47.93
703.767	48.38
704.172	48.82
704.577	49.27
704.981	49.66
705.386	50.06
705.791	50.47
706.195	50.86
706.6	51.25
707.004	51.6
707.408	51.96
707.813	52.28
708.217	52.64
708.621	52.97
709.025	53.28
709.43	53.59
709.834	53.88
710.237	54.14
710.641	54.46
711.045	54.75
711.449	55.02
711.853	55.31
712.256	55.61
712.66	55.87
713.064	56.08
713.467	56.32
713.87	56.58
714.274	56.86
714.677	57.1
715.08	57.26
715.484	57.48
715.887	57.66
716.29	57.83
716.693	57.99
717.096	58.15
717.499	58.35
717.901	58.51
718.304	58.68
718.707	58.81
719.109	58.97
719.512	59.21
719.915	59.33
720.317	59.51
720.719	59.65
721.122	59.79
721.524	59.96
721.926	60.14
722.328	60.3
722.731	60.48
723.133	60.63
723.535	60.77
723.937	60.88
724.338	61.01
724.74	61.14
725.142	61.26
725.544	61.35
725.945	61.46
726.347	61.57
726.748	61.62
727.15	61.66
727.551	61.75
727.952	61.81
728.354	61.87
728.755	61.96
729.156	62.03
729.557	62.11
729.958	62.2
730.359	62.27
730.76	62.27
731.161	62.35
731.562	62.45
731.962	62.53
732.363	62.61
732.763	62.67
733.164	62.74
733.564	62.79
733.965	62.81
734.365	62.83
734.766	62.86
735.166	62.89
735.566	62.94
735.966	62.9
736.366	62.88
736.766	62.87
737.166	62.9
737.566	62.91
737.966	62.96
738.365	63
738.765	63.06
739.165	63.07
739.564	63.1
739.964	63.08
740.363	63.15
740.763	63.15
741.162	63.17
741.561	63.17
741.96	63.2
742.36	63.18
742.759	63.16
743.158	63.09
743.557	63.14
743.955	63.18
744.354	63.23
744.753	63.27
745.152	63.29
745.55	63.32
745.949	63.33
746.348	63.33
746.746	63.34
747.144	63.4
747.543	63.43
747.941	63.45
748.339	63.51
748.737	63.53
749.136	63.51
749.534	63.57
749.932	63.58
750.33	63.61
750.727	63.6
751.125	63.63
751.523	63.64
751.921	63.72
752.318	63.71
752.716	63.66
753.113	63.68
753.511	63.67
753.908	63.64
754.305	63.63
754.703	63.62
755.1	63.63
755.497	63.62
755.894	63.6
756.291	63.55
756.688	63.53
757.085	63.5
757.482	63.47
757.878	63.48
758.275	63.48
758.672	63.53
759.068	63.52
759.465	63.49
759.861	63.48
760.258	63.5
760.654	63.52
761.05	63.51
761.447	63.48
761.843	63.45
762.239	63.41
762.635	63.41
763.031	63.34
763.427	63.32
763.822	63.3
764.218	63.27
764.614	63.24
765.01	63.17
765.405	63.14
765.801	63.13
766.196	63.13
766.592	63.15
766.987	63.13
767.382	63.16
767.778	63.17
768.173	63.16
768.568	63.15
768.963	63.12
769.358	63.15
769.753	63.18
770.148	63.19
770.542	63.2
770.937	63.16
771.332	63.15
771.726	63.11
772.121	63.04
772.515	63.02
772.91	63.01
773.304	63.01
773.699	62.99
774.093	62.95
774.487	62.97
774.881	62.96
775.275	62.99
775.669	63
776.063	62.98
776.457	63
776.851	63.03
777.245	63.05
777.638	63.06
778.032	63.11
778.425	63.11
778.819	63.1
779.212	63.11
779.606	63.09
779.999	63.07
780.392	63.08
780.786	63.09
781.179	63.09
781.572	63.08
781.965	63.08
782.358	63.03
782.751	63.06
783.143	63.06
783.536	63.06
783.929	63.08
784.322	63.12
784.714	63.1
785.107	63.15
785.499	63.15
785.891	63.17
786.284	63.16
786.676	63.19
787.068	63.18
787.46	63.18
787.852	63.18
788.245	63.19
788.636	63.21
789.028	63.26
789.42	63.21
789.812	63.21
790.204	63.18
790.595	63.19
790.987	63.18
791.378	63.16
791.77	63.18
792.161	63.19
792.553	63.16
792.944	63.18
793.335	63.15
793.726	63.14
794.117	63.14
794.508	63.14
794.899	63.16
795.29	63.14
795.681	63.16
796.072	63.18
796.463	63.19
796.853	63.22
797.244	63.18
797.634	63.21
798.025	63.28
798.415	63.27
798.806	63.31
799.196	63.36
799.586	63.38
799.976	63.38
800.366	63.36
800.756	63.31
801.146	63.33
801.536	63.36
801.926	63.3
802.316	63.28
802.706	63.31
803.095	63.32
803.485	63.28
803.874	63.26
804.264	63.32
804.653	63.34
805.043	63.39
805.432	63.36
805.821	63.36
806.21	63.42
806.599	63.49
806.988	63.49
807.377	63.54
807.766	63.56
808.155	63.61
808.544	63.58
808.933	63.57
809.321	63.6
809.71	63.66
810.098	63.67
810.487	63.66
810.875	63.61
811.264	63.62
811.652	63.6
812.04	63.58
812.428	63.59
812.816	63.63
813.204	63.67
813.592	63.68
813.98	63.67
814.368	63.66
814.756	63.68
815.144	63.68
815.531	63.7
815.919	63.71
816.306	63.76
816.694	63.77
817.081	63.73
817.469	63.77
817.856	63.8
818.243	63.84
818.63	63.88
819.017	63.92
819.404	63.97
819.791	63.97
820.178	63.97
820.565	63.97
820.952	63.97
821.339	64.04
821.725	64.02
822.112	64.03
822.498	64.02
822.885	64.04
823.271	64.05
823.657	64.03
824.044	64.04
824.43	64.07
824.816	64.1
825.202	64.11
825.588	64.13
825.974	64.13
826.36	64.12
826.746	64.15
827.132	64.14
827.517	64.13
827.903	64.15
828.289	64.19
828.674	64.14
829.06	64.16
829.445	64.18
829.83	64.16
830.216	64.18
830.601	64.18
830.986	64.18
831.371	64.23
831.756	64.22
832.141	64.23
832.526	64.19
832.911	64.25
833.295	64.25
833.68	64.23
834.065	64.22
834.449	64.2
834.834	64.2
835.218	64.16
835.603	64.14
835.987	64.13
836.371	64.13
836.755	64.13
837.139	64.09
837.524	64.1
837.908	64.08
838.291	64.07
838.675	64.07
839.059	64.08
839.443	64.09
839.827	64.05
840.21	64.07
840.594	64.05
840.977	64.04
841.361	64.06
841.744	64.04
842.127	64.06
842.511	64.02
842.894	64.02
843.277	63.99
843.66	63.98
844.043	64.02
844.426	63.98
844.809	63.96
845.191	63.93
845.574	63.92
845.957	63.86
846.339	63.85
846.722	63.87
847.104	63.87
847.487	63.89
847.869	63.88
848.252	63.87
848.634	63.9
849.016	63.92
849.398	63.97
849.78	63.95
850.162	64
850.544	64
850.926	64
851.307	64.02
851.689	63.99
852.071	63.96
852.452	63.97
852.834	63.94
853.215	63.94
853.597	63.93
853.978	63.92
854.359	63.92
854.741	63.9
855.122	63.9
855.503	63.89
855.884	63.9
856.265	63.93
856.646	63.93
857.026	63.94
857.407	63.89
857.788	63.89
858.169	63.89
858.549	63.92
858.93	63.93
859.31	63.9
859.69	63.87
860.071	63.84
860.451	63.84
860.831	63.83
861.211	63.81
861.591	63.86
861.971	63.84
862.351	63.87
862.731	63.82
863.111	63.84
863.491	63.86
863.87	63.89
864.25	63.93
864.629	63.91
865.009	63.9
865.388	63.9
865.768	63.89
866.147	63.9
866.526	63.88
866.905	63.91
867.284	63.9
867.663	63.91
868.042	63.92
868.421	63.92
868.8	63.94
869.179	63.96
869.558	63.93
869.936	63.96
870.315	63.96
870.693	63.96
871.072	63.94
871.45	63.92
871.828	63.91
872.207	63.93
872.585	63.91
872.963	63.89
873.341	63.9
873.719	63.95
874.097	63.93
874.475	63.91
874.853	63.9
875.23	63.92
875.608	63.95
875.986	63.95
876.363	63.92
876.741	63.93
877.118	63.94
877.495	63.93
877.873	63.91
878.25	63.87
878.627	63.87
879.004	63.89
879.381	63.87
879.758	63.85
880.135	63.87
880.512	63.85
880.889	63.83
881.265	63.85
881.642	63.83
882.019	63.83
882.395	63.89
882.772	63.89
883.148	63.85
883.524	63.82
883.901	63.83
884.277	63.79
884.653	63.8
885.029	63.81
885.405	63.79
885.781	63.76
886.157	63.75
886.532	63.72
886.908	63.7
887.284	63.71
887.659	63.72
888.035	63.7
888.411	63.68
888.786	63.69
889.161	63.67
889.537	63.65
889.912	63.66
890.287	63.63
890.662	63.64
891.037	63.63
891.412	63.62
891.787	63.6
892.162	63.58
892.536	63.61
892.911	63.56
893.286	63.57
893.66	63.57
894.035	63.57
894.409	63.56
894.784	63.52
895.158	63.54
895.532	63.52
895.906	63.5
896.281	63.48
896.655	63.45
897.029	63.44
897.402	63.43
897.776	63.44
898.15	63.44
898.524	63.42
898.898	63.41
899.271	63.37
899.645	63.34
900.018	63.32
900.392	63.31
900.765	63.33
901.138	63.38
901.511	63.35
901.884	63.32
902.258	63.31
902.631	63.33
903.003	63.3
903.376	63.29
903.749	63.33
904.122	63.37
904.495	63.38
904.867	63.33
905.24	63.24
905.612	63.2
905.985	63.15
906.357	63.11
906.729	63.1
907.102	63.1
907.474	63.1
907.846	63.08
908.218	63.05
908.59	63.03
908.962	63.05
909.334	63.07
909.705	63.09
910.077	63.11
910.449	63.13
910.82	63.12
911.192	63.1
911.563	63.08
911.935	63.05
912.306	63.02
912.677	63.01
913.048	63.01
913.419	62.99
913.79	62.99
914.161	62.97
914.532	62.94
914.903	62.96
915.274	62.95
915.645	62.93
916.015	62.93
916.386	62.92
916.756	62.88
917.127	62.86
917.497	62.87
917.868	62.84
918.238	62.89
918.608	62.9
918.978	62.84
919.348	62.81
919.718	62.83
920.088	62.86
920.458	62.9
920.828	62.94
921.198	62.94
921.567	62.93
921.937	62.95
922.306	62.91
922.676	62.87
923.045	62.87
923.415	62.91
923.784	62.94
924.153	62.91
924.522	62.9
924.891	62.83
925.26	62.78
925.629	62.83
925.998	62.81
926.367	62.79
926.736	62.75
927.104	62.82
927.473	62.84
927.842	62.75
928.21	62.77
928.578	62.72
928.947	62.75
929.315	62.74
929.683	62.7
930.051	62.71
930.42	62.68
930.788	62.68
931.156	62.59
931.523	62.53
931.891	62.53
932.259	62.44
932.627	62.4
932.994	62.34
933.362	62.31
933.729	62.18
934.097	62.13
934.464	62.07
934.831	62.05
935.199	62.05
935.566	61.93
935.933	61.98
936.3	61.9
936.667	61.84
937.034	61.79
937.401	61.77
937.767	61.86
938.134	61.8
938.501	61.78
938.867	61.81
939.234	61.81
939.6	61.88
939.967	61.76
940.333	61.91
940.699	61.99
941.065	62.06
941.431	62.12
941.798	62.15
942.163	62.24
942.529	62.32
942.895	62.31
943.261	62.36
943.627	62.43
943.992	62.45
944.358	62.45
944.723	62.41
945.089	62.49
945.454	62.59
945.82	62.59
946.185	62.55
946.55	62.6
946.915	62.64
947.28	62.59
947.645	62.58
948.01	62.48
948.375	62.43
948.74	62.36
949.104	62.3
949.469	62.09
949.834	62.03
950.198	61.99
950.562	61.93
950.927	61.83
951.291	61.77
951.655	61.71
952.02	61.71
952.384	61.78
952.748	61.83
953.112	61.87
953.476	61.93
953.839	61.91
954.203	61.83
954.567	61.77
954.931	61.77
955.294	61.78
955.658	61.72
956.021	61.81
956.385	61.74
956.748	61.75
957.111	61.68
957.474	61.66
957.837	61.71
958.2	61.68
958.563	61.68
958.926	61.63
959.289	61.66
959.652	61.68
960.015	61.6
960.377	61.59
960.74	61.56
961.102	61.55
961.465	61.59
961.827	61.51
962.189	61.57
962.552	61.52
962.914	61.51
963.276	61.5
963.638	61.5
964	61.45
964.362	61.46
964.724	61.39
965.085	61.39
965.447	61.32
965.809	61.26
966.17	61.18
966.532	61.17
966.893	61.11
967.255	61.06
967.616	61.03
967.977	61.03
968.338	60.96
968.699	60.95
969.061	60.91
969.421	60.82
969.782	60.84
970.143	60.9
970.504	60.85
970.865	60.83
971.225	60.8
971.586	60.79
971.946	60.78
972.307	60.73
972.667	60.75
973.027	60.71
973.388	60.73
973.748	60.79
974.108	60.66
974.468	60.71
974.828	60.72
975.188	60.71
975.548	60.72
975.907	60.62
976.267	60.62
976.627	60.61
976.986	60.56
977.346	60.6
977.705	60.58
978.064	60.64
978.424	60.56
978.783	60.56
979.142	60.47
979.501	60.41
979.86	60.47
980.219	60.37
980.578	60.35
980.937	60.42
981.296	60.46
981.654	60.46
982.013	60.42
982.371	60.37
982.73	60.37
983.088	60.34
983.447	60.41
983.805	60.36
984.163	60.44
984.521	60.27
984.879	60.17
985.237	60.11
985.595	60.1
985.953	60.15
986.311	60.33
986.669	60.34
987.026	60.42
987.384	60.41
987.741	60.49
988.099	60.48
988.456	60.58
988.814	60.64
989.171	60.52
989.528	60.41
989.885	60.32
990.242	60.25
990.599	60.17
990.956	60.07
991.313	60.1
991.67	60.06
992.027	60.04
992.383	59.93
992.74	59.79
993.096	59.81
993.453	59.8
993.809	59.81
994.165	59.77
994.522	59.81
994.878	59.81
995.234	59.75
995.59	59.65
995.946	59.69
996.302	59.72
996.658	59.75
997.013	59.7
997.369	59.72
997.725	59.75
998.08	59.73
998.436	59.72
998.791	59.78
999.147	59.72
999.502	59.76
999.857	59.76
1000.212	59.78
1000.567	59.85
1000.922	59.93
1001.277	59.82
1001.632	59.79
1001.987	59.68
1002.342	59.64
1002.696	59.79
1003.051	59.66
1003.406	59.68
1003.76	59.51
1004.114	59.61
1004.469	59.48
1004.823	59.45
1005.177	59.59
1005.531	59.47
1005.885	59.54
1006.239	59.48
1006.593	59.25
1006.947	59.3
1007.301	59.25
1007.655	59.42
1008.008	59.28
1008.362	59.43
1008.715	59.25
1009.069	59.12
1009.422	59.14
1009.776	59.13
1010.129	58.96
1010.482	59.12
1010.835	59.32
1011.188	59.29
1011.541	58.93
1011.894	58.77
1012.247	58.59
1012.6	58.76
1012.952	58.6
1013.305	58.37
1013.657	58.34
1014.01	58.48
1014.362	58.17
1014.715	57.99
1015.067	58.15
1015.419	58.53
1015.771	58.76
1016.123	58.95
1016.475	59.16
1016.827	59.34
1017.179	59.53
1017.531	59.35
1017.883	59.48
1018.234	59.81
1018.586	59.64
1018.938	59.35
1019.289	59.06
1019.64	59.14
1019.992	59.05
1020.343	58.53
1020.694	58.34
1021.045	58.65
1021.396	58.72
1021.747	58.5
1022.098	58.14
1022.449	58.03
1022.8	57.97
1023.151	57.84
1023.501	57.73
1023.852	57.57
1024.202	57.72
1024.553	57.83
1024.903	57.32
1025.253	57.61
1025.604	57.46
1025.954	57.2
1026.304	57.54
1026.654	57.71
1027.004	58.18
1027.354	57.91
1027.703	57.48
1028.053	56.85
1028.403	56.43
1028.753	56.44
1029.102	56.04
1029.452	56.11
1029.801	56.36
1030.15	56.04
1030.499	55.71
897.758	855.37
901.051	864.4
904.343	873.17
907.636	862.4
910.928	844.26
914.22	860.38
917.511	844.8
920.803	811.97
924.094	773.78
927.384	779.61
930.675	755.63
933.965	748.19
937.255	750.24
940.544	718.13
943.834	678.75
947.123	670.68
950.411	634.52
953.7	622.06
956.988	604.57
960.276	575.08
963.563	567.03
966.851	535.47
970.138	525.76
973.424	487.36
976.711	480.96
979.997	469.13
983.283	458.62
986.568	442.76
989.853	428.48
993.138	411.14
996.423	410.86
999.708	397.2
1002.992	398.59
1006.275	386.51
1009.559	384.3
1012.842	372.41
1016.125	358.33
1019.408	351.58
1022.69	348.36
1025.972	346.26
1029.254	337.64
1032.536	330.13
1035.817	319.46
1039.098	314.07
1042.379	307.29
1045.659	302.5
1048.939	300.95
1052.219	297.23
1055.498	290.83
1058.778	285.09
1062.057	280.22
1065.335	278.83
1068.614	273.95
1071.892	270.76
1075.17	265.61
1078.447	262.57
1081.724	260.19
1085.001	254.55
1088.278	253.27
1091.554	253.15
1094.83	252.48
1098.106	247.72
1101.382	246.64
1104.657	245.4
1107.932	245.01
1111.206	243.65
1114.481	241.53
1117.755	239.01
1121.029	238.36
1124.302	234.85
1127.575	230.04
1130.848	229
1134.121	225.75
1137.393	225
1140.665	223.08
1143.937	220.57
1147.208	217.13
1150.48	214.16
1153.75	213.88
1157.021	210.82
1160.291	210.36
1163.561	210.93
1166.831	208.17
1170.101	209.12
1173.37	206.4
1176.639	204.69
1179.907	204.64
1183.176	204.65
1186.444	205.45
1189.711	203.9
1192.979	206.77
1196.246	207.19
1199.513	205.12
1202.78	206.44
1206.046	205.84
1209.312	207.9
1212.578	209.2
1215.843	211.55
1219.108	213.12
1222.373	215.91
1225.638	219.79
1228.902	224.45
1232.166	229.99
1235.43	235.76
1238.693	241.72
1241.956	247.58
1245.219	254.59
1248.482	255.18
1251.744	255.09
1255.006	254.46
1258.268	249.64
1261.529	247.33
1264.79	240.11
1268.051	235.93
1271.312	232.47
1274.572	227.77
1277.832	221.04
1281.092	217.7
1284.351	214.12
1287.61	213.57
1290.869	213.07
1294.128	211.5
1297.386	209.85
1300.644	208.85
1303.902	208.53
1307.159	206.91
1310.416	208.68
1313.673	212.71
1316.93	213.38
1320.186	216.38
1323.442	219.27
1326.697	223.95
1329.953	226.5
1333.208	233.91
1336.463	244.59
1339.717	248.21
1342.972	261.68
1346.226	267.75
1349.479	269.63
1352.733	281.84
1355.986	288.26
1359.238	294.44
1362.491	297.43
1365.743	308.91
1368.995	310.15
1372.247	306.88
1375.498	307.4
1378.749	316.7
1382	315.83
1385.251	316.11
1388.501	314.63
1391.751	319.95
1395	317.69
1398.25	320.08
1401.499	317.38
1404.748	318.53
1407.996	313.87
1411.244	313.79
1414.492	307.33
1417.74	300.62
1420.987	292.97
1424.234	288.34
1427.481	276.54
1430.728	270.65
1433.974	259.89
1437.22	251.73
1440.465	244.05
1443.711	236.4
1446.956	229.73
1450.201	220.63
1453.445	211.16
1456.689	204.46
1459.933	197.76
1463.177	190.03
1466.42	185.47
1469.663	180.2
1472.906	175.12
1476.148	169.89
1479.391	165.78
1482.633	162.93
1485.874	159.88
1489.115	157.72
1492.356	156.03
1495.597	153.8
1498.838	152.64
1502.078	150.97
1505.318	150.8
1508.557	150.09
1511.797	148.05
1515.036	147.95
1518.274	147.16
1521.513	145.77
1524.751	145.29
1527.989	145.51
1531.227	144.87
1534.464	144.63
1537.701	143.11
1540.938	142.22
1544.174	141.89
1547.41	141.86
1550.646	141.37
1553.882	140.84
1557.117	139.96
1560.352	139.26
1563.587	138.3
1566.821	138.04
1570.055	136.73
1573.289	136.99
1576.523	137.29
1579.756	136.29
1582.989	137.01
1586.222	135.99
1589.454	135.17
1592.686	135.59
1595.918	135.23
1599.15	134.62
1602.381	135.36
1605.612	135.63
1608.843	135.48
1612.073	135.34
1615.303	135.53
1618.533	134.81
1621.762	136.07
1624.992	136.64
1628.221	136.25
1631.449	136.77
1634.678	136.69
1637.906	136.01
1641.134	136.46
1644.361	136.59
1647.588	136.62
1650.815	136.87
1654.042	137
1657.269	136.08
1660.495	136.74
1663.72	135.77
1666.946	136.86
1670.171	137.65
1673.396	138.04
1676.621	138.46
1679.845	138.4
1683.069	138.66
1686.293	138.44
1689.517	138.67
1692.74	139.37
1695.963	139.04
1699.185	141.27
1702.408	140.02
1705.63	140.18
1708.852	141
1712.073	140.29
1715.294	140.36
1718.515	140.17
1721.736	140.63
1724.956	141.01
1728.176	140.74
1731.396	142.18
1734.616	142.06
1737.835	142.74
1741.054	142.54
1744.272	142.19
1747.491	143.13
1750.709	143.69
1753.927	144.67
1757.144	144.39
1760.361	145.01
1763.578	145.78
1766.795	145.7
1770.011	145.66
1773.227	146.48
1776.443	147.85
1779.658	148.82
1782.874	149.17
1786.089	149.9
1789.303	149.97
1792.518	152.08
1795.732	152.67
1798.945	154.41
1802.159	154.27
1805.372	156.76
1808.585	157.58
1811.797	158.52
1815.01	159.11
1818.222	160.51
1821.434	161.16
1824.645	162.68
1827.856	164.32
1831.067	165.57
1834.278	166.54
1837.488	168.2
1840.698	169.45
1843.908	169.82
1847.117	172.22
1850.326	174.37
1853.535	174.35
1856.744	177.4
1859.952	179.39
1863.16	179.72
1866.368	178.59
1869.575	180.65
1872.782	179.7
1875.989	178.88
1879.196	177.82
1882.402	176.55
1885.608	177.03
1888.814	177.93
1892.019	178.03
1895.224	175.41
1898.429	176.83
1901.634	178.61
1904.838	178.77
1908.042	181.38
1911.246	179.67
1914.449	181.88
1917.652	181.3
1920.855	181.97
1924.058	180.46
1927.26	179.98
1930.462	181.01
1933.664	179.67
1936.865	179.17
1940.066	177.11
1943.267	175.66
1946.467	178.51
1949.668	178.57
1952.868	178.81
1956.067	177.94
1959.267	178.37
1962.466	179.31
1965.665	181.34
1968.863	182.96
1972.061	183.82
1975.259	187.63
1978.457	188.77
1981.654	190.09
1984.852	191.76
1988.048	194.3
1991.245	196.58
1994.441	202.36
1997.637	206.49
2000.833	209.62
2004.028	210.47
2007.223	219.5
2010.418	222.52
2013.613	233.83
2016.807	239.54
2020.001	243.77
2023.194	249.65
2026.388	259.21
2029.581	271.27
2032.774	279.78
2035.966	288.86
2039.158	298.5
2042.35	300.95
2045.542	306.63
2048.733	318.67
2051.924	322.16
2055.115	328.57
2058.306	332.12
2061.496	338.96
2064.686	339.66
2067.875	335.91
2071.065	338.36
2074.254	340.75
2077.442	349.98
2080.631	353.68
2083.819	351.5
2087.007	360.89
2090.195	365.5
2093.382	365.91
2096.569	365.5
2099.756	369.81
2102.942	379.18
2106.128	389.3
2109.314	389.35
2112.5	389.52
2115.685	389.22
2118.87	389.22
2122.055	389.41
2125.239	399.03
2128.424	407.84
2131.608	406.92
2134.791	409.23
2137.974	409.45
2141.157	410.36
2144.34	415.44
2147.523	421.77
2150.705	431.34
2153.887	429.23
2157.068	433.23
2160.25	433.66
2163.431	432.96
2166.611	439.5
2169.792	446.87
2172.972	454.23
2176.152	453.92
2179.331	464.67
2182.511	465
2185.69	469.5
2188.868	489.57
2192.047	500.69
2195.225	508.64
2198.403	515.95
2201.58	512.36
2204.758	527.68
2207.935	532.79
2211.111	547.16
2214.288	548.69
2217.464	555.69
2220.64	562.3
2223.815	562.93
2226.991	554.05
2230.166	559.98
2233.34	578.69
2236.515	592.47
2239.689	584
2242.863	591.63
2246.036	584.3
2249.209	602.51
2252.382	600.12
2255.555	619.91
2258.727	620.29
2261.9	644.33
2265.071	651.96
2268.243	642.84
2271.414	665.56
2274.585	680.13
2277.756	685.04
2280.926	707.02
2284.096	705.8
2287.266	712.69
2290.436	697.78
2293.605	715.06
2296.774	737.16
2299.942	738.8
2303.111	764.79
2306.279	776.33
2309.447	779.96
2312.614	778.69
2315.781	803.01
2318.948	807.92
2322.115	823.5
2325.281	865.14
2328.447	865.77
2331.613	863.59
2334.779	878.22
2337.944	888.6
2341.109	906.77
2344.274	917.49
2347.438	945.05
2350.602	959.02
2353.766	1026.37
2356.929	1028.91
2360.092	1046.7
2363.255	1045.84
2366.418	1067
2369.58	1093.35
2372.742	1086.85
2375.904	1079.25
2379.066	1109.19
2382.227	1168.28
2385.388	1171.21
2388.548	1109.98
2391.709	1099.6
2394.869	1135.85
2398.029	1133.52
2401.188	1133.76
2404.347	1167.76
2407.506	1215.67
2410.665	1166.25
2413.823	1172.43
2416.981	1173.63
2420.139	1108.83
2423.296	1188.09
2426.453	1267.01
2429.61	1203.53
2432.767	1289
2435.923	1338
2439.079	1275.36
2442.235	1304.35
2445.391	1340.31
2448.546	1323.67
2451.701	1406.87
2454.855	1504.88
2458.009	1339.06
2461.163	1366.62
2464.317	1376.38
2467.471	1349.07
2470.624	1392.89
2473.777	1378.47
2476.929	1332.9
2480.082	1423.81
2483.234	1495.22
2486.385	1517.24
2489.537	1553.46
2492.688	1714.81
2495.839	1672.1
2498.989	1732.51
2502.14	1736.16
2505.29	1649.36
2508.439	1839.43
2511.589	1894.05
2514.738	1825.7
2517.887	1810.49
2521.035	1684.01
2524.183	1656.45
2527.331	1637.75
2530.479	1602.36
2533.627	1634.54
