Data from N_2_div_pa_2n_085_Splice17_03.txt Node
Date: Sat Feb 29 14:14:00 EST 2020
User: sa697716
Spectrometer: FLMS03696
Trigger mode: 0
Integration Time (sec): 3.180400E-1
Scans to average: 20
Electric dark correction enabled: true
Nonlinearity correction enabled: true
Boxcar width: 5
XAxis mode: Wavelengths
Number of Pixels in Spectrum: 2048
>>>>>Begin Spectral Data<<<<<
187.83	64.25
188.298	51.83
188.766	49.96
189.233	42.82
189.701	56.61
190.169	55.5
190.636	48.57
191.104	36.17
191.571	106.8
192.039	109.07
192.506	73.41
192.974	1590.3
193.441	352.84
193.908	23.9
194.375	5.28
194.842	66.62
195.31	31.61
195.777	-9.32
196.244	25.73
196.711	36.75
197.177	33.02
197.644	32.97
198.111	33.48
198.578	33.09
199.045	32.74
199.511	32.56
199.978	33.23
200.445	32.89
200.911	33.35
201.378	33.12
201.844	33.19
202.31	33.72
202.777	34.13
203.243	34.21
203.709	34.84
204.176	34.87
204.642	34.79
205.108	34.28
205.574	34.8
206.04	34.71
206.506	34.51
206.972	34.04
207.438	33.5
207.903	33.16
208.369	32.75
208.835	32.17
209.301	31.74
209.766	31.25
210.232	30.91
210.697	30.22
211.163	29.67
211.628	29.16
212.094	28.5
212.559	28.01
213.024	27.4
213.49	26.64
213.955	26.16
214.42	25.51
214.885	24.61
215.35	23.81
215.815	22.57
216.28	21.25
216.745	20.1
217.21	18.51
217.675	17.12
218.14	15.74
218.604	14.53
219.069	13.53
219.534	12.62
219.998	11.94
220.463	11.4
220.927	10.95
221.392	10.53
221.856	10.06
222.32	9.8
222.785	9.52
223.249	9.27
223.713	9.1
224.177	8.85
224.642	8.7
225.106	8.54
225.57	8.32
226.034	8.15
226.497	7.99
226.961	7.86
227.425	7.71
227.889	7.59
228.353	7.47
228.816	7.35
229.28	7.23
229.744	7.15
230.207	7.04
230.671	6.96
231.134	6.87
231.597	6.78
232.061	6.72
232.524	6.66
232.987	6.58
233.45	6.52
233.914	6.46
234.377	6.43
234.84	6.36
235.303	6.31
235.766	6.27
236.229	6.22
236.691	6.17
237.154	6.13
237.617	6.08
238.08	6.03
238.542	5.98
239.005	5.93
239.468	5.86
239.93	5.83
240.393	5.79
240.855	5.72
241.317	5.69
241.78	5.65
242.242	5.59
242.704	5.54
243.166	5.5
243.629	5.45
244.091	5.4
244.553	5.37
245.015	5.34
245.477	5.29
245.939	5.26
246.4	5.22
246.862	5.17
247.324	5.15
247.786	5.13
248.247	5.1
248.709	5.07
249.17	5.05
249.632	5
250.093	4.94
250.555	4.91
251.016	4.9
251.477	4.87
251.939	4.84
252.4	4.81
252.861	4.77
253.322	4.75
253.783	4.73
254.244	4.71
254.705	4.69
255.166	4.69
255.627	4.67
256.088	4.62
256.549	4.6
257.009	4.57
257.47	4.56
257.931	4.53
258.391	4.49
258.852	4.45
259.312	4.42
259.773	4.4
260.233	4.36
260.694	4.33
261.154	4.31
261.614	4.28
262.074	4.27
262.534	4.22
262.994	4.2
263.455	4.19
263.915	4.16
264.374	4.14
264.834	4.13
265.294	4.11
265.754	4.09
266.214	4.07
266.673	4.05
267.133	4.02
267.593	4.02
268.052	4
268.512	3.98
268.971	3.97
269.431	3.96
269.89	3.94
270.349	3.92
270.809	3.91
271.268	3.89
271.727	3.87
272.186	3.86
272.645	3.85
273.104	3.84
273.563	3.83
274.022	3.82
274.481	3.8
274.94	3.79
275.399	3.78
275.857	3.77
276.316	3.76
276.775	3.75
277.233	3.74
277.692	3.73
278.15	3.71
278.609	3.69
279.067	3.68
279.525	3.67
279.984	3.66
280.442	3.65
280.9	3.64
281.358	3.64
281.816	3.63
282.274	3.62
282.732	3.61
283.19	3.61
283.648	3.61
284.106	3.6
284.564	3.6
285.021	3.59
285.479	3.59
285.937	3.57
286.394	3.56
286.852	3.57
287.309	3.56
287.767	3.55
288.224	3.55
288.682	3.54
289.139	3.55
289.596	3.54
290.053	3.53
290.511	3.51
290.968	3.51
291.425	3.52
291.882	3.5
292.339	3.49
292.796	3.48
293.252	3.46
293.709	3.45
294.166	3.44
294.623	3.43
295.079	3.43
295.536	3.43
295.992	3.42
296.449	3.4
296.905	3.4
297.362	3.38
297.818	3.38
298.274	3.38
298.731	3.37
299.187	3.37
299.643	3.36
300.099	3.35
300.555	3.34
301.011	3.33
301.467	3.32
301.923	3.32
302.379	3.32
302.835	3.32
303.291	3.32
303.746	3.31
304.202	3.3
304.658	3.29
305.113	3.29
305.569	3.29
306.024	3.3
306.479	3.3
306.935	3.3
307.39	3.3
307.845	3.3
308.301	3.31
308.756	3.31
309.211	3.32
309.666	3.33
310.121	3.32
310.576	3.32
311.031	3.32
311.486	3.32
311.94	3.32
312.395	3.33
312.85	3.32
313.305	3.32
313.759	3.32
314.214	3.32
314.668	3.32
315.123	3.33
315.577	3.33
316.032	3.33
316.486	3.33
316.94	3.32
317.394	3.31
317.849	3.31
318.303	3.3
318.757	3.29
319.211	3.28
319.665	3.28
320.119	3.27
320.572	3.27
321.026	3.27
321.48	3.26
321.934	3.26
322.387	3.27
322.841	3.26
323.295	3.26
323.748	3.25
324.202	3.26
324.655	3.25
325.108	3.24
325.562	3.23
326.015	3.23
326.468	3.22
326.921	3.21
327.374	3.2
327.827	3.21
328.28	3.2
328.733	3.2
329.186	3.19
329.639	3.19
330.092	3.19
330.545	3.2
330.997	3.2
331.45	3.19
331.903	3.18
332.355	3.19
332.808	3.19
333.26	3.19
333.713	3.2
334.165	3.2
334.617	3.21
335.069	3.21
335.522	3.22
335.974	3.21
336.426	3.22
336.878	3.23
337.33	3.23
337.782	3.23
338.234	3.22
338.686	3.21
339.137	3.22
339.589	3.21
340.041	3.2
340.493	3.19
340.944	3.2
341.396	3.2
341.847	3.19
342.299	3.16
342.75	3.15
343.201	3.14
343.653	3.12
344.104	3.12
344.555	3.11
345.006	3.11
345.457	3.1
345.908	3.09
346.359	3.08
346.81	3.09
347.261	3.09
347.712	3.09
348.163	3.09
348.613	3.08
349.064	3.07
349.515	3.07
349.965	3.06
350.416	3.06
350.866	3.05
351.317	3.05
351.767	3.05
352.217	3.05
352.668	3.05
353.118	3.06
353.568	3.07
354.018	3.08
354.468	3.08
354.918	3.1
355.368	3.11
355.818	3.11
356.268	3.11
356.718	3.11
357.168	3.12
357.617	3.11
358.067	3.1
358.517	3.1
358.966	3.1
359.416	3.09
359.865	3.1
360.315	3.09
360.764	3.1
361.213	3.1
361.663	3.1
362.112	3.11
362.561	3.12
363.01	3.13
363.459	3.13
363.908	3.13
364.357	3.13
364.806	3.13
365.255	3.15
365.703	3.15
366.152	3.15
366.601	3.15
367.05	3.16
367.498	3.17
367.947	3.18
368.395	3.19
368.844	3.2
369.292	3.21
369.74	3.22
370.189	3.22
370.637	3.23
371.085	3.24
371.533	3.25
371.981	3.26
372.429	3.26
372.877	3.26
373.325	3.27
373.773	3.28
374.221	3.29
374.669	3.3
375.116	3.3
375.564	3.31
376.012	3.32
376.459	3.33
376.907	3.34
377.354	3.35
377.801	3.37
378.249	3.39
378.696	3.42
379.143	3.43
379.591	3.45
380.038	3.48
380.485	3.51
380.932	3.54
381.379	3.56
381.826	3.6
382.273	3.63
382.72	3.67
383.166	3.71
383.613	3.75
384.06	3.81
384.506	3.86
384.953	3.91
385.4	3.98
385.846	4.05
386.292	4.14
386.739	4.23
387.185	4.34
387.631	4.44
388.078	4.52
388.524	4.58
388.97	4.64
389.416	4.73
389.862	4.84
390.308	4.98
390.754	5.14
391.2	5.31
391.645	5.44
392.091	5.55
392.537	5.67
392.983	5.87
393.428	6.14
393.874	6.49
394.319	6.84
394.765	7.2
395.21	7.54
395.655	7.92
396.101	8.3
396.546	8.75
396.991	9.23
397.436	9.74
397.881	10.24
398.326	10.74
398.771	11.16
399.216	11.6
399.661	11.98
400.106	12.34
400.551	12.64
400.995	12.9
401.44	13.11
401.885	13.34
402.329	13.57
402.774	13.8
403.218	14.05
403.663	14.36
404.107	14.68
404.551	15.02
404.995	15.32
405.44	15.61
405.884	15.92
406.328	16.32
406.772	16.76
407.216	17.23
407.66	17.67
408.104	18.06
408.547	18.39
408.991	18.67
409.435	18.97
409.879	19.35
410.322	19.78
410.766	20.24
411.209	20.65
411.653	21.01
412.096	21.32
412.54	21.63
412.983	21.93
413.426	22.28
413.869	22.66
414.312	23.04
414.756	23.4
415.199	23.71
415.642	23.99
416.085	24.27
416.527	24.5
416.97	24.68
417.413	24.77
417.856	24.79
418.298	24.8
418.741	24.83
419.184	24.9
419.626	25.01
420.069	25.16
420.511	25.31
420.953	25.44
421.396	25.61
421.838	25.86
422.28	26.22
422.722	26.6
423.164	26.95
423.606	27.28
424.048	27.49
424.49	27.61
424.932	27.51
425.374	27.2
425.816	26.73
426.258	26.22
426.699	25.87
427.141	25.8
427.582	26
428.024	26.38
428.465	26.79
428.907	27.16
429.348	27.49
429.789	27.98
430.231	28.76
430.672	29.85
431.113	31.06
431.554	32.26
431.995	33.18
432.436	33.85
432.877	34.33
433.318	34.68
433.759	35.11
434.2	35.69
434.64	36.41
435.081	37.06
435.522	37.64
435.962	38.16
436.403	38.55
436.843	38.91
437.284	39.27
437.724	39.7
438.164	40.22
438.604	40.83
439.045	41.41
439.485	41.86
439.925	42.3
440.365	42.64
440.805	42.87
441.245	43.06
441.685	43.26
442.125	43.52
442.564	43.85
443.004	44.19
443.444	44.53
443.883	44.95
444.323	45.39
444.762	45.81
445.202	46.3
445.641	46.87
446.081	47.58
446.52	48.22
446.959	48.82
447.398	49.25
447.837	49.56
448.276	49.68
448.716	49.73
449.154	49.81
449.593	49.9
450.032	49.88
450.471	49.74
450.91	49.49
451.349	49.25
451.787	49.04
452.226	48.86
452.664	48.71
453.103	48.61
453.541	48.45
453.98	48.18
454.418	47.86
454.856	47.51
455.295	47.26
455.733	46.94
456.171	46.67
456.609	46.43
457.047	46.1
457.485	45.94
457.923	45.85
458.361	45.83
458.798	45.88
459.236	45.93
459.674	46.03
460.111	46.1
460.549	46.25
460.987	46.42
461.424	46.53
461.862	46.77
462.299	46.92
462.736	47.05
463.173	47.27
463.611	47.52
464.048	47.84
464.485	48.18
464.922	48.56
465.359	48.91
465.796	49.17
466.233	49.57
466.67	49.92
467.106	50.33
467.543	50.75
467.98	51.1
468.416	51.41
468.853	51.65
469.29	51.88
469.726	52.08
470.162	52.28
470.599	52.41
471.035	52.49
471.471	52.47
471.907	52.4
472.344	52.28
472.78	52.07
473.216	51.86
473.652	51.6
474.088	51.28
474.523	50.87
474.959	50.46
475.395	50.04
475.831	49.57
476.266	49.13
476.702	48.64
477.138	48.08
477.573	47.55
478.008	46.95
478.444	46.32
478.879	45.72
479.314	45.13
479.75	44.54
480.185	43.93
480.62	43.29
481.055	42.66
481.49	41.95
481.925	41.26
482.36	40.61
482.795	40.01
483.229	39.53
483.664	39.04
484.099	38.57
484.534	38.11
484.968	37.74
485.403	37.39
485.837	37.1
486.271	36.88
486.706	36.66
487.14	36.48
487.574	36.27
488.009	36.05
488.443	35.84
488.877	35.65
489.311	35.49
489.745	35.34
490.179	35.25
490.613	35.14
491.046	35.08
491.48	35.05
491.914	35.01
492.348	35
492.781	34.99
493.215	35.01
493.648	35.03
494.082	35.06
494.515	35.1
494.948	35.1
495.382	35.13
495.815	35.12
496.248	35.13
496.681	35.13
497.114	35.15
497.547	35.16
497.98	35.19
498.413	35.23
498.846	35.27
499.279	35.29
499.711	35.32
500.144	35.37
500.577	35.47
501.009	35.58
501.442	35.72
501.874	35.83
502.306	35.98
502.739	36.08
503.171	36.24
503.603	36.37
504.036	36.49
504.468	36.65
504.9	36.81
505.332	36.93
505.764	37.07
506.196	37.19
506.627	37.35
507.059	37.5
507.491	37.66
507.923	37.76
508.354	37.92
508.786	38.09
509.217	38.22
509.649	38.38
510.08	38.55
510.512	38.7
510.943	38.89
511.374	39.07
511.805	39.2
512.237	39.36
512.668	39.5
513.099	39.66
513.53	39.82
513.961	39.99
514.391	40.14
514.822	40.31
515.253	40.5
515.684	40.65
516.114	40.84
516.545	41.01
516.975	41.22
517.406	41.41
517.836	41.58
518.267	41.74
518.697	41.91
519.127	42.06
519.558	42.21
519.988	42.34
520.418	42.48
520.848	42.59
521.278	42.73
521.708	42.71
522.138	42.79
522.567	42.87
522.997	42.98
523.427	43.09
523.857	43.2
524.286	43.34
524.716	43.48
525.145	43.61
525.575	43.75
526.004	43.89
526.433	44.19
526.863	44.43
527.292	44.63
527.721	44.8
528.15	44.93
528.579	45.06
529.008	45.16
529.437	45.24
529.866	45.34
530.295	45.44
530.724	45.54
531.152	45.61
531.581	45.67
532.01	45.73
532.438	45.8
532.867	45.9
533.295	45.98
533.723	46.09
534.152	46.16
534.58	46.2
535.008	46.23
535.436	46.25
535.865	46.26
536.293	46.27
536.721	46.3
537.149	46.35
537.576	46.42
538.004	46.5
538.432	46.54
538.86	46.64
539.287	46.73
539.715	46.85
540.143	46.97
540.57	47.14
540.998	47.33
541.425	47.47
541.852	47.64
542.28	47.76
542.707	47.94
543.134	48.09
543.561	48.19
543.988	48.34
544.415	48.49
544.842	48.65
545.269	48.79
545.696	48.9
546.123	49.07
546.549	49.19
546.976	49.3
547.403	49.39
547.829	49.54
548.256	49.68
548.682	49.76
549.108	49.88
549.535	49.99
549.961	50.05
550.387	50.12
550.813	50.18
551.24	50.26
551.666	50.34
552.092	50.38
552.518	50.4
552.943	50.43
553.369	50.48
553.795	50.47
554.221	50.42
554.646	50.38
555.072	50.31
555.498	50.23
555.923	50.16
556.349	50.05
556.774	49.99
557.199	49.9
557.625	49.82
558.05	49.7
558.475	49.56
558.9	49.45
559.325	49.33
559.75	49.18
560.175	49.02
560.6	48.84
561.025	48.64
561.449	48.39
561.874	48.14
562.299	47.89
562.723	47.64
563.148	47.38
563.572	47.09
563.997	46.8
564.421	46.47
564.846	46.16
565.27	45.83
565.694	45.52
566.118	45.18
566.542	44.86
566.966	44.53
567.39	44.18
567.814	43.87
568.238	43.59
568.662	43.35
569.086	43.14
569.509	42.97
569.933	42.8
570.357	42.66
570.78	42.55
571.204	42.44
571.627	42.37
572.05	42.37
572.474	42.34
572.897	42.35
573.32	42.34
573.743	42.37
574.166	42.36
574.589	42.38
575.012	42.43
575.435	42.51
575.858	42.59
576.281	42.69
576.704	42.76
577.126	42.86
577.549	42.95
577.972	43.06
578.394	43.14
578.817	43.26
579.239	43.39
579.661	43.48
580.084	43.55
580.506	43.65
580.928	43.72
581.35	43.83
581.772	43.91
582.194	43.97
582.616	44.02
583.038	44.12
583.46	44.17
583.882	44.2
584.303	44.22
584.725	44.24
585.147	44.21
585.568	44.2
585.99	44.17
586.411	44.2
586.833	44.19
587.254	44.18
587.675	44.17
588.096	44.17
588.518	44.17
588.939	44.18
589.36	44.2
589.781	44.21
590.202	44.18
590.623	44.14
591.043	44.03
591.464	43.93
591.885	43.84
592.305	43.73
592.726	43.6
593.147	43.43
593.567	43.26
593.987	43.07
594.408	42.87
594.828	42.68
595.248	42.45
595.669	42.2
596.089	41.95
596.509	41.66
596.929	41.36
597.349	41.07
597.769	40.79
598.189	40.5
598.608	40.22
599.028	39.96
599.448	39.7
599.867	39.47
600.287	39.29
600.706	39.06
601.126	38.87
601.545	38.69
601.965	38.55
602.384	38.42
602.803	38.29
603.222	38.16
603.641	38.07
604.061	37.98
604.48	37.9
604.898	37.81
605.317	37.78
605.736	37.73
606.155	37.69
606.574	37.64
606.992	37.61
607.411	37.6
607.829	37.56
608.248	37.57
608.666	37.56
609.085	37.56
609.503	37.53
609.921	37.53
610.339	37.54
610.758	37.54
611.176	37.53
611.594	37.5
612.012	37.48
612.43	37.49
612.847	37.47
613.265	37.45
613.683	37.44
614.101	37.43
614.518	37.42
614.936	37.41
615.353	37.41
615.771	37.41
616.188	37.44
616.606	37.45
617.023	37.47
617.44	37.45
617.857	37.44
618.274	37.44
618.691	37.44
619.108	37.43
619.525	37.4
619.942	37.36
620.359	37.31
620.776	37.25
621.192	37.19
621.609	37.14
622.026	37.08
622.442	37.05
622.859	37
623.275	36.95
623.691	36.89
624.108	36.85
624.524	36.83
624.94	36.8
625.356	36.77
625.772	36.77
626.188	36.74
626.604	36.71
627.02	36.67
627.436	36.65
627.852	36.63
628.268	36.62
628.683	36.64
629.099	36.65
629.514	36.64
629.93	36.66
630.345	36.65
630.761	36.66
631.176	36.68
631.591	36.69
632.007	36.7
632.422	36.72
632.837	36.73
633.252	36.72
633.667	36.73
634.082	36.74
634.497	36.76
634.911	36.76
635.326	36.74
635.741	36.73
636.155	36.71
636.57	36.68
636.984	36.62
637.399	36.58
637.813	36.52
638.228	36.45
638.642	36.41
639.056	36.33
639.47	36.3
639.884	36.27
640.298	36.23
640.712	36.18
641.126	36.14
641.54	36.12
641.954	36.08
642.368	36.02
642.781	35.96
643.195	35.88
643.609	35.81
644.022	35.73
644.436	35.64
644.849	35.55
645.262	35.43
645.676	35.33
646.089	35.26
646.502	35.19
646.915	35.14
647.328	35.1
647.741	35.05
648.154	35.02
648.567	34.99
648.98	34.97
649.393	34.96
649.805	34.97
650.218	34.96
650.631	34.89
651.043	34.78
651.456	34.56
651.868	34.26
652.28	33.95
652.693	33.66
653.105	33.45
653.517	33.28
653.929	33.17
654.341	33.07
654.753	32.99
655.165	32.96
655.577	32.96
655.989	33.1
656.401	33.28
656.813	33.52
657.224	33.7
657.636	33.83
658.047	33.91
658.459	33.94
658.87	33.94
659.282	33.93
659.693	33.88
660.104	33.85
660.515	33.78
660.926	33.76
661.338	33.7
661.749	33.64
662.159	33.56
662.57	33.47
662.981	33.38
663.392	33.31
663.803	33.22
664.213	33.18
664.624	33.14
665.035	33.07
665.445	32.97
665.855	32.89
666.266	32.8
666.676	32.71
667.086	32.62
667.497	32.52
667.907	32.41
668.317	32.32
668.727	32.21
669.137	32.09
669.547	32.01
669.956	31.93
670.366	31.86
670.776	31.78
671.186	31.71
671.595	31.65
672.005	31.62
672.414	31.58
672.824	31.53
673.233	31.5
673.642	31.45
674.052	31.39
674.461	31.35
674.87	31.33
675.279	31.3
675.688	31.26
676.097	31.24
676.506	31.21
676.915	31.19
677.323	31.19
677.732	31.18
678.141	31.19
678.549	31.21
678.958	31.23
679.366	31.21
679.775	31.19
680.183	31.18
680.592	31.14
681	31.12
681.408	31.11
681.816	31
682.224	30.78
682.632	30.41
683.04	29.94
683.448	29.48
683.856	29.06
684.264	28.7
684.671	28.36
685.079	28.05
685.487	27.77
685.894	27.5
686.302	27.31
686.709	27.31
687.116	27.48
687.524	27.78
687.931	28.1
688.338	28.45
688.745	28.77
689.152	29.1
689.559	29.4
689.966	29.68
690.373	29.97
690.78	30.25
691.187	30.52
691.593	30.78
692	31.04
692.407	31.29
692.813	31.54
693.22	31.79
693.626	32.05
694.032	32.3
694.439	32.59
694.845	32.86
695.251	33.14
695.657	33.38
696.063	33.63
696.469	33.88
696.875	34.1
697.281	34.31
697.687	34.57
698.093	34.82
698.498	35.11
698.904	35.4
699.31	35.71
699.715	36.06
700.12	36.45
700.526	36.87
700.931	37.26
701.337	37.71
701.742	38.14
702.147	38.57
702.552	39.03
702.957	39.47
703.362	39.91
703.767	40.31
704.172	40.72
704.577	41.12
704.981	41.53
705.386	41.95
705.791	42.36
706.195	42.77
706.6	43.18
707.004	43.58
707.408	43.97
707.813	44.36
708.217	44.77
708.621	45.18
709.025	45.56
709.43	45.94
709.834	46.35
710.237	46.7
710.641	47.1
711.045	47.47
711.449	47.85
711.853	48.18
712.256	48.48
712.66	48.76
713.064	48.97
713.467	49.13
713.87	49.26
714.274	49.32
714.677	49.37
715.08	49.37
715.484	49.41
715.887	49.47
716.29	49.58
716.693	49.78
717.096	50.09
717.499	50.51
717.901	51.02
718.304	51.54
718.707	52.07
719.109	52.63
719.512	53.21
719.915	53.71
720.317	54.18
720.719	54.64
721.122	55.05
721.524	55.37
721.926	55.63
722.328	55.85
722.731	56.1
723.133	56.36
723.535	56.65
723.937	56.93
724.338	57.23
724.74	57.51
725.142	57.69
725.544	57.95
725.945	58.22
726.347	58.49
726.748	58.74
727.15	59
727.551	59.29
727.952	59.55
728.354	59.88
728.755	60.19
729.156	60.56
729.557	61.05
729.958	61.42
730.359	61.75
730.76	62.03
731.161	62.34
731.562	62.62
731.962	62.88
732.363	63.13
732.763	63.33
733.164	63.52
733.564	63.67
733.965	63.75
734.365	63.77
734.766	63.85
735.166	63.94
735.566	64.01
735.966	64.07
736.366	64.12
736.766	64.16
737.166	64.2
737.566	64.25
737.966	64.27
738.365	64.36
738.765	64.49
739.165	64.56
739.564	64.66
739.964	64.72
740.363	64.82
740.763	64.86
741.162	64.93
741.561	65.02
741.96	65.11
742.36	65.21
742.759	65.24
743.158	65.23
743.557	65.26
743.955	65.34
744.354	65.4
744.753	65.46
745.152	65.49
745.55	65.51
745.949	65.49
746.348	65.48
746.746	65.47
747.144	65.49
747.543	65.51
747.941	65.54
748.339	65.51
748.737	65.5
749.136	65.44
749.534	65.46
749.932	65.48
750.33	65.45
750.727	65.39
751.125	65.34
751.523	65.29
751.921	65.25
752.318	65.19
752.716	65.08
753.113	65.02
753.511	64.94
753.908	64.81
754.305	64.65
754.703	64.38
755.1	63.85
755.497	62.94
755.894	61.68
756.291	60.15
756.688	58.58
757.085	57.1
757.482	55.73
757.878	54.47
758.275	53.23
758.672	51.94
759.068	50.82
759.465	49.98
759.861	49.61
760.258	49.63
760.654	50.03
761.05	50.6
761.447	51.2
761.843	51.73
762.239	52.28
762.635	52.94
763.031	53.8
763.427	54.7
763.822	55.62
764.218	56.53
764.614	57.42
765.01	58.23
765.405	58.96
765.801	59.62
766.196	60.22
766.592	60.71
766.987	61.11
767.382	61.39
767.778	61.61
768.173	61.77
768.568	61.88
768.963	61.96
769.358	62.02
769.753	62.08
770.148	62.1
770.542	62.07
770.937	62.04
771.332	62.01
771.726	61.96
772.121	61.89
772.515	61.87
772.91	61.81
773.304	61.76
773.699	61.67
774.093	61.55
774.487	61.49
774.881	61.47
775.275	61.42
775.669	61.39
776.063	61.33
776.457	61.26
776.851	61.17
777.245	61.09
777.638	61.04
778.032	61.01
778.425	60.94
778.819	60.88
779.212	60.75
779.606	60.68
779.999	60.57
780.392	60.5
780.786	60.45
781.179	60.38
781.572	60.31
781.965	60.24
782.358	60.15
782.751	60.11
783.143	60.02
783.536	60.02
783.929	59.97
784.322	59.89
784.714	59.8
785.107	59.72
785.499	59.62
785.891	59.52
786.284	59.37
786.676	59.25
787.068	59.11
787.46	58.99
787.852	58.82
788.245	58.66
788.636	58.51
789.028	58.35
789.42	58.18
789.812	58.04
790.204	57.88
790.595	57.77
790.987	57.65
791.378	57.55
791.77	57.46
792.161	57.38
792.553	57.3
792.944	57.23
793.335	57.19
793.726	57.1
794.117	57.07
794.508	57.06
794.899	57.02
795.29	56.96
795.681	56.86
796.072	56.77
796.463	56.63
796.853	56.49
797.244	56.38
797.634	56.23
798.025	56.18
798.415	56.03
798.806	55.92
799.196	55.8
799.586	55.68
799.976	55.58
800.366	55.47
800.756	55.37
801.146	55.26
801.536	55.18
801.926	55.12
802.316	54.99
802.706	54.91
803.095	54.78
803.485	54.7
803.874	54.6
804.264	54.53
804.653	54.41
805.043	54.33
805.432	54.18
805.821	54.02
806.21	53.89
806.599	53.82
806.988	53.65
807.377	53.51
807.766	53.37
808.155	53.2
808.544	53.03
808.933	52.87
809.321	52.7
809.71	52.6
810.098	52.45
810.487	52.25
810.875	52.01
811.264	51.84
811.652	51.6
812.04	51.36
812.428	51.16
812.816	50.97
813.204	50.75
813.592	50.55
813.98	50.33
814.368	50.14
814.756	49.99
815.144	49.82
815.531	49.68
815.919	49.58
816.306	49.51
816.694	49.49
817.081	49.43
817.469	49.41
817.856	49.34
818.243	49.23
818.63	49.14
819.017	49.02
819.404	48.92
819.791	48.84
820.178	48.79
820.565	48.71
820.952	48.59
821.339	48.51
821.725	48.44
822.112	48.41
822.498	48.44
822.885	48.46
823.271	48.48
823.657	48.47
824.044	48.42
824.43	48.34
824.816	48.23
825.202	48.15
825.588	48.07
825.974	47.96
826.36	47.86
826.746	47.76
827.132	47.63
827.517	47.56
827.903	47.48
828.289	47.42
828.674	47.34
829.06	47.32
829.445	47.28
829.83	47.24
830.216	47.2
830.601	47.18
830.986	47.12
831.371	47.11
831.756	47.02
832.141	46.99
832.526	46.96
832.911	46.96
833.295	46.94
833.68	46.9
834.065	46.85
834.449	46.79
834.834	46.74
835.218	46.68
835.603	46.65
835.987	46.64
836.371	46.61
836.755	46.57
837.139	46.52
837.524	46.45
837.908	46.39
838.291	46.33
838.675	46.28
839.059	46.22
839.443	46.18
839.827	46.09
840.21	46.06
840.594	45.98
840.977	45.93
841.361	45.91
841.744	45.89
842.127	45.85
842.511	45.82
842.894	45.78
843.277	45.76
843.66	45.75
844.043	45.74
844.426	45.68
844.809	45.63
845.191	45.57
845.574	45.48
845.957	45.37
846.339	45.31
846.722	45.28
847.104	45.23
847.487	45.2
847.869	45.13
848.252	45.08
848.634	45.04
849.016	45.02
849.398	44.96
849.78	44.9
850.162	44.86
850.544	44.8
850.926	44.72
851.307	44.67
851.689	44.6
852.071	44.57
852.452	44.53
852.834	44.5
853.215	44.51
853.597	44.54
853.978	44.55
854.359	44.56
854.741	44.58
855.122	44.61
855.503	44.62
855.884	44.63
856.265	44.59
856.646	44.55
857.026	44.52
857.407	44.46
857.788	44.42
858.169	44.39
858.549	44.38
858.93	44.35
859.31	44.32
859.69	44.3
860.071	44.27
860.451	44.27
860.831	44.27
861.211	44.24
861.591	44.22
861.971	44.18
862.351	44.15
862.731	44.09
863.111	44.02
863.491	43.98
863.87	43.94
864.25	43.9
864.629	43.82
865.009	43.79
865.388	43.78
865.768	43.75
866.147	43.73
866.526	43.74
866.905	43.72
867.284	43.76
867.663	43.74
868.042	43.72
868.421	43.71
868.8	43.72
869.179	43.69
869.558	43.67
869.936	43.64
870.315	43.62
870.693	43.58
871.072	43.57
871.45	43.52
871.828	43.49
872.207	43.49
872.585	43.48
872.963	43.47
873.341	43.48
873.719	43.44
874.097	43.43
874.475	43.43
874.853	43.42
875.23	43.41
875.608	43.43
875.986	43.38
876.363	43.37
876.741	43.34
877.118	43.32
877.495	43.32
877.873	43.33
878.25	43.3
878.627	43.29
879.004	43.29
879.381	43.3
879.758	43.25
880.135	43.28
880.512	43.26
880.889	43.28
881.265	43.27
881.642	43.23
882.019	43.23
882.395	43.24
882.772	43.24
883.148	43.22
883.524	43.18
883.901	43.18
884.277	43.17
884.653	43.16
885.029	43.13
885.405	43.11
885.781	43.08
886.157	43.06
886.532	43.04
886.908	43.02
887.284	43.01
887.659	43.01
888.035	43
888.411	42.97
888.786	42.93
889.161	42.94
889.537	42.92
889.912	42.91
890.287	42.87
890.662	42.84
891.037	42.81
891.412	42.74
891.787	42.7
892.162	42.66
892.536	42.6
892.911	42.57
893.286	42.49
893.66	42.42
894.035	42.34
894.409	42.3
894.784	42.25
895.158	42.18
895.532	42.13
895.906	42.05
896.281	41.98
896.655	41.94
897.029	41.89
897.402	41.85
897.776	41.85
898.15	41.82
898.524	41.79
898.898	41.74
899.271	41.75
899.645	41.76
900.018	41.76
900.392	41.76
900.765	41.79
901.138	41.8
901.511	41.83
901.884	41.85
902.258	41.88
902.631	41.89
903.003	41.89
903.376	41.88
903.749	41.88
904.122	41.9
904.495	41.9
904.867	41.87
905.24	41.87
905.612	41.83
905.985	41.78
906.357	41.74
906.729	41.73
907.102	41.73
907.474	41.73
907.846	41.68
908.218	41.62
908.59	41.6
908.962	41.6
909.334	41.55
909.705	41.55
910.077	41.53
910.449	41.54
910.82	41.54
911.192	41.55
911.563	41.49
911.935	41.5
912.306	41.51
912.677	41.52
913.048	41.49
913.419	41.49
913.79	41.47
914.161	41.43
914.532	41.4
914.903	41.38
915.274	41.34
915.645	41.38
916.015	41.38
916.386	41.4
916.756	41.36
917.127	41.35
917.497	41.37
917.868	41.38
918.238	41.41
918.608	41.41
918.978	41.43
919.348	41.44
919.718	41.44
920.088	41.42
920.458	41.41
920.828	41.44
921.198	41.46
921.567	41.45
921.937	41.42
922.306	41.44
922.676	41.45
923.045	41.38
923.415	41.38
923.784	41.38
924.153	41.37
924.522	41.38
924.891	41.35
925.26	41.31
925.629	41.27
925.998	41.27
926.367	41.21
926.736	41.16
927.104	41.14
927.473	41.08
927.842	40.99
928.21	40.98
928.578	40.87
928.947	40.83
929.315	40.8
929.683	40.76
930.051	40.65
930.42	40.55
930.788	40.48
931.156	40.44
931.523	40.37
931.891	40.31
932.259	40.21
932.627	40.15
932.994	40.07
933.362	40.02
933.729	39.94
934.097	39.93
934.464	39.94
934.831	39.88
935.199	39.82
935.566	39.78
935.933	39.81
936.3	39.8
936.667	39.83
937.034	39.84
937.401	39.8
937.767	39.83
938.134	39.88
938.501	39.86
938.867	40
939.234	40.08
939.6	40.09
939.967	40.15
940.333	40.29
940.699	40.36
941.065	40.38
941.431	40.54
941.798	40.61
942.163	40.67
942.529	40.76
942.895	40.77
943.261	40.8
943.627	40.96
943.992	40.95
944.358	40.9
944.723	40.94
945.089	41.01
945.454	40.92
945.82	40.91
946.185	40.92
946.55	40.98
946.915	40.98
947.28	40.96
947.645	40.95
948.01	40.96
948.375	40.95
948.74	40.92
949.104	40.87
949.469	40.87
949.834	40.72
950.198	40.69
950.562	40.64
950.927	40.57
951.291	40.54
951.655	40.5
952.02	40.49
952.384	40.47
952.748	40.48
953.112	40.4
953.476	40.34
953.839	40.41
954.203	40.34
954.567	40.22
954.931	40.29
955.294	40.25
955.658	40.12
956.021	40.16
956.385	40.13
956.748	40.05
957.111	39.99
957.474	40.02
957.837	40.03
958.2	40.06
958.563	40.11
958.926	40
959.289	40.01
959.652	40.1
960.015	39.96
960.377	39.95
960.74	39.96
961.102	40.07
961.465	40.03
961.827	39.91
962.189	39.87
962.552	39.81
962.914	39.83
963.276	39.78
963.638	39.71
964	39.71
964.362	39.76
964.724	39.75
965.085	39.72
965.447	39.69
965.809	39.67
966.17	39.67
966.532	39.72
966.893	39.73
967.255	39.74
967.616	39.78
967.977	39.86
968.338	39.76
968.699	39.75
969.061	39.73
969.421	39.75
969.782	39.82
970.143	39.78
970.504	39.78
970.865	39.75
971.225	39.71
971.586	39.74
971.946	39.7
972.307	39.74
972.667	39.75
973.027	39.79
973.388	39.8
973.748	39.77
974.108	39.8
974.468	39.7
974.828	39.73
975.188	39.78
975.548	39.66
975.907	39.68
976.267	39.65
976.627	39.65
976.986	39.57
977.346	39.54
977.705	39.6
978.064	39.56
978.424	39.59
978.783	39.61
979.142	39.52
979.501	39.57
979.86	39.55
980.219	39.52
980.578	39.52
980.937	39.6
981.296	39.57
981.654	39.59
982.013	39.72
982.371	39.74
982.73	39.73
983.088	39.74
983.447	39.79
983.805	39.76
984.163	39.89
984.521	39.82
984.879	39.84
985.237	39.92
985.595	39.94
985.953	39.93
986.311	39.98
986.669	39.96
987.026	40.01
987.384	39.98
987.741	40.02
988.099	39.9
988.456	39.98
988.814	39.94
989.171	39.91
989.528	39.82
989.885	39.8
990.242	39.8
990.599	39.84
990.956	39.95
991.313	39.94
991.67	39.95
992.027	39.99
992.383	40.12
992.74	40.07
993.096	40.06
993.453	40.14
993.809	40.16
994.165	40.21
994.522	40.22
994.878	40.13
995.234	40.27
995.59	40.21
995.946	40.25
996.302	40.15
996.658	40.25
997.013	40.32
997.369	40.31
997.725	40.24
998.08	40.17
998.436	40.23
998.791	40.14
999.147	40.09
999.502	40.11
999.857	40.08
1000.212	40.06
1000.567	40.07
1000.922	40.01
1001.277	39.89
1001.632	39.99
1001.987	39.98
1002.342	39.93
1002.696	39.99
1003.051	39.88
1003.406	39.75
1003.76	39.73
1004.114	39.72
1004.469	39.6
1004.823	39.53
1005.177	39.8
1005.531	39.69
1005.885	39.79
1006.239	39.82
1006.593	39.77
1006.947	39.92
1007.301	40.06
1007.655	40.09
1008.008	40
1008.362	39.94
1008.715	39.97
1009.069	39.8
1009.422	39.73
1009.776	39.64
1010.129	39.64
1010.482	39.84
1010.835	39.78
1011.188	39.72
1011.541	39.66
1011.894	39.65
1012.247	39.7
1012.6	39.75
1012.952	39.84
1013.305	40.03
1013.657	40.28
1014.01	40.26
1014.362	40.2
1014.715	40.07
1015.067	40.23
1015.419	40.39
1015.771	40.61
1016.123	40.74
1016.475	41.13
1016.827	41.11
1017.179	41.1
1017.531	41.16
1017.883	41.37
1018.234	41.29
1018.586	41.53
1018.938	41.31
1019.289	41.34
1019.64	41.61
1019.992	41.63
1020.343	41.24
1020.694	41.17
1021.045	40.99
1021.396	40.62
1021.747	40.56
1022.098	40.71
1022.449	40.53
1022.8	40.77
1023.151	40.62
1023.501	40.38
1023.852	40.94
1024.202	41.09
1024.553	41.21
1024.903	41.2
1025.253	41.29
1025.604	41.14
1025.954	40.95
1026.304	41.33
1026.654	41.55
1027.004	42
1027.354	42.1
1027.703	41.51
1028.053	41.5
1028.403	41.53
1028.753	42.16
1029.102	42.49
1029.452	42.78
1029.801	43.27
1030.15	43.27
1030.499	43.23
897.758	358.93
901.051	355.38
904.343	364.35
907.636	357.2
910.928	351.07
914.22	360.49
917.511	347.52
920.803	335.75
924.094	320.31
927.384	324.56
930.675	316.21
933.965	310.43
937.255	316.4
940.544	301.06
943.834	284.47
947.123	281.42
950.411	264.69
953.7	263.16
956.988	253.8
960.276	245
963.563	244.49
966.851	234.42
970.138	229.99
973.424	214.11
976.711	211.47
979.997	209.24
983.283	203.23
986.568	198.02
989.853	192.34
993.138	186.98
996.423	185.31
999.708	179.34
1002.992	177.94
1006.275	174.1
1009.559	172.38
1012.842	168.59
1016.125	162.65
1019.408	160.65
1022.69	160.25
1025.972	159.01
1029.254	156.49
1032.536	153.51
1035.817	149.16
1039.098	147.44
1042.379	144.74
1045.659	143.76
1048.939	141.52
1052.219	141.03
1055.498	137.36
1058.778	134.74
1062.057	132.82
1065.335	132.18
1068.614	129.92
1071.892	128.16
1075.17	126.46
1078.447	124.64
1081.724	123.55
1085.001	121.33
1088.278	119.65
1091.554	120.56
1094.83	120.9
1098.106	119.05
1101.382	118.48
1104.657	119.17
1107.932	119.27
1111.206	118.87
1114.481	117.85
1117.755	116.69
1121.029	117.25
1124.302	116.1
1127.575	114.64
1130.848	113.06
1134.121	111.6
1137.393	111.66
1140.665	110.02
1143.937	108.16
1147.208	107.12
1150.48	106.54
1153.75	105.91
1157.021	104.72
1160.291	105.29
1163.561	104.85
1166.831	104.69
1170.101	105.04
1173.37	103.36
1176.639	102.35
1179.907	102.76
1183.176	102.43
1186.444	102.09
1189.711	101.84
1192.979	102.52
1196.246	102.06
1199.513	101.94
1202.78	101.63
1206.046	101.44
1209.312	102.34
1212.578	102.96
1215.843	104.73
1219.108	104.96
1222.373	106.96
1225.638	108.41
1228.902	110.14
1232.166	112.4
1235.43	113.31
1238.693	115.56
1241.956	118.51
1245.219	121
1248.482	122.39
1251.744	120.92
1255.006	121.54
1258.268	118.48
1261.529	117.42
1264.79	115.86
1268.051	113.69
1271.312	113.68
1274.572	112.3
1277.832	109.9
1281.092	107.83
1284.351	105.98
1287.61	105.85
1290.869	106.98
1294.128	106.84
1297.386	106.69
1300.644	105.74
1303.902	105.49
1307.159	104.12
1310.416	104.33
1313.673	105.39
1316.93	106.49
1320.186	108.08
1323.442	108.57
1326.697	108.66
1329.953	109.08
1333.208	111.15
1336.463	114.63
1339.717	116.74
1342.972	122.15
1346.226	124.87
1349.479	125.01
1352.733	130.19
1355.986	130.4
1359.238	133.21
1362.491	132.92
1365.743	138.07
1368.995	139.31
1372.247	136.34
1375.498	135.45
1378.749	138.03
1382	136.92
1385.251	136.43
1388.501	133.8
1391.751	135.3
1395	134.16
1398.25	135.38
1401.499	133.42
1404.748	132.17
1407.996	130.65
1411.244	130.78
1414.492	127.58
1417.74	124.68
1420.987	121.19
1424.234	120.39
1427.481	115.19
1430.728	112.37
1433.974	108.23
1437.22	105.61
1440.465	101.19
1443.711	98.79
1446.956	96.36
1450.201	91.76
1453.445	86.83
1456.689	84.71
1459.933	82.34
1463.177	79.6
1466.42	78.32
1469.663	75.91
1472.906	73.12
1476.148	71.21
1479.391	69.98
1482.633	68.58
1485.874	68.23
1489.115	68.34
1492.356	67.07
1495.597	65.73
1498.838	66.14
1502.078	65.48
1505.318	65.59
1508.557	65.32
1511.797	65.24
1515.036	65.31
1518.274	65.37
1521.513	64.92
1524.751	64.42
1527.989	65.73
1531.227	65.79
1534.464	65.76
1537.701	65.33
1540.938	65.04
1544.174	64.98
1547.41	65.84
1550.646	65.93
1553.882	65.56
1557.117	66
1560.352	66.55
1563.587	64.92
1566.821	65.18
1570.055	65.07
1573.289	65.56
1576.523	65.95
1579.756	65.67
1582.989	65.66
1586.222	65.36
1589.454	65.48
1592.686	65.77
1595.918	65.06
1599.15	65.98
1602.381	66.48
1605.612	66.56
1608.843	66.02
1612.073	66.66
1615.303	67.3
1618.533	66.94
1621.762	67.24
1624.992	67.33
1628.221	66.91
1631.449	67.83
1634.678	67.33
1637.906	66.73
1641.134	67.08
1644.361	67.52
1647.588	66.99
1650.815	67.22
1654.042	67.56
1657.269	67.35
1660.495	67.8
1663.72	67.7
1666.946	67.57
1670.171	68.42
1673.396	69.09
1676.621	69
1679.845	69.19
1683.069	69.17
1686.293	68.79
1689.517	68.68
1692.74	69.03
1695.963	68.67
1699.185	69.55
1702.408	69.28
1705.63	68.94
1708.852	69.42
1712.073	68.65
1715.294	68.75
1718.515	68.91
1721.736	69.15
1724.956	69.25
1728.176	69
1731.396	69.38
1734.616	69.12
1737.835	69.33
1741.054	68.79
1744.272	67.91
1747.491	68.46
1750.709	68.83
1753.927	68.78
1757.144	68.49
1760.361	68.69
1763.578	68.71
1766.795	68.97
1770.011	69.25
1773.227	68.98
1776.443	69.97
1779.658	70.24
1782.874	70.84
1786.089	69.92
1789.303	70.01
1792.518	71.38
1795.732	71.45
1798.945	72.65
1802.159	72.44
1805.372	72.53
1808.585	73.12
1811.797	73.53
1815.01	74.37
1818.222	74.45
1821.434	75.31
1824.645	75.73
1827.856	75.44
1831.067	75.87
1834.278	76.2
1837.488	77.2
1840.698	77.95
1843.908	78.37
1847.117	79.17
1850.326	78.93
1853.535	79.22
1856.744	80.02
1859.952	80.78
1863.16	81.36
1866.368	79.87
1869.575	80.15
1872.782	78.76
1875.989	76.86
1879.196	76.93
1882.402	75.46
1885.608	75.93
1888.814	75.41
1892.019	74.64
1895.224	73.19
1898.429	72.38
1901.634	73.71
1904.838	72.81
1908.042	73.4
1911.246	74.35
1914.449	74.19
1917.652	72.89
1920.855	72.62
1924.058	72.43
1927.26	72.29
1930.462	72.19
1933.664	72.55
1936.865	72.34
1940.066	71.3
1943.267	71.04
1946.467	71.63
1949.668	71.37
1952.868	72.27
1956.067	71.94
1959.267	72.42
1962.466	72.71
1965.665	73.67
1968.863	74.58
1972.061	75.47
1975.259	78.47
1978.457	77.97
1981.654	78.33
1984.852	79.03
1988.048	80.79
1991.245	82.12
1994.441	83.09
1997.637	85.09
2000.833	86.56
2004.028	86.79
2007.223	89.13
2010.418	88.89
2013.613	94.66
2016.807	97.08
2020.001	99.21
2023.194	104.2
2026.388	106.97
2029.581	111.49
2032.774	114.23
2035.966	117.72
2039.158	121.87
2042.35	120.74
2045.542	124.44
2048.733	127.7
2051.924	130.35
2055.115	130.68
2058.306	128.9
2061.496	130.82
2064.686	132.54
2067.875	132.44
2071.065	133.1
2074.254	133.39
2077.442	140.46
2080.631	139.93
2083.819	141.84
2087.007	142.11
2090.195	146.23
2093.382	146.42
2096.569	147.43
2099.756	149.18
2102.942	151.86
2106.128	156.04
2109.314	158.64
2112.5	158.07
2115.685	157.17
2118.87	156.22
2122.055	160.54
2125.239	162.56
2128.424	168
2131.608	164.01
2134.791	164.01
2137.974	163.12
2141.157	165.64
2144.34	164.66
2147.523	166.87
2150.705	172.86
2153.887	173.2
2157.068	171.91
2160.25	174.8
2163.431	172.38
2166.611	179.68
2169.792	183.36
2172.972	188.34
2176.152	186.81
2179.331	191.45
2182.511	192.43
2185.69	194.37
2188.868	200.05
2192.047	206.99
2195.225	211.08
2198.403	214.42
2201.58	209.36
2204.758	216.96
2207.935	215.97
2211.111	221.02
2214.288	221.07
2217.464	222.33
2220.64	226.93
2223.815	225.09
2226.991	221.84
2230.166	221.78
2233.34	229.33
2236.515	237.4
2239.689	231.43
2242.863	237.25
2246.036	235.23
2249.209	240.72
2252.382	241.39
2255.555	244.09
2258.727	247.77
2261.9	256.48
2265.071	258.51
2268.243	254.02
2271.414	261.53
2274.585	266.25
2277.756	266.14
2280.926	276.71
2284.096	279.66
2287.266	281.74
2290.436	278.56
2293.605	283.33
2296.774	289.6
2299.942	293.19
2303.111	303.42
2306.279	309.88
2309.447	312.02
2312.614	314.55
2315.781	318.67
2318.948	319.62
2322.115	326.64
2325.281	347.12
2328.447	343.53
2331.613	339.13
2334.779	344.82
2337.944	344.57
2341.109	347.74
2344.274	354.46
2347.438	363.2
2350.602	373.3
2353.766	390.49
2356.929	390.38
2360.092	397.85
2363.255	403.72
2366.418	413.69
2369.58	419.17
2372.742	425.52
2375.904	421.45
2379.066	432.98
2382.227	449.36
2385.388	443.05
2388.548	431.5
2391.709	424.94
2394.869	428.82
2398.029	432
2401.188	429.93
2404.347	443.6
2407.506	457.39
2410.665	444.7
2413.823	447.2
2416.981	453.85
2420.139	434.19
2423.296	465.88
2426.453	500.61
2429.61	472.39
2432.767	502.81
2435.923	529.94
2439.079	503.41
2442.235	514.82
2445.391	530.39
2448.546	521.28
2451.701	546.85
2454.855	579.84
2458.009	513.56
2461.163	522.39
2464.317	533.97
2467.471	522.2
2470.624	531.99
2473.777	526.71
2476.929	512.04
2480.082	536.79
2483.234	564.94
2486.385	570.7
2489.537	589.42
2492.688	648.17
2495.839	626.9
2498.989	645.56
2502.14	653.17
2505.29	622.97
2508.439	683.96
2511.589	697.2
2514.738	687.85
2517.887	679.96
2521.035	637.72
2524.183	624.46
2527.331	623.67
2530.479	614.29
2533.627	626.9
