Data from N_3_dec_va_2n_Splice17_04.txt Node
Date: Sat Feb 29 15:02:47 EST 2020
User: sa697716
Spectrometer: FLMS03696
Trigger mode: 0
Integration Time (sec): 3.180400E-1
Scans to average: 20
Electric dark correction enabled: true
Nonlinearity correction enabled: true
Boxcar width: 5
XAxis mode: Wavelengths
Number of Pixels in Spectrum: 2048
>>>>>Begin Spectral Data<<<<<
187.83	125.24
188.298	118.66
188.766	111.34
189.233	111.75
189.701	118.69
190.169	125.08
190.636	145.76
191.104	178.96
191.571	784.9
192.039	483.57
192.506	-535.13
192.974	-5295.02
193.441	654.88
193.908	39.28
194.375	-34.5
194.842	159.55
195.31	168.83
195.777	144.54
196.244	103.1
196.711	88.61
197.177	85.31
197.644	82.86
198.111	82.86
198.578	83.4
199.045	83.67
199.511	84.17
199.978	83.85
200.445	83.05
200.911	83.79
201.378	83.89
201.844	84.66
202.31	85.29
202.777	85.75
203.243	86.61
203.709	86.29
204.176	85.96
204.642	85.41
205.108	85.09
205.574	85.85
206.04	85.2
206.506	84.49
206.972	83.73
207.438	82.78
207.903	82.11
208.369	80.31
208.835	79.43
209.301	78.37
209.766	77.07
210.232	75.76
210.697	74.05
211.163	72.76
211.628	71.49
212.094	69.78
212.559	68.29
213.024	66.54
213.49	65.11
213.955	63.46
214.42	61.57
214.885	59.61
215.35	57.06
215.815	53.77
216.28	50.45
216.745	46.63
217.21	42.82
217.675	39.33
218.14	35.94
218.604	32.86
219.069	30.15
219.534	27.84
219.998	25.99
220.463	24.43
220.927	23.14
221.392	22.06
221.856	21.06
222.32	20.26
222.785	19.5
223.249	18.82
223.713	18.3
224.177	17.79
224.642	17.36
225.106	16.92
225.57	16.49
226.034	16.1
226.497	15.66
226.961	15.28
227.425	14.89
227.889	14.53
228.353	14.22
228.816	13.91
229.28	13.6
229.744	13.33
230.207	13.08
230.671	12.83
231.134	12.59
231.597	12.36
232.061	12.14
232.524	11.97
232.987	11.78
233.45	11.6
233.914	11.42
234.377	11.26
234.84	11.11
235.303	10.94
235.766	10.78
236.229	10.65
236.691	10.52
237.154	10.41
237.617	10.28
238.08	10.18
238.542	10.06
239.005	9.96
239.468	9.84
239.93	9.73
240.393	9.62
240.855	9.52
241.317	9.42
241.78	9.33
242.242	9.23
242.704	9.12
243.166	9.01
243.629	8.92
244.091	8.82
244.553	8.74
245.015	8.66
245.477	8.57
245.939	8.49
246.4	8.4
246.862	8.31
247.324	8.24
247.786	8.17
248.247	8.09
248.709	8
249.17	7.93
249.632	7.84
250.093	7.75
250.555	7.68
251.016	7.6
251.477	7.52
251.939	7.46
252.4	7.39
252.861	7.33
253.322	7.26
253.783	7.21
254.244	7.14
254.705	7.08
255.166	7.05
255.627	7
256.088	6.94
256.549	6.9
257.009	6.84
257.47	6.78
257.931	6.72
258.391	6.65
258.852	6.6
259.312	6.55
259.773	6.49
260.233	6.42
260.694	6.36
261.154	6.31
261.614	6.24
262.074	6.19
262.534	6.14
262.994	6.09
263.455	6.04
263.915	5.98
264.374	5.93
264.834	5.88
265.294	5.83
265.754	5.79
266.214	5.74
266.673	5.71
267.133	5.67
267.593	5.64
268.052	5.61
268.512	5.58
268.971	5.56
269.431	5.53
269.89	5.51
270.349	5.48
270.809	5.47
271.268	5.45
271.727	5.43
272.186	5.4
272.645	5.38
273.104	5.35
273.563	5.32
274.022	5.3
274.481	5.27
274.94	5.25
275.399	5.23
275.857	5.2
276.316	5.18
276.775	5.15
277.233	5.13
277.692	5.12
278.15	5.1
278.609	5.08
279.067	5.06
279.525	5.05
279.984	5.03
280.442	5.03
280.9	5.01
281.358	5.01
281.816	5
282.274	4.98
282.732	4.97
283.19	4.97
283.648	4.97
284.106	4.97
284.564	4.97
285.021	4.97
285.479	4.97
285.937	4.96
286.394	4.94
286.852	4.93
287.309	4.92
287.767	4.91
288.224	4.89
288.682	4.88
289.139	4.85
289.596	4.82
290.053	4.79
290.511	4.75
290.968	4.72
291.425	4.7
291.882	4.67
292.339	4.64
292.796	4.62
293.252	4.59
293.709	4.55
294.166	4.53
294.623	4.51
295.079	4.5
295.536	4.48
295.992	4.45
296.449	4.44
296.905	4.42
297.362	4.39
297.818	4.38
298.274	4.36
298.731	4.35
299.187	4.34
299.643	4.32
300.099	4.31
300.555	4.3
301.011	4.29
301.467	4.27
301.923	4.26
302.379	4.26
302.835	4.25
303.291	4.24
303.746	4.23
304.202	4.23
304.658	4.22
305.113	4.21
305.569	4.2
306.024	4.2
306.479	4.19
306.935	4.19
307.39	4.19
307.845	4.19
308.301	4.18
308.756	4.19
309.211	4.19
309.666	4.19
310.121	4.19
310.576	4.19
311.031	4.19
311.486	4.2
311.94	4.19
312.395	4.19
312.85	4.19
313.305	4.19
313.759	4.19
314.214	4.18
314.668	4.18
315.123	4.19
315.577	4.19
316.032	4.18
316.486	4.17
316.94	4.16
317.394	4.16
317.849	4.14
318.303	4.13
318.757	4.11
319.211	4.09
319.665	4.06
320.119	4.04
320.572	4.04
321.026	4.02
321.48	3.99
321.934	3.99
322.387	3.97
322.841	3.96
323.295	3.95
323.748	3.95
324.202	3.95
324.655	3.95
325.108	3.93
325.562	3.92
326.015	3.91
326.468	3.9
326.921	3.9
327.374	3.89
327.827	3.88
328.28	3.88
328.733	3.87
329.186	3.87
329.639	3.85
330.092	3.85
330.545	3.86
330.997	3.86
331.45	3.87
331.903	3.86
332.355	3.86
332.808	3.87
333.26	3.88
333.713	3.88
334.165	3.89
334.617	3.9
335.069	3.91
335.522	3.92
335.974	3.92
336.426	3.93
336.878	3.93
337.33	3.93
337.782	3.94
338.234	3.92
338.686	3.93
339.137	3.92
339.589	3.91
340.041	3.9
340.493	3.89
340.944	3.88
341.396	3.87
341.847	3.85
342.299	3.82
342.75	3.8
343.201	3.79
343.653	3.76
344.104	3.75
344.555	3.73
345.006	3.71
345.457	3.7
345.908	3.69
346.359	3.69
346.81	3.69
347.261	3.69
347.712	3.69
348.163	3.68
348.613	3.68
349.064	3.66
349.515	3.66
349.965	3.66
350.416	3.65
350.866	3.65
351.317	3.64
351.767	3.63
352.217	3.62
352.668	3.61
353.118	3.61
353.568	3.63
354.018	3.64
354.468	3.64
354.918	3.64
355.368	3.65
355.818	3.64
356.268	3.64
356.718	3.65
357.168	3.65
357.617	3.65
358.067	3.65
358.517	3.64
358.966	3.65
359.416	3.65
359.865	3.65
360.315	3.65
360.764	3.65
361.213	3.64
361.663	3.64
362.112	3.63
362.561	3.63
363.01	3.64
363.459	3.63
363.908	3.63
364.357	3.63
364.806	3.63
365.255	3.62
365.703	3.62
366.152	3.63
366.601	3.63
367.05	3.63
367.498	3.63
367.947	3.63
368.395	3.64
368.844	3.63
369.292	3.62
369.74	3.62
370.189	3.62
370.637	3.62
371.085	3.61
371.533	3.6
371.981	3.6
372.429	3.59
372.877	3.58
373.325	3.57
373.773	3.57
374.221	3.56
374.669	3.56
375.116	3.54
375.564	3.54
376.012	3.54
376.459	3.54
376.907	3.53
377.354	3.53
377.801	3.52
378.249	3.53
378.696	3.52
379.143	3.53
379.591	3.52
380.038	3.54
380.485	3.54
380.932	3.53
381.379	3.53
381.826	3.53
382.273	3.53
382.72	3.53
383.166	3.52
383.613	3.52
384.06	3.51
384.506	3.51
384.953	3.5
385.4	3.49
385.846	3.49
386.292	3.49
386.739	3.47
387.185	3.49
387.631	3.48
388.078	3.49
388.524	3.48
388.97	3.47
389.416	3.47
389.862	3.47
390.308	3.47
390.754	3.48
391.2	3.49
391.645	3.51
392.091	3.51
392.537	3.52
392.983	3.53
393.428	3.54
393.874	3.57
394.319	3.58
394.765	3.59
395.21	3.59
395.655	3.6
396.101	3.61
396.546	3.62
396.991	3.63
397.436	3.62
397.881	3.64
398.326	3.67
398.771	3.67
399.216	3.7
399.661	3.73
400.106	3.77
400.551	3.77
400.995	3.77
401.44	3.77
401.885	3.79
402.329	3.82
402.774	3.82
403.218	3.83
403.663	3.83
404.107	3.84
404.551	3.85
404.995	3.85
405.44	3.86
405.884	3.89
406.328	3.9
406.772	3.92
407.216	3.94
407.66	3.95
408.104	3.96
408.547	3.98
408.991	3.98
409.435	3.99
409.879	4.01
410.322	4.04
410.766	4.06
411.209	4.08
411.653	4.08
412.096	4.09
412.54	4.11
412.983	4.13
413.426	4.16
413.869	4.2
414.312	4.24
414.756	4.28
415.199	4.3
415.642	4.34
416.085	4.38
416.527	4.42
416.97	4.44
417.413	4.46
417.856	4.46
418.298	4.44
418.741	4.46
419.184	4.46
419.626	4.44
420.069	4.43
420.511	4.43
420.953	4.42
421.396	4.43
421.838	4.45
422.28	4.48
422.722	4.5
423.164	4.52
423.606	4.53
424.048	4.54
424.49	4.57
424.932	4.59
425.374	4.59
425.816	4.59
426.258	4.57
426.699	4.52
427.141	4.49
427.582	4.5
428.024	4.51
428.465	4.52
428.907	4.53
429.348	4.52
429.789	4.53
430.231	4.54
430.672	4.56
431.113	4.59
431.554	4.63
431.995	4.67
432.436	4.68
432.877	4.69
433.318	4.69
433.759	4.7
434.2	4.73
434.64	4.75
435.081	4.76
435.522	4.79
435.962	4.82
436.403	4.85
436.843	4.86
437.284	4.88
437.724	4.91
438.164	4.93
438.604	4.96
439.045	4.98
439.485	4.99
439.925	4.99
440.365	4.97
440.805	4.98
441.245	4.97
441.685	4.99
442.125	4.99
442.564	5.01
443.004	5.03
443.444	5.04
443.883	5.08
444.323	5.1
444.762	5.15
445.202	5.2
445.641	5.22
446.081	5.29
446.52	5.3
446.959	5.33
447.398	5.37
447.837	5.42
448.276	5.44
448.716	5.44
449.154	5.46
449.593	5.49
450.032	5.49
450.471	5.51
450.91	5.48
451.349	5.5
451.787	5.5
452.226	5.48
452.664	5.44
453.103	5.42
453.541	5.42
453.98	5.39
454.418	5.35
454.856	5.32
455.295	5.29
455.733	5.28
456.171	5.25
456.609	5.23
457.047	5.2
457.485	5.19
457.923	5.18
458.361	5.16
458.798	5.17
459.236	5.16
459.674	5.16
460.111	5.15
460.549	5.15
460.987	5.15
461.424	5.14
461.862	5.14
462.299	5.13
462.736	5.12
463.173	5.13
463.611	5.11
464.048	5.13
464.485	5.14
464.922	5.16
465.359	5.17
465.796	5.15
466.233	5.17
466.67	5.2
467.106	5.2
467.543	5.2
467.98	5.22
468.416	5.23
468.853	5.21
469.29	5.21
469.726	5.2
470.162	5.19
470.599	5.2
471.035	5.22
471.471	5.2
471.907	5.21
472.344	5.22
472.78	5.21
473.216	5.2
473.652	5.17
474.088	5.18
474.523	5.16
474.959	5.16
475.395	5.15
475.831	5.12
476.266	5.12
476.702	5.11
477.138	5.09
477.573	5.06
478.008	5.05
478.444	5.04
478.879	5.03
479.314	5.02
479.75	5
480.185	5
480.62	4.98
481.055	4.97
481.49	4.95
481.925	4.94
482.36	4.93
482.795	4.9
483.229	4.9
483.664	4.89
484.099	4.89
484.534	4.87
484.968	4.85
485.403	4.85
485.837	4.85
486.271	4.86
486.706	4.85
487.14	4.88
487.574	4.89
488.009	4.91
488.443	4.93
488.877	4.93
489.311	4.95
489.745	4.97
490.179	5
490.613	5.01
491.046	5.04
491.48	5.08
491.914	5.11
492.348	5.14
492.781	5.17
493.215	5.2
493.648	5.25
494.082	5.3
494.515	5.34
494.948	5.4
495.382	5.46
495.815	5.52
496.248	5.57
496.681	5.63
497.114	5.7
497.547	5.78
497.98	5.86
498.413	5.94
498.846	6.04
499.279	6.14
499.711	6.23
500.144	6.33
500.577	6.45
501.009	6.57
501.442	6.69
501.874	6.8
502.306	6.93
502.739	7.04
503.171	7.2
503.603	7.34
504.036	7.49
504.468	7.66
504.9	7.84
505.332	8.01
505.764	8.19
506.196	8.39
506.627	8.61
507.059	8.81
507.491	9.04
507.923	9.26
508.354	9.48
508.786	9.73
509.217	9.96
509.649	10.22
510.08	10.48
510.512	10.75
510.943	11.03
511.374	11.33
511.805	11.62
512.237	11.9
512.668	12.19
513.099	12.5
513.53	12.82
513.961	13.15
514.391	13.47
514.822	13.8
515.253	14.12
515.684	14.44
516.114	14.77
516.545	15.11
516.975	15.47
517.406	15.83
517.836	16.17
518.267	16.51
518.697	16.87
519.127	17.23
519.558	17.57
519.988	17.93
520.418	18.28
520.848	18.61
521.278	18.94
521.708	19.28
522.138	19.58
522.567	19.9
522.997	20.2
523.427	20.5
523.857	20.76
524.286	21.04
524.716	21.29
525.145	21.55
525.575	21.81
526.004	22.06
526.433	22.3
526.863	22.56
527.292	22.78
527.721	22.98
528.15	23.19
528.579	23.4
529.008	23.61
529.437	23.81
529.866	23.99
530.295	24.16
530.724	24.35
531.152	24.5
531.581	24.64
532.01	24.78
532.438	24.93
532.867	25.06
533.295	25.18
533.723	25.31
534.152	25.4
534.58	25.51
535.008	25.58
535.436	25.64
535.865	25.69
536.293	25.77
536.721	25.84
537.149	25.91
537.576	25.95
538.004	26.01
538.432	26.04
538.86	26.09
539.287	26.12
539.715	26.16
540.143	26.21
540.57	26.25
540.998	26.28
541.425	26.32
541.852	26.31
542.28	26.33
542.707	26.37
543.134	26.39
543.561	26.4
543.988	26.44
544.415	26.47
544.842	26.5
545.269	26.54
545.696	26.58
546.123	26.6
546.549	26.65
546.976	26.7
547.403	26.72
547.829	26.73
548.256	26.78
548.682	26.81
549.108	26.84
549.535	26.87
549.961	26.88
550.387	26.88
550.813	26.87
551.24	26.88
551.666	26.88
552.092	26.88
552.518	26.89
552.943	26.87
553.369	26.84
553.795	26.84
554.221	26.79
554.646	26.76
555.072	26.71
555.498	26.68
555.923	26.63
556.349	26.55
556.774	26.48
557.199	26.42
557.625	26.33
558.05	26.26
558.475	26.14
558.9	26.04
559.325	25.93
559.75	25.83
560.175	25.71
560.6	25.58
561.025	25.45
561.449	25.32
561.874	25.18
562.299	25.04
562.723	24.87
563.148	24.74
563.572	24.59
563.997	24.42
564.421	24.24
564.846	24.07
565.27	23.9
565.694	23.72
566.118	23.52
566.542	23.32
566.966	23.13
567.39	22.94
567.814	22.71
568.238	22.48
568.662	22.27
569.086	22.07
569.509	21.87
569.933	21.67
570.357	21.46
570.78	21.27
571.204	21.08
571.627	20.88
572.05	20.69
572.474	20.53
572.897	20.39
573.32	20.22
573.743	20.06
574.166	19.89
574.589	19.74
575.012	19.61
575.435	19.46
575.858	19.35
576.281	19.22
576.704	19.09
577.126	18.97
577.549	18.85
577.972	18.73
578.394	18.61
578.817	18.53
579.239	18.41
579.661	18.3
580.084	18.19
580.506	18.08
580.928	17.96
581.35	17.87
581.772	17.78
582.194	17.68
582.616	17.6
583.038	17.52
583.46	17.42
583.882	17.33
584.303	17.26
584.725	17.18
585.147	17.1
585.568	17.02
585.99	16.96
586.411	16.89
586.833	16.82
587.254	16.75
587.675	16.68
588.096	16.63
588.518	16.58
588.939	16.5
589.36	16.45
589.781	16.4
590.202	16.34
590.623	16.27
591.043	16.22
591.464	16.15
591.885	16.11
592.305	16.06
592.726	15.97
593.147	15.96
593.567	15.91
593.987	15.88
594.408	15.82
594.828	15.79
595.248	15.76
595.669	15.73
596.089	15.71
596.509	15.66
596.929	15.61
597.349	15.57
597.769	15.5
598.189	15.47
598.608	15.41
599.028	15.38
599.448	15.33
599.867	15.27
600.287	15.22
600.706	15.15
601.126	15.1
601.545	15.05
601.965	15
602.384	14.96
602.803	14.89
603.222	14.81
603.641	14.73
604.061	14.66
604.48	14.59
604.898	14.51
605.317	14.43
605.736	14.36
606.155	14.26
606.574	14.17
606.992	14.07
607.411	13.99
607.829	13.86
608.248	13.78
608.666	13.7
609.085	13.61
609.503	13.51
609.921	13.43
610.339	13.33
610.758	13.25
611.176	13.16
611.594	13.08
612.012	12.98
612.43	12.95
612.847	12.85
613.265	12.77
613.683	12.69
614.101	12.6
614.518	12.52
614.936	12.45
615.353	12.36
615.771	12.29
616.188	12.23
616.606	12.16
617.023	12.08
617.44	12
617.857	11.94
618.274	11.86
618.691	11.82
619.108	11.77
619.525	11.73
619.942	11.68
620.359	11.65
620.776	11.6
621.192	11.57
621.609	11.53
622.026	11.5
622.442	11.48
622.859	11.46
623.275	11.44
623.691	11.42
624.108	11.39
624.524	11.38
624.94	11.35
625.356	11.34
625.772	11.32
626.188	11.32
626.604	11.3
627.02	11.29
627.436	11.27
627.852	11.24
628.268	11.22
628.683	11.2
629.099	11.19
629.514	11.16
629.93	11.13
630.345	11.09
630.761	11.06
631.176	11.02
631.591	10.97
632.007	10.92
632.422	10.88
632.837	10.82
633.252	10.75
633.667	10.68
634.082	10.61
634.497	10.52
634.911	10.44
635.326	10.33
635.741	10.22
636.155	10.12
636.57	10.01
636.984	9.88
637.399	9.73
637.813	9.61
638.228	9.47
638.642	9.36
639.056	9.25
639.47	9.12
639.884	9
640.298	8.87
640.712	8.74
641.126	8.61
641.54	8.49
641.954	8.4
642.368	8.28
642.781	8.16
643.195	8.04
643.609	7.92
644.022	7.81
644.436	7.72
644.849	7.63
645.262	7.54
645.676	7.45
646.089	7.37
646.502	7.27
646.915	7.2
647.328	7.14
647.741	7.07
648.154	7.01
648.567	6.97
648.98	6.93
649.393	6.88
649.805	6.83
650.218	6.8
650.631	6.76
651.043	6.73
651.456	6.7
651.868	6.66
652.28	6.63
652.693	6.6
653.105	6.54
653.517	6.48
653.929	6.45
654.341	6.41
654.753	6.36
655.165	6.33
655.577	6.27
655.989	6.2
656.401	6.13
656.813	6.06
657.224	6.01
657.636	5.96
658.047	5.89
658.459	5.81
658.87	5.74
659.282	5.69
659.693	5.6
660.104	5.54
660.515	5.47
660.926	5.43
661.338	5.38
661.749	5.3
662.159	5.23
662.57	5.17
662.981	5.12
663.392	5.07
663.803	5.01
664.213	4.96
664.624	4.93
665.035	4.9
665.445	4.86
665.855	4.83
666.266	4.8
666.676	4.77
667.086	4.75
667.497	4.74
667.907	4.73
668.317	4.71
668.727	4.7
669.137	4.68
669.547	4.67
669.956	4.66
670.366	4.66
670.776	4.65
671.186	4.65
671.595	4.67
672.005	4.69
672.414	4.69
672.824	4.71
673.233	4.73
673.642	4.73
674.052	4.74
674.461	4.76
674.87	4.78
675.279	4.81
675.688	4.84
676.097	4.87
676.506	4.89
676.915	4.92
677.323	4.96
677.732	5
678.141	5.04
678.549	5.09
678.958	5.15
679.366	5.19
679.775	5.25
680.183	5.32
680.592	5.38
681	5.44
681.408	5.51
681.816	5.59
682.224	5.69
682.632	5.81
683.04	5.93
683.448	6.05
683.856	6.22
684.264	6.38
684.671	6.56
685.079	6.77
685.487	7.03
685.894	7.3
686.302	7.58
686.709	7.87
687.116	8.2
687.524	8.57
687.931	8.96
688.338	9.38
688.745	9.84
689.152	10.32
689.559	10.83
689.966	11.34
690.373	11.89
690.78	12.48
691.187	13.1
691.593	13.74
692	14.39
692.407	15.06
692.813	15.74
693.22	16.43
693.626	17.14
694.032	17.88
694.439	18.61
694.845	19.32
695.251	20.06
695.657	20.76
696.063	21.47
696.469	22.18
696.875	22.89
697.281	23.58
697.687	24.28
698.093	24.98
698.498	25.65
698.904	26.33
699.31	27.01
699.715	27.67
700.12	28.35
700.526	29.01
700.931	29.64
701.337	30.3
701.742	30.91
702.147	31.53
702.552	32.14
702.957	32.74
703.362	33.32
703.767	33.89
704.172	34.46
704.577	35.03
704.981	35.58
705.386	36.13
705.791	36.66
706.195	37.21
706.6	37.71
707.004	38.2
707.408	38.71
707.813	39.21
708.217	39.69
708.621	40.16
709.025	40.61
709.43	41.07
709.834	41.51
710.237	41.94
710.641	42.37
711.045	42.77
711.449	43.19
711.853	43.61
712.256	44.02
712.66	44.43
713.064	44.81
713.467	45.18
713.87	45.57
714.274	45.97
714.677	46.33
715.08	46.72
715.484	47.13
715.887	47.47
716.29	47.81
716.693	48.16
717.096	48.51
717.499	48.84
717.901	49.17
718.304	49.47
718.707	49.77
719.109	50.1
719.512	50.4
719.915	50.68
720.317	50.99
720.719	51.27
721.122	51.54
721.524	51.81
721.926	52.1
722.328	52.36
722.731	52.61
723.133	52.82
723.535	53.09
723.937	53.29
724.338	53.51
724.74	53.73
725.142	53.88
725.544	54.07
725.945	54.24
726.347	54.43
726.748	54.58
727.15	54.73
727.551	54.91
727.952	55.04
728.354	55.2
728.755	55.33
729.156	55.48
729.557	55.68
729.958	55.83
730.359	55.96
730.76	56.06
731.161	56.19
731.562	56.34
731.962	56.46
732.363	56.55
732.763	56.66
733.164	56.75
733.564	56.84
733.965	56.9
734.365	56.97
734.766	57.05
735.166	57.14
735.566	57.19
735.966	57.25
736.366	57.3
736.766	57.36
737.166	57.42
737.566	57.49
737.966	57.55
738.365	57.62
738.765	57.68
739.165	57.72
739.564	57.75
739.964	57.8
740.363	57.85
740.763	57.91
741.162	57.96
741.561	58.02
741.96	58.09
742.36	58.12
742.759	58.13
743.158	58.16
743.557	58.22
743.955	58.31
744.354	58.37
744.753	58.4
745.152	58.42
745.55	58.47
745.949	58.47
746.348	58.5
746.746	58.54
747.144	58.61
747.543	58.65
747.941	58.72
748.339	58.75
748.737	58.83
749.136	58.88
749.534	58.94
749.932	58.96
750.33	58.97
750.727	58.96
751.125	58.97
751.523	58.95
751.921	58.97
752.318	58.95
752.716	58.92
753.113	58.87
753.511	58.8
753.908	58.77
754.305	58.73
754.703	58.71
755.1	58.68
755.497	58.66
755.894	58.65
756.291	58.62
756.688	58.61
757.085	58.59
757.482	58.61
757.878	58.66
758.275	58.63
758.672	58.67
759.068	58.69
759.465	58.7
759.861	58.7
760.258	58.69
760.654	58.64
761.05	58.61
761.447	58.6
761.843	58.58
762.239	58.58
762.635	58.61
763.031	58.62
763.427	58.6
763.822	58.6
764.218	58.57
764.614	58.58
765.01	58.58
765.405	58.58
765.801	58.55
766.196	58.53
766.592	58.52
766.987	58.51
767.382	58.44
767.778	58.45
768.173	58.43
768.568	58.42
768.963	58.42
769.358	58.42
769.753	58.43
770.148	58.47
770.542	58.46
770.937	58.43
771.332	58.4
771.726	58.43
772.121	58.42
772.515	58.43
772.91	58.46
773.304	58.45
773.699	58.44
774.093	58.41
774.487	58.4
774.881	58.42
775.275	58.43
775.669	58.47
776.063	58.43
776.457	58.42
776.851	58.39
777.245	58.4
777.638	58.42
778.032	58.48
778.425	58.49
778.819	58.48
779.212	58.44
779.606	58.42
779.999	58.39
780.392	58.44
780.786	58.41
781.179	58.46
781.572	58.44
781.965	58.43
782.358	58.4
782.751	58.41
783.143	58.43
783.536	58.48
783.929	58.49
784.322	58.5
784.714	58.51
785.107	58.57
785.499	58.58
785.891	58.58
786.284	58.56
786.676	58.61
787.068	58.62
787.46	58.6
787.852	58.59
788.245	58.61
788.636	58.64
789.028	58.63
789.42	58.58
789.812	58.56
790.204	58.55
790.595	58.6
790.987	58.59
791.378	58.57
791.77	58.61
792.161	58.62
792.553	58.64
792.944	58.67
793.335	58.73
793.726	58.75
794.117	58.75
794.508	58.73
794.899	58.7
795.29	58.7
795.681	58.73
796.072	58.72
796.463	58.69
796.853	58.66
797.244	58.63
797.634	58.55
798.025	58.58
798.415	58.61
798.806	58.67
799.196	58.71
799.586	58.71
799.976	58.72
800.366	58.74
800.756	58.78
801.146	58.83
801.536	58.84
801.926	58.86
802.316	58.88
802.706	58.91
803.095	58.9
803.485	58.92
803.874	58.92
804.264	58.95
804.653	58.94
805.043	58.94
805.432	58.93
805.821	58.94
806.21	58.98
806.599	59.02
806.988	59.04
807.377	59.05
807.766	59.03
808.155	59.06
808.544	59.06
808.933	59.1
809.321	59.14
809.71	59.18
810.098	59.21
810.487	59.2
810.875	59.17
811.264	59.18
811.652	59.22
812.04	59.26
812.428	59.29
812.816	59.29
813.204	59.3
813.592	59.29
813.98	59.25
814.368	59.24
814.756	59.27
815.144	59.3
815.531	59.29
815.919	59.3
816.306	59.29
816.694	59.3
817.081	59.3
817.469	59.34
817.856	59.38
818.243	59.41
818.63	59.46
819.017	59.47
819.404	59.44
819.791	59.45
820.178	59.45
820.565	59.47
820.952	59.47
821.339	59.49
821.725	59.5
822.112	59.49
822.498	59.49
822.885	59.48
823.271	59.49
823.657	59.5
824.044	59.45
824.43	59.44
824.816	59.41
825.202	59.42
825.588	59.42
825.974	59.4
826.36	59.38
826.746	59.39
827.132	59.37
827.517	59.37
827.903	59.4
828.289	59.42
828.674	59.41
829.06	59.42
829.445	59.42
829.83	59.36
830.216	59.33
830.601	59.34
830.986	59.33
831.371	59.37
831.756	59.32
832.141	59.29
832.526	59.28
832.911	59.26
833.295	59.25
833.68	59.22
834.065	59.23
834.449	59.18
834.834	59.14
835.218	59.11
835.603	59.05
835.987	59.03
836.371	59.02
836.755	58.97
837.139	58.95
837.524	58.91
837.908	58.87
838.291	58.87
838.675	58.87
839.059	58.88
839.443	58.87
839.827	58.85
840.21	58.86
840.594	58.83
840.977	58.8
841.361	58.81
841.744	58.82
842.127	58.82
842.511	58.8
842.894	58.75
843.277	58.71
843.66	58.68
844.043	58.69
844.426	58.68
844.809	58.69
845.191	58.69
845.574	58.67
845.957	58.61
846.339	58.59
846.722	58.58
847.104	58.6
847.487	58.6
847.869	58.59
848.252	58.54
848.634	58.57
849.016	58.56
849.398	58.57
849.78	58.56
850.162	58.59
850.544	58.63
850.926	58.6
851.307	58.64
851.689	58.63
852.071	58.65
852.452	58.64
852.834	58.61
853.215	58.6
853.597	58.59
853.978	58.58
854.359	58.56
854.741	58.55
855.122	58.55
855.503	58.53
855.884	58.51
856.265	58.48
856.646	58.5
857.026	58.49
857.407	58.48
857.788	58.5
858.169	58.49
858.549	58.52
858.93	58.53
859.31	58.52
859.69	58.52
860.071	58.51
860.451	58.55
860.831	58.55
861.211	58.56
861.591	58.57
861.971	58.56
862.351	58.6
862.731	58.58
863.111	58.57
863.491	58.6
863.87	58.59
864.25	58.63
864.629	58.61
865.009	58.57
865.388	58.55
865.768	58.54
866.147	58.53
866.526	58.54
866.905	58.56
867.284	58.56
867.663	58.53
868.042	58.52
868.421	58.52
868.8	58.54
869.179	58.56
869.558	58.57
869.936	58.56
870.315	58.56
870.693	58.54
871.072	58.54
871.45	58.52
871.828	58.54
872.207	58.58
872.585	58.56
872.963	58.55
873.341	58.55
873.719	58.54
874.097	58.56
874.475	58.56
874.853	58.53
875.23	58.52
875.608	58.54
875.986	58.52
876.363	58.5
876.741	58.51
877.118	58.51
877.495	58.51
877.873	58.52
878.25	58.5
878.627	58.51
879.004	58.53
879.381	58.51
879.758	58.5
880.135	58.51
880.512	58.53
880.889	58.55
881.265	58.55
881.642	58.53
882.019	58.53
882.395	58.5
882.772	58.47
883.148	58.43
883.524	58.45
883.901	58.44
884.277	58.41
884.653	58.39
885.029	58.36
885.405	58.33
885.781	58.3
886.157	58.29
886.532	58.27
886.908	58.3
887.284	58.32
887.659	58.28
888.035	58.25
888.411	58.19
888.786	58.12
889.161	58.09
889.537	58.08
889.912	58.05
890.287	58.01
890.662	58
891.037	57.92
891.412	57.84
891.787	57.83
892.162	57.79
892.536	57.8
892.911	57.76
893.286	57.73
893.66	57.69
894.035	57.67
894.409	57.67
894.784	57.64
895.158	57.65
895.532	57.64
895.906	57.6
896.281	57.62
896.655	57.58
897.029	57.6
897.402	57.61
897.776	57.6
898.15	57.6
898.524	57.6
898.898	57.57
899.271	57.57
899.645	57.6
900.018	57.59
900.392	57.6
900.765	57.62
901.138	57.63
901.511	57.63
901.884	57.64
902.258	57.64
902.631	57.66
903.003	57.7
903.376	57.69
903.749	57.72
904.122	57.76
904.495	57.75
904.867	57.75
905.24	57.74
905.612	57.76
905.985	57.74
906.357	57.74
906.729	57.7
907.102	57.69
907.474	57.7
907.846	57.65
908.218	57.67
908.59	57.65
908.962	57.67
909.334	57.68
909.705	57.66
910.077	57.65
910.449	57.66
910.82	57.69
911.192	57.7
911.563	57.67
911.935	57.64
912.306	57.62
912.677	57.64
913.048	57.66
913.419	57.68
913.79	57.69
914.161	57.69
914.532	57.72
914.903	57.73
915.274	57.72
915.645	57.79
916.015	57.86
916.386	57.86
916.756	57.83
917.127	57.82
917.497	57.79
917.868	57.79
918.238	57.84
918.608	57.85
918.978	57.82
919.348	57.82
919.718	57.79
920.088	57.78
920.458	57.83
920.828	57.85
921.198	57.84
921.567	57.84
921.937	57.86
922.306	57.85
922.676	57.83
923.045	57.82
923.415	57.83
923.784	57.83
924.153	57.84
924.522	57.78
924.891	57.79
925.26	57.75
925.629	57.73
925.998	57.73
926.367	57.71
926.736	57.71
927.104	57.73
927.473	57.76
927.842	57.74
928.21	57.73
928.578	57.71
928.947	57.68
929.315	57.73
929.683	57.73
930.051	57.7
930.42	57.68
930.788	57.61
931.156	57.59
931.523	57.55
931.891	57.48
932.259	57.41
932.627	57.34
932.994	57.3
933.362	57.26
933.729	57.24
934.097	57.21
934.464	57.18
934.831	57.17
935.199	57.1
935.566	57
935.933	57.02
936.3	57
936.667	57.05
937.034	57.02
937.401	56.95
937.767	56.95
938.134	56.92
938.501	56.89
938.867	56.92
939.234	57.04
939.6	57.15
939.967	57.19
940.333	57.32
940.699	57.44
941.065	57.66
941.431	57.89
941.798	57.99
942.163	58.14
942.529	58.29
942.895	58.43
943.261	58.48
943.627	58.63
943.992	58.72
944.358	58.73
944.723	58.7
945.089	58.63
945.454	58.61
945.82	58.69
946.185	58.81
946.55	58.98
946.915	58.95
947.28	58.89
947.645	58.92
948.01	58.97
948.375	59
948.74	59.02
949.104	59.09
949.469	58.96
949.834	58.89
950.198	58.73
950.562	58.53
950.927	58.53
951.291	58.54
951.655	58.43
952.02	58.38
952.384	58.37
952.748	58.36
953.112	58.25
953.476	58.24
953.839	58.2
954.203	58.17
954.567	58.14
954.931	58.08
955.294	58.05
955.658	57.99
956.021	57.93
956.385	57.9
956.748	57.86
957.111	57.85
957.474	57.83
957.837	57.8
958.2	57.74
958.563	57.71
958.926	57.66
959.289	57.64
959.652	57.61
960.015	57.55
960.377	57.5
960.74	57.38
961.102	57.35
961.465	57.34
961.827	57.22
962.189	57.15
962.552	57.11
962.914	57.06
963.276	57.03
963.638	56.94
964	56.95
964.362	56.96
964.724	57
965.085	57.05
965.447	57.03
965.809	57.04
966.17	57.11
966.532	57.14
966.893	57.2
967.255	57.19
967.616	57.23
967.977	57.2
968.338	57.13
968.699	57.08
969.061	57.02
969.421	57.01
969.782	57.01
970.143	56.97
970.504	56.9
970.865	56.82
971.225	56.81
971.586	56.91
971.946	56.95
972.307	57
972.667	57.01
973.027	57.01
973.388	57.01
973.748	57.14
974.108	57.19
974.468	57.27
974.828	57.35
975.188	57.34
975.548	57.31
975.907	57.28
976.267	57.31
976.627	57.38
976.986	57.38
977.346	57.35
977.705	57.31
978.064	57.34
978.424	57.36
978.783	57.36
979.142	57.34
979.501	57.26
979.86	57.22
980.219	57.22
980.578	57.16
980.937	57.17
981.296	57.23
981.654	57.3
982.013	57.23
982.371	57.25
982.73	57.31
983.088	57.38
983.447	57.44
983.805	57.5
984.163	57.5
984.521	57.46
984.879	57.5
985.237	57.55
985.595	57.63
985.953	57.65
986.311	57.7
986.669	57.71
987.026	57.78
987.384	57.83
987.741	57.95
988.099	57.93
988.456	58
988.814	58.05
989.171	58.01
989.528	57.77
989.885	57.88
990.242	57.86
990.599	57.91
990.956	57.97
991.313	58.08
991.67	58.07
992.027	58.14
992.383	58.26
992.74	58.27
993.096	58.29
993.453	58.45
993.809	58.43
994.165	58.41
994.522	58.27
994.878	58.19
995.234	58.13
995.59	58.11
995.946	58.19
996.302	58.17
996.658	58.18
997.013	58.3
997.369	58.38
997.725	58.47
998.08	58.6
998.436	58.88
998.791	58.9
999.147	59
999.502	59.01
999.857	59.02
1000.212	58.98
1000.567	59.09
1000.922	59.14
1001.277	59.11
1001.632	59.19
1001.987	59.19
1002.342	59.04
1002.696	59.15
1003.051	59.03
1003.406	58.99
1003.76	58.85
1004.114	58.99
1004.469	58.91
1004.823	58.98
1005.177	59.19
1005.531	59.14
1005.885	59.23
1006.239	59.46
1006.593	59.56
1006.947	59.62
1007.301	59.77
1007.655	59.99
1008.008	60.05
1008.362	60.21
1008.715	60.12
1009.069	60.08
1009.422	60.06
1009.776	60.15
1010.129	59.93
1010.482	60.19
1010.835	60.33
1011.188	60.33
1011.541	60.25
1011.894	60.23
1012.247	60.32
1012.6	60.39
1012.952	60.39
1013.305	60.43
1013.657	60.43
1014.01	60.91
1014.362	60.81
1014.715	60.74
1015.067	60.93
1015.419	61.23
1015.771	61.61
1016.123	61.65
1016.475	62.1
1016.827	62.39
1017.179	62.63
1017.531	62.79
1017.883	62.79
1018.234	62.78
1018.586	63.12
1018.938	63.08
1019.289	63.15
1019.64	63.23
1019.992	63.36
1020.343	63.03
1020.694	62.83
1021.045	62.86
1021.396	62.9
1021.747	62.72
1022.098	62.94
1022.449	62.75
1022.8	63.02
1023.151	63.16
1023.501	63.16
1023.852	63.44
1024.202	63.57
1024.553	63.85
1024.903	63.96
1025.253	64.18
1025.604	64.46
1025.954	64.16
1026.304	64.75
1026.654	64.95
1027.004	64.99
1027.354	65.01
1027.703	64.91
1028.053	65.11
1028.403	64.98
1028.753	65.55
1029.102	65.64
1029.452	65.78
1029.801	66.25
1030.15	66.26
1030.499	66.27
897.758	550.44
901.051	555.88
904.343	561.06
907.636	549.96
910.928	543.42
914.22	550.84
917.511	536.09
920.803	508.37
924.094	492.39
927.384	495.57
930.675	478.82
933.965	474.35
937.255	475.14
940.544	454.76
943.834	436.52
947.123	427.16
950.411	406.83
953.7	402.39
956.988	394.17
960.276	376.14
963.563	369.87
966.851	352.75
970.138	346.57
973.424	324.94
976.711	319.13
979.997	309.29
983.283	303.58
986.568	293.52
989.853	287.13
993.138	276.01
996.423	271.79
999.708	265.87
1002.992	266.25
1006.275	257.86
1009.559	255.31
1012.842	248.78
1016.125	242.02
1019.408	238.15
1022.69	235.46
1025.972	232.96
1029.254	227.87
1032.536	224.38
1035.817	217.18
1039.098	213.94
1042.379	210.14
1045.659	207.59
1048.939	206.26
1052.219	203.03
1055.498	199.2
1058.778	197.28
1062.057	192.77
1065.335	192.41
1068.614	188.55
1071.892	186.49
1075.17	183.46
1078.447	181.83
1081.724	179.69
1085.001	176.13
1088.278	176.13
1091.554	175.08
1094.83	173.98
1098.106	171.99
1101.382	170.77
1104.657	170.59
1107.932	170.44
1111.206	169.75
1114.481	168.56
1117.755	167.01
1121.029	167.27
1124.302	164.65
1127.575	162.2
1130.848	161.25
1134.121	160.05
1137.393	159.67
1140.665	158.69
1143.937	157.12
1147.208	155.3
1150.48	153.36
1153.75	153.39
1157.021	151.55
1160.291	150.72
1163.561	150.62
1166.831	149.1
1170.101	148.1
1173.37	146.89
1176.639	145.28
1179.907	145.3
1183.176	144.91
1186.444	144.95
1189.711	143.73
1192.979	144.85
1196.246	145.09
1199.513	145.51
1202.78	145.79
1206.046	146
1209.312	147.35
1212.578	148.33
1215.843	150.48
1219.108	150.8
1222.373	153.45
1225.638	156.49
1228.902	159.38
1232.166	163.42
1235.43	164.83
1238.693	169.14
1241.956	173.01
1245.219	175.99
1248.482	177.6
1251.744	176.45
1255.006	178.3
1258.268	172.48
1261.529	170.98
1264.79	166.01
1268.051	164.72
1271.312	163.35
1274.572	159.96
1277.832	156.62
1281.092	154.69
1284.351	151.6
1287.61	151.34
1290.869	149.8
1294.128	150.45
1297.386	149.23
1300.644	149.8
1303.902	147.48
1307.159	146.48
1310.416	147.69
1313.673	148.77
1316.93	149.93
1320.186	152.49
1323.442	153.92
1326.697	156.86
1329.953	157.5
1333.208	162.67
1336.463	168.11
1339.717	171.94
1342.972	179.57
1346.226	183.09
1349.479	184.74
1352.733	192.47
1355.986	195.74
1359.238	199.62
1362.491	200.92
1365.743	209.06
1368.995	208.81
1372.247	210.94
1375.498	208.45
1378.749	215.55
1382	217.13
1385.251	215.64
1388.501	214.28
1391.751	217.12
1395	215.83
1398.25	218.1
1401.499	217.15
1404.748	217.41
1407.996	209.02
1411.244	210.66
1414.492	206.97
1417.74	200.48
1420.987	196.3
1424.234	194.01
1427.481	186.33
1430.728	181.57
1433.974	175.26
1437.22	169.78
1440.465	164
1443.711	160.15
1446.956	155.15
1450.201	149.48
1453.445	143.93
1456.689	140.42
1459.933	135.47
1463.177	131
1466.42	128.64
1469.663	124.98
1472.906	122.18
1476.148	119.61
1479.391	117.12
1482.633	115.44
1485.874	113.97
1489.115	113.26
1492.356	111.38
1495.597	109.84
1498.838	109.5
1502.078	108.78
1505.318	108.68
1508.557	107.81
1511.797	106.82
1515.036	106.78
1518.274	106.37
1521.513	105
1524.751	104.18
1527.989	105.21
1531.227	105.56
1534.464	104.9
1537.701	104.04
1540.938	103.35
1544.174	103.6
1547.41	103.96
1550.646	103.59
1553.882	103.29
1557.117	103.56
1560.352	103.37
1563.587	102.53
1566.821	101.99
1570.055	101.87
1573.289	102.15
1576.523	101.98
1579.756	101.64
1582.989	101.99
1586.222	101.87
1589.454	101.82
1592.686	101.51
1595.918	101.39
1599.15	100.98
1602.381	101.64
1605.612	101.73
1608.843	101.46
1612.073	101.86
1615.303	101.77
1618.533	101.13
1621.762	101.35
1624.992	101.97
1628.221	101.58
1631.449	102.31
1634.678	102.3
1637.906	101.91
1641.134	101.76
1644.361	101.9
1647.588	102.56
1650.815	102.57
1654.042	102.86
1657.269	102.07
1660.495	102.21
1663.72	102.31
1666.946	102
1670.171	102.61
1673.396	103.45
1676.621	103.73
1679.845	103.71
1683.069	103.42
1686.293	103.33
1689.517	103.51
1692.74	104.39
1695.963	104.22
1699.185	104.76
1702.408	104.14
1705.63	104.31
1708.852	104.59
1712.073	104.55
1715.294	104.48
1718.515	104.84
1721.736	105.17
1724.956	104.68
1728.176	104.54
1731.396	105.27
1734.616	105.67
1737.835	106.76
1741.054	105.85
1744.272	105.12
1747.491	105.84
1750.709	106.7
1753.927	106.6
1757.144	106.82
1760.361	107.38
1763.578	108.47
1766.795	108.36
1770.011	107.67
1773.227	108.16
1776.443	109.96
1779.658	109.85
1782.874	109.58
1786.089	109.26
1789.303	109.47
1792.518	110.43
1795.732	111.11
1798.945	111.63
1802.159	111.59
1805.372	113.4
1808.585	113.88
1811.797	113.82
1815.01	114.86
1818.222	115.81
1821.434	116.86
1824.645	117.22
1827.856	118.36
1831.067	118.94
1834.278	119.44
1837.488	120.8
1840.698	121.59
1843.908	121.45
1847.117	122.74
1850.326	124.14
1853.535	125.5
1856.744	126.26
1859.952	127.92
1863.16	127.41
1866.368	126.37
1869.575	127.7
1872.782	125.74
1875.989	124.26
1879.196	124.03
1882.402	122.88
1885.608	122.35
1888.814	120.67
1892.019	120.72
1895.224	118.2
1898.429	118.14
1901.634	118.44
1904.838	117.32
1908.042	118.19
1911.246	118.51
1914.449	118.53
1917.652	117.32
1920.855	118.15
1924.058	116.68
1927.26	116.12
1930.462	116.95
1933.664	116.94
1936.865	118.21
1940.066	116.01
1943.267	115.62
1946.467	115.77
1949.668	115.43
1952.868	116.48
1956.067	115.6
1959.267	116.88
1962.466	117.18
1965.665	119.81
1968.863	119.15
1972.061	119.2
1975.259	122.23
1978.457	123.49
1981.654	124.42
1984.852	126.23
1988.048	127.61
1991.245	129.9
1994.441	132.35
1997.637	135.03
2000.833	135.56
2004.028	138.52
2007.223	142.01
2010.418	144.62
2013.613	150.53
2016.807	154.62
2020.001	158.08
2023.194	162.77
2026.388	167.74
2029.581	176.39
2032.774	182.12
2035.966	187.89
2039.158	192.71
2042.35	196.38
2045.542	200.75
2048.733	209.23
2051.924	211.77
2055.115	213.86
2058.306	215.86
2061.496	219.99
2064.686	217.8
2067.875	217.82
2071.065	219.32
2074.254	219.12
2077.442	225.59
2080.631	227.54
2083.819	227.41
2087.007	233.29
2090.195	236.78
2093.382	236.78
2096.569	237.01
2099.756	242.25
2102.942	246.31
2106.128	253.06
2109.314	253.26
2112.5	252.78
2115.685	252.15
2118.87	252.23
2122.055	251.9
2125.239	257.36
2128.424	263.65
2131.608	261.64
2134.791	261.31
2137.974	262.98
2141.157	261.91
2144.34	268.05
2147.523	274.13
2150.705	280.17
2153.887	276.86
2157.068	278.9
2160.25	281.48
2163.431	280.24
2166.611	284.61
2169.792	289.8
2172.972	292.19
2176.152	293.34
2179.331	298.16
2182.511	295.55
2185.69	300.01
2188.868	311.43
2192.047	320.47
2195.225	324.55
2198.403	328.45
2201.58	324.85
2204.758	336.2
2207.935	339.96
2211.111	347.45
2214.288	348.33
2217.464	354.14
2220.64	354.25
2223.815	357.96
2226.991	349.78
2230.166	353.45
2233.34	363.71
2236.515	377.61
2239.689	371.73
2242.863	374.77
2246.036	373.57
2249.209	384.15
2252.382	380.64
2255.555	395.61
2258.727	394.41
2261.9	411.76
2265.071	415.3
2268.243	411.42
2271.414	421.98
2274.585	430.11
2277.756	428.7
2280.926	445.25
2284.096	448.85
2287.266	454.79
2290.436	446.14
2293.605	455.53
2296.774	467.28
2299.942	468.96
2303.111	482.9
2306.279	491.59
2309.447	496.49
2312.614	497.94
2315.781	507.18
2318.948	507.04
2322.115	515.72
2325.281	542
2328.447	539.29
2331.613	541.84
2334.779	545.3
2337.944	558.2
2341.109	564.21
2344.274	567.83
2347.438	587.86
2350.602	596.14
2353.766	635.67
2356.929	636.79
2360.092	646.19
2363.255	652.62
2366.418	658.62
2369.58	678.8
2372.742	673.98
2375.904	676.45
2379.066	697.42
2382.227	735.87
2385.388	730.58
2388.548	692.56
2391.709	689.33
2394.869	703.48
2398.029	707.38
2401.188	709.81
2404.347	725.06
2407.506	750.31
2410.665	720.44
2413.823	725.51
2416.981	723.69
2420.139	692.21
2423.296	749.95
2426.453	794.69
2429.61	761.65
2432.767	811.56
2435.923	835.38
2439.079	813.67
2442.235	830.86
2445.391	852.24
2448.546	842.59
2451.701	887.23
2454.855	949.25
2458.009	839.06
2461.163	852.05
2464.317	867.96
2467.471	845.27
2470.624	873.48
2473.777	860.63
2476.929	836.54
2480.082	888.27
2483.234	931.91
2486.385	952.79
2489.537	974.63
2492.688	1074.32
2495.839	1054.17
2498.989	1084.31
2502.14	1092.41
2505.29	1051.85
2508.439	1146.76
2511.589	1171.69
2514.738	1138.97
2517.887	1123.93
2521.035	1053.64
2524.183	1042.91
2527.331	1030.2
2530.479	1010.61
2533.627	1026.7
