Data from N_3_dec_on_6n_Splice17_15.txt Node
Date: Sat Feb 29 15:09:45 EST 2020
User: sa697716
Spectrometer: FLMS03696
Trigger mode: 0
Integration Time (sec): 3.180400E-1
Scans to average: 20
Electric dark correction enabled: true
Nonlinearity correction enabled: true
Boxcar width: 5
XAxis mode: Wavelengths
Number of Pixels in Spectrum: 2048
>>>>>Begin Spectral Data<<<<<
187.83	80.27
188.298	66.52
188.766	78.5
189.233	79.71
189.701	81.32
190.169	85.84
190.636	90.09
191.104	69.78
191.571	115.8
192.039	19.21
192.506	452.11
192.974	8001.1
193.441	106.85
193.908	54.14
194.375	73.14
194.842	83.07
195.31	112.08
195.777	110.04
196.244	53.26
196.711	65.61
197.177	64.9
197.644	67.26
198.111	66.93
198.578	68.44
199.045	69.5
199.511	69.98
199.978	70.21
200.445	69.88
200.911	70.66
201.378	71.01
201.844	72.04
202.31	72.48
202.777	72.3
203.243	73.18
203.709	73.36
204.176	73.1
204.642	72.38
205.108	72.18
205.574	72.59
206.04	71.95
206.506	71.43
206.972	70.56
207.438	69.63
207.903	68.84
208.369	66.91
208.835	66.02
209.301	65.16
209.766	63.84
210.232	62.59
210.697	60.92
211.163	59.51
211.628	58.31
212.094	56.93
212.559	55.83
213.024	55.02
213.49	54.05
213.955	52.77
214.42	51.17
214.885	49.49
215.35	47.43
215.815	44.76
216.28	42.12
216.745	39.12
217.21	35.79
217.675	32.86
218.14	29.91
218.604	27.35
219.069	25.24
219.534	23.47
219.998	21.98
220.463	20.73
220.927	19.7
221.392	18.71
221.856	17.92
222.32	17.29
222.785	16.67
223.249	16.21
223.713	15.77
224.177	15.3
224.642	14.96
225.106	14.66
225.57	14.32
226.034	14.02
226.497	13.71
226.961	13.39
227.425	13.12
227.889	12.9
228.353	12.63
228.816	12.43
229.28	12.21
229.744	12.01
230.207	11.82
230.671	11.64
231.134	11.46
231.597	11.29
232.061	11.16
232.524	11.01
232.987	10.85
233.45	10.73
233.914	10.58
234.377	10.47
234.84	10.34
235.303	10.21
235.766	10.11
236.229	10.01
236.691	9.92
237.154	9.82
237.617	9.72
238.08	9.63
238.542	9.53
239.005	9.46
239.468	9.37
239.93	9.28
240.393	9.21
240.855	9.13
241.317	9.06
241.78	8.99
242.242	8.92
242.704	8.84
243.166	8.78
243.629	8.71
244.091	8.66
244.553	8.59
245.015	8.53
245.477	8.46
245.939	8.39
246.4	8.31
246.862	8.26
247.324	8.21
247.786	8.16
248.247	8.1
248.709	8.04
249.17	7.97
249.632	7.91
250.093	7.84
250.555	7.8
251.016	7.76
251.477	7.71
251.939	7.65
252.4	7.6
252.861	7.55
253.322	7.5
253.783	7.48
254.244	7.44
254.705	7.4
255.166	7.37
255.627	7.34
256.088	7.29
256.549	7.26
257.009	7.23
257.47	7.18
257.931	7.14
258.391	7.09
258.852	7.03
259.312	6.99
259.773	6.94
260.233	6.89
260.694	6.84
261.154	6.79
261.614	6.74
262.074	6.7
262.534	6.64
262.994	6.61
263.455	6.57
263.915	6.53
264.374	6.49
264.834	6.46
265.294	6.43
265.754	6.39
266.214	6.37
266.673	6.33
267.133	6.3
267.593	6.28
268.052	6.25
268.512	6.23
268.971	6.21
269.431	6.19
269.89	6.17
270.349	6.15
270.809	6.13
271.268	6.12
271.727	6.11
272.186	6.1
272.645	6.08
273.104	6.06
273.563	6.05
274.022	6.04
274.481	6.02
274.94	6
275.399	5.98
275.857	5.97
276.316	5.94
276.775	5.92
277.233	5.9
277.692	5.89
278.15	5.88
278.609	5.86
279.067	5.84
279.525	5.83
279.984	5.81
280.442	5.81
280.9	5.81
281.358	5.8
281.816	5.8
282.274	5.79
282.732	5.78
283.19	5.78
283.648	5.78
284.106	5.78
284.564	5.78
285.021	5.78
285.479	5.78
285.937	5.77
286.394	5.77
286.852	5.77
287.309	5.76
287.767	5.75
288.224	5.74
288.682	5.74
289.139	5.73
289.596	5.71
290.053	5.69
290.511	5.65
290.968	5.63
291.425	5.61
291.882	5.6
292.339	5.58
292.796	5.56
293.252	5.54
293.709	5.52
294.166	5.5
294.623	5.49
295.079	5.48
295.536	5.47
295.992	5.46
296.449	5.45
296.905	5.43
297.362	5.42
297.818	5.41
298.274	5.4
298.731	5.4
299.187	5.39
299.643	5.39
300.099	5.38
300.555	5.37
301.011	5.37
301.467	5.36
301.923	5.36
302.379	5.36
302.835	5.36
303.291	5.36
303.746	5.35
304.202	5.35
304.658	5.35
305.113	5.35
305.569	5.35
306.024	5.35
306.479	5.36
306.935	5.36
307.39	5.36
307.845	5.37
308.301	5.37
308.756	5.38
309.211	5.38
309.666	5.39
310.121	5.4
310.576	5.4
311.031	5.4
311.486	5.41
311.94	5.4
312.395	5.42
312.85	5.42
313.305	5.43
313.759	5.43
314.214	5.43
314.668	5.43
315.123	5.43
315.577	5.44
316.032	5.44
316.486	5.42
316.94	5.43
317.394	5.42
317.849	5.4
318.303	5.39
318.757	5.38
319.211	5.37
319.665	5.36
320.119	5.35
320.572	5.34
321.026	5.32
321.48	5.32
321.934	5.32
322.387	5.31
322.841	5.3
323.295	5.29
323.748	5.29
324.202	5.29
324.655	5.29
325.108	5.27
325.562	5.27
326.015	5.28
326.468	5.26
326.921	5.25
327.374	5.25
327.827	5.26
328.28	5.25
328.733	5.24
329.186	5.24
329.639	5.24
330.092	5.24
330.545	5.25
330.997	5.25
331.45	5.26
331.903	5.26
332.355	5.26
332.808	5.26
333.26	5.27
333.713	5.28
334.165	5.27
334.617	5.27
335.069	5.27
335.522	5.27
335.974	5.27
336.426	5.28
336.878	5.29
337.33	5.28
337.782	5.29
338.234	5.29
338.686	5.28
339.137	5.3
339.589	5.29
340.041	5.3
340.493	5.28
340.944	5.27
341.396	5.27
341.847	5.25
342.299	5.24
342.75	5.21
343.201	5.19
343.653	5.18
344.104	5.16
344.555	5.14
345.006	5.12
345.457	5.11
345.908	5.1
346.359	5.09
346.81	5.08
347.261	5.07
347.712	5.07
348.163	5.06
348.613	5.05
349.064	5.04
349.515	5.03
349.965	5.03
350.416	5.03
350.866	5.02
351.317	5.01
351.767	5.01
352.217	5
352.668	5
353.118	5.01
353.568	5.02
354.018	5.03
354.468	5.03
354.918	5.04
355.368	5.04
355.818	5.05
356.268	5.06
356.718	5.06
357.168	5.06
357.617	5.05
358.067	5.04
358.517	5.04
358.966	5.04
359.416	5.06
359.865	5.06
360.315	5.07
360.764	5.08
361.213	5.08
361.663	5.1
362.112	5.11
362.561	5.14
363.01	5.15
363.459	5.16
363.908	5.16
364.357	5.16
364.806	5.17
365.255	5.18
365.703	5.18
366.152	5.2
366.601	5.22
367.05	5.23
367.498	5.25
367.947	5.27
368.395	5.3
368.844	5.33
369.292	5.34
369.74	5.37
370.189	5.4
370.637	5.44
371.085	5.47
371.533	5.51
371.981	5.54
372.429	5.56
372.877	5.59
373.325	5.63
373.773	5.67
374.221	5.73
374.669	5.78
375.116	5.81
375.564	5.85
376.012	5.9
376.459	5.94
376.907	5.99
377.354	6.04
377.801	6.09
378.249	6.15
378.696	6.21
379.143	6.25
379.591	6.3
380.038	6.36
380.485	6.42
380.932	6.48
381.379	6.54
381.826	6.6
382.273	6.66
382.72	6.72
383.166	6.77
383.613	6.83
384.06	6.88
384.506	6.93
384.953	6.98
385.4	7.03
385.846	7.07
386.292	7.13
386.739	7.16
387.185	7.23
387.631	7.27
388.078	7.32
388.524	7.33
388.97	7.36
389.416	7.39
389.862	7.43
390.308	7.46
390.754	7.49
391.2	7.52
391.645	7.56
392.091	7.57
392.537	7.59
392.983	7.61
393.428	7.65
393.874	7.71
394.319	7.72
394.765	7.74
395.21	7.75
395.655	7.77
396.101	7.79
396.546	7.8
396.991	7.81
397.436	7.8
397.881	7.81
398.326	7.83
398.771	7.83
399.216	7.86
399.661	7.87
400.106	7.89
400.551	7.89
400.995	7.85
401.44	7.81
401.885	7.79
402.329	7.77
402.774	7.75
403.218	7.72
403.663	7.7
404.107	7.68
404.551	7.66
404.995	7.63
405.44	7.61
405.884	7.6
406.328	7.61
406.772	7.61
407.216	7.61
407.66	7.6
408.104	7.59
408.547	7.58
408.991	7.56
409.435	7.54
409.879	7.52
410.322	7.51
410.766	7.51
411.209	7.52
411.653	7.5
412.096	7.47
412.54	7.47
412.983	7.46
413.426	7.47
413.869	7.47
414.312	7.48
414.756	7.5
415.199	7.51
415.642	7.53
416.085	7.53
416.527	7.55
416.97	7.57
417.413	7.55
417.856	7.54
418.298	7.51
418.741	7.5
419.184	7.49
419.626	7.46
420.069	7.43
420.511	7.4
420.953	7.37
421.396	7.35
421.838	7.34
422.28	7.37
422.722	7.37
423.164	7.36
423.606	7.37
424.048	7.35
424.49	7.36
424.932	7.36
425.374	7.35
425.816	7.34
426.258	7.32
426.699	7.28
427.141	7.24
427.582	7.22
428.024	7.21
428.465	7.2
428.907	7.21
429.348	7.21
429.789	7.21
430.231	7.2
430.672	7.21
431.113	7.23
431.554	7.26
431.995	7.28
432.436	7.28
432.877	7.27
433.318	7.26
433.759	7.25
434.2	7.25
434.64	7.26
435.081	7.28
435.522	7.29
435.962	7.3
436.403	7.31
436.843	7.32
437.284	7.34
437.724	7.39
438.164	7.42
438.604	7.46
439.045	7.5
439.485	7.52
439.925	7.53
440.365	7.54
440.805	7.54
441.245	7.54
441.685	7.56
442.125	7.58
442.564	7.61
443.004	7.62
443.444	7.63
443.883	7.63
444.323	7.66
444.762	7.7
445.202	7.76
445.641	7.8
446.081	7.85
446.52	7.87
446.959	7.9
447.398	7.96
447.837	8.04
448.276	8.05
448.716	8.11
449.154	8.15
449.593	8.19
450.032	8.2
450.471	8.23
450.91	8.24
451.349	8.28
451.787	8.28
452.226	8.27
452.664	8.25
453.103	8.26
453.541	8.25
453.98	8.24
454.418	8.21
454.856	8.18
455.295	8.17
455.733	8.16
456.171	8.13
456.609	8.14
457.047	8.11
457.485	8.1
457.923	8.08
458.361	8.07
458.798	8.07
459.236	8.06
459.674	8.07
460.111	8.07
460.549	8.05
460.987	8.06
461.424	8.04
461.862	8.04
462.299	8.02
462.736	8.03
463.173	8.05
463.611	8.02
464.048	8.04
464.485	8.03
464.922	8.01
465.359	8.02
465.796	8.01
466.233	8.03
466.67	8.04
467.106	8.03
467.543	8.02
467.98	8.03
468.416	8.06
468.853	8.06
469.29	8.08
469.726	8.09
470.162	8.09
470.599	8.1
471.035	8.1
471.471	8.09
471.907	8.1
472.344	8.12
472.78	8.11
473.216	8.1
473.652	8.09
474.088	8.11
474.523	8.12
474.959	8.11
475.395	8.12
475.831	8.13
476.266	8.13
476.702	8.14
477.138	8.12
477.573	8.1
478.008	8.11
478.444	8.1
478.879	8.09
479.314	8.08
479.75	8.1
480.185	8.08
480.62	8.06
481.055	8.06
481.49	8.05
481.925	8.06
482.36	8.04
482.795	8.02
483.229	8.01
483.664	7.99
484.099	7.99
484.534	7.97
484.968	7.98
485.403	7.98
485.837	7.98
486.271	7.99
486.706	7.99
487.14	8.03
487.574	8.06
488.009	8.11
488.443	8.14
488.877	8.17
489.311	8.22
489.745	8.25
490.179	8.31
490.613	8.36
491.046	8.4
491.48	8.47
491.914	8.53
492.348	8.58
492.781	8.63
493.215	8.7
493.648	8.77
494.082	8.84
494.515	8.92
494.948	9
495.382	9.09
495.815	9.2
496.248	9.28
496.681	9.38
497.114	9.49
497.547	9.6
497.98	9.71
498.413	9.82
498.846	9.95
499.279	10.09
499.711	10.2
500.144	10.33
500.577	10.48
501.009	10.62
501.442	10.79
501.874	10.94
502.306	11.11
502.739	11.27
503.171	11.45
503.603	11.65
504.036	11.84
504.468	12.06
504.9	12.28
505.332	12.48
505.764	12.72
506.196	12.96
506.627	13.2
507.059	13.44
507.491	13.7
507.923	13.95
508.354	14.22
508.786	14.48
509.217	14.73
509.649	15.02
510.08	15.32
510.512	15.61
510.943	15.89
511.374	16.18
511.805	16.47
512.237	16.78
512.668	17.1
513.099	17.41
513.53	17.72
513.961	18.06
514.391	18.36
514.822	18.67
515.253	18.99
515.684	19.32
516.114	19.65
516.545	19.96
516.975	20.29
517.406	20.62
517.836	20.93
518.267	21.24
518.697	21.55
519.127	21.85
519.558	22.15
519.988	22.44
520.418	22.74
520.848	23.04
521.278	23.33
521.708	23.49
522.138	23.75
522.567	24.03
522.997	24.31
523.427	24.58
523.857	24.84
524.286	25.09
524.716	25.33
525.145	25.57
525.575	25.8
526.004	26.03
526.433	26.36
526.863	26.58
527.292	26.76
527.721	26.93
528.15	27.08
528.579	27.24
529.008	27.39
529.437	27.55
529.866	27.67
530.295	27.82
530.724	27.96
531.152	28.08
531.581	28.21
532.01	28.32
532.438	28.45
532.867	28.58
533.295	28.69
533.723	28.79
534.152	28.87
534.58	28.95
535.008	29.02
535.436	29.07
535.865	29.14
536.293	29.2
536.721	29.25
537.149	29.27
537.576	29.32
538.004	29.36
538.432	29.39
538.86	29.43
539.287	29.47
539.715	29.52
540.143	29.54
540.57	29.56
540.998	29.58
541.425	29.62
541.852	29.65
542.28	29.65
542.707	29.67
543.134	29.72
543.561	29.72
543.988	29.74
544.415	29.75
544.842	29.8
545.269	29.84
545.696	29.88
546.123	29.93
546.549	29.98
546.976	30.03
547.403	30.04
547.829	30.06
548.256	30.11
548.682	30.16
549.108	30.19
549.535	30.22
549.961	30.23
550.387	30.22
550.813	30.19
551.24	30.19
551.666	30.21
552.092	30.24
552.518	30.24
552.943	30.23
553.369	30.23
553.795	30.21
554.221	30.19
554.646	30.18
555.072	30.18
555.498	30.17
555.923	30.14
556.349	30.08
556.774	30.03
557.199	30.01
557.625	29.96
558.05	29.88
558.475	29.81
558.9	29.76
559.325	29.69
559.75	29.61
560.175	29.52
560.6	29.43
561.025	29.35
561.449	29.24
561.874	29.12
562.299	29.03
562.723	28.94
563.148	28.85
563.572	28.73
563.997	28.59
564.421	28.48
564.846	28.35
565.27	28.21
565.694	28.07
566.118	27.94
566.542	27.81
566.966	27.66
567.39	27.5
567.814	27.34
568.238	27.16
568.662	27
569.086	26.83
569.509	26.67
569.933	26.51
570.357	26.34
570.78	26.17
571.204	26
571.627	25.84
572.05	25.7
572.474	25.55
572.897	25.41
573.32	25.28
573.743	25.14
574.166	25
574.589	24.88
575.012	24.78
575.435	24.66
575.858	24.55
576.281	24.43
576.704	24.33
577.126	24.24
577.549	24.15
577.972	24.07
578.394	23.97
578.817	23.88
579.239	23.79
579.661	23.71
580.084	23.63
580.506	23.55
580.928	23.46
581.35	23.38
581.772	23.32
582.194	23.23
582.616	23.15
583.038	23.1
583.46	23.05
583.882	22.99
584.303	22.92
584.725	22.86
585.147	22.79
585.568	22.72
585.99	22.66
586.411	22.59
586.833	22.53
587.254	22.47
587.675	22.4
588.096	22.35
588.518	22.31
588.939	22.27
589.36	22.2
589.781	22.16
590.202	22.12
590.623	22.06
591.043	22.02
591.464	21.97
591.885	21.92
592.305	21.89
592.726	21.83
593.147	21.78
593.567	21.73
593.987	21.7
594.408	21.66
594.828	21.61
595.248	21.58
595.669	21.53
596.089	21.49
596.509	21.44
596.929	21.4
597.349	21.33
597.769	21.28
598.189	21.24
598.608	21.21
599.028	21.17
599.448	21.14
599.867	21.09
600.287	21.06
600.706	21
601.126	20.96
601.545	20.9
601.965	20.86
602.384	20.82
602.803	20.76
603.222	20.69
603.641	20.63
604.061	20.56
604.48	20.5
604.898	20.42
605.317	20.36
605.736	20.29
606.155	20.22
606.574	20.16
606.992	20.07
607.411	20
607.829	19.87
608.248	19.81
608.666	19.72
609.085	19.63
609.503	19.55
609.921	19.48
610.339	19.39
610.758	19.32
611.176	19.23
611.594	19.15
612.012	19.06
612.43	19.02
612.847	18.94
613.265	18.87
613.683	18.8
614.101	18.71
614.518	18.62
614.936	18.54
615.353	18.47
615.771	18.4
616.188	18.32
616.606	18.25
617.023	18.18
617.44	18.11
617.857	18.05
618.274	17.98
618.691	17.94
619.108	17.9
619.525	17.86
619.942	17.81
620.359	17.77
620.776	17.74
621.192	17.72
621.609	17.7
622.026	17.67
622.442	17.63
622.859	17.61
623.275	17.59
623.691	17.58
624.108	17.56
624.524	17.56
624.94	17.54
625.356	17.51
625.772	17.51
626.188	17.5
626.604	17.47
627.02	17.45
627.436	17.45
627.852	17.42
628.268	17.38
628.683	17.37
629.099	17.35
629.514	17.32
629.93	17.29
630.345	17.23
630.761	17.17
631.176	17.14
631.591	17.1
632.007	17.03
632.422	16.97
632.837	16.91
633.252	16.83
633.667	16.74
634.082	16.67
634.497	16.56
634.911	16.46
635.326	16.36
635.741	16.24
636.155	16.11
636.57	15.98
636.984	15.83
637.399	15.69
637.813	15.53
638.228	15.38
638.642	15.22
639.056	15.07
639.47	14.91
639.884	14.75
640.298	14.59
640.712	14.43
641.126	14.27
641.54	14.13
641.954	13.98
642.368	13.82
642.781	13.67
643.195	13.52
643.609	13.39
644.022	13.23
644.436	13.09
644.849	12.96
645.262	12.84
645.676	12.71
646.089	12.59
646.502	12.47
646.915	12.36
647.328	12.27
647.741	12.17
648.154	12.09
648.567	12.03
648.98	11.97
649.393	11.9
649.805	11.84
650.218	11.79
650.631	11.75
651.043	11.71
651.456	11.68
651.868	11.63
652.28	11.59
652.693	11.54
653.105	11.48
653.517	11.43
653.929	11.39
654.341	11.34
654.753	11.25
655.165	11.17
655.577	11.08
655.989	10.98
656.401	10.89
656.813	10.78
657.224	10.69
657.636	10.61
658.047	10.5
658.459	10.39
658.87	10.27
659.282	10.18
659.693	10.08
660.104	9.97
660.515	9.86
660.926	9.77
661.338	9.67
661.749	9.56
662.159	9.44
662.57	9.34
662.981	9.24
663.392	9.15
663.803	9.06
664.213	8.96
664.624	8.88
665.035	8.79
665.445	8.71
665.855	8.65
666.266	8.59
666.676	8.53
667.086	8.47
667.497	8.41
667.907	8.35
668.317	8.31
668.727	8.28
669.137	8.25
669.547	8.24
669.956	8.21
670.366	8.19
670.776	8.17
671.186	8.16
671.595	8.16
672.005	8.16
672.414	8.17
672.824	8.19
673.233	8.19
673.642	8.18
674.052	8.19
674.461	8.21
674.87	8.23
675.279	8.26
675.688	8.3
676.097	8.33
676.506	8.38
676.915	8.43
677.323	8.48
677.732	8.54
678.141	8.62
678.549	8.7
678.958	8.79
679.366	8.87
679.775	8.97
680.183	9.08
680.592	9.21
681	9.34
681.408	9.49
681.816	9.65
682.224	9.82
682.632	10.03
683.04	10.24
683.448	10.48
683.856	10.77
684.264	11.06
684.671	11.39
685.079	11.72
685.487	12.09
685.894	12.49
686.302	12.9
686.709	13.35
687.116	13.79
687.524	14.28
687.931	14.78
688.338	15.31
688.745	15.87
689.152	16.42
689.559	17.02
689.966	17.62
690.373	18.25
690.78	18.88
691.187	19.53
691.593	20.19
692	20.84
692.407	21.5
692.813	22.16
693.22	22.78
693.626	23.42
694.032	24.05
694.439	24.69
694.845	25.3
695.251	25.92
695.657	26.51
696.063	27.11
696.469	27.69
696.875	28.25
697.281	28.8
697.687	29.37
698.093	29.92
698.498	30.45
698.904	30.97
699.31	31.47
699.715	31.98
700.12	32.47
700.526	32.94
700.931	33.41
701.337	33.87
701.742	34.31
702.147	34.73
702.552	35.16
702.957	35.56
703.362	35.95
703.767	36.33
704.172	36.7
704.577	37.06
704.981	37.44
705.386	37.78
705.791	38.13
706.195	38.46
706.6	38.77
707.004	39.08
707.408	39.38
707.813	39.7
708.217	39.98
708.621	40.28
709.025	40.57
709.43	40.84
709.834	41.14
710.237	41.41
710.641	41.7
711.045	41.96
711.449	42.23
711.853	42.49
712.256	42.74
712.66	43
713.064	43.22
713.467	43.46
713.87	43.72
714.274	43.96
714.677	44.16
715.08	44.34
715.484	44.57
715.887	44.77
716.29	44.95
716.693	45.15
717.096	45.35
717.499	45.55
717.901	45.7
718.304	45.83
718.707	45.96
719.109	46.15
719.512	46.35
719.915	46.51
720.317	46.69
720.719	46.86
721.122	47
721.524	47.17
721.926	47.33
722.328	47.49
722.731	47.64
723.133	47.8
723.535	47.91
723.937	48.02
724.338	48.13
724.74	48.21
725.142	48.25
725.544	48.36
725.945	48.44
726.347	48.53
726.748	48.62
727.15	48.69
727.551	48.79
727.952	48.88
728.354	48.96
728.755	49.06
729.156	49.14
729.557	49.27
729.958	49.34
730.359	49.39
730.76	49.44
731.161	49.51
731.562	49.59
731.962	49.64
732.363	49.7
732.763	49.78
733.164	49.81
733.564	49.87
733.965	49.9
734.365	49.93
734.766	49.97
735.166	50.01
735.566	50.03
735.966	50.04
736.366	50.03
736.766	50.04
737.166	50.07
737.566	50.09
737.966	50.13
738.365	50.18
738.765	50.22
739.165	50.24
739.564	50.29
739.964	50.28
740.363	50.33
740.763	50.38
741.162	50.43
741.561	50.44
741.96	50.45
742.36	50.47
742.759	50.44
743.158	50.45
743.557	50.48
743.955	50.49
744.354	50.57
744.753	50.58
745.152	50.59
745.55	50.6
745.949	50.62
746.348	50.66
746.746	50.68
747.144	50.71
747.543	50.76
747.941	50.79
748.339	50.82
748.737	50.85
749.136	50.86
749.534	50.89
749.932	50.89
750.33	50.91
750.727	50.9
751.125	50.87
751.523	50.9
751.921	50.88
752.318	50.87
752.716	50.83
753.113	50.78
753.511	50.76
753.908	50.74
754.305	50.71
754.703	50.66
755.1	50.66
755.497	50.7
755.894	50.7
756.291	50.7
756.688	50.71
757.085	50.72
757.482	50.71
757.878	50.74
758.275	50.74
758.672	50.77
759.068	50.77
759.465	50.77
759.861	50.71
760.258	50.66
760.654	50.64
761.05	50.61
761.447	50.59
761.843	50.58
762.239	50.54
762.635	50.54
763.031	50.53
763.427	50.51
763.822	50.49
764.218	50.5
764.614	50.5
765.01	50.48
765.405	50.46
765.801	50.46
766.196	50.45
766.592	50.44
766.987	50.41
767.382	50.39
767.778	50.41
768.173	50.41
768.568	50.41
768.963	50.41
769.358	50.45
769.753	50.44
770.148	50.47
770.542	50.47
770.937	50.47
771.332	50.48
771.726	50.45
772.121	50.44
772.515	50.44
772.91	50.44
773.304	50.43
773.699	50.4
774.093	50.39
774.487	50.38
774.881	50.4
775.275	50.41
775.669	50.42
776.063	50.42
776.457	50.41
776.851	50.4
777.245	50.42
777.638	50.44
778.032	50.47
778.425	50.5
778.819	50.47
779.212	50.44
779.606	50.42
779.999	50.41
780.392	50.44
780.786	50.47
781.179	50.52
781.572	50.5
781.965	50.5
782.358	50.47
782.751	50.48
783.143	50.5
783.536	50.57
783.929	50.6
784.322	50.64
784.714	50.63
785.107	50.64
785.499	50.66
785.891	50.67
786.284	50.67
786.676	50.69
787.068	50.66
787.46	50.64
787.852	50.63
788.245	50.65
788.636	50.63
789.028	50.65
789.42	50.62
789.812	50.6
790.204	50.6
790.595	50.62
790.987	50.62
791.378	50.67
791.77	50.69
792.161	50.69
792.553	50.69
792.944	50.72
793.335	50.75
793.726	50.79
794.117	50.8
794.508	50.83
794.899	50.83
795.29	50.84
795.681	50.84
796.072	50.88
796.463	50.89
796.853	50.88
797.244	50.87
797.634	50.85
798.025	50.84
798.415	50.88
798.806	50.89
799.196	50.91
799.586	50.94
799.976	50.94
800.366	50.94
800.756	50.92
801.146	50.92
801.536	50.94
801.926	50.97
802.316	51
802.706	50.99
803.095	51.01
803.485	51.01
803.874	51
804.264	51.08
804.653	51.06
805.043	51.08
805.432	51.08
805.821	51.08
806.21	51.1
806.599	51.13
806.988	51.16
807.377	51.17
807.766	51.19
808.155	51.21
808.544	51.17
808.933	51.23
809.321	51.25
809.71	51.32
810.098	51.33
810.487	51.32
810.875	51.31
811.264	51.3
811.652	51.33
812.04	51.33
812.428	51.37
812.816	51.37
813.204	51.37
813.592	51.39
813.98	51.39
814.368	51.39
814.756	51.41
815.144	51.42
815.531	51.43
815.919	51.39
816.306	51.38
816.694	51.4
817.081	51.41
817.469	51.44
817.856	51.43
818.243	51.39
818.63	51.45
819.017	51.47
819.404	51.42
819.791	51.39
820.178	51.43
820.565	51.43
820.952	51.42
821.339	51.43
821.725	51.41
822.112	51.42
822.498	51.47
822.885	51.46
823.271	51.47
823.657	51.52
824.044	51.53
824.43	51.56
824.816	51.57
825.202	51.56
825.588	51.56
825.974	51.55
826.36	51.56
826.746	51.57
827.132	51.54
827.517	51.53
827.903	51.5
828.289	51.51
828.674	51.48
829.06	51.5
829.445	51.51
829.83	51.51
830.216	51.52
830.601	51.5
830.986	51.46
831.371	51.49
831.756	51.45
832.141	51.47
832.526	51.46
832.911	51.48
833.295	51.45
833.68	51.43
834.065	51.42
834.449	51.4
834.834	51.41
835.218	51.39
835.603	51.36
835.987	51.34
836.371	51.32
836.755	51.31
837.139	51.27
837.524	51.22
837.908	51.2
838.291	51.18
838.675	51.17
839.059	51.14
839.443	51.13
839.827	51.12
840.21	51.15
840.594	51.12
840.977	51.1
841.361	51.1
841.744	51.14
842.127	51.14
842.511	51.13
842.894	51.1
843.277	51.05
843.66	51.05
844.043	51.04
844.426	51.02
844.809	51.01
845.191	51
845.574	50.96
845.957	50.91
846.339	50.91
846.722	50.92
847.104	50.93
847.487	50.97
847.869	50.96
848.252	50.95
848.634	50.94
849.016	50.96
849.398	50.99
849.78	50.99
850.162	51.02
850.544	51.04
850.926	51
851.307	51.02
851.689	50.99
852.071	51
852.452	51
852.834	51
853.215	50.98
853.597	50.95
853.978	50.93
854.359	50.93
854.741	50.91
855.122	50.93
855.503	50.91
855.884	50.92
856.265	50.9
856.646	50.88
857.026	50.88
857.407	50.84
857.788	50.86
858.169	50.89
858.549	50.93
858.93	50.93
859.31	50.91
859.69	50.91
860.071	50.91
860.451	50.94
860.831	50.93
861.211	50.94
861.591	50.98
861.971	50.96
862.351	50.96
862.731	50.94
863.111	50.93
863.491	50.95
863.87	50.97
864.25	51
864.629	50.97
865.009	51.01
865.388	51.01
865.768	51.02
866.147	51.05
866.526	51.05
866.905	51.04
867.284	51.04
867.663	51.03
868.042	51.02
868.421	50.99
868.8	51
869.179	51.01
869.558	50.99
869.936	50.95
870.315	50.95
870.693	50.98
871.072	50.94
871.45	50.95
871.828	50.95
872.207	50.95
872.585	50.95
872.963	50.93
873.341	50.91
873.719	50.92
874.097	50.93
874.475	50.92
874.853	50.87
875.23	50.91
875.608	50.91
875.986	50.94
876.363	50.93
876.741	50.94
877.118	50.94
877.495	50.94
877.873	50.94
878.25	50.93
878.627	50.91
879.004	50.95
879.381	50.92
879.758	50.9
880.135	50.88
880.512	50.87
880.889	50.86
881.265	50.89
881.642	50.91
882.019	50.91
882.395	50.91
882.772	50.91
883.148	50.9
883.524	50.89
883.901	50.87
884.277	50.86
884.653	50.85
885.029	50.85
885.405	50.82
885.781	50.77
886.157	50.76
886.532	50.75
886.908	50.77
887.284	50.75
887.659	50.75
888.035	50.77
888.411	50.74
888.786	50.73
889.161	50.72
889.537	50.71
889.912	50.69
890.287	50.64
890.662	50.61
891.037	50.57
891.412	50.52
891.787	50.49
892.162	50.44
892.536	50.42
892.911	50.36
893.286	50.31
893.66	50.3
894.035	50.3
894.409	50.31
894.784	50.28
895.158	50.28
895.532	50.27
895.906	50.26
896.281	50.24
896.655	50.23
897.029	50.25
897.402	50.28
897.776	50.26
898.15	50.23
898.524	50.23
898.898	50.24
899.271	50.26
899.645	50.26
900.018	50.25
900.392	50.27
900.765	50.3
901.138	50.29
901.511	50.27
901.884	50.26
902.258	50.26
902.631	50.27
903.003	50.26
903.376	50.24
903.749	50.29
904.122	50.31
904.495	50.31
904.867	50.29
905.24	50.31
905.612	50.33
905.985	50.3
906.357	50.31
906.729	50.33
907.102	50.36
907.474	50.39
907.846	50.36
908.218	50.35
908.59	50.32
908.962	50.33
909.334	50.35
909.705	50.37
910.077	50.39
910.449	50.45
910.82	50.42
911.192	50.4
911.563	50.37
911.935	50.33
912.306	50.31
912.677	50.33
913.048	50.32
913.419	50.29
913.79	50.26
914.161	50.28
914.532	50.22
914.903	50.21
915.274	50.21
915.645	50.24
916.015	50.3
916.386	50.35
916.756	50.32
917.127	50.36
917.497	50.4
917.868	50.41
918.238	50.46
918.608	50.51
918.978	50.53
919.348	50.51
919.718	50.49
920.088	50.49
920.458	50.51
920.828	50.55
921.198	50.55
921.567	50.54
921.937	50.57
922.306	50.52
922.676	50.5
923.045	50.5
923.415	50.52
923.784	50.51
924.153	50.53
924.522	50.51
924.891	50.46
925.26	50.44
925.629	50.43
925.998	50.43
926.367	50.44
926.736	50.47
927.104	50.46
927.473	50.47
927.842	50.47
928.21	50.47
928.578	50.44
928.947	50.49
929.315	50.46
929.683	50.48
930.051	50.42
930.42	50.39
930.788	50.34
931.156	50.35
931.523	50.39
931.891	50.33
932.259	50.25
932.627	50.19
932.994	50.13
933.362	50.09
933.729	49.98
934.097	49.98
934.464	49.95
934.831	49.91
935.199	49.83
935.566	49.71
935.933	49.74
936.3	49.68
936.667	49.71
937.034	49.69
937.401	49.73
937.767	49.76
938.134	49.8
938.501	49.8
938.867	49.9
939.234	50.01
939.6	50.08
939.967	50.12
940.333	50.31
940.699	50.38
941.065	50.52
941.431	50.58
941.798	50.71
942.163	50.86
942.529	51.04
942.895	51.11
943.261	51.17
943.627	51.27
943.992	51.31
944.358	51.38
944.723	51.36
945.089	51.37
945.454	51.44
945.82	51.41
946.185	51.35
946.55	51.37
946.915	51.37
947.28	51.33
947.645	51.3
948.01	51.3
948.375	51.3
948.74	51.27
949.104	51.28
949.469	51.23
949.834	51.27
950.198	51.21
950.562	51.15
950.927	51.08
951.291	51.04
951.655	51.07
952.02	51.04
952.384	50.98
952.748	51.03
953.112	50.96
953.476	50.92
953.839	50.87
954.203	50.79
954.567	50.71
954.931	50.65
955.294	50.6
955.658	50.43
956.021	50.38
956.385	50.4
956.748	50.34
957.111	50.31
957.474	50.25
957.837	50.2
958.2	50.19
958.563	50.14
958.926	50.13
959.289	50.12
959.652	50.15
960.015	50.12
960.377	50.05
960.74	50.02
961.102	50.03
961.465	49.99
961.827	49.91
962.189	49.93
962.552	49.93
962.914	49.88
963.276	49.91
963.638	49.91
964	49.88
964.362	49.86
964.724	49.84
965.085	49.78
965.447	49.72
965.809	49.73
966.17	49.69
966.532	49.72
966.893	49.71
967.255	49.7
967.616	49.68
967.977	49.68
968.338	49.63
968.699	49.61
969.061	49.55
969.421	49.61
969.782	49.63
970.143	49.58
970.504	49.59
970.865	49.55
971.225	49.51
971.586	49.47
971.946	49.5
972.307	49.49
972.667	49.52
973.027	49.6
973.388	49.62
973.748	49.61
974.108	49.64
974.468	49.56
974.828	49.62
975.188	49.61
975.548	49.71
975.907	49.67
976.267	49.7
976.627	49.7
976.986	49.67
977.346	49.67
977.705	49.68
978.064	49.65
978.424	49.63
978.783	49.58
979.142	49.55
979.501	49.46
979.86	49.48
980.219	49.48
980.578	49.46
980.937	49.43
981.296	49.5
981.654	49.47
982.013	49.58
982.371	49.63
982.73	49.65
983.088	49.6
983.447	49.7
983.805	49.7
984.163	49.69
984.521	49.66
984.879	49.77
985.237	49.72
985.595	49.78
985.953	49.67
986.311	49.76
986.669	49.79
987.026	49.88
987.384	49.88
987.741	49.94
988.099	49.95
988.456	49.95
988.814	50
989.171	50.06
989.528	50.04
989.885	50.16
990.242	50.26
990.599	50.26
990.956	50.28
991.313	50.23
991.67	50.28
992.027	50.4
992.383	50.52
992.74	50.48
993.096	50.55
993.453	50.6
993.809	50.66
994.165	50.57
994.522	50.63
994.878	50.75
995.234	50.81
995.59	50.74
995.946	50.69
996.302	50.6
996.658	50.66
997.013	50.47
997.369	50.41
997.725	50.42
998.08	50.4
998.436	50.52
998.791	50.37
999.147	50.44
999.502	50.51
999.857	50.57
1000.212	50.76
1000.567	50.82
1000.922	51.17
1001.277	51.22
1001.632	51.22
1001.987	51.33
1002.342	51.31
1002.696	51.45
1003.051	51.46
1003.406	51.55
1003.76	51.5
1004.114	51.67
1004.469	51.59
1004.823	51.52
1005.177	51.67
1005.531	51.71
1005.885	51.83
1006.239	51.72
1006.593	51.77
1006.947	51.73
1007.301	51.53
1007.655	51.6
1008.008	51.58
1008.362	51.82
1008.715	51.84
1009.069	51.93
1009.422	51.86
1009.776	51.85
1010.129	51.99
1010.482	52.03
1010.835	52.34
1011.188	52.46
1011.541	52.39
1011.894	52.4
1012.247	52.33
1012.6	52.15
1012.952	52.24
1013.305	52.51
1013.657	52.69
1014.01	52.92
1014.362	53.22
1014.715	53.09
1015.067	53.5
1015.419	53.82
1015.771	53.84
1016.123	53.79
1016.475	54.03
1016.827	54.12
1017.179	54.02
1017.531	53.82
1017.883	53.81
1018.234	53.82
1018.586	54
1018.938	53.74
1019.289	53.66
1019.64	53.83
1019.992	54.03
1020.343	54.18
1020.694	54.07
1021.045	54.23
1021.396	54.49
1021.747	54.79
1022.098	54.84
1022.449	54.86
1022.8	55.06
1023.151	55.13
1023.501	55.47
1023.852	55.84
1024.202	55.63
1024.553	55.87
1024.903	56.04
1025.253	56.27
1025.604	56.18
1025.954	56.07
1026.304	56.48
1026.654	56.43
1027.004	56.75
1027.354	56.45
1027.703	56.22
1028.053	56.47
1028.403	56.55
1028.753	56.81
1029.102	56.55
1029.452	56.31
1029.801	56.37
1030.15	56.11
1030.499	56.41
897.758	648.05
901.051	660.51
904.343	663.16
907.636	650.73
910.928	642.54
914.22	648.24
917.511	635.06
920.803	603.26
924.094	582.01
927.384	586.83
930.675	569.31
933.965	564.2
937.255	560.78
940.544	536.35
943.834	515.97
947.123	506.44
950.411	481.15
953.7	473.41
956.988	458.44
960.276	438.82
963.563	430.27
966.851	407.56
970.138	400.05
973.424	373.08
976.711	369.74
979.997	353.23
983.283	344.5
986.568	334.09
989.853	324.91
993.138	314.36
996.423	307.25
999.708	299.46
1002.992	299.74
1006.275	289.21
1009.559	286.5
1012.842	277.26
1016.125	271.02
1019.408	267.5
1022.69	262.62
1025.972	261.03
1029.254	253.87
1032.536	249.42
1035.817	242.41
1039.098	237.32
1042.379	233.19
1045.659	229.55
1048.939	227.96
1052.219	222.75
1055.498	217.88
1058.778	216.36
1062.057	211.29
1065.335	210.52
1068.614	206.96
1071.892	204.42
1075.17	199.91
1078.447	196.79
1081.724	196.17
1085.001	191.61
1088.278	192.13
1091.554	191.02
1094.83	188.87
1098.106	186.1
1101.382	184.96
1104.657	183.9
1107.932	181.64
1111.206	181.31
1114.481	180.45
1117.755	179.01
1121.029	178
1124.302	175.36
1127.575	172.31
1130.848	171.88
1134.121	169.99
1137.393	169.3
1140.665	168.91
1143.937	167.8
1147.208	166.46
1150.48	164.31
1153.75	162.78
1157.021	161.36
1160.291	160.34
1163.561	160.03
1166.831	158.92
1170.101	158.32
1173.37	157.5
1176.639	155.5
1179.907	155.69
1183.176	154.8
1186.444	154.94
1189.711	153.88
1192.979	155.55
1196.246	155.65
1199.513	155.45
1202.78	155.58
1206.046	155.85
1209.312	156.12
1212.578	157.59
1215.843	158.89
1219.108	159.53
1222.373	162.73
1225.638	165.93
1228.902	168.52
1232.166	174.3
1235.43	176.95
1238.693	181.36
1241.956	185.82
1245.219	189.76
1248.482	191.31
1251.744	190.89
1255.006	192.3
1258.268	186.94
1261.529	185.07
1264.79	180.01
1268.051	177.21
1271.312	175.14
1274.572	172.19
1277.832	166.92
1281.092	165.24
1284.351	161.7
1287.61	161.93
1290.869	160.74
1294.128	160.43
1297.386	159.37
1300.644	160
1303.902	158.02
1307.159	156.93
1310.416	157.51
1313.673	160.3
1316.93	162.02
1320.186	164.12
1323.442	166.14
1326.697	169.43
1329.953	171.01
1333.208	177.22
1336.463	182.81
1339.717	186.43
1342.972	197.3
1346.226	201.27
1349.479	203.07
1352.733	211.03
1355.986	217.33
1359.238	221.28
1362.491	223.08
1365.743	230.95
1368.995	232.71
1372.247	234.72
1375.498	233.1
1378.749	240.25
1382	242.74
1385.251	241.79
1388.501	241.26
1391.751	242.94
1395	240.98
1398.25	244.21
1401.499	243.92
1404.748	242.92
1407.996	237.5
1411.244	239.17
1414.492	233.6
1417.74	227.24
1420.987	221.76
1424.234	217.48
1427.481	210
1430.728	205.34
1433.974	197.35
1437.22	190.46
1440.465	184.02
1443.711	178.28
1446.956	172.82
1450.201	166.23
1453.445	158.02
1456.689	153.31
1459.933	148.29
1463.177	141.84
1466.42	139.18
1469.663	134.68
1472.906	131.41
1476.148	127.82
1479.391	124.46
1482.633	121.64
1485.874	119.43
1489.115	118.9
1492.356	117.27
1495.597	115.42
1498.838	115.3
1502.078	113.83
1505.318	113.53
1508.557	112.56
1511.797	111.07
1515.036	110.95
1518.274	110
1521.513	108.75
1524.751	107.76
1527.989	108.3
1531.227	108.2
1534.464	107.13
1537.701	106.32
1540.938	105.75
1544.174	105.85
1547.41	105.36
1550.646	105.67
1553.882	106.04
1557.117	105.34
1560.352	105.46
1563.587	104.44
1566.821	104.09
1570.055	103.42
1573.289	103.47
1576.523	103.8
1579.756	102.71
1582.989	103.51
1586.222	102.85
1589.454	102.33
1592.686	102.83
1595.918	102.3
1599.15	102.14
1602.381	102.51
1605.612	102.74
1608.843	102.6
1612.073	102.55
1615.303	102.98
1618.533	102.53
1621.762	102.59
1624.992	103.35
1628.221	102.7
1631.449	103.41
1634.678	103.2
1637.906	103.07
1641.134	103.09
1644.361	103.05
1647.588	102.96
1650.815	103.18
1654.042	103.4
1657.269	103.18
1660.495	103.33
1663.72	104.28
1666.946	103.87
1670.171	104.56
1673.396	105.23
1676.621	105.37
1679.845	105.48
1683.069	105.62
1686.293	105.51
1689.517	105.73
1692.74	106.05
1695.963	106.25
1699.185	106.11
1702.408	106.3
1705.63	106.29
1708.852	106.64
1712.073	106.58
1715.294	106.7
1718.515	107.72
1721.736	107.88
1724.956	107.82
1728.176	107.9
1731.396	107.8
1734.616	107.84
1737.835	108.41
1741.054	108.09
1744.272	108
1747.491	108.63
1750.709	109.63
1753.927	109.24
1757.144	109.32
1760.361	109.95
1763.578	110.8
1766.795	111.27
1770.011	111.27
1773.227	111.18
1776.443	112.96
1779.658	112.74
1782.874	113.03
1786.089	112.22
1789.303	112.9
1792.518	114.34
1795.732	114.86
1798.945	115.34
1802.159	115.77
1805.372	117.8
1808.585	119.32
1811.797	119.16
1815.01	120.41
1818.222	121.66
1821.434	123.34
1824.645	123.57
1827.856	125.85
1831.067	126.65
1834.278	128.17
1837.488	128.91
1840.698	129.85
1843.908	129.96
1847.117	131.81
1850.326	133.41
1853.535	133.17
1856.744	135.2
1859.952	137.32
1863.16	136.73
1866.368	136.2
1869.575	136.85
1872.782	136.23
1875.989	135.66
1879.196	135.66
1882.402	134.53
1885.608	134.36
1888.814	134.78
1892.019	135.1
1895.224	132.83
1898.429	132.62
1901.634	133.5
1904.838	134.31
1908.042	136.12
1911.246	136.07
1914.449	136.49
1917.652	136.13
1920.855	136.52
1924.058	135.82
1927.26	135.66
1930.462	136.99
1933.664	137.5
1936.865	137.89
1940.066	135.47
1943.267	134.11
1946.467	135.1
1949.668	135.31
1952.868	136.01
1956.067	135.41
1959.267	136.46
1962.466	136.35
1965.665	137.82
1968.863	138.65
1972.061	139.14
1975.259	142.32
1978.457	144.33
1981.654	144.22
1984.852	145.83
1988.048	147.64
1991.245	150.08
1994.441	151.94
1997.637	154.93
2000.833	157.34
2004.028	158.22
2007.223	163.96
2010.418	166.78
2013.613	173.42
2016.807	178.6
2020.001	182.28
2023.194	188.12
2026.388	194.55
2029.581	206.22
2032.774	213.55
2035.966	218.25
2039.158	225.08
2042.35	226.72
2045.542	231.69
2048.733	243.06
2051.924	244.82
2055.115	247.97
2058.306	249.29
2061.496	255.13
2064.686	252.97
2067.875	251.13
2071.065	253.66
2074.254	255.37
2077.442	263.61
2080.631	265.03
2083.819	262.4
2087.007	270.18
2090.195	274.16
2093.382	274.85
2096.569	273.48
2099.756	279.53
2102.942	285.53
2106.128	292.41
2109.314	295.49
2112.5	294.99
2115.685	293.25
2118.87	294.92
2122.055	294.72
2125.239	300.67
2128.424	308.62
2131.608	307.33
2134.791	308.17
2137.974	306.76
2141.157	309.71
2144.34	310.52
2147.523	317.72
2150.705	326.28
2153.887	321.63
2157.068	324.38
2160.25	327.76
2163.431	326.28
2166.611	333.55
2169.792	337.72
2172.972	345.23
2176.152	343.86
2179.331	350.68
2182.511	349.55
2185.69	352.88
2188.868	370.14
2192.047	377.19
2195.225	382.7
2198.403	388.45
2201.58	382.66
2204.758	395.36
2207.935	397.36
2211.111	408.86
2214.288	411.74
2217.464	415.18
2220.64	419.67
2223.815	418.74
2226.991	412.92
2230.166	417.1
2233.34	428.68
2236.515	442.53
2239.689	436.93
2242.863	443.75
2246.036	438.55
2249.209	451.3
2252.382	450.13
2255.555	466.86
2258.727	468.8
2261.9	489.62
2265.071	494.55
2268.243	492.35
2271.414	501.94
2274.585	513.54
2277.756	514.04
2280.926	536.78
2284.096	535.8
2287.266	540.08
2290.436	529.11
2293.605	540.46
2296.774	555.13
2299.942	557.25
2303.111	570.55
2306.279	583.95
2309.447	583.89
2312.614	585.46
2315.781	595.12
2318.948	598.64
2322.115	611.32
2325.281	641.76
2328.447	641.36
2331.613	646.61
2334.779	652.26
2337.944	667.99
2341.109	679.55
2344.274	688.42
2347.438	703.39
2350.602	713.44
2353.766	764.98
2356.929	766.21
2360.092	776.4
2363.255	778.41
2366.418	785.81
2369.58	799.24
2372.742	796.55
2375.904	795.49
2379.066	817.63
2382.227	881.12
2385.388	876.61
2388.548	828.64
2391.709	817.98
2394.869	851.55
2398.029	856.35
2401.188	852.91
2404.347	885.88
2407.506	914.55
2410.665	880.36
2413.823	880.8
2416.981	875.79
2420.139	831.2
2423.296	902.66
2426.453	967.37
2429.61	912.78
2432.767	975.97
2435.923	1009.48
2439.079	979.52
2442.235	1001.45
2445.391	1028.08
2448.546	1021.85
2451.701	1071.86
2454.855	1153.81
2458.009	1016.18
2461.163	1030.29
2464.317	1050.51
2467.471	1023.42
2470.624	1061.96
2473.777	1038.22
2476.929	1002.41
2480.082	1071.74
2483.234	1126.18
2486.385	1149.92
2489.537	1177.64
2492.688	1299.92
2495.839	1272.18
2498.989	1306.77
2502.14	1319.17
2505.29	1255.31
2508.439	1392.09
2511.589	1430.39
2514.738	1374.9
2517.887	1360.97
2521.035	1273.44
2524.183	1249.75
2527.331	1234.83
2530.479	1210.63
2533.627	1235.23
