Data from N_3_hir_il_4n_Splice17_13.txt Node
Date: Sat Feb 29 15:13:13 EST 2020
User: sa697716
Spectrometer: FLMS03696
Trigger mode: 0
Integration Time (sec): 3.180400E-1
Scans to average: 20
Electric dark correction enabled: true
Nonlinearity correction enabled: true
Boxcar width: 5
XAxis mode: Wavelengths
Number of Pixels in Spectrum: 2048
>>>>>Begin Spectral Data<<<<<
187.83	50.66
188.298	49.54
188.766	41.13
189.233	32.04
189.701	44.3
190.169	40.93
190.636	28.14
191.104	-30.98
191.571	-378.37
192.039	-160
192.506	687.92
192.974	10476.62
193.441	-536.27
193.908	98.08
194.375	72.7
194.842	94.05
195.31	-25.21
195.777	-28.69
196.244	-9.9
196.711	17.5
197.177	18.34
197.644	20.26
198.111	21.73
198.578	23
199.045	23.02
199.511	23.64
199.978	24.56
200.445	25.07
200.911	24.9
201.378	25.13
201.844	25.47
202.31	26.16
202.777	26.08
203.243	26.31
203.709	26.63
204.176	26.56
204.642	26.2
205.108	26.02
205.574	26.51
206.04	26.52
206.506	26.34
206.972	26.6
207.438	26.33
207.903	26.71
208.369	26.4
208.835	26.05
209.301	26.16
209.766	26.22
210.232	26.05
210.697	25.48
211.163	25.4
211.628	25.29
212.094	24.71
212.559	24.19
213.024	23.62
213.49	22.98
213.955	22.75
214.42	22.54
214.885	21.91
215.35	21.56
215.815	20.83
216.28	20.07
216.745	19.23
217.21	18.46
217.675	17.9
218.14	17.18
218.604	16.51
219.069	15.95
219.534	15.28
219.998	14.83
220.463	14.35
220.927	14.05
221.392	13.69
221.856	13.35
222.32	13.01
222.785	12.69
223.249	12.44
223.713	12.25
224.177	12.01
224.642	11.85
225.106	11.66
225.57	11.48
226.034	11.32
226.497	11.16
226.961	10.99
227.425	10.83
227.889	10.68
228.353	10.54
228.816	10.41
229.28	10.25
229.744	10.11
230.207	9.99
230.671	9.86
231.134	9.71
231.597	9.57
232.061	9.43
232.524	9.33
232.987	9.2
233.45	9.09
233.914	8.98
234.377	8.89
234.84	8.79
235.303	8.65
235.766	8.56
236.229	8.45
236.691	8.38
237.154	8.31
237.617	8.21
238.08	8.14
238.542	8.06
239.005	7.98
239.468	7.87
239.93	7.79
240.393	7.72
240.855	7.63
241.317	7.59
241.78	7.52
242.242	7.46
242.704	7.41
243.166	7.36
243.629	7.3
244.091	7.23
244.553	7.19
245.015	7.13
245.477	7.08
245.939	7.03
246.4	6.95
246.862	6.9
247.324	6.83
247.786	6.78
248.247	6.72
248.709	6.66
249.17	6.61
249.632	6.55
250.093	6.48
250.555	6.44
251.016	6.39
251.477	6.35
251.939	6.31
252.4	6.26
252.861	6.21
253.322	6.17
253.783	6.15
254.244	6.11
254.705	6.07
255.166	6.04
255.627	6
256.088	5.96
256.549	5.92
257.009	5.88
257.47	5.85
257.931	5.81
258.391	5.77
258.852	5.72
259.312	5.68
259.773	5.65
260.233	5.61
260.694	5.57
261.154	5.54
261.614	5.51
262.074	5.48
262.534	5.43
262.994	5.4
263.455	5.37
263.915	5.33
264.374	5.3
264.834	5.27
265.294	5.23
265.754	5.2
266.214	5.17
266.673	5.14
267.133	5.1
267.593	5.08
268.052	5.05
268.512	5.02
268.971	5
269.431	4.98
269.89	4.95
270.349	4.94
270.809	4.91
271.268	4.9
271.727	4.88
272.186	4.86
272.645	4.85
273.104	4.83
273.563	4.82
274.022	4.79
274.481	4.77
274.94	4.75
275.399	4.74
275.857	4.72
276.316	4.69
276.775	4.68
277.233	4.66
277.692	4.64
278.15	4.61
278.609	4.59
279.067	4.57
279.525	4.55
279.984	4.53
280.442	4.51
280.9	4.49
281.358	4.47
281.816	4.46
282.274	4.44
282.732	4.42
283.19	4.41
283.648	4.4
284.106	4.37
284.564	4.37
285.021	4.35
285.479	4.34
285.937	4.33
286.394	4.31
286.852	4.3
287.309	4.28
287.767	4.27
288.224	4.26
288.682	4.24
289.139	4.24
289.596	4.22
290.053	4.19
290.511	4.17
290.968	4.15
291.425	4.14
291.882	4.12
292.339	4.1
292.796	4.08
293.252	4.05
293.709	4.04
294.166	4.02
294.623	4
295.079	3.99
295.536	3.98
295.992	3.96
296.449	3.95
296.905	3.93
297.362	3.91
297.818	3.9
298.274	3.89
298.731	3.87
299.187	3.86
299.643	3.86
300.099	3.85
300.555	3.83
301.011	3.82
301.467	3.8
301.923	3.79
302.379	3.78
302.835	3.77
303.291	3.76
303.746	3.75
304.202	3.74
304.658	3.73
305.113	3.71
305.569	3.71
306.024	3.7
306.479	3.69
306.935	3.68
307.39	3.69
307.845	3.67
308.301	3.66
308.756	3.66
309.211	3.65
309.666	3.64
310.121	3.63
310.576	3.62
311.031	3.62
311.486	3.62
311.94	3.61
312.395	3.61
312.85	3.59
313.305	3.59
313.759	3.58
314.214	3.58
314.668	3.58
315.123	3.59
315.577	3.58
316.032	3.57
316.486	3.57
316.94	3.56
317.394	3.54
317.849	3.54
318.303	3.53
318.757	3.52
319.211	3.5
319.665	3.49
320.119	3.47
320.572	3.47
321.026	3.46
321.48	3.45
321.934	3.44
322.387	3.44
322.841	3.43
323.295	3.42
323.748	3.41
324.202	3.4
324.655	3.4
325.108	3.39
325.562	3.37
326.015	3.36
326.468	3.35
326.921	3.34
327.374	3.33
327.827	3.32
328.28	3.31
328.733	3.3
329.186	3.3
329.639	3.29
330.092	3.27
330.545	3.27
330.997	3.27
331.45	3.27
331.903	3.26
332.355	3.26
332.808	3.26
333.26	3.25
333.713	3.24
334.165	3.24
334.617	3.24
335.069	3.25
335.522	3.25
335.974	3.26
336.426	3.25
336.878	3.26
337.33	3.25
337.782	3.24
338.234	3.25
338.686	3.24
339.137	3.24
339.589	3.24
340.041	3.23
340.493	3.23
340.944	3.22
341.396	3.21
341.847	3.2
342.299	3.19
342.75	3.17
343.201	3.17
343.653	3.16
344.104	3.16
344.555	3.15
345.006	3.13
345.457	3.12
345.908	3.1
346.359	3.09
346.81	3.1
347.261	3.08
347.712	3.08
348.163	3.07
348.613	3.06
349.064	3.04
349.515	3.03
349.965	3.02
350.416	3.02
350.866	3.01
351.317	3
351.767	3
352.217	2.99
352.668	2.98
353.118	2.98
353.568	2.98
354.018	2.98
354.468	2.98
354.918	2.98
355.368	2.97
355.818	2.97
356.268	2.98
356.718	2.97
357.168	2.96
357.617	2.96
358.067	2.96
358.517	2.95
358.966	2.95
359.416	2.96
359.865	2.95
360.315	2.95
360.764	2.96
361.213	2.95
361.663	2.94
362.112	2.95
362.561	2.95
363.01	2.95
363.459	2.95
363.908	2.94
364.357	2.94
364.806	2.94
365.255	2.93
365.703	2.92
366.152	2.91
366.601	2.91
367.05	2.91
367.498	2.9
367.947	2.89
368.395	2.9
368.844	2.91
369.292	2.9
369.74	2.9
370.189	2.9
370.637	2.91
371.085	2.92
371.533	2.91
371.981	2.91
372.429	2.92
372.877	2.92
373.325	2.9
373.773	2.89
374.221	2.89
374.669	2.9
375.116	2.89
375.564	2.87
376.012	2.87
376.459	2.88
376.907	2.88
377.354	2.89
377.801	2.89
378.249	2.91
378.696	2.92
379.143	2.93
379.591	2.93
380.038	2.94
380.485	2.96
380.932	2.97
381.379	2.98
381.826	2.99
382.273	2.99
382.72	3.01
383.166	3.01
383.613	3.02
384.06	3.03
384.506	3.04
384.953	3.05
385.4	3.06
385.846	3.07
386.292	3.09
386.739	3.1
387.185	3.12
387.631	3.14
388.078	3.16
388.524	3.17
388.97	3.19
389.416	3.21
389.862	3.24
390.308	3.26
390.754	3.29
391.2	3.3
391.645	3.33
392.091	3.36
392.537	3.38
392.983	3.42
393.428	3.45
393.874	3.49
394.319	3.51
394.765	3.53
395.21	3.55
395.655	3.58
396.101	3.62
396.546	3.65
396.991	3.68
397.436	3.7
397.881	3.73
398.326	3.78
398.771	3.81
399.216	3.86
399.661	3.91
400.106	3.96
400.551	3.99
400.995	4.01
401.44	4.04
401.885	4.07
402.329	4.11
402.774	4.13
403.218	4.15
403.663	4.17
404.107	4.2
404.551	4.24
404.995	4.26
405.44	4.29
405.884	4.33
406.328	4.35
406.772	4.39
407.216	4.43
407.66	4.48
408.104	4.51
408.547	4.55
408.991	4.57
409.435	4.59
409.879	4.62
410.322	4.65
410.766	4.68
411.209	4.73
411.653	4.74
412.096	4.75
412.54	4.77
412.983	4.79
413.426	4.82
413.869	4.85
414.312	4.88
414.756	4.93
415.199	4.95
415.642	4.99
416.085	5.01
416.527	5.06
416.97	5.1
417.413	5.12
417.856	5.13
418.298	5.14
418.741	5.15
419.184	5.17
419.626	5.15
420.069	5.16
420.511	5.16
420.953	5.16
421.396	5.17
421.838	5.19
422.28	5.21
422.722	5.24
423.164	5.25
423.606	5.28
424.048	5.28
424.49	5.3
424.932	5.32
425.374	5.35
425.816	5.35
426.258	5.34
426.699	5.32
427.141	5.3
427.582	5.28
428.024	5.27
428.465	5.27
428.907	5.29
429.348	5.29
429.789	5.3
430.231	5.28
430.672	5.3
431.113	5.31
431.554	5.33
431.995	5.35
432.436	5.38
432.877	5.38
433.318	5.38
433.759	5.36
434.2	5.36
434.64	5.36
435.081	5.36
435.522	5.38
435.962	5.42
436.403	5.43
436.843	5.44
437.284	5.45
437.724	5.49
438.164	5.5
438.604	5.54
439.045	5.54
439.485	5.55
439.925	5.55
440.365	5.54
440.805	5.51
441.245	5.52
441.685	5.54
442.125	5.53
442.564	5.53
443.004	5.54
443.444	5.53
443.883	5.55
444.323	5.58
444.762	5.63
445.202	5.69
445.641	5.74
446.081	5.79
446.52	5.8
446.959	5.84
447.398	5.88
447.837	5.94
448.276	5.99
448.716	6.03
449.154	6.05
449.593	6.06
450.032	6.09
450.471	6.11
450.91	6.14
451.349	6.17
451.787	6.18
452.226	6.17
452.664	6.17
453.103	6.18
453.541	6.18
453.98	6.19
454.418	6.19
454.856	6.15
455.295	6.14
455.733	6.12
456.171	6.09
456.609	6.08
457.047	6.08
457.485	6.06
457.923	6.06
458.361	6.04
458.798	6.03
459.236	6.02
459.674	6.03
460.111	6.01
460.549	5.99
460.987	5.99
461.424	6
461.862	6
462.299	5.99
462.736	6
463.173	6
463.611	6
464.048	6
464.485	6
464.922	6.01
465.359	6.03
465.796	6.01
466.233	6.01
466.67	6.02
467.106	6.01
467.543	5.99
467.98	6.01
468.416	6.02
468.853	6.02
469.29	6.02
469.726	6.03
470.162	6.03
470.599	6.04
471.035	6.06
471.471	6.05
471.907	6.08
472.344	6.09
472.78	6.08
473.216	6.07
473.652	6.07
474.088	6.09
474.523	6.09
474.959	6.09
475.395	6.11
475.831	6.11
476.266	6.11
476.702	6.12
477.138	6.11
477.573	6.1
478.008	6.11
478.444	6.12
478.879	6.11
479.314	6.11
479.75	6.12
480.185	6.11
480.62	6.12
481.055	6.13
481.49	6.11
481.925	6.1
482.36	6.11
482.795	6.09
483.229	6.09
483.664	6.1
484.099	6.1
484.534	6.09
484.968	6.1
485.403	6.09
485.837	6.08
486.271	6.09
486.706	6.11
487.14	6.13
487.574	6.15
488.009	6.17
488.443	6.17
488.877	6.19
489.311	6.23
489.745	6.25
490.179	6.27
490.613	6.31
491.046	6.35
491.48	6.4
491.914	6.43
492.348	6.47
492.781	6.51
493.215	6.55
493.648	6.6
494.082	6.65
494.515	6.71
494.948	6.76
495.382	6.81
495.815	6.88
496.248	6.93
496.681	6.99
497.114	7.06
497.547	7.12
497.98	7.21
498.413	7.29
498.846	7.37
499.279	7.46
499.711	7.56
500.144	7.66
500.577	7.75
501.009	7.86
501.442	7.99
501.874	8.11
502.306	8.24
502.739	8.37
503.171	8.5
503.603	8.65
504.036	8.79
504.468	8.95
504.9	9.12
505.332	9.29
505.764	9.47
506.196	9.64
506.627	9.84
507.059	10.02
507.491	10.22
507.923	10.42
508.354	10.63
508.786	10.85
509.217	11.06
509.649	11.27
510.08	11.5
510.512	11.74
510.943	11.99
511.374	12.23
511.805	12.5
512.237	12.75
512.668	13
513.099	13.27
513.53	13.55
513.961	13.84
514.391	14.12
514.822	14.4
515.253	14.66
515.684	14.94
516.114	15.22
516.545	15.51
516.975	15.82
517.406	16.13
517.836	16.42
518.267	16.71
518.697	17
519.127	17.29
519.558	17.59
519.988	17.89
520.418	18.18
520.848	18.45
521.278	18.73
521.708	18.87
522.138	19.12
522.567	19.38
522.997	19.63
523.427	19.89
523.857	20.13
524.286	20.36
524.716	20.58
525.145	20.81
525.575	21.03
526.004	21.24
526.433	21.58
526.863	21.81
527.292	22.02
527.721	22.2
528.15	22.37
528.579	22.54
529.008	22.72
529.437	22.88
529.866	23.03
530.295	23.18
530.724	23.33
531.152	23.46
531.581	23.58
532.01	23.69
532.438	23.81
532.867	23.92
533.295	24.01
533.723	24.11
534.152	24.2
534.58	24.29
535.008	24.34
535.436	24.39
535.865	24.44
536.293	24.5
536.721	24.55
537.149	24.6
537.576	24.64
538.004	24.69
538.432	24.71
538.86	24.75
539.287	24.78
539.715	24.84
540.143	24.87
540.57	24.91
540.998	24.95
541.425	25
541.852	25.04
542.28	25.08
542.707	25.13
543.134	25.17
543.561	25.18
543.988	25.22
544.415	25.25
544.842	25.3
545.269	25.34
545.696	25.36
546.123	25.37
546.549	25.41
546.976	25.43
547.403	25.45
547.829	25.48
548.256	25.53
548.682	25.55
549.108	25.57
549.535	25.56
549.961	25.57
550.387	25.58
550.813	25.58
551.24	25.58
551.666	25.6
552.092	25.6
552.518	25.58
552.943	25.59
553.369	25.59
553.795	25.56
554.221	25.56
554.646	25.56
555.072	25.54
555.498	25.51
555.923	25.46
556.349	25.41
556.774	25.36
557.199	25.33
557.625	25.25
558.05	25.15
558.475	25.09
558.9	25
559.325	24.92
559.75	24.83
560.175	24.74
560.6	24.65
561.025	24.55
561.449	24.46
561.874	24.35
562.299	24.25
562.723	24.15
563.148	24.05
563.572	23.95
563.997	23.82
564.421	23.69
564.846	23.56
565.27	23.42
565.694	23.28
566.118	23.13
566.542	22.98
566.966	22.81
567.39	22.65
567.814	22.47
568.238	22.29
568.662	22.13
569.086	21.97
569.509	21.8
569.933	21.63
570.357	21.45
570.78	21.29
571.204	21.12
571.627	20.96
572.05	20.81
572.474	20.68
572.897	20.53
573.32	20.38
573.743	20.25
574.166	20.12
574.589	20
575.012	19.9
575.435	19.77
575.858	19.66
576.281	19.54
576.704	19.45
577.126	19.34
577.549	19.24
577.972	19.15
578.394	19.04
578.817	18.95
579.239	18.86
579.661	18.77
580.084	18.68
580.506	18.59
580.928	18.51
581.35	18.42
581.772	18.35
582.194	18.29
582.616	18.21
583.038	18.13
583.46	18.06
583.882	17.99
584.303	17.91
584.725	17.83
585.147	17.75
585.568	17.69
585.99	17.65
586.411	17.59
586.833	17.51
587.254	17.47
587.675	17.41
588.096	17.36
588.518	17.32
588.939	17.28
589.36	17.25
589.781	17.22
590.202	17.18
590.623	17.12
591.043	17.06
591.464	17.02
591.885	16.98
592.305	16.97
592.726	16.92
593.147	16.89
593.567	16.85
593.987	16.82
594.408	16.8
594.828	16.76
595.248	16.76
595.669	16.75
596.089	16.73
596.509	16.68
596.929	16.64
597.349	16.6
597.769	16.54
598.189	16.52
598.608	16.48
599.028	16.43
599.448	16.4
599.867	16.34
600.287	16.28
600.706	16.22
601.126	16.18
601.545	16.14
601.965	16.1
602.384	16.07
602.803	15.99
603.222	15.92
603.641	15.87
604.061	15.8
604.48	15.74
604.898	15.68
605.317	15.62
605.736	15.54
606.155	15.46
606.574	15.37
606.992	15.27
607.411	15.2
607.829	15.07
608.248	14.99
608.666	14.9
609.085	14.8
609.503	14.71
609.921	14.61
610.339	14.55
610.758	14.45
611.176	14.38
611.594	14.29
612.012	14.22
612.43	14.19
612.847	14.12
613.265	14.04
613.683	13.97
614.101	13.87
614.518	13.8
614.936	13.72
615.353	13.65
615.771	13.57
616.188	13.53
616.606	13.45
617.023	13.38
617.44	13.32
617.857	13.25
618.274	13.2
618.691	13.17
619.108	13.13
619.525	13.07
619.942	13.04
620.359	13.01
620.776	12.96
621.192	12.92
621.609	12.88
622.026	12.85
622.442	12.82
622.859	12.79
623.275	12.77
623.691	12.74
624.108	12.72
624.524	12.7
624.94	12.67
625.356	12.67
625.772	12.67
626.188	12.67
626.604	12.65
627.02	12.64
627.436	12.63
627.852	12.61
628.268	12.59
628.683	12.57
629.099	12.55
629.514	12.52
629.93	12.49
630.345	12.45
630.761	12.41
631.176	12.39
631.591	12.35
632.007	12.3
632.422	12.26
632.837	12.22
633.252	12.17
633.667	12.09
634.082	12.03
634.497	11.96
634.911	11.89
635.326	11.82
635.741	11.72
636.155	11.63
636.57	11.55
636.984	11.45
637.399	11.34
637.813	11.24
638.228	11.15
638.642	11.05
639.056	10.95
639.47	10.84
639.884	10.73
640.298	10.63
640.712	10.52
641.126	10.41
641.54	10.3
641.954	10.21
642.368	10.09
642.781	9.98
643.195	9.88
643.609	9.77
644.022	9.66
644.436	9.57
644.849	9.46
645.262	9.38
645.676	9.28
646.089	9.18
646.502	9.09
646.915	9.02
647.328	8.96
647.741	8.88
648.154	8.82
648.567	8.77
648.98	8.71
649.393	8.65
649.805	8.59
650.218	8.54
650.631	8.49
651.043	8.45
651.456	8.4
651.868	8.36
652.28	8.31
652.693	8.24
653.105	8.19
653.517	8.13
653.929	8.07
654.341	8.02
654.753	7.95
655.165	7.89
655.577	7.8
655.989	7.72
656.401	7.62
656.813	7.53
657.224	7.47
657.636	7.39
658.047	7.3
658.459	7.21
658.87	7.11
659.282	7.04
659.693	6.95
660.104	6.88
660.515	6.8
660.926	6.73
661.338	6.66
661.749	6.56
662.159	6.48
662.57	6.41
662.981	6.34
663.392	6.27
663.803	6.21
664.213	6.14
664.624	6.09
665.035	6.04
665.445	5.99
665.855	5.95
666.266	5.92
666.676	5.86
667.086	5.83
667.497	5.78
667.907	5.74
668.317	5.7
668.727	5.68
669.137	5.64
669.547	5.63
669.956	5.6
670.366	5.59
670.776	5.57
671.186	5.56
671.595	5.56
672.005	5.57
672.414	5.58
672.824	5.59
673.233	5.6
673.642	5.61
674.052	5.61
674.461	5.62
674.87	5.64
675.279	5.65
675.688	5.66
676.097	5.69
676.506	5.7
676.915	5.73
677.323	5.75
677.732	5.79
678.141	5.82
678.549	5.87
678.958	5.93
679.366	5.95
679.775	6
680.183	6.08
680.592	6.15
681	6.22
681.408	6.3
681.816	6.4
682.224	6.5
682.632	6.62
683.04	6.73
683.448	6.87
683.856	7.04
684.264	7.23
684.671	7.42
685.079	7.64
685.487	7.87
685.894	8.12
686.302	8.4
686.709	8.7
687.116	9.01
687.524	9.36
687.931	9.72
688.338	10.11
688.745	10.5
689.152	10.93
689.559	11.38
689.966	11.83
690.373	12.33
690.78	12.84
691.187	13.36
691.593	13.89
692	14.42
692.407	14.97
692.813	15.54
693.22	16.1
693.626	16.67
694.032	17.26
694.439	17.85
694.845	18.41
695.251	18.99
695.657	19.56
696.063	20.14
696.469	20.72
696.875	21.28
697.281	21.82
697.687	22.4
698.093	22.95
698.498	23.5
698.904	24.05
699.31	24.59
699.715	25.11
700.12	25.63
700.526	26.16
700.931	26.66
701.337	27.18
701.742	27.67
702.147	28.15
702.552	28.63
702.957	29.08
703.362	29.54
703.767	29.99
704.172	30.43
704.577	30.86
704.981	31.28
705.386	31.72
705.791	32.11
706.195	32.52
706.6	32.91
707.004	33.3
707.408	33.7
707.813	34.07
708.217	34.44
708.621	34.79
709.025	35.15
709.43	35.48
709.834	35.82
710.237	36.15
710.641	36.51
711.045	36.84
711.449	37.16
711.853	37.48
712.256	37.8
712.66	38.12
713.064	38.43
713.467	38.73
713.87	39.03
714.274	39.34
714.677	39.63
715.08	39.87
715.484	40.15
715.887	40.39
716.29	40.66
716.693	40.89
717.096	41.14
717.499	41.41
717.901	41.62
718.304	41.87
718.707	42.05
719.109	42.29
719.512	42.56
719.915	42.78
720.317	43.02
720.719	43.21
721.122	43.46
721.524	43.68
721.926	43.87
722.328	44.08
722.731	44.28
723.133	44.5
723.535	44.68
723.937	44.84
724.338	45
724.74	45.16
725.142	45.28
725.544	45.41
725.945	45.55
726.347	45.69
726.748	45.82
727.15	45.93
727.551	46.05
727.952	46.15
728.354	46.29
728.755	46.39
729.156	46.48
729.557	46.65
729.958	46.76
730.359	46.85
730.76	46.94
731.161	47.04
731.562	47.14
731.962	47.23
732.363	47.29
732.763	47.38
733.164	47.48
733.564	47.58
733.965	47.62
734.365	47.65
734.766	47.69
735.166	47.74
735.566	47.79
735.966	47.82
736.366	47.85
736.766	47.92
737.166	47.97
737.566	47.98
737.966	48.01
738.365	48.07
738.765	48.11
739.165	48.14
739.564	48.18
739.964	48.19
740.363	48.23
740.763	48.29
741.162	48.31
741.561	48.34
741.96	48.38
742.36	48.41
742.759	48.44
743.158	48.45
743.557	48.5
743.955	48.58
744.354	48.65
744.753	48.68
745.152	48.68
745.55	48.72
745.949	48.72
746.348	48.74
746.746	48.78
747.144	48.81
747.543	48.88
747.941	48.91
748.339	48.92
748.737	48.97
749.136	49.03
749.534	49.09
749.932	49.11
750.33	49.15
750.727	49.18
751.125	49.19
751.523	49.17
751.921	49.21
752.318	49.22
752.716	49.22
753.113	49.21
753.511	49.17
753.908	49.13
754.305	49.12
754.703	49.08
755.1	49.07
755.497	49.04
755.894	49.02
756.291	48.97
756.688	48.93
757.085	48.9
757.482	48.85
757.878	48.88
758.275	48.87
758.672	48.84
759.068	48.87
759.465	48.85
759.861	48.85
760.258	48.85
760.654	48.87
761.05	48.85
761.447	48.84
761.843	48.84
762.239	48.78
762.635	48.77
763.031	48.76
763.427	48.73
763.822	48.72
764.218	48.74
764.614	48.73
765.01	48.72
765.405	48.74
765.801	48.73
766.196	48.72
766.592	48.77
766.987	48.77
767.382	48.8
767.778	48.79
768.173	48.8
768.568	48.76
768.963	48.75
769.358	48.73
769.753	48.74
770.148	48.75
770.542	48.73
770.937	48.72
771.332	48.72
771.726	48.72
772.121	48.7
772.515	48.7
772.91	48.71
773.304	48.72
773.699	48.71
774.093	48.68
774.487	48.69
774.881	48.73
775.275	48.73
775.669	48.77
776.063	48.75
776.457	48.74
776.851	48.68
777.245	48.66
777.638	48.66
778.032	48.7
778.425	48.72
778.819	48.72
779.212	48.66
779.606	48.65
779.999	48.65
780.392	48.67
780.786	48.72
781.179	48.81
781.572	48.84
781.965	48.84
782.358	48.82
782.751	48.84
783.143	48.86
783.536	48.92
783.929	48.96
784.322	48.95
784.714	48.95
785.107	48.96
785.499	48.93
785.891	48.95
786.284	48.92
786.676	48.97
787.068	48.93
787.46	48.92
787.852	48.92
788.245	48.88
788.636	48.86
789.028	48.88
789.42	48.86
789.812	48.86
790.204	48.82
790.595	48.85
790.987	48.86
791.378	48.88
791.77	48.88
792.161	48.9
792.553	48.93
792.944	48.97
793.335	48.98
793.726	48.99
794.117	48.97
794.508	49.01
794.899	48.98
795.29	48.96
795.681	48.98
796.072	49.02
796.463	48.99
796.853	48.97
797.244	48.96
797.634	48.95
798.025	48.95
798.415	48.98
798.806	49.01
799.196	49.05
799.586	49.07
799.976	49.08
800.366	49.11
800.756	49.13
801.146	49.18
801.536	49.21
801.926	49.18
802.316	49.22
802.706	49.28
803.095	49.31
803.485	49.31
803.874	49.35
804.264	49.4
804.653	49.36
805.043	49.36
805.432	49.35
805.821	49.36
806.21	49.41
806.599	49.45
806.988	49.43
807.377	49.43
807.766	49.46
808.155	49.47
808.544	49.42
808.933	49.45
809.321	49.48
809.71	49.54
810.098	49.55
810.487	49.6
810.875	49.59
811.264	49.61
811.652	49.65
812.04	49.63
812.428	49.64
812.816	49.7
813.204	49.7
813.592	49.71
813.98	49.65
814.368	49.67
814.756	49.67
815.144	49.71
815.531	49.7
815.919	49.66
816.306	49.66
816.694	49.66
817.081	49.62
817.469	49.65
817.856	49.71
818.243	49.77
818.63	49.82
819.017	49.85
819.404	49.84
819.791	49.86
820.178	49.9
820.565	49.91
820.952	49.92
821.339	49.95
821.725	49.98
822.112	49.95
822.498	49.94
822.885	49.91
823.271	49.89
823.657	49.89
824.044	49.86
824.43	49.9
824.816	49.89
825.202	49.88
825.588	49.89
825.974	49.86
826.36	49.88
826.746	49.91
827.132	49.91
827.517	49.92
827.903	49.92
828.289	49.95
828.674	49.92
829.06	49.96
829.445	49.99
829.83	49.95
830.216	49.95
830.601	49.93
830.986	49.9
831.371	49.89
831.756	49.85
832.141	49.87
832.526	49.85
832.911	49.83
833.295	49.81
833.68	49.78
834.065	49.8
834.449	49.77
834.834	49.73
835.218	49.72
835.603	49.7
835.987	49.7
836.371	49.66
836.755	49.63
837.139	49.59
837.524	49.58
837.908	49.56
838.291	49.54
838.675	49.55
839.059	49.55
839.443	49.54
839.827	49.56
840.21	49.56
840.594	49.56
840.977	49.57
841.361	49.58
841.744	49.58
842.127	49.58
842.511	49.55
842.894	49.54
843.277	49.55
843.66	49.56
844.043	49.53
844.426	49.46
844.809	49.44
845.191	49.42
845.574	49.41
845.957	49.36
846.339	49.36
846.722	49.38
847.104	49.38
847.487	49.36
847.869	49.34
848.252	49.33
848.634	49.37
849.016	49.4
849.398	49.42
849.78	49.43
850.162	49.46
850.544	49.47
850.926	49.44
851.307	49.48
851.689	49.48
852.071	49.46
852.452	49.47
852.834	49.47
853.215	49.47
853.597	49.43
853.978	49.4
854.359	49.39
854.741	49.4
855.122	49.41
855.503	49.41
855.884	49.41
856.265	49.4
856.646	49.39
857.026	49.39
857.407	49.35
857.788	49.41
858.169	49.43
858.549	49.47
858.93	49.45
859.31	49.42
859.69	49.38
860.071	49.4
860.451	49.44
860.831	49.46
861.211	49.45
861.591	49.47
861.971	49.44
862.351	49.46
862.731	49.44
863.111	49.45
863.491	49.47
863.87	49.47
864.25	49.47
864.629	49.43
865.009	49.41
865.388	49.43
865.768	49.44
866.147	49.43
866.526	49.42
866.905	49.44
867.284	49.43
867.663	49.42
868.042	49.43
868.421	49.41
868.8	49.42
869.179	49.41
869.558	49.39
869.936	49.38
870.315	49.36
870.693	49.33
871.072	49.3
871.45	49.3
871.828	49.33
872.207	49.32
872.585	49.32
872.963	49.31
873.341	49.34
873.719	49.35
874.097	49.34
874.475	49.35
874.853	49.36
875.23	49.39
875.608	49.42
875.986	49.4
876.363	49.39
876.741	49.39
877.118	49.39
877.495	49.37
877.873	49.35
878.25	49.35
878.627	49.37
879.004	49.37
879.381	49.35
879.758	49.32
880.135	49.33
880.512	49.35
880.889	49.36
881.265	49.38
881.642	49.35
882.019	49.37
882.395	49.38
882.772	49.36
883.148	49.34
883.524	49.34
883.901	49.35
884.277	49.34
884.653	49.33
885.029	49.33
885.405	49.3
885.781	49.31
886.157	49.31
886.532	49.31
886.908	49.34
887.284	49.36
887.659	49.37
888.035	49.38
888.411	49.37
888.786	49.35
889.161	49.36
889.537	49.38
889.912	49.36
890.287	49.35
890.662	49.32
891.037	49.26
891.412	49.23
891.787	49.21
892.162	49.17
892.536	49.14
892.911	49.12
893.286	49.07
893.66	49.03
894.035	49
894.409	48.98
894.784	48.96
895.158	48.96
895.532	48.94
895.906	48.93
896.281	48.89
896.655	48.89
897.029	48.87
897.402	48.87
897.776	48.85
898.15	48.84
898.524	48.83
898.898	48.81
899.271	48.82
899.645	48.82
900.018	48.79
900.392	48.79
900.765	48.75
901.138	48.76
901.511	48.73
901.884	48.74
902.258	48.73
902.631	48.74
903.003	48.76
903.376	48.74
903.749	48.75
904.122	48.78
904.495	48.81
904.867	48.8
905.24	48.82
905.612	48.81
905.985	48.76
906.357	48.79
906.729	48.8
907.102	48.8
907.474	48.82
907.846	48.75
908.218	48.72
908.59	48.68
908.962	48.72
909.334	48.71
909.705	48.74
910.077	48.77
910.449	48.8
910.82	48.78
911.192	48.73
911.563	48.71
911.935	48.74
912.306	48.76
912.677	48.8
913.048	48.79
913.419	48.77
913.79	48.75
914.161	48.73
914.532	48.68
914.903	48.68
915.274	48.71
915.645	48.73
916.015	48.75
916.386	48.72
916.756	48.71
917.127	48.71
917.497	48.71
917.868	48.72
918.238	48.76
918.608	48.77
918.978	48.75
919.348	48.78
919.718	48.79
920.088	48.78
920.458	48.83
920.828	48.83
921.198	48.85
921.567	48.86
921.937	48.86
922.306	48.82
922.676	48.81
923.045	48.8
923.415	48.77
923.784	48.73
924.153	48.75
924.522	48.68
924.891	48.67
925.26	48.63
925.629	48.63
925.998	48.63
926.367	48.65
926.736	48.63
927.104	48.66
927.473	48.67
927.842	48.64
928.21	48.64
928.578	48.65
928.947	48.64
929.315	48.63
929.683	48.61
930.051	48.62
930.42	48.59
930.788	48.6
931.156	48.57
931.523	48.52
931.891	48.49
932.259	48.39
932.627	48.31
932.994	48.26
933.362	48.17
933.729	48.08
934.097	47.92
934.464	47.82
934.831	47.73
935.199	47.66
935.566	47.62
935.933	47.57
936.3	47.56
936.667	47.54
937.034	47.46
937.401	47.45
937.767	47.41
938.134	47.4
938.501	47.42
938.867	47.44
939.234	47.4
939.6	47.34
939.967	47.35
940.333	47.34
940.699	47.46
941.065	47.64
941.431	47.69
941.798	47.83
942.163	47.99
942.529	48.04
942.895	48.1
943.261	48.2
943.627	48.29
943.992	48.38
944.358	48.41
944.723	48.37
945.089	48.37
945.454	48.51
945.82	48.46
946.185	48.5
946.55	48.55
946.915	48.56
947.28	48.57
947.645	48.63
948.01	48.65
948.375	48.64
948.74	48.64
949.104	48.57
949.469	48.45
949.834	48.49
950.198	48.4
950.562	48.34
950.927	48.33
951.291	48.31
951.655	48.32
952.02	48.34
952.384	48.42
952.748	48.4
953.112	48.42
953.476	48.43
953.839	48.39
954.203	48.36
954.567	48.41
954.931	48.36
955.294	48.26
955.658	48.17
956.021	48.12
956.385	48.07
956.748	48.05
957.111	48.01
957.474	47.97
957.837	47.99
958.2	47.97
958.563	47.95
958.926	47.94
959.289	48.01
959.652	48.07
960.015	48.01
960.377	47.99
960.74	47.97
961.102	47.93
961.465	47.95
961.827	47.87
962.189	47.83
962.552	47.73
962.914	47.7
963.276	47.65
963.638	47.52
964	47.5
964.362	47.46
964.724	47.46
965.085	47.5
965.447	47.44
965.809	47.39
966.17	47.42
966.532	47.47
966.893	47.48
967.255	47.46
967.616	47.5
967.977	47.6
968.338	47.55
968.699	47.44
969.061	47.33
969.421	47.34
969.782	47.36
970.143	47.25
970.504	47.16
970.865	47.03
971.225	47.01
971.586	47.05
971.946	46.89
972.307	46.88
972.667	46.92
973.027	46.94
973.388	46.93
973.748	46.97
974.108	47.06
974.468	47.07
974.828	47.21
975.188	47.21
975.548	47.15
975.907	47.23
976.267	47.26
976.627	47.35
976.986	47.3
977.346	47.26
977.705	47.27
978.064	47.23
978.424	47.31
978.783	47.26
979.142	47.2
979.501	47.21
979.86	47.16
980.219	47.09
980.578	46.98
980.937	47.05
981.296	47.04
981.654	47.04
982.013	47.1
982.371	47
982.73	46.96
983.088	47
983.447	47.02
983.805	46.98
984.163	47
984.521	46.99
984.879	46.99
985.237	47.07
985.595	47.1
985.953	47.02
986.311	46.93
986.669	46.97
987.026	46.99
987.384	46.92
987.741	47.01
988.099	46.99
988.456	46.99
988.814	46.96
989.171	46.92
989.528	46.82
989.885	46.68
990.242	46.85
990.599	46.81
990.956	46.8
991.313	46.79
991.67	46.82
992.027	46.83
992.383	46.86
992.74	46.86
993.096	46.83
993.453	46.9
993.809	47.1
994.165	47.13
994.522	47.14
994.878	47.17
995.234	47.13
995.59	46.92
995.946	46.93
996.302	46.78
996.658	46.9
997.013	47
997.369	46.84
997.725	46.77
998.08	46.59
998.436	46.72
998.791	46.64
999.147	46.69
999.502	46.78
999.857	46.78
1000.212	46.84
1000.567	46.85
1000.922	46.78
1001.277	46.8
1001.632	46.81
1001.987	46.87
1002.342	46.78
1002.696	46.86
1003.051	46.75
1003.406	46.74
1003.76	46.7
1004.114	46.8
1004.469	46.57
1004.823	46.57
1005.177	46.75
1005.531	46.72
1005.885	46.75
1006.239	46.59
1006.593	46.43
1006.947	46.39
1007.301	46.34
1007.655	46.47
1008.008	46.34
1008.362	46.41
1008.715	46.31
1009.069	46.14
1009.422	46.11
1009.776	46.13
1010.129	46.15
1010.482	46.25
1010.835	46.37
1011.188	46.3
1011.541	45.94
1011.894	45.87
1012.247	45.85
1012.6	45.84
1012.952	45.92
1013.305	45.92
1013.657	45.97
1014.01	46.05
1014.362	46
1014.715	45.84
1015.067	45.92
1015.419	46.18
1015.771	46.37
1016.123	46.3
1016.475	46.31
1016.827	46.4
1017.179	46.49
1017.531	46.12
1017.883	46.14
1018.234	46.18
1018.586	46.35
1018.938	46.15
1019.289	45.87
1019.64	46
1019.992	46.13
1020.343	45.97
1020.694	45.64
1021.045	45.57
1021.396	45.59
1021.747	45.58
1022.098	45.63
1022.449	45.51
1022.8	45.69
1023.151	45.73
1023.501	45.53
1023.852	45.48
1024.202	45.77
1024.553	45.97
1024.903	45.81
1025.253	45.84
1025.604	45.84
1025.954	45.5
1026.304	45.77
1026.654	45.98
1027.004	46.43
1027.354	46.26
1027.703	46.26
1028.053	46.15
1028.403	45.81
1028.753	45.71
1029.102	45.61
1029.452	45.19
1029.801	45.16
1030.15	44.85
1030.499	44.41
897.758	695.7
901.051	711.13
904.343	711.76
907.636	702.27
910.928	691.2
914.22	700.87
917.511	685.18
920.803	654.22
924.094	633.42
927.384	636.99
930.675	619.1
933.965	611.99
937.255	606.8
940.544	583.56
943.834	556.62
947.123	546.5
950.411	518.46
953.7	510.02
956.988	495.06
960.276	467.14
963.563	461.69
966.851	434.84
970.138	427.8
973.424	398.57
976.711	390.71
979.997	375.45
983.283	368.34
986.568	355.72
989.853	345.9
993.138	333.4
996.423	328.04
999.708	317.4
1002.992	320.69
1006.275	306.58
1009.559	304.07
1012.842	296.75
1016.125	288.17
1019.408	282.57
1022.69	278.43
1025.972	275.72
1029.254	268.41
1032.536	263.29
1035.817	256.06
1039.098	249.3
1042.379	246.04
1045.659	242.64
1048.939	239.76
1052.219	234.95
1055.498	229.55
1058.778	226.81
1062.057	221.57
1065.335	220.01
1068.614	216.68
1071.892	213.39
1075.17	210.48
1078.447	207.12
1081.724	206.05
1085.001	200.42
1088.278	200.92
1091.554	200.45
1094.83	198.66
1098.106	195.65
1101.382	193.99
1104.657	192.96
1107.932	192.1
1111.206	190.28
1114.481	188.78
1117.755	187.08
1121.029	187.72
1124.302	184.61
1127.575	180.31
1130.848	179.84
1134.121	178.37
1137.393	177.73
1140.665	177.69
1143.937	175.26
1147.208	173.23
1150.48	171.33
1153.75	169.89
1157.021	167.96
1160.291	166.88
1163.561	167.13
1166.831	165.4
1170.101	164.78
1173.37	163.71
1176.639	161.3
1179.907	161.85
1183.176	161.22
1186.444	161.65
1189.711	159.78
1192.979	161.91
1196.246	162.05
1199.513	161.71
1202.78	161.85
1206.046	162.07
1209.312	162.62
1212.578	163.85
1215.843	165.25
1219.108	166.83
1222.373	169.74
1225.638	173.06
1228.902	176.03
1232.166	182.16
1235.43	185.98
1238.693	191.26
1241.956	195.55
1245.219	200.79
1248.482	203.04
1251.744	202.83
1255.006	203.02
1258.268	197.66
1261.529	196.55
1264.79	190.99
1268.051	187.44
1271.312	184.79
1274.572	181.21
1277.832	175.49
1281.092	173.47
1284.351	169.11
1287.61	168.78
1290.869	168.4
1294.128	167.73
1297.386	166.64
1300.644	165.55
1303.902	163.93
1307.159	162.87
1310.416	163.54
1313.673	167
1316.93	168.47
1320.186	171.3
1323.442	173.73
1326.697	176.43
1329.953	178.8
1333.208	185.07
1336.463	194.25
1339.717	198.51
1342.972	208.7
1346.226	214.07
1349.479	215.72
1352.733	225.2
1355.986	230.83
1359.238	235.82
1362.491	238.6
1365.743	248.02
1368.995	248.44
1372.247	248.8
1375.498	247.98
1378.749	257.13
1382	257.04
1385.251	256.59
1388.501	256.04
1391.751	258.76
1395	256.9
1398.25	260.24
1401.499	258.77
1404.748	260.37
1407.996	252.1
1411.244	252.55
1414.492	247.45
1417.74	242.77
1420.987	236.72
1424.234	232.79
1427.481	223.62
1430.728	218.59
1433.974	210.59
1437.22	203.73
1440.465	196.71
1443.711	191.95
1446.956	186.28
1450.201	179.78
1453.445	170.89
1456.689	166.4
1459.933	160.45
1463.177	154.3
1466.42	151.15
1469.663	147.05
1472.906	143.01
1476.148	138.86
1479.391	135.41
1482.633	132.55
1485.874	129.89
1489.115	129.14
1492.356	126.32
1495.597	124.28
1498.838	123.45
1502.078	121.77
1505.318	120.69
1508.557	119.66
1511.797	118.41
1515.036	118.08
1518.274	117.14
1521.513	115.19
1524.751	114.25
1527.989	115.46
1531.227	115.29
1534.464	114.93
1537.701	113.6
1540.938	113
1544.174	113.31
1547.41	112.85
1550.646	112.52
1553.882	113.05
1557.117	112.75
1560.352	112.63
1563.587	110.93
1566.821	110.62
1570.055	109.54
1573.289	110.32
1576.523	110.01
1579.756	109.18
1582.989	109.53
1586.222	108.92
1589.454	108.98
1592.686	108.44
1595.918	108.16
1599.15	108.16
1602.381	108.45
1605.612	108.77
1608.843	108.35
1612.073	108.5
1615.303	108.66
1618.533	107.87
1621.762	108.53
1624.992	107.98
1628.221	108.13
1631.449	108.37
1634.678	108.18
1637.906	107.92
1641.134	108.3
1644.361	107.81
1647.588	108.53
1650.815	108.57
1654.042	109.04
1657.269	108.7
1660.495	109.14
1663.72	109.25
1666.946	109.37
1670.171	110.15
1673.396	110.52
1676.621	110.34
1679.845	110.75
1683.069	110.68
1686.293	110.5
1689.517	110.78
1692.74	110.97
1695.963	110.97
1699.185	111.73
1702.408	111.92
1705.63	111.91
1708.852	112.7
1712.073	112.65
1715.294	112.79
1718.515	113.58
1721.736	114.14
1724.956	113.82
1728.176	113.8
1731.396	114.61
1734.616	114.48
1737.835	114.78
1741.054	114.96
1744.272	114.79
1747.491	115.17
1750.709	116.04
1753.927	115.62
1757.144	115.87
1760.361	116.83
1763.578	117.74
1766.795	118
1770.011	118.16
1773.227	118.38
1776.443	119.78
1779.658	119.9
1782.874	120.2
1786.089	120.32
1789.303	120.7
1792.518	122.25
1795.732	122.97
1798.945	123.58
1802.159	123.96
1805.372	126.03
1808.585	127.21
1811.797	127.55
1815.01	128.88
1818.222	130.83
1821.434	131.45
1824.645	132.56
1827.856	134.29
1831.067	134.98
1834.278	136.58
1837.488	137.74
1840.698	139.06
1843.908	139.31
1847.117	141.54
1850.326	142.6
1853.535	142.32
1856.744	144.54
1859.952	146.64
1863.16	146.43
1866.368	146.37
1869.575	147.33
1872.782	147.38
1875.989	145.89
1879.196	146.34
1882.402	144.61
1885.608	144.89
1888.814	146.09
1892.019	146.84
1895.224	144.13
1898.429	144.63
1901.634	145.19
1904.838	145.94
1908.042	147.32
1911.246	147.28
1914.449	147.36
1917.652	147.58
1920.855	147.8
1924.058	147.03
1927.26	146.76
1930.462	147.92
1933.664	147.53
1936.865	148.57
1940.066	145.65
1943.267	144.73
1946.467	145.97
1949.668	146.59
1952.868	147
1956.067	146.57
1959.267	146.24
1962.466	146.82
1965.665	148.38
1968.863	148.66
1972.061	149.9
1975.259	153.61
1978.457	155.51
1981.654	156.66
1984.852	158.19
1988.048	160.02
1991.245	163.12
1994.441	167.13
1997.637	170.05
2000.833	172.05
2004.028	175.07
2007.223	179.5
2010.418	183.07
2013.613	188.43
2016.807	194.06
2020.001	198.31
2023.194	202.74
2026.388	209.39
2029.581	219.97
2032.774	226.27
2035.966	233.73
2039.158	239.97
2042.35	244.23
2045.542	250.08
2048.733	260.87
2051.924	262.82
2055.115	266.9
2058.306	271.44
2061.496	276.73
2064.686	274.75
2067.875	274.6
2071.065	276.47
2074.254	277.39
2077.442	284.46
2080.631	286.9
2083.819	287.36
2087.007	293.38
2090.195	298.14
2093.382	299.11
2096.569	298.67
2099.756	304.84
2102.942	310.77
2106.128	317.84
2109.314	320.87
2112.5	321.69
2115.685	319.13
2118.87	319.93
2122.055	322.41
2125.239	326.59
2128.424	334.89
2131.608	331.64
2134.791	332.23
2137.974	332.98
2141.157	336.35
2144.34	338.87
2147.523	344.44
2150.705	352.96
2153.887	348.65
2157.068	351.68
2160.25	352.89
2163.431	351.23
2166.611	360.7
2169.792	367.94
2172.972	374.11
2176.152	372.23
2179.331	379.93
2182.511	380.97
2185.69	386.56
2188.868	402.23
2192.047	413.24
2195.225	421.93
2198.403	427.17
2201.58	420.43
2204.758	434.86
2207.935	438.3
2211.111	449.65
2214.288	450.45
2217.464	455.96
2220.64	455.59
2223.815	461.23
2226.991	450.42
2230.166	456.22
2233.34	467.85
2236.515	485.31
2239.689	476.68
2242.863	480.88
2246.036	476.11
2249.209	491.23
2252.382	490.21
2255.555	509.52
2258.727	509.77
2261.9	527.92
2265.071	534.71
2268.243	531.15
2271.414	542.51
2274.585	554.43
2277.756	557.16
2280.926	584.29
2284.096	581.87
2287.266	584.5
2290.436	574.42
2293.605	587.05
2296.774	611.59
2299.942	609.04
2303.111	625.56
2306.279	638.16
2309.447	642.78
2312.614	644.83
2315.781	658.02
2318.948	661.38
2322.115	675.75
2325.281	712.93
2328.447	708.85
2331.613	704.81
2334.779	716.89
2337.944	732.62
2341.109	744.47
2344.274	750.13
2347.438	771.26
2350.602	778.35
2353.766	830.48
2356.929	830.01
2360.092	835.48
2363.255	839.37
2366.418	855.72
2369.58	874.42
2372.742	872.89
2375.904	871.28
2379.066	895.5
2382.227	948.97
2385.388	949.78
2388.548	896.34
2391.709	893.92
2394.869	924.31
2398.029	925.58
2401.188	923.13
2404.347	954.7
2407.506	987.15
2410.665	949.82
2413.823	956.75
2416.981	954.52
2420.139	905.68
2423.296	985.73
2426.453	1047.78
2429.61	993.25
2432.767	1062.65
2435.923	1095.2
2439.079	1056.14
2442.235	1079.65
2445.391	1108.52
2448.546	1095.82
2451.701	1158.85
2454.855	1239.35
2458.009	1100.82
2461.163	1103.57
2464.317	1124.1
2467.471	1094.93
2470.624	1141.5
2473.777	1121.32
2476.929	1078.3
2480.082	1161.2
2483.234	1220.26
2486.385	1238.12
2489.537	1265.73
2492.688	1392.31
2495.839	1376.5
2498.989	1420.36
2502.14	1436.66
2505.29	1368.21
2508.439	1503.94
2511.589	1555.61
2514.738	1487.8
2517.887	1475.44
2521.035	1376.59
2524.183	1365.04
2527.331	1349.68
2530.479	1326.78
2533.627	1351.84
