Data from N_3_dec_wc_4n_Splice17_15.txt Node
Date: Sat Feb 29 14:51:00 EST 2020
User: sa697716
Spectrometer: FLMS03696
Trigger mode: 0
Integration Time (sec): 3.180400E-1
Scans to average: 20
Electric dark correction enabled: true
Nonlinearity correction enabled: true
Boxcar width: 5
XAxis mode: Wavelengths
Number of Pixels in Spectrum: 2048
>>>>>Begin Spectral Data<<<<<
187.83	104.7
188.298	98.25
188.766	100.88
189.233	90.79
189.701	111.09
190.169	98.5
190.636	128.18
191.104	150.67
191.571	684.45
192.039	419.71
192.506	-330.92
192.974	5958.35
193.441	-307.28
193.908	95.08
194.375	89.94
194.842	304.34
195.31	163.92
195.777	216.73
196.244	72.66
196.711	51
197.177	48.13
197.644	46.62
198.111	46.37
198.578	47.13
199.045	47.72
199.511	47.68
199.978	47.95
200.445	47.37
200.911	47.58
201.378	48.01
201.844	49.09
202.31	49.68
202.777	49.45
203.243	49.48
203.709	49.46
204.176	49.18
204.642	48.95
205.108	48.45
205.574	48.87
206.04	48.44
206.506	48.25
206.972	47.36
207.438	46.79
207.903	46.89
208.369	46.36
208.835	45.75
209.301	45.44
209.766	44.82
210.232	44.41
210.697	43.58
211.163	43.14
211.628	42.17
212.094	41.67
212.559	40.62
213.024	39.69
213.49	38.86
213.955	38.05
214.42	37.06
214.885	35.86
215.35	34.46
215.815	32.73
216.28	30.88
216.745	29.24
217.21	27.13
217.675	25.37
218.14	23.56
218.604	21.96
219.069	20.59
219.534	19.29
219.998	18.29
220.463	17.49
220.927	16.73
221.392	16.04
221.856	15.38
222.32	14.91
222.785	14.48
223.249	14.12
223.713	13.8
224.177	13.42
224.642	13.17
225.106	12.91
225.57	12.6
226.034	12.39
226.497	12.17
226.961	11.94
227.425	11.69
227.889	11.45
228.353	11.25
228.816	11.06
229.28	10.86
229.744	10.69
230.207	10.52
230.671	10.36
231.134	10.2
231.597	10.06
232.061	9.92
232.524	9.8
232.987	9.68
233.45	9.51
233.914	9.39
234.377	9.29
234.84	9.18
235.303	9.07
235.766	8.96
236.229	8.84
236.691	8.75
237.154	8.67
237.617	8.59
238.08	8.5
238.542	8.44
239.005	8.36
239.468	8.26
239.93	8.17
240.393	8.1
240.855	8.01
241.317	7.95
241.78	7.88
242.242	7.8
242.704	7.72
243.166	7.65
243.629	7.58
244.091	7.51
244.553	7.45
245.015	7.39
245.477	7.32
245.939	7.25
246.4	7.18
246.862	7.12
247.324	7.05
247.786	6.99
248.247	6.93
248.709	6.86
249.17	6.8
249.632	6.74
250.093	6.65
250.555	6.61
251.016	6.56
251.477	6.52
251.939	6.46
252.4	6.42
252.861	6.39
253.322	6.35
253.783	6.31
254.244	6.27
254.705	6.24
255.166	6.22
255.627	6.19
256.088	6.14
256.549	6.11
257.009	6.08
257.47	6.05
257.931	6
258.391	5.94
258.852	5.89
259.312	5.85
259.773	5.81
260.233	5.76
260.694	5.71
261.154	5.67
261.614	5.62
262.074	5.58
262.534	5.52
262.994	5.48
263.455	5.46
263.915	5.43
264.374	5.39
264.834	5.36
265.294	5.32
265.754	5.3
266.214	5.27
266.673	5.24
267.133	5.22
267.593	5.21
268.052	5.18
268.512	5.16
268.971	5.13
269.431	5.12
269.89	5.09
270.349	5.08
270.809	5.07
271.268	5.06
271.727	5.04
272.186	5.02
272.645	5
273.104	4.98
273.563	4.97
274.022	4.96
274.481	4.94
274.94	4.92
275.399	4.91
275.857	4.89
276.316	4.87
276.775	4.85
277.233	4.84
277.692	4.83
278.15	4.81
278.609	4.79
279.067	4.77
279.525	4.75
279.984	4.74
280.442	4.73
280.9	4.72
281.358	4.71
281.816	4.7
282.274	4.69
282.732	4.68
283.19	4.68
283.648	4.68
284.106	4.67
284.564	4.67
285.021	4.67
285.479	4.66
285.937	4.65
286.394	4.65
286.852	4.64
287.309	4.64
287.767	4.62
288.224	4.61
288.682	4.6
289.139	4.58
289.596	4.56
290.053	4.53
290.511	4.51
290.968	4.5
291.425	4.48
291.882	4.47
292.339	4.44
292.796	4.42
293.252	4.4
293.709	4.38
294.166	4.37
294.623	4.36
295.079	4.35
295.536	4.34
295.992	4.32
296.449	4.31
296.905	4.29
297.362	4.28
297.818	4.27
298.274	4.25
298.731	4.24
299.187	4.23
299.643	4.22
300.099	4.21
300.555	4.19
301.011	4.18
301.467	4.16
301.923	4.16
302.379	4.15
302.835	4.14
303.291	4.13
303.746	4.12
304.202	4.11
304.658	4.11
305.113	4.1
305.569	4.1
306.024	4.1
306.479	4.1
306.935	4.08
307.39	4.08
307.845	4.08
308.301	4.09
308.756	4.1
309.211	4.1
309.666	4.09
310.121	4.09
310.576	4.09
311.031	4.08
311.486	4.08
311.94	4.08
312.395	4.08
312.85	4.08
313.305	4.07
313.759	4.07
314.214	4.06
314.668	4.06
315.123	4.06
315.577	4.05
316.032	4.05
316.486	4.06
316.94	4.06
317.394	4.05
317.849	4.04
318.303	4.04
318.757	4.02
319.211	4
319.665	3.99
320.119	3.97
320.572	3.96
321.026	3.95
321.48	3.93
321.934	3.92
322.387	3.91
322.841	3.89
323.295	3.88
323.748	3.87
324.202	3.88
324.655	3.87
325.108	3.86
325.562	3.84
326.015	3.83
326.468	3.83
326.921	3.81
327.374	3.81
327.827	3.81
328.28	3.8
328.733	3.78
329.186	3.77
329.639	3.76
330.092	3.77
330.545	3.77
330.997	3.77
331.45	3.76
331.903	3.76
332.355	3.76
332.808	3.76
333.26	3.76
333.713	3.77
334.165	3.78
334.617	3.78
335.069	3.79
335.522	3.8
335.974	3.8
336.426	3.81
336.878	3.81
337.33	3.81
337.782	3.81
338.234	3.81
338.686	3.81
339.137	3.8
339.589	3.8
340.041	3.78
340.493	3.76
340.944	3.75
341.396	3.75
341.847	3.74
342.299	3.73
342.75	3.71
343.201	3.7
343.653	3.69
344.104	3.69
344.555	3.68
345.006	3.66
345.457	3.65
345.908	3.65
346.359	3.64
346.81	3.64
347.261	3.64
347.712	3.64
348.163	3.64
348.613	3.62
349.064	3.6
349.515	3.59
349.965	3.58
350.416	3.58
350.866	3.57
351.317	3.57
351.767	3.56
352.217	3.56
352.668	3.56
353.118	3.56
353.568	3.57
354.018	3.58
354.468	3.58
354.918	3.6
355.368	3.61
355.818	3.61
356.268	3.61
356.718	3.6
357.168	3.61
357.617	3.61
358.067	3.6
358.517	3.6
358.966	3.6
359.416	3.61
359.865	3.6
360.315	3.6
360.764	3.6
361.213	3.6
361.663	3.6
362.112	3.62
362.561	3.62
363.01	3.62
363.459	3.62
363.908	3.62
364.357	3.62
364.806	3.63
365.255	3.63
365.703	3.64
366.152	3.65
366.601	3.66
367.05	3.66
367.498	3.67
367.947	3.67
368.395	3.69
368.844	3.69
369.292	3.71
369.74	3.73
370.189	3.74
370.637	3.76
371.085	3.77
371.533	3.77
371.981	3.78
372.429	3.79
372.877	3.82
373.325	3.83
373.773	3.85
374.221	3.86
374.669	3.87
375.116	3.89
375.564	3.91
376.012	3.93
376.459	3.96
376.907	4
377.354	4.01
377.801	4.04
378.249	4.07
378.696	4.1
379.143	4.15
379.591	4.18
380.038	4.22
380.485	4.25
380.932	4.28
381.379	4.31
381.826	4.35
382.273	4.38
382.72	4.42
383.166	4.45
383.613	4.49
384.06	4.51
384.506	4.55
384.953	4.56
385.4	4.6
385.846	4.63
386.292	4.67
386.739	4.69
387.185	4.73
387.631	4.76
388.078	4.79
388.524	4.79
388.97	4.82
389.416	4.84
389.862	4.88
390.308	4.9
390.754	4.92
391.2	4.96
391.645	4.99
392.091	5.01
392.537	5.06
392.983	5.09
393.428	5.14
393.874	5.17
394.319	5.2
394.765	5.22
395.21	5.24
395.655	5.27
396.101	5.28
396.546	5.3
396.991	5.32
397.436	5.31
397.881	5.32
398.326	5.33
398.771	5.35
399.216	5.37
399.661	5.39
400.106	5.41
400.551	5.41
400.995	5.39
401.44	5.37
401.885	5.36
402.329	5.35
402.774	5.35
403.218	5.34
403.663	5.32
404.107	5.32
404.551	5.3
404.995	5.28
405.44	5.27
405.884	5.28
406.328	5.28
406.772	5.27
407.216	5.28
407.66	5.29
408.104	5.29
408.547	5.28
408.991	5.26
409.435	5.26
409.879	5.27
410.322	5.28
410.766	5.28
411.209	5.29
411.653	5.29
412.096	5.28
412.54	5.27
412.983	5.27
413.426	5.28
413.869	5.3
414.312	5.31
414.756	5.32
415.199	5.32
415.642	5.34
416.085	5.35
416.527	5.37
416.97	5.38
417.413	5.37
417.856	5.36
418.298	5.36
418.741	5.35
419.184	5.34
419.626	5.34
420.069	5.33
420.511	5.32
420.953	5.31
421.396	5.3
421.838	5.3
422.28	5.31
422.722	5.32
423.164	5.32
423.606	5.33
424.048	5.32
424.49	5.32
424.932	5.32
425.374	5.3
425.816	5.3
426.258	5.27
426.699	5.24
427.141	5.21
427.582	5.21
428.024	5.21
428.465	5.2
428.907	5.21
429.348	5.19
429.789	5.19
430.231	5.19
430.672	5.2
431.113	5.24
431.554	5.26
431.995	5.28
432.436	5.27
432.877	5.25
433.318	5.25
433.759	5.25
434.2	5.28
434.64	5.29
435.081	5.29
435.522	5.31
435.962	5.33
436.403	5.35
436.843	5.37
437.284	5.38
437.724	5.43
438.164	5.45
438.604	5.49
439.045	5.49
439.485	5.49
439.925	5.52
440.365	5.51
440.805	5.5
441.245	5.5
441.685	5.52
442.125	5.54
442.564	5.56
443.004	5.61
443.444	5.65
443.883	5.68
444.323	5.72
444.762	5.77
445.202	5.84
445.641	5.9
446.081	5.96
446.52	6
446.959	6.04
447.398	6.08
447.837	6.11
448.276	6.14
448.716	6.18
449.154	6.22
449.593	6.27
450.032	6.29
450.471	6.3
450.91	6.3
451.349	6.31
451.787	6.33
452.226	6.32
452.664	6.33
453.103	6.32
453.541	6.33
453.98	6.32
454.418	6.29
454.856	6.27
455.295	6.26
455.733	6.26
456.171	6.26
456.609	6.25
457.047	6.25
457.485	6.24
457.923	6.22
458.361	6.2
458.798	6.22
459.236	6.22
459.674	6.22
460.111	6.22
460.549	6.19
460.987	6.19
461.424	6.16
461.862	6.14
462.299	6.14
462.736	6.14
463.173	6.14
463.611	6.11
464.048	6.11
464.485	6.11
464.922	6.1
465.359	6.11
465.796	6.09
466.233	6.11
466.67	6.13
467.106	6.12
467.543	6.12
467.98	6.1
468.416	6.12
468.853	6.11
469.29	6.13
469.726	6.14
470.162	6.15
470.599	6.16
471.035	6.17
471.471	6.18
471.907	6.19
472.344	6.21
472.78	6.23
473.216	6.23
473.652	6.22
474.088	6.23
474.523	6.22
474.959	6.22
475.395	6.22
475.831	6.22
476.266	6.22
476.702	6.22
477.138	6.22
477.573	6.22
478.008	6.21
478.444	6.22
478.879	6.21
479.314	6.21
479.75	6.22
480.185	6.23
480.62	6.22
481.055	6.22
481.49	6.21
481.925	6.2
482.36	6.18
482.795	6.19
483.229	6.19
483.664	6.2
484.099	6.2
484.534	6.2
484.968	6.21
485.403	6.22
485.837	6.23
486.271	6.24
486.706	6.26
487.14	6.3
487.574	6.31
488.009	6.33
488.443	6.36
488.877	6.39
489.311	6.43
489.745	6.47
490.179	6.51
490.613	6.56
491.046	6.62
491.48	6.67
491.914	6.72
492.348	6.79
492.781	6.85
493.215	6.91
493.648	6.98
494.082	7.05
494.515	7.12
494.948	7.19
495.382	7.27
495.815	7.35
496.248	7.45
496.681	7.54
497.114	7.64
497.547	7.76
497.98	7.88
498.413	8
498.846	8.13
499.279	8.26
499.711	8.4
500.144	8.55
500.577	8.7
501.009	8.86
501.442	9.02
501.874	9.19
502.306	9.36
502.739	9.53
503.171	9.73
503.603	9.94
504.036	10.14
504.468	10.36
504.9	10.58
505.332	10.81
505.764	11.05
506.196	11.3
506.627	11.56
507.059	11.82
507.491	12.1
507.923	12.38
508.354	12.67
508.786	12.96
509.217	13.28
509.649	13.61
510.08	13.94
510.512	14.26
510.943	14.59
511.374	14.93
511.805	15.28
512.237	15.64
512.668	16
513.099	16.38
513.53	16.77
513.961	17.16
514.391	17.52
514.822	17.91
515.253	18.3
515.684	18.68
516.114	19.09
516.545	19.5
516.975	19.89
517.406	20.29
517.836	20.67
518.267	21.07
518.697	21.44
519.127	21.83
519.558	22.2
519.988	22.6
520.418	22.98
520.848	23.34
521.278	23.7
521.708	23.92
522.138	24.26
522.567	24.6
522.997	24.94
523.427	25.28
523.857	25.6
524.286	25.95
524.716	26.23
525.145	26.52
525.575	26.81
526.004	27.09
526.433	27.49
526.863	27.77
527.292	28.04
527.721	28.26
528.15	28.49
528.579	28.72
529.008	28.94
529.437	29.16
529.866	29.36
530.295	29.55
530.724	29.73
531.152	29.91
531.581	30.08
532.01	30.22
532.438	30.37
532.867	30.52
533.295	30.65
533.723	30.77
534.152	30.87
534.58	30.97
535.008	31.04
535.436	31.13
535.865	31.21
536.293	31.28
536.721	31.34
537.149	31.4
537.576	31.45
538.004	31.5
538.432	31.54
538.86	31.61
539.287	31.67
539.715	31.73
540.143	31.74
540.57	31.78
540.998	31.84
541.425	31.87
541.852	31.91
542.28	31.92
542.707	31.98
543.134	32
543.561	32.01
543.988	32.06
544.415	32.09
544.842	32.12
545.269	32.19
545.696	32.21
546.123	32.26
546.549	32.31
546.976	32.38
547.403	32.39
547.829	32.44
548.256	32.47
548.682	32.48
549.108	32.52
549.535	32.58
549.961	32.59
550.387	32.61
550.813	32.6
551.24	32.6
551.666	32.61
552.092	32.62
552.518	32.58
552.943	32.58
553.369	32.57
553.795	32.55
554.221	32.52
554.646	32.47
555.072	32.43
555.498	32.4
555.923	32.34
556.349	32.27
556.774	32.21
557.199	32.16
557.625	32.08
558.05	32
558.475	31.9
558.9	31.81
559.325	31.72
559.75	31.61
560.175	31.5
560.6	31.39
561.025	31.25
561.449	31.12
561.874	30.99
562.299	30.86
562.723	30.72
563.148	30.57
563.572	30.43
563.997	30.26
564.421	30.08
564.846	29.9
565.27	29.74
565.694	29.55
566.118	29.37
566.542	29.19
566.966	28.99
567.39	28.77
567.814	28.57
568.238	28.35
568.662	28.14
569.086	27.95
569.509	27.75
569.933	27.53
570.357	27.32
570.78	27.1
571.204	26.87
571.627	26.67
572.05	26.5
572.474	26.3
572.897	26.11
573.32	25.92
573.743	25.73
574.166	25.56
574.589	25.39
575.012	25.24
575.435	25.09
575.858	24.95
576.281	24.81
576.704	24.66
577.126	24.52
577.549	24.4
577.972	24.27
578.394	24.15
578.817	24.02
579.239	23.91
579.661	23.8
580.084	23.68
580.506	23.58
580.928	23.47
581.35	23.37
581.772	23.29
582.194	23.19
582.616	23.1
583.038	23.02
583.46	22.94
583.882	22.85
584.303	22.75
584.725	22.68
585.147	22.57
585.568	22.48
585.99	22.39
586.411	22.29
586.833	22.21
587.254	22.12
587.675	22.04
588.096	21.98
588.518	21.91
588.939	21.85
589.36	21.78
589.781	21.74
590.202	21.68
590.623	21.61
591.043	21.56
591.464	21.5
591.885	21.44
592.305	21.38
592.726	21.33
593.147	21.28
593.567	21.21
593.987	21.18
594.408	21.11
594.828	21.08
595.248	21.03
595.669	20.98
596.089	20.93
596.509	20.88
596.929	20.82
597.349	20.75
597.769	20.69
598.189	20.66
598.608	20.59
599.028	20.54
599.448	20.48
599.867	20.42
600.287	20.36
600.706	20.31
601.126	20.24
601.545	20.18
601.965	20.11
602.384	20.04
602.803	19.95
603.222	19.88
603.641	19.81
604.061	19.74
604.48	19.66
604.898	19.58
605.317	19.5
605.736	19.41
606.155	19.32
606.574	19.24
606.992	19.15
607.411	19.06
607.829	18.93
608.248	18.83
608.666	18.72
609.085	18.62
609.503	18.52
609.921	18.41
610.339	18.33
610.758	18.24
611.176	18.13
611.594	18.03
612.012	17.94
612.43	17.9
612.847	17.81
613.265	17.71
613.683	17.63
614.101	17.54
614.518	17.46
614.936	17.36
615.353	17.26
615.771	17.18
616.188	17.11
616.606	17.02
617.023	16.94
617.44	16.86
617.857	16.79
618.274	16.73
618.691	16.66
619.108	16.6
619.525	16.54
619.942	16.5
620.359	16.47
620.776	16.43
621.192	16.39
621.609	16.35
622.026	16.3
622.442	16.24
622.859	16.21
623.275	16.19
623.691	16.17
624.108	16.15
624.524	16.12
624.94	16.09
625.356	16.05
625.772	16.03
626.188	16.03
626.604	16.02
627.02	16.01
627.436	15.99
627.852	15.95
628.268	15.92
628.683	15.89
629.099	15.87
629.514	15.82
629.93	15.79
630.345	15.75
630.761	15.68
631.176	15.62
631.591	15.56
632.007	15.49
632.422	15.44
632.837	15.36
633.252	15.26
633.667	15.15
634.082	15.05
634.497	14.93
634.911	14.8
635.326	14.65
635.741	14.49
636.155	14.34
636.57	14.2
636.984	14.01
637.399	13.84
637.813	13.67
638.228	13.48
638.642	13.32
639.056	13.15
639.47	12.97
639.884	12.8
640.298	12.62
640.712	12.44
641.126	12.24
641.54	12.06
641.954	11.89
642.368	11.71
642.781	11.53
643.195	11.34
643.609	11.15
644.022	10.99
644.436	10.84
644.849	10.7
645.262	10.55
645.676	10.42
646.089	10.29
646.502	10.15
646.915	10.06
647.328	9.97
647.741	9.88
648.154	9.81
648.567	9.73
648.98	9.66
649.393	9.59
649.805	9.53
650.218	9.48
650.631	9.43
651.043	9.39
651.456	9.34
651.868	9.3
652.28	9.24
652.693	9.18
653.105	9.13
653.517	9.07
653.929	9.03
654.341	8.98
654.753	8.92
655.165	8.85
655.577	8.77
655.989	8.68
656.401	8.58
656.813	8.48
657.224	8.4
657.636	8.31
658.047	8.21
658.459	8.09
658.87	7.98
659.282	7.88
659.693	7.78
660.104	7.69
660.515	7.58
660.926	7.5
661.338	7.4
661.749	7.29
662.159	7.18
662.57	7.08
662.981	6.99
663.392	6.9
663.803	6.82
664.213	6.74
664.624	6.66
665.035	6.59
665.445	6.52
665.855	6.47
666.266	6.42
666.676	6.38
667.086	6.33
667.497	6.28
667.907	6.25
668.317	6.19
668.727	6.17
669.137	6.14
669.547	6.12
669.956	6.11
670.366	6.1
670.776	6.1
671.186	6.09
671.595	6.1
672.005	6.12
672.414	6.12
672.824	6.15
673.233	6.18
673.642	6.2
674.052	6.21
674.461	6.22
674.87	6.25
675.279	6.29
675.688	6.31
676.097	6.35
676.506	6.39
676.915	6.44
677.323	6.49
677.732	6.53
678.141	6.61
678.549	6.68
678.958	6.76
679.366	6.83
679.775	6.93
680.183	7.05
680.592	7.17
681	7.28
681.408	7.43
681.816	7.58
682.224	7.77
682.632	7.96
683.04	8.17
683.448	8.42
683.856	8.69
684.264	8.97
684.671	9.3
685.079	9.65
685.487	10.04
685.894	10.45
686.302	10.89
686.709	11.38
687.116	11.88
687.524	12.42
687.931	12.98
688.338	13.56
688.745	14.21
689.152	14.87
689.559	15.55
689.966	16.25
690.373	17.02
690.78	17.78
691.187	18.57
691.593	19.35
692	20.14
692.407	20.96
692.813	21.8
693.22	22.59
693.626	23.4
694.032	24.22
694.439	25.06
694.845	25.87
695.251	26.69
695.657	27.47
696.063	28.28
696.469	29.08
696.875	29.83
697.281	30.58
697.687	31.37
698.093	32.12
698.498	32.89
698.904	33.59
699.31	34.3
699.715	35
700.12	35.65
700.526	36.31
700.931	36.96
701.337	37.63
701.742	38.23
702.147	38.84
702.552	39.43
702.957	39.99
703.362	40.6
703.767	41.13
704.172	41.68
704.577	42.23
704.981	42.77
705.386	43.29
705.791	43.82
706.195	44.33
706.6	44.81
707.004	45.29
707.408	45.75
707.813	46.21
708.217	46.66
708.621	47.1
709.025	47.56
709.43	47.96
709.834	48.39
710.237	48.76
710.641	49.19
711.045	49.57
711.449	49.96
711.853	50.35
712.256	50.7
712.66	51.06
713.064	51.41
713.467	51.76
713.87	52.11
714.274	52.45
714.677	52.79
715.08	53.09
715.484	53.43
715.887	53.75
716.29	54.05
716.693	54.33
717.096	54.63
717.499	54.92
717.901	55.17
718.304	55.44
718.707	55.69
719.109	55.94
719.512	56.2
719.915	56.43
720.317	56.68
720.719	56.9
721.122	57.12
721.524	57.35
721.926	57.58
722.328	57.82
722.731	58.04
723.133	58.26
723.535	58.47
723.937	58.66
724.338	58.82
724.74	58.98
725.142	59.1
725.544	59.27
725.945	59.4
726.347	59.56
726.748	59.66
727.15	59.8
727.551	59.93
727.952	60.06
728.354	60.2
728.755	60.33
729.156	60.47
729.557	60.66
729.958	60.8
730.359	60.92
730.76	61
731.161	61.1
731.562	61.19
731.962	61.24
732.363	61.32
732.763	61.44
733.164	61.54
733.564	61.58
733.965	61.63
734.365	61.66
734.766	61.75
735.166	61.79
735.566	61.82
735.966	61.87
736.366	61.94
736.766	61.97
737.166	62.01
737.566	62.03
737.966	62.12
738.365	62.17
738.765	62.24
739.165	62.23
739.564	62.31
739.964	62.37
740.363	62.4
740.763	62.42
741.162	62.45
741.561	62.47
741.96	62.54
742.36	62.56
742.759	62.57
743.158	62.6
743.557	62.68
743.955	62.71
744.354	62.77
744.753	62.85
745.152	62.9
745.55	62.98
745.949	62.98
746.348	63.01
746.746	63.02
747.144	63.09
747.543	63.13
747.941	63.19
748.339	63.24
748.737	63.25
749.136	63.24
749.534	63.27
749.932	63.3
750.33	63.35
750.727	63.33
751.125	63.35
751.523	63.34
751.921	63.34
752.318	63.31
752.716	63.32
753.113	63.33
753.511	63.31
753.908	63.27
754.305	63.21
754.703	63.15
755.1	63.17
755.497	63.14
755.894	63.13
756.291	63.09
756.688	63.08
757.085	63.07
757.482	63.05
757.878	63.07
758.275	63.09
758.672	63.13
759.068	63.17
759.465	63.15
759.861	63.14
760.258	63.08
760.654	63.03
761.05	63.04
761.447	62.99
761.843	62.95
762.239	62.91
762.635	62.9
763.031	62.85
763.427	62.8
763.822	62.78
764.218	62.76
764.614	62.8
765.01	62.84
765.405	62.81
765.801	62.81
766.196	62.8
766.592	62.79
766.987	62.81
767.382	62.83
767.778	62.85
768.173	62.86
768.568	62.84
768.963	62.84
769.358	62.83
769.753	62.83
770.148	62.83
770.542	62.85
770.937	62.84
771.332	62.82
771.726	62.78
772.121	62.76
772.515	62.74
772.91	62.76
773.304	62.74
773.699	62.74
774.093	62.72
774.487	62.72
774.881	62.76
775.275	62.77
775.669	62.79
776.063	62.78
776.457	62.78
776.851	62.78
777.245	62.8
777.638	62.81
778.032	62.84
778.425	62.87
778.819	62.86
779.212	62.82
779.606	62.81
779.999	62.82
780.392	62.82
780.786	62.85
781.179	62.88
781.572	62.88
781.965	62.88
782.358	62.82
782.751	62.8
783.143	62.8
783.536	62.85
783.929	62.87
784.322	62.86
784.714	62.86
785.107	62.91
785.499	62.92
785.891	62.93
786.284	62.91
786.676	62.97
787.068	62.96
787.46	62.96
787.852	62.97
788.245	62.93
788.636	62.93
789.028	62.93
789.42	62.86
789.812	62.87
790.204	62.82
790.595	62.86
790.987	62.85
791.378	62.89
791.77	62.94
792.161	62.92
792.553	62.94
792.944	62.96
793.335	63.02
793.726	63
794.117	62.99
794.508	63.02
794.899	63.01
795.29	63.02
795.681	63.02
796.072	63.03
796.463	63.03
796.853	63.07
797.244	63.05
797.634	63.05
798.025	63.12
798.415	63.15
798.806	63.18
799.196	63.24
799.586	63.26
799.976	63.25
800.366	63.25
800.756	63.26
801.146	63.26
801.536	63.29
801.926	63.29
802.316	63.32
802.706	63.35
803.095	63.36
803.485	63.34
803.874	63.38
804.264	63.46
804.653	63.47
805.043	63.54
805.432	63.58
805.821	63.58
806.21	63.65
806.599	63.66
806.988	63.68
807.377	63.73
807.766	63.75
808.155	63.78
808.544	63.75
808.933	63.77
809.321	63.75
809.71	63.81
810.098	63.85
810.487	63.85
810.875	63.84
811.264	63.86
811.652	63.84
812.04	63.87
812.428	63.91
812.816	63.96
813.204	63.96
813.592	63.99
813.98	63.94
814.368	63.91
814.756	63.95
815.144	63.99
815.531	63.97
815.919	64
816.306	64.02
816.694	64.01
817.081	63.98
817.469	64.05
817.856	64.11
818.243	64.16
818.63	64.23
819.017	64.24
819.404	64.23
819.791	64.25
820.178	64.27
820.565	64.27
820.952	64.28
821.339	64.31
821.725	64.3
822.112	64.29
822.498	64.3
822.885	64.28
823.271	64.29
823.657	64.28
824.044	64.26
824.43	64.27
824.816	64.27
825.202	64.26
825.588	64.31
825.974	64.29
826.36	64.27
826.746	64.28
827.132	64.27
827.517	64.25
827.903	64.26
828.289	64.25
828.674	64.2
829.06	64.21
829.445	64.26
829.83	64.24
830.216	64.24
830.601	64.22
830.986	64.21
831.371	64.24
831.756	64.21
832.141	64.23
832.526	64.26
832.911	64.27
833.295	64.27
833.68	64.23
834.065	64.21
834.449	64.16
834.834	64.14
835.218	64.13
835.603	64.09
835.987	64.11
836.371	64.09
836.755	64.05
837.139	64.05
837.524	64.03
837.908	63.99
838.291	63.98
838.675	64
839.059	63.98
839.443	63.95
839.827	63.96
840.21	63.99
840.594	63.97
840.977	63.95
841.361	63.94
841.744	63.92
842.127	63.91
842.511	63.88
842.894	63.85
843.277	63.87
843.66	63.88
844.043	63.85
844.426	63.78
844.809	63.76
845.191	63.75
845.574	63.74
845.957	63.72
846.339	63.71
846.722	63.72
847.104	63.72
847.487	63.71
847.869	63.69
848.252	63.68
848.634	63.71
849.016	63.75
849.398	63.76
849.78	63.77
850.162	63.78
850.544	63.81
850.926	63.81
851.307	63.82
851.689	63.83
852.071	63.85
852.452	63.86
852.834	63.82
853.215	63.79
853.597	63.81
853.978	63.79
854.359	63.78
854.741	63.74
855.122	63.74
855.503	63.75
855.884	63.73
856.265	63.71
856.646	63.68
857.026	63.71
857.407	63.69
857.788	63.65
858.169	63.66
858.549	63.69
858.93	63.72
859.31	63.71
859.69	63.71
860.071	63.7
860.451	63.71
860.831	63.72
861.211	63.71
861.591	63.76
861.971	63.8
862.351	63.81
862.731	63.78
863.111	63.77
863.491	63.8
863.87	63.78
864.25	63.8
864.629	63.81
865.009	63.82
865.388	63.82
865.768	63.77
866.147	63.75
866.526	63.76
866.905	63.8
867.284	63.82
867.663	63.83
868.042	63.84
868.421	63.82
868.8	63.82
869.179	63.82
869.558	63.83
869.936	63.83
870.315	63.83
870.693	63.82
871.072	63.78
871.45	63.76
871.828	63.73
872.207	63.75
872.585	63.77
872.963	63.75
873.341	63.77
873.719	63.79
874.097	63.79
874.475	63.84
874.853	63.83
875.23	63.85
875.608	63.89
875.986	63.89
876.363	63.9
876.741	63.87
877.118	63.88
877.495	63.86
877.873	63.85
878.25	63.82
878.627	63.82
879.004	63.81
879.381	63.8
879.758	63.74
880.135	63.74
880.512	63.73
880.889	63.73
881.265	63.75
881.642	63.72
882.019	63.71
882.395	63.79
882.772	63.8
883.148	63.79
883.524	63.81
883.901	63.78
884.277	63.76
884.653	63.75
885.029	63.75
885.405	63.72
885.781	63.71
886.157	63.68
886.532	63.64
886.908	63.57
887.284	63.58
887.659	63.56
888.035	63.6
888.411	63.55
888.786	63.53
889.161	63.51
889.537	63.53
889.912	63.51
890.287	63.49
890.662	63.47
891.037	63.47
891.412	63.45
891.787	63.41
892.162	63.36
892.536	63.37
892.911	63.33
893.286	63.31
893.66	63.24
894.035	63.21
894.409	63.2
894.784	63.15
895.158	63.15
895.532	63.1
895.906	63.08
896.281	63.06
896.655	63.04
897.029	63.01
897.402	63.02
897.776	63.01
898.15	63.01
898.524	62.99
898.898	62.98
899.271	62.98
899.645	62.98
900.018	62.96
900.392	63
900.765	63.01
901.138	63.03
901.511	63
901.884	63.02
902.258	63.04
902.631	63.07
903.003	63.07
903.376	63.06
903.749	63.05
904.122	63.06
904.495	63.05
904.867	63.04
905.24	63.04
905.612	63.04
905.985	63.02
906.357	63.01
906.729	62.97
907.102	62.98
907.474	63
907.846	63
908.218	63.02
908.59	62.98
908.962	62.97
909.334	62.96
909.705	63
910.077	62.98
910.449	62.98
910.82	62.97
911.192	62.94
911.563	62.92
911.935	62.88
912.306	62.84
912.677	62.85
913.048	62.85
913.419	62.82
913.79	62.78
914.161	62.79
914.532	62.75
914.903	62.76
915.274	62.78
915.645	62.79
916.015	62.81
916.386	62.8
916.756	62.78
917.127	62.72
917.497	62.74
917.868	62.76
918.238	62.79
918.608	62.82
918.978	62.79
919.348	62.78
919.718	62.76
920.088	62.78
920.458	62.85
920.828	62.83
921.198	62.9
921.567	62.89
921.937	62.89
922.306	62.82
922.676	62.78
923.045	62.77
923.415	62.74
923.784	62.74
924.153	62.72
924.522	62.64
924.891	62.66
925.26	62.58
925.629	62.59
925.998	62.59
926.367	62.63
926.736	62.63
927.104	62.65
927.473	62.64
927.842	62.59
928.21	62.6
928.578	62.58
928.947	62.56
929.315	62.57
929.683	62.58
930.051	62.51
930.42	62.49
930.788	62.48
931.156	62.39
931.523	62.38
931.891	62.3
932.259	62.21
932.627	62.16
932.994	62.13
933.362	62.02
933.729	61.88
934.097	61.83
934.464	61.71
934.831	61.57
935.199	61.53
935.566	61.36
935.933	61.38
936.3	61.29
936.667	61.15
937.034	61
937.401	60.9
937.767	60.88
938.134	60.82
938.501	60.74
938.867	60.75
939.234	60.81
939.6	60.93
939.967	60.83
940.333	60.95
940.699	61.09
941.065	61.29
941.431	61.44
941.798	61.54
942.163	61.69
942.529	61.82
942.895	61.92
943.261	62.02
943.627	62.09
943.992	62.24
944.358	62.25
944.723	62.31
945.089	62.32
945.454	62.48
945.82	62.5
946.185	62.49
946.55	62.66
946.915	62.74
947.28	62.69
947.645	62.75
948.01	62.75
948.375	62.78
948.74	62.75
949.104	62.77
949.469	62.57
949.834	62.49
950.198	62.38
950.562	62.22
950.927	62.15
951.291	62.15
951.655	62.05
952.02	62.01
952.384	61.97
952.748	61.96
953.112	61.89
953.476	61.81
953.839	61.81
954.203	61.8
954.567	61.76
954.931	61.7
955.294	61.65
955.658	61.59
956.021	61.46
956.385	61.47
956.748	61.47
957.111	61.44
957.474	61.5
957.837	61.5
958.2	61.44
958.563	61.46
958.926	61.43
959.289	61.44
959.652	61.43
960.015	61.47
960.377	61.41
960.74	61.26
961.102	61.22
961.465	61.24
961.827	61.15
962.189	61.11
962.552	61.01
962.914	60.96
963.276	60.92
963.638	60.81
964	60.75
964.362	60.68
964.724	60.74
965.085	60.72
965.447	60.58
965.809	60.57
966.17	60.64
966.532	60.68
966.893	60.7
967.255	60.61
967.616	60.7
967.977	60.68
968.338	60.69
968.699	60.63
969.061	60.58
969.421	60.64
969.782	60.65
970.143	60.52
970.504	60.47
970.865	60.3
971.225	60.27
971.586	60.25
971.946	60.23
972.307	60.18
972.667	60.21
973.027	60.21
973.388	60.19
973.748	60.19
974.108	60.23
974.468	60.22
974.828	60.33
975.188	60.37
975.548	60.36
975.907	60.38
976.267	60.38
976.627	60.36
976.986	60.36
977.346	60.35
977.705	60.35
978.064	60.33
978.424	60.4
978.783	60.42
979.142	60.41
979.501	60.43
979.86	60.41
980.219	60.39
980.578	60.35
980.937	60.42
981.296	60.35
981.654	60.42
982.013	60.51
982.371	60.32
982.73	60.28
983.088	60.25
983.447	60.26
983.805	60.26
984.163	60.26
984.521	60.18
984.879	60.09
985.237	60.17
985.595	60.07
985.953	59.95
986.311	60.04
986.669	60.02
987.026	60.01
987.384	59.91
987.741	59.99
988.099	59.96
988.456	59.98
988.814	60.02
989.171	59.98
989.528	59.97
989.885	59.99
990.242	60.06
990.599	60.06
990.956	60.09
991.313	60.08
991.67	60.05
992.027	60.04
992.383	60.22
992.74	60.26
993.096	60.29
993.453	60.22
993.809	60.27
994.165	60.33
994.522	60.36
994.878	60.31
995.234	60.34
995.59	60.23
995.946	60.34
996.302	60.25
996.658	60.32
997.013	60.28
997.369	60.42
997.725	60.43
998.08	60.35
998.436	60.4
998.791	60.44
999.147	60.56
999.502	60.73
999.857	60.82
1000.212	60.7
1000.567	60.57
1000.922	60.67
1001.277	60.55
1001.632	60.61
1001.987	60.47
1002.342	60.38
1002.696	60.4
1003.051	60.17
1003.406	59.96
1003.76	59.91
1004.114	60
1004.469	59.93
1004.823	59.93
1005.177	60.12
1005.531	59.88
1005.885	60.04
1006.239	60.09
1006.593	60.1
1006.947	60.17
1007.301	60.27
1007.655	60.18
1008.008	60.06
1008.362	60.13
1008.715	60.09
1009.069	59.79
1009.422	59.88
1009.776	59.84
1010.129	59.67
1010.482	59.67
1010.835	59.78
1011.188	59.75
1011.541	59.51
1011.894	59.52
1012.247	59.49
1012.6	59.48
1012.952	59.57
1013.305	59.48
1013.657	59.45
1014.01	59.72
1014.362	59.69
1014.715	59.53
1015.067	59.69
1015.419	59.91
1015.771	60.24
1016.123	60.19
1016.475	60.29
1016.827	60.38
1017.179	60.66
1017.531	60.4
1017.883	60.55
1018.234	60.53
1018.586	60.7
1018.938	60.43
1019.289	60.42
1019.64	60.31
1019.992	60.69
1020.343	60.36
1020.694	60.37
1021.045	60.31
1021.396	60.67
1021.747	60.52
1022.098	60.63
1022.449	60.63
1022.8	60.7
1023.151	60.91
1023.501	60.83
1023.852	60.7
1024.202	60.74
1024.553	60.78
1024.903	60.97
1025.253	61.08
1025.604	61
1025.954	60.93
1026.304	61.2
1026.654	61.25
1027.004	60.99
1027.354	60.99
1027.703	60.61
1028.053	60.97
1028.403	60.59
1028.753	60.54
1029.102	60.62
1029.452	60.83
1029.801	60.96
1030.15	60.76
1030.499	60.97
897.758	522.64
901.051	535.58
904.343	541.15
907.636	528.77
910.928	520.33
914.22	531.31
917.511	517.45
920.803	494.42
924.094	475.73
927.384	482.31
930.675	468.49
933.965	465.64
937.255	464.16
940.544	444.11
943.834	422.89
947.123	417.73
950.411	394.58
953.7	390.92
956.988	380.06
960.276	364.6
963.563	359.47
966.851	341.88
970.138	335.17
973.424	313.31
976.711	311.28
979.997	304.28
983.283	296.65
986.568	288.27
989.853	280.05
993.138	271.1
996.423	267.45
999.708	260.24
1002.992	261.19
1006.275	252.43
1009.559	250.27
1012.842	242.9
1016.125	236.73
1019.408	232.28
1022.69	230.48
1025.972	226.96
1029.254	222.1
1032.536	217.88
1035.817	211.36
1039.098	207.99
1042.379	206.14
1045.659	202.77
1048.939	201.27
1052.219	198.01
1055.498	194.61
1058.778	190.77
1062.057	189.59
1065.335	188.55
1068.614	184.84
1071.892	183.19
1075.17	180.34
1078.447	177.34
1081.724	176.49
1085.001	171.52
1088.278	171.23
1091.554	170.74
1094.83	170.24
1098.106	167.47
1101.382	166.57
1104.657	166.23
1107.932	165.59
1111.206	164.47
1114.481	163.71
1117.755	162.62
1121.029	163.98
1124.302	161.62
1127.575	159.32
1130.848	158.87
1134.121	156.61
1137.393	155.72
1140.665	155.71
1143.937	154.45
1147.208	152.27
1150.48	150.66
1153.75	150.21
1157.021	147.17
1160.291	146.35
1163.561	146.38
1166.831	145.13
1170.101	144.49
1173.37	144.37
1176.639	142.62
1179.907	141.74
1183.176	141.67
1186.444	141.9
1189.711	140.12
1192.979	142.08
1196.246	142.45
1199.513	142.49
1202.78	142.09
1206.046	142.05
1209.312	143.07
1212.578	144.08
1215.843	146.84
1219.108	146.56
1222.373	148.53
1225.638	151.57
1228.902	154.04
1232.166	158.28
1235.43	159.24
1238.693	163.08
1241.956	167.58
1245.219	170.03
1248.482	171.32
1251.744	170.09
1255.006	171
1258.268	167.67
1261.529	166.13
1264.79	162.39
1268.051	159.54
1271.312	158.92
1274.572	156.17
1277.832	152.61
1281.092	150.28
1284.351	147.36
1287.61	147.55
1290.869	147.91
1294.128	146.97
1297.386	145.74
1300.644	145.32
1303.902	143.98
1307.159	142.11
1310.416	143.55
1313.673	144.9
1316.93	146.51
1320.186	148.38
1323.442	149.52
1326.697	151.51
1329.953	153.19
1333.208	157.77
1336.463	163.4
1339.717	166.85
1342.972	175.74
1346.226	179.36
1349.479	180.31
1352.733	187.02
1355.986	189.63
1359.238	193.25
1362.491	193.71
1365.743	200.35
1368.995	201.29
1372.247	201.79
1375.498	200.91
1378.749	206.18
1382	205.7
1385.251	204.41
1388.501	203.09
1391.751	205.69
1395	204.09
1398.25	206.84
1401.499	203.9
1404.748	203.91
1407.996	197.02
1411.244	197.25
1414.492	193.24
1417.74	187.9
1420.987	184.55
1424.234	181.63
1427.481	174.27
1430.728	169.24
1433.974	163.13
1437.22	156.56
1440.465	151.81
1443.711	148.1
1446.956	142.82
1450.201	137.78
1453.445	131.66
1456.689	127.95
1459.933	123.46
1463.177	118.74
1466.42	116.7
1469.663	113.77
1472.906	112
1476.148	108.96
1479.391	106.42
1482.633	105.1
1485.874	103.25
1489.115	102.54
1492.356	100.53
1495.597	99.17
1498.838	99.96
1502.078	99.02
1505.318	98.46
1508.557	97.47
1511.797	96.88
1515.036	97.09
1518.274	96.52
1521.513	95.85
1524.751	95.56
1527.989	96.7
1531.227	96.82
1534.464	96.42
1537.701	95.85
1540.938	95.37
1544.174	95.89
1547.41	96.37
1550.646	96.05
1553.882	96.85
1557.117	96.3
1560.352	96.38
1563.587	95.59
1566.821	95.67
1570.055	94.9
1573.289	95.47
1576.523	95.24
1579.756	95.33
1582.989	94.99
1586.222	94.91
1589.454	94.18
1592.686	95.27
1595.918	94.93
1599.15	95.08
1602.381	95.32
1605.612	95.64
1608.843	95.24
1612.073	96.07
1615.303	95.54
1618.533	95.65
1621.762	95.99
1624.992	96.43
1628.221	95.44
1631.449	95.93
1634.678	96.38
1637.906	95.68
1641.134	96.04
1644.361	96.29
1647.588	96.41
1650.815	96.82
1654.042	96.67
1657.269	96.24
1660.495	96.66
1663.72	96.53
1666.946	96.6
1670.171	96.7
1673.396	97.7
1676.621	97.58
1679.845	97.92
1683.069	97.76
1686.293	97.83
1689.517	97.72
1692.74	98.15
1695.963	98.42
1699.185	98.86
1702.408	98.49
1705.63	98.57
1708.852	99.12
1712.073	99.35
1715.294	99.29
1718.515	98.89
1721.736	99.14
1724.956	99.75
1728.176	99.67
1731.396	99.81
1734.616	100.32
1737.835	100.77
1741.054	99.98
1744.272	99.83
1747.491	99.24
1750.709	99.8
1753.927	100.5
1757.144	100.24
1760.361	99.98
1763.578	100.55
1766.795	100.87
1770.011	100.32
1773.227	100.73
1776.443	101.97
1779.658	101.22
1782.874	102.11
1786.089	101.31
1789.303	101.35
1792.518	102.26
1795.732	102.79
1798.945	103.5
1802.159	103.33
1805.372	104.96
1808.585	105.44
1811.797	106.04
1815.01	107.16
1818.222	107.77
1821.434	108.81
1824.645	109.13
1827.856	110.64
1831.067	111.08
1834.278	112.36
1837.488	112.92
1840.698	113.97
1843.908	114.11
1847.117	115.23
1850.326	116.21
1853.535	116.76
1856.744	117.9
1859.952	119.24
1863.16	118.56
1866.368	117.67
1869.575	117.18
1872.782	117.46
1875.989	114.68
1879.196	115.12
1882.402	112.36
1885.608	112.37
1888.814	111.46
1892.019	112.5
1895.224	110.4
1898.429	109.62
1901.634	110.38
1904.838	110.81
1908.042	111.29
1911.246	111.2
1914.449	110.8
1917.652	111.26
1920.855	111.55
1924.058	110.92
1927.26	109.49
1930.462	110.17
1933.664	111.48
1936.865	111.61
1940.066	109.57
1943.267	107.95
1946.467	110.28
1949.668	109.98
1952.868	110.82
1956.067	110.43
1959.267	111.09
1962.466	111.5
1965.665	112.52
1968.863	111.87
1972.061	113.95
1975.259	116.41
1978.457	118.89
1981.654	118.61
1984.852	119.73
1988.048	121.14
1991.245	122.56
1994.441	125.56
1997.637	128.18
2000.833	130.83
2004.028	132.52
2007.223	134.22
2010.418	136.55
2013.613	141.61
2016.807	145.75
2020.001	147.69
2023.194	152.81
2026.388	157.79
2029.581	164.82
2032.774	169.41
2035.966	174.36
2039.158	179.88
2042.35	183.86
2045.542	186.88
2048.733	193.23
2051.924	197.18
2055.115	201.53
2058.306	202.6
2061.496	206.97
2064.686	206.57
2067.875	206.32
2071.065	208.03
2074.254	207.99
2077.442	214.06
2080.631	218.15
2083.819	217.88
2087.007	221.26
2090.195	226.22
2093.382	224.9
2096.569	225.57
2099.756	229.13
2102.942	233.18
2106.128	238.94
2109.314	243.15
2112.5	243
2115.685	239.58
2118.87	240.94
2122.055	241.78
2125.239	245.76
2128.424	254.14
2131.608	252.76
2134.791	254.09
2137.974	255.4
2141.157	257.01
2144.34	257.95
2147.523	261.77
2150.705	270.37
2153.887	265.69
2157.068	268.41
2160.25	270.21
2163.431	269.72
2166.611	273.04
2169.792	275.26
2172.972	278.62
2176.152	280.4
2179.331	286
2182.511	285.32
2185.69	287.26
2188.868	300.95
2192.047	308.27
2195.225	312.52
2198.403	313.56
2201.58	310.14
2204.758	324.79
2207.935	325.38
2211.111	331.25
2214.288	332.81
2217.464	337.75
2220.64	339.55
2223.815	339.62
2226.991	336.22
2230.166	338.24
2233.34	350.01
2236.515	361.79
2239.689	352.51
2242.863	360.8
2246.036	356.53
2249.209	364.77
2252.382	360.97
2255.555	374.93
2258.727	376.68
2261.9	388.19
2265.071	393.83
2268.243	391.68
2271.414	402.65
2274.585	415.11
2277.756	413.01
2280.926	426.42
2284.096	433.06
2287.266	439.74
2290.436	428.48
2293.605	439.51
2296.774	454.01
2299.942	451.26
2303.111	464.16
2306.279	471.02
2309.447	471.07
2312.614	475.18
2315.781	488.07
2318.948	486.74
2322.115	496.26
2325.281	524.6
2328.447	515.9
2331.613	518.67
2334.779	528.17
2337.944	534.93
2341.109	546.03
2344.274	552.11
2347.438	558.96
2350.602	567.39
2353.766	607.32
2356.929	609.99
2360.092	617.58
2363.255	626.07
2366.418	631.84
2369.58	646.78
2372.742	650.92
2375.904	647.48
2379.066	666.15
2382.227	708.48
2385.388	711.23
2388.548	666.34
2391.709	660.29
2394.869	687.31
2398.029	682.13
2401.188	684.08
2404.347	700.71
2407.506	721.41
2410.665	698.24
2413.823	698.53
2416.981	700.96
2420.139	669.47
2423.296	730.91
2426.453	776.63
2429.61	729.71
2432.767	783.51
2435.923	806.88
2439.079	784.93
2442.235	796.09
2445.391	815.07
2448.546	810.76
2451.701	854.77
2454.855	904.7
2458.009	793.99
2461.163	813.27
2464.317	825.77
2467.471	812.51
2470.624	838.15
2473.777	824.12
2476.929	803.79
2480.082	853.33
2483.234	891.82
2486.385	900.41
2489.537	923.36
2492.688	1022.77
2495.839	1002
2498.989	1037.41
2502.14	1036.03
2505.29	993.05
2508.439	1088.2
2511.589	1111.95
2514.738	1088.54
2517.887	1077.38
2521.035	1018.92
2524.183	996.86
2527.331	987.22
2530.479	959.87
2533.627	978.2
