Data from N_3_ofc_oh_4n_Splice17_07.txt Node
Date: Sat Feb 29 15:06:08 EST 2020
User: sa697716
Spectrometer: FLMS03696
Trigger mode: 0
Integration Time (sec): 3.180400E-1
Scans to average: 20
Electric dark correction enabled: true
Nonlinearity correction enabled: true
Boxcar width: 5
XAxis mode: Wavelengths
Number of Pixels in Spectrum: 2048
>>>>>Begin Spectral Data<<<<<
187.83	119.29
188.298	119.1
188.766	99.38
189.233	102.4
189.701	107.19
190.169	104.46
190.636	115.62
191.104	126.85
191.571	299.09
192.039	331.89
192.506	-723.88
192.974	-5244.38
193.441	828.66
193.908	-33.34
194.375	-40.09
194.842	73.26
195.31	28.21
195.777	70.92
196.244	89.59
196.711	94.23
197.177	95.01
197.644	96
198.111	96.17
198.578	97.07
199.045	97.2
199.511	97.72
199.978	97.48
200.445	97.57
200.911	97.7
201.378	98.12
201.844	98.95
202.31	99.86
202.777	100.39
203.243	100.8
203.709	100.67
204.176	100.6
204.642	99.57
205.108	98.94
205.574	99.17
206.04	98.53
206.506	97.53
206.972	96.35
207.438	95.23
207.903	93.9
208.369	91.93
208.835	90.69
209.301	89.14
209.766	87.51
210.232	86.57
210.697	84.99
211.163	83.48
211.628	81.99
212.094	80.75
212.559	78.88
213.024	77.25
213.49	75.9
213.955	74.16
214.42	72.33
214.885	70.42
215.35	67.66
215.815	64.07
216.28	60.4
216.745	56.27
217.21	51.99
217.675	48.1
218.14	44.37
218.604	41.02
219.069	38.07
219.534	35.53
219.998	33.55
220.463	31.84
220.927	30.42
221.392	29.17
221.856	28.12
222.32	27.2
222.785	26.37
223.249	25.67
223.713	25.06
224.177	24.54
224.642	24.06
225.106	23.55
225.57	23.07
226.034	22.65
226.497	22.22
226.961	21.8
227.425	21.41
227.889	21.05
228.353	20.71
228.816	20.38
229.28	20.06
229.744	19.76
230.207	19.49
230.671	19.21
231.134	18.92
231.597	18.66
232.061	18.41
232.524	18.17
232.987	17.94
233.45	17.69
233.914	17.45
234.377	17.23
234.84	17.05
235.303	16.83
235.766	16.63
236.229	16.46
236.691	16.3
237.154	16.15
237.617	15.99
238.08	15.84
238.542	15.72
239.005	15.6
239.468	15.44
239.93	15.29
240.393	15.18
240.855	15.05
241.317	14.91
241.78	14.79
242.242	14.64
242.704	14.52
243.166	14.39
243.629	14.24
244.091	14.13
244.553	14.02
245.015	13.9
245.477	13.76
245.939	13.63
246.4	13.5
246.862	13.37
247.324	13.27
247.786	13.16
248.247	13.05
248.709	12.94
249.17	12.83
249.632	12.73
250.093	12.6
250.555	12.51
251.016	12.42
251.477	12.32
251.939	12.24
252.4	12.14
252.861	12.05
253.322	11.97
253.783	11.89
254.244	11.81
254.705	11.73
255.166	11.69
255.627	11.62
256.088	11.54
256.549	11.46
257.009	11.38
257.47	11.3
257.931	11.23
258.391	11.15
258.852	11.07
259.312	10.99
259.773	10.91
260.233	10.83
260.694	10.75
261.154	10.67
261.614	10.61
262.074	10.54
262.534	10.45
262.994	10.37
263.455	10.31
263.915	10.23
264.374	10.16
264.834	10.1
265.294	10.02
265.754	9.96
266.214	9.9
266.673	9.85
267.133	9.79
267.593	9.75
268.052	9.7
268.512	9.65
268.971	9.61
269.431	9.57
269.89	9.53
270.349	9.49
270.809	9.46
271.268	9.43
271.727	9.39
272.186	9.36
272.645	9.32
273.104	9.29
273.563	9.26
274.022	9.23
274.481	9.2
274.94	9.16
275.399	9.13
275.857	9.1
276.316	9.07
276.775	9.03
277.233	9
277.692	8.97
278.15	8.94
278.609	8.92
279.067	8.88
279.525	8.85
279.984	8.83
280.442	8.8
280.9	8.77
281.358	8.76
281.816	8.75
282.274	8.72
282.732	8.7
283.19	8.68
283.648	8.66
284.106	8.66
284.564	8.66
285.021	8.65
285.479	8.64
285.937	8.64
286.394	8.62
286.852	8.62
287.309	8.61
287.767	8.59
288.224	8.58
288.682	8.55
289.139	8.52
289.596	8.48
290.053	8.43
290.511	8.38
290.968	8.33
291.425	8.28
291.882	8.23
292.339	8.19
292.796	8.14
293.252	8.1
293.709	8.07
294.166	8.04
294.623	8.01
295.079	7.99
295.536	7.96
295.992	7.94
296.449	7.93
296.905	7.91
297.362	7.88
297.818	7.87
298.274	7.85
298.731	7.83
299.187	7.8
299.643	7.78
300.099	7.76
300.555	7.73
301.011	7.71
301.467	7.69
301.923	7.68
302.379	7.66
302.835	7.65
303.291	7.64
303.746	7.63
304.202	7.61
304.658	7.61
305.113	7.61
305.569	7.61
306.024	7.6
306.479	7.59
306.935	7.59
307.39	7.59
307.845	7.59
308.301	7.6
308.756	7.6
309.211	7.61
309.666	7.62
310.121	7.61
310.576	7.62
311.031	7.62
311.486	7.63
311.94	7.63
312.395	7.63
312.85	7.62
313.305	7.63
313.759	7.64
314.214	7.64
314.668	7.64
315.123	7.65
315.577	7.65
316.032	7.64
316.486	7.63
316.94	7.62
317.394	7.6
317.849	7.6
318.303	7.58
318.757	7.55
319.211	7.53
319.665	7.5
320.119	7.49
320.572	7.47
321.026	7.45
321.48	7.44
321.934	7.42
322.387	7.41
322.841	7.39
323.295	7.38
323.748	7.37
324.202	7.36
324.655	7.36
325.108	7.34
325.562	7.32
326.015	7.32
326.468	7.3
326.921	7.28
327.374	7.28
327.827	7.27
328.28	7.25
328.733	7.24
329.186	7.24
329.639	7.22
330.092	7.23
330.545	7.23
330.997	7.23
331.45	7.23
331.903	7.23
332.355	7.24
332.808	7.25
333.26	7.26
333.713	7.28
334.165	7.28
334.617	7.3
335.069	7.3
335.522	7.31
335.974	7.33
336.426	7.35
336.878	7.37
337.33	7.38
337.782	7.38
338.234	7.38
338.686	7.37
339.137	7.38
339.589	7.37
340.041	7.37
340.493	7.36
340.944	7.34
341.396	7.32
341.847	7.29
342.299	7.27
342.75	7.24
343.201	7.21
343.653	7.18
344.104	7.16
344.555	7.12
345.006	7.09
345.457	7.07
345.908	7.06
346.359	7.04
346.81	7.03
347.261	7.01
347.712	7
348.163	7
348.613	6.98
349.064	6.97
349.515	6.96
349.965	6.95
350.416	6.96
350.866	6.95
351.317	6.94
351.767	6.94
352.217	6.93
352.668	6.93
353.118	6.93
353.568	6.95
354.018	6.97
354.468	6.97
354.918	6.99
355.368	7
355.818	6.99
356.268	7
356.718	7.01
357.168	7
357.617	7.02
358.067	7.02
358.517	7.01
358.966	7.01
359.416	7.02
359.865	7.02
360.315	7.01
360.764	7.02
361.213	7.01
361.663	7.01
362.112	7.03
362.561	7.02
363.01	7.02
363.459	7.01
363.908	7
364.357	7
364.806	6.99
365.255	7
365.703	6.99
366.152	7
366.601	7
367.05	7
367.498	7
367.947	7
368.395	7.01
368.844	7.02
369.292	7.02
369.74	7.03
370.189	7.02
370.637	7.03
371.085	7.03
371.533	7.03
371.981	7.03
372.429	7.03
372.877	7.04
373.325	7.03
373.773	7.02
374.221	7.02
374.669	7.01
375.116	7.01
375.564	7
376.012	6.99
376.459	7
376.907	7.01
377.354	7.01
377.801	7.01
378.249	7.03
378.696	7.04
379.143	7.06
379.591	7.08
380.038	7.11
380.485	7.13
380.932	7.14
381.379	7.15
381.826	7.15
382.273	7.16
382.72	7.18
383.166	7.19
383.613	7.21
384.06	7.22
384.506	7.22
384.953	7.21
385.4	7.23
385.846	7.24
386.292	7.26
386.739	7.29
387.185	7.31
387.631	7.33
388.078	7.35
388.524	7.35
388.97	7.35
389.416	7.36
389.862	7.39
390.308	7.42
390.754	7.44
391.2	7.46
391.645	7.48
392.091	7.5
392.537	7.52
392.983	7.56
393.428	7.6
393.874	7.64
394.319	7.68
394.765	7.69
395.21	7.7
395.655	7.73
396.101	7.74
396.546	7.77
396.991	7.79
397.436	7.81
397.881	7.82
398.326	7.86
398.771	7.88
399.216	7.92
399.661	7.94
400.106	7.96
400.551	7.98
400.995	7.98
401.44	7.97
401.885	7.98
402.329	7.98
402.774	7.97
403.218	7.98
403.663	7.98
404.107	7.99
404.551	8.01
404.995	8.01
405.44	8.02
405.884	8.06
406.328	8.06
406.772	8.07
407.216	8.1
407.66	8.12
408.104	8.12
408.547	8.13
408.991	8.12
409.435	8.13
409.879	8.14
410.322	8.16
410.766	8.16
411.209	8.18
411.653	8.2
412.096	8.21
412.54	8.23
412.983	8.26
413.426	8.3
413.869	8.34
414.312	8.39
414.756	8.43
415.199	8.44
415.642	8.49
416.085	8.53
416.527	8.56
416.97	8.58
417.413	8.56
417.856	8.55
418.298	8.52
418.741	8.5
419.184	8.47
419.626	8.43
420.069	8.43
420.511	8.41
420.953	8.39
421.396	8.38
421.838	8.4
422.28	8.45
422.722	8.47
423.164	8.5
423.606	8.55
424.048	8.56
424.49	8.61
424.932	8.64
425.374	8.65
425.816	8.64
426.258	8.63
426.699	8.58
427.141	8.53
427.582	8.52
428.024	8.54
428.465	8.55
428.907	8.58
429.348	8.59
429.789	8.6
430.231	8.59
430.672	8.63
431.113	8.69
431.554	8.77
431.995	8.84
432.436	8.88
432.877	8.87
433.318	8.89
433.759	8.91
434.2	8.94
434.64	8.99
435.081	9.04
435.522	9.08
435.962	9.12
436.403	9.15
436.843	9.19
437.284	9.24
437.724	9.28
438.164	9.31
438.604	9.34
439.045	9.34
439.485	9.35
439.925	9.37
440.365	9.39
440.805	9.4
441.245	9.41
441.685	9.44
442.125	9.47
442.564	9.52
443.004	9.56
443.444	9.61
443.883	9.66
444.323	9.7
444.762	9.76
445.202	9.85
445.641	9.88
446.081	9.94
446.52	9.96
446.959	10
447.398	10.1
447.837	10.18
448.276	10.21
448.716	10.27
449.154	10.31
449.593	10.36
450.032	10.37
450.471	10.42
450.91	10.44
451.349	10.49
451.787	10.49
452.226	10.44
452.664	10.42
453.103	10.42
453.541	10.42
453.98	10.43
454.418	10.41
454.856	10.39
455.295	10.37
455.733	10.35
456.171	10.31
456.609	10.33
457.047	10.33
457.485	10.31
457.923	10.29
458.361	10.27
458.798	10.25
459.236	10.25
459.674	10.26
460.111	10.27
460.549	10.26
460.987	10.26
461.424	10.25
461.862	10.25
462.299	10.25
462.736	10.24
463.173	10.24
463.611	10.24
464.048	10.26
464.485	10.25
464.922	10.24
465.359	10.27
465.796	10.26
466.233	10.27
466.67	10.28
467.106	10.29
467.543	10.3
467.98	10.33
468.416	10.34
468.853	10.33
469.29	10.33
469.726	10.35
470.162	10.34
470.599	10.35
471.035	10.37
471.471	10.37
471.907	10.4
472.344	10.42
472.78	10.43
473.216	10.43
473.652	10.43
474.088	10.46
474.523	10.43
474.959	10.44
475.395	10.44
475.831	10.43
476.266	10.42
476.702	10.41
477.138	10.39
477.573	10.37
478.008	10.37
478.444	10.36
478.879	10.34
479.314	10.34
479.75	10.33
480.185	10.33
480.62	10.31
481.055	10.31
481.49	10.28
481.925	10.27
482.36	10.26
482.795	10.24
483.229	10.23
483.664	10.21
484.099	10.2
484.534	10.19
484.968	10.19
485.403	10.18
485.837	10.18
486.271	10.19
486.706	10.18
487.14	10.19
487.574	10.2
488.009	10.22
488.443	10.23
488.877	10.23
489.311	10.25
489.745	10.28
490.179	10.29
490.613	10.32
491.046	10.34
491.48	10.39
491.914	10.42
492.348	10.46
492.781	10.49
493.215	10.53
493.648	10.6
494.082	10.65
494.515	10.7
494.948	10.77
495.382	10.82
495.815	10.89
496.248	10.95
496.681	11.01
497.114	11.08
497.547	11.16
497.98	11.25
498.413	11.32
498.846	11.4
499.279	11.5
499.711	11.59
500.144	11.69
500.577	11.8
501.009	11.91
501.442	12.04
501.874	12.17
502.306	12.31
502.739	12.44
503.171	12.6
503.603	12.77
504.036	12.92
504.468	13.12
504.9	13.31
505.332	13.51
505.764	13.73
506.196	13.95
506.627	14.17
507.059	14.38
507.491	14.63
507.923	14.86
508.354	15.11
508.786	15.4
509.217	15.67
509.649	15.95
510.08	16.23
510.512	16.52
510.943	16.83
511.374	17.15
511.805	17.5
512.237	17.83
512.668	18.18
513.099	18.52
513.53	18.88
513.961	19.24
514.391	19.6
514.822	19.96
515.253	20.32
515.684	20.68
516.114	21.07
516.545	21.45
516.975	21.85
517.406	22.26
517.836	22.66
518.267	23.04
518.697	23.46
519.127	23.86
519.558	24.26
519.988	24.66
520.418	25.08
520.848	25.46
521.278	25.87
521.708	26.3
522.138	26.65
522.567	27.04
522.997	27.41
523.427	27.77
523.857	28.14
524.286	28.51
524.716	28.85
525.145	29.18
525.575	29.53
526.004	29.83
526.433	30.08
526.863	30.4
527.292	30.67
527.721	30.94
528.15	31.2
528.579	31.45
529.008	31.68
529.437	31.9
529.866	32.12
530.295	32.33
530.724	32.56
531.152	32.75
531.581	32.92
532.01	33.09
532.438	33.28
532.867	33.43
533.295	33.57
533.723	33.73
534.152	33.88
534.58	33.98
535.008	34.07
535.436	34.18
535.865	34.27
536.293	34.39
536.721	34.49
537.149	34.56
537.576	34.64
538.004	34.69
538.432	34.74
538.86	34.8
539.287	34.88
539.715	34.97
540.143	35
540.57	35.03
540.998	35.09
541.425	35.14
541.852	35.18
542.28	35.2
542.707	35.28
543.134	35.33
543.561	35.36
543.988	35.39
544.415	35.43
544.842	35.47
545.269	35.54
545.696	35.58
546.123	35.6
546.549	35.67
546.976	35.73
547.403	35.74
547.829	35.8
548.256	35.85
548.682	35.9
549.108	35.93
549.535	36
549.961	36.02
550.387	36.02
550.813	36.07
551.24	36.08
551.666	36.1
552.092	36.15
552.518	36.12
552.943	36.12
553.369	36.12
553.795	36.11
554.221	36.09
554.646	36.06
555.072	36.04
555.498	36
555.923	35.97
556.349	35.89
556.774	35.83
557.199	35.79
557.625	35.71
558.05	35.61
558.475	35.5
558.9	35.38
559.325	35.26
559.75	35.12
560.175	34.98
560.6	34.83
561.025	34.7
561.449	34.54
561.874	34.38
562.299	34.23
562.723	34.06
563.148	33.89
563.572	33.74
563.997	33.55
564.421	33.37
564.846	33.16
565.27	32.93
565.694	32.71
566.118	32.49
566.542	32.27
566.966	32.04
567.39	31.81
567.814	31.56
568.238	31.29
568.662	31.06
569.086	30.83
569.509	30.61
569.933	30.38
570.357	30.15
570.78	29.93
571.204	29.71
571.627	29.49
572.05	29.28
572.474	29.07
572.897	28.9
573.32	28.7
573.743	28.5
574.166	28.31
574.589	28.12
575.012	27.98
575.435	27.82
575.858	27.66
576.281	27.51
576.704	27.37
577.126	27.24
577.549	27.1
577.972	26.99
578.394	26.87
578.817	26.74
579.239	26.63
579.661	26.5
580.084	26.37
580.506	26.26
580.928	26.14
581.35	26.04
581.772	25.93
582.194	25.81
582.616	25.7
583.038	25.62
583.46	25.52
583.882	25.43
584.303	25.33
584.725	25.25
585.147	25.15
585.568	25.07
585.99	24.97
586.411	24.88
586.833	24.79
587.254	24.73
587.675	24.63
588.096	24.55
588.518	24.46
588.939	24.39
589.36	24.33
589.781	24.28
590.202	24.19
590.623	24.12
591.043	24.06
591.464	24
591.885	23.92
592.305	23.87
592.726	23.81
593.147	23.77
593.567	23.7
593.987	23.65
594.408	23.58
594.828	23.55
595.248	23.5
595.669	23.46
596.089	23.42
596.509	23.36
596.929	23.32
597.349	23.27
597.769	23.21
598.189	23.17
598.608	23.1
599.028	23.05
599.448	22.99
599.867	22.92
600.287	22.86
600.706	22.78
601.126	22.71
601.545	22.65
601.965	22.57
602.384	22.49
602.803	22.41
603.222	22.33
603.641	22.27
604.061	22.19
604.48	22.11
604.898	22.03
605.317	21.96
605.736	21.88
606.155	21.78
606.574	21.69
606.992	21.6
607.411	21.53
607.829	21.39
608.248	21.3
608.666	21.19
609.085	21.11
609.503	21.01
609.921	20.9
610.339	20.8
610.758	20.71
611.176	20.63
611.594	20.53
612.012	20.42
612.43	20.37
612.847	20.28
613.265	20.19
613.683	20.1
614.101	20
614.518	19.91
614.936	19.82
615.353	19.74
615.771	19.66
616.188	19.59
616.606	19.5
617.023	19.42
617.44	19.33
617.857	19.25
618.274	19.18
618.691	19.13
619.108	19.07
619.525	19
619.942	18.94
620.359	18.9
620.776	18.85
621.192	18.8
621.609	18.76
622.026	18.73
622.442	18.7
622.859	18.67
623.275	18.63
623.691	18.6
624.108	18.59
624.524	18.56
624.94	18.52
625.356	18.5
625.772	18.48
626.188	18.48
626.604	18.46
627.02	18.44
627.436	18.43
627.852	18.4
628.268	18.38
628.683	18.34
629.099	18.33
629.514	18.3
629.93	18.26
630.345	18.22
630.761	18.15
631.176	18.1
631.591	18.05
632.007	17.98
632.422	17.92
632.837	17.84
633.252	17.76
633.667	17.66
634.082	17.56
634.497	17.44
634.911	17.33
635.326	17.21
635.741	17.06
636.155	16.92
636.57	16.76
636.984	16.6
637.399	16.43
637.813	16.26
638.228	16.08
638.642	15.9
639.056	15.73
639.47	15.55
639.884	15.38
640.298	15.21
640.712	15.03
641.126	14.88
641.54	14.72
641.954	14.57
642.368	14.41
642.781	14.26
643.195	14.1
643.609	13.96
644.022	13.82
644.436	13.68
644.849	13.55
645.262	13.44
645.676	13.32
646.089	13.21
646.502	13.09
646.915	13
647.328	12.92
647.741	12.84
648.154	12.78
648.567	12.72
648.98	12.66
649.393	12.61
649.805	12.54
650.218	12.49
650.631	12.43
651.043	12.38
651.456	12.34
651.868	12.28
652.28	12.25
652.693	12.2
653.105	12.15
653.517	12.11
653.929	12.07
654.341	12.04
654.753	11.98
655.165	11.94
655.577	11.87
655.989	11.82
656.401	11.75
656.813	11.67
657.224	11.58
657.636	11.52
658.047	11.44
658.459	11.34
658.87	11.24
659.282	11.16
659.693	11.09
660.104	11.02
660.515	10.93
660.926	10.86
661.338	10.79
661.749	10.71
662.159	10.62
662.57	10.53
662.981	10.46
663.392	10.39
663.803	10.31
664.213	10.22
664.624	10.15
665.035	10.08
665.445	10.02
665.855	9.97
666.266	9.93
666.676	9.89
667.086	9.85
667.497	9.81
667.907	9.76
668.317	9.73
668.727	9.72
669.137	9.69
669.547	9.68
669.956	9.66
670.366	9.66
670.776	9.64
671.186	9.62
671.595	9.62
672.005	9.63
672.414	9.65
672.824	9.65
673.233	9.65
673.642	9.66
674.052	9.67
674.461	9.68
674.87	9.67
675.279	9.68
675.688	9.69
676.097	9.72
676.506	9.73
676.915	9.76
677.323	9.8
677.732	9.84
678.141	9.88
678.549	9.94
678.958	10
679.366	10.06
679.775	10.16
680.183	10.25
680.592	10.33
681	10.42
681.408	10.54
681.816	10.66
682.224	10.79
682.632	10.96
683.04	11.14
683.448	11.34
683.856	11.58
684.264	11.81
684.671	12.09
685.079	12.39
685.487	12.72
685.894	13.08
686.302	13.47
686.709	13.89
687.116	14.33
687.524	14.8
687.931	15.31
688.338	15.87
688.745	16.46
689.152	17.08
689.559	17.73
689.966	18.43
690.373	19.14
690.78	19.88
691.187	20.66
691.593	21.44
692	22.25
692.407	23.06
692.813	23.9
693.22	24.74
693.626	25.61
694.032	26.48
694.439	27.36
694.845	28.24
695.251	29.13
695.657	29.99
696.063	30.88
696.469	31.75
696.875	32.61
697.281	33.46
697.687	34.35
698.093	35.17
698.498	36.01
698.904	36.85
699.31	37.64
699.715	38.48
700.12	39.25
700.526	40.05
700.931	40.82
701.337	41.63
701.742	42.37
702.147	43.11
702.552	43.85
702.957	44.54
703.362	45.24
703.767	45.93
704.172	46.61
704.577	47.29
704.981	47.95
705.386	48.61
705.791	49.23
706.195	49.9
706.6	50.48
707.004	51.12
707.408	51.73
707.813	52.3
708.217	52.88
708.621	53.44
709.025	53.99
709.43	54.51
709.834	55.07
710.237	55.57
710.641	56.09
711.045	56.58
711.449	57.04
711.853	57.52
712.256	57.99
712.66	58.44
713.064	58.87
713.467	59.32
713.87	59.78
714.274	60.2
714.677	60.64
715.08	61.03
715.484	61.45
715.887	61.86
716.29	62.28
716.693	62.66
717.096	63.08
717.499	63.46
717.901	63.83
718.304	64.18
718.707	64.51
719.109	64.86
719.512	65.23
719.915	65.58
720.317	65.92
720.719	66.25
721.122	66.55
721.524	66.85
721.926	67.18
722.328	67.48
722.731	67.78
723.133	68.08
723.535	68.4
723.937	68.66
724.338	68.88
724.74	69.09
725.142	69.28
725.544	69.53
725.945	69.73
726.347	69.94
726.748	70.12
727.15	70.3
727.551	70.49
727.952	70.64
728.354	70.82
728.755	71.01
729.156	71.21
729.557	71.4
729.958	71.56
730.359	71.76
730.76	71.9
731.161	72.07
731.562	72.22
731.962	72.37
732.363	72.5
732.763	72.6
733.164	72.7
733.564	72.8
733.965	72.9
734.365	73.01
734.766	73.08
735.166	73.12
735.566	73.15
735.966	73.2
736.366	73.22
736.766	73.3
737.166	73.38
737.566	73.45
737.966	73.55
738.365	73.63
738.765	73.7
739.165	73.72
739.564	73.81
739.964	73.89
740.363	73.95
740.763	74
741.162	74.02
741.561	74.05
741.96	74.15
742.36	74.15
742.759	74.17
743.158	74.17
743.557	74.24
743.955	74.34
744.354	74.4
744.753	74.47
745.152	74.52
745.55	74.63
745.949	74.68
746.348	74.69
746.746	74.73
747.144	74.81
747.543	74.88
747.941	74.97
748.339	75
748.737	75.05
749.136	75.09
749.534	75.16
749.932	75.18
750.33	75.2
750.727	75.21
751.125	75.26
751.523	75.23
751.921	75.26
752.318	75.19
752.716	75.16
753.113	75.13
753.511	75.09
753.908	75.03
754.305	74.97
754.703	74.93
755.1	74.93
755.497	74.89
755.894	74.9
756.291	74.86
756.688	74.88
757.085	74.85
757.482	74.87
757.878	74.88
758.275	74.9
758.672	74.94
759.068	74.98
759.465	75
759.861	75.01
760.258	74.99
760.654	74.98
761.05	74.96
761.447	74.94
761.843	74.88
762.239	74.87
762.635	74.86
763.031	74.84
763.427	74.8
763.822	74.73
764.218	74.69
764.614	74.67
765.01	74.65
765.405	74.66
765.801	74.63
766.196	74.65
766.592	74.67
766.987	74.68
767.382	74.66
767.778	74.67
768.173	74.71
768.568	74.71
768.963	74.74
769.358	74.73
769.753	74.77
770.148	74.83
770.542	74.84
770.937	74.81
771.332	74.81
771.726	74.8
772.121	74.78
772.515	74.78
772.91	74.78
773.304	74.79
773.699	74.83
774.093	74.76
774.487	74.76
774.881	74.75
775.275	74.8
775.669	74.82
776.063	74.8
776.457	74.79
776.851	74.76
777.245	74.8
777.638	74.76
778.032	74.77
778.425	74.82
778.819	74.79
779.212	74.79
779.606	74.77
779.999	74.76
780.392	74.79
780.786	74.81
781.179	74.84
781.572	74.85
781.965	74.91
782.358	74.86
782.751	74.87
783.143	74.91
783.536	74.96
783.929	74.97
784.322	75
784.714	74.99
785.107	75.04
785.499	75.04
785.891	75.03
786.284	74.99
786.676	75.06
787.068	75.05
787.46	75.04
787.852	75.03
788.245	75.03
788.636	75.02
789.028	75.02
789.42	74.97
789.812	75
790.204	74.94
790.595	74.96
790.987	74.96
791.378	74.98
791.77	75.01
792.161	75.01
792.553	75.02
792.944	75.02
793.335	75.08
793.726	75.09
794.117	75.08
794.508	75.17
794.899	75.18
795.29	75.16
795.681	75.18
796.072	75.17
796.463	75.18
796.853	75.19
797.244	75.22
797.634	75.2
798.025	75.2
798.415	75.21
798.806	75.22
799.196	75.26
799.586	75.28
799.976	75.28
800.366	75.31
800.756	75.34
801.146	75.34
801.536	75.34
801.926	75.38
802.316	75.4
802.706	75.42
803.095	75.45
803.485	75.47
803.874	75.5
804.264	75.56
804.653	75.58
805.043	75.54
805.432	75.52
805.821	75.54
806.21	75.55
806.599	75.66
806.988	75.67
807.377	75.7
807.766	75.67
808.155	75.71
808.544	75.67
808.933	75.66
809.321	75.72
809.71	75.81
810.098	75.81
810.487	75.84
810.875	75.8
811.264	75.81
811.652	75.83
812.04	75.86
812.428	75.84
812.816	75.91
813.204	75.95
813.592	75.97
813.98	75.98
814.368	76.01
814.756	76
815.144	76.02
815.531	76.04
815.919	76.02
816.306	76
816.694	76.01
817.081	75.96
817.469	75.97
817.856	76
818.243	75.97
818.63	76.01
819.017	76
819.404	75.99
819.791	75.98
820.178	75.98
820.565	76.02
820.952	76.02
821.339	76.08
821.725	76.08
822.112	76.09
822.498	76.1
822.885	76.09
823.271	76.14
823.657	76.11
824.044	76.12
824.43	76.16
824.816	76.13
825.202	76.1
825.588	76.05
825.974	76.01
826.36	75.96
826.746	75.95
827.132	75.87
827.517	75.83
827.903	75.82
828.289	75.79
828.674	75.75
829.06	75.75
829.445	75.79
829.83	75.79
830.216	75.83
830.601	75.8
830.986	75.78
831.371	75.83
831.756	75.78
832.141	75.8
832.526	75.77
832.911	75.77
833.295	75.79
833.68	75.75
834.065	75.76
834.449	75.68
834.834	75.67
835.218	75.65
835.603	75.65
835.987	75.63
836.371	75.63
836.755	75.64
837.139	75.59
837.524	75.5
837.908	75.46
838.291	75.42
838.675	75.44
839.059	75.42
839.443	75.39
839.827	75.34
840.21	75.35
840.594	75.31
840.977	75.23
841.361	75.23
841.744	75.25
842.127	75.24
842.511	75.24
842.894	75.21
843.277	75.19
843.66	75.21
844.043	75.2
844.426	75.17
844.809	75.16
845.191	75.19
845.574	75.15
845.957	75.11
846.339	75.06
846.722	75.04
847.104	75.03
847.487	75.07
847.869	75.03
848.252	75.02
848.634	75.06
849.016	75.07
849.398	75.08
849.78	75.09
850.162	75.09
850.544	75.13
850.926	75.1
851.307	75.09
851.689	75.03
852.071	75.05
852.452	75.04
852.834	75
853.215	74.97
853.597	74.96
853.978	74.95
854.359	74.95
854.741	74.94
855.122	74.97
855.503	74.97
855.884	74.98
856.265	74.96
856.646	74.93
857.026	74.94
857.407	74.9
857.788	74.94
858.169	74.95
858.549	74.97
858.93	74.97
859.31	74.94
859.69	74.91
860.071	74.93
860.451	74.94
860.831	74.99
861.211	74.98
861.591	75.03
861.971	74.95
862.351	74.96
862.731	74.93
863.111	74.94
863.491	74.97
863.87	74.98
864.25	74.97
864.629	74.97
865.009	74.93
865.388	74.93
865.768	74.95
866.147	75
866.526	75
866.905	75.01
867.284	75.02
867.663	75.01
868.042	75.04
868.421	75.05
868.8	75.07
869.179	75.07
869.558	75.09
869.936	75.06
870.315	75.02
870.693	75
871.072	74.97
871.45	74.97
871.828	74.95
872.207	74.96
872.585	74.98
872.963	74.92
873.341	74.92
873.719	74.89
874.097	74.89
874.475	74.94
874.853	74.94
875.23	74.95
875.608	74.95
875.986	74.93
876.363	74.9
876.741	74.88
877.118	74.9
877.495	74.92
877.873	74.88
878.25	74.91
878.627	74.9
879.004	74.9
879.381	74.92
879.758	74.89
880.135	74.92
880.512	74.92
880.889	74.93
881.265	74.94
881.642	74.92
882.019	74.95
882.395	74.93
882.772	74.87
883.148	74.86
883.524	74.86
883.901	74.83
884.277	74.83
884.653	74.8
885.029	74.77
885.405	74.73
885.781	74.69
886.157	74.67
886.532	74.65
886.908	74.67
887.284	74.65
887.659	74.64
888.035	74.63
888.411	74.56
888.786	74.55
889.161	74.55
889.537	74.54
889.912	74.5
890.287	74.47
890.662	74.46
891.037	74.4
891.412	74.36
891.787	74.3
892.162	74.24
892.536	74.21
892.911	74.17
893.286	74.1
893.66	74.04
894.035	74
894.409	73.97
894.784	73.93
895.158	73.9
895.532	73.87
895.906	73.85
896.281	73.85
896.655	73.86
897.029	73.83
897.402	73.85
897.776	73.91
898.15	73.93
898.524	73.91
898.898	73.88
899.271	73.87
899.645	73.9
900.018	73.91
900.392	73.92
900.765	73.95
901.138	73.99
901.511	73.99
901.884	73.96
902.258	73.95
902.631	73.98
903.003	74.04
903.376	74.06
903.749	74.09
904.122	74.11
904.495	74.14
904.867	74.12
905.24	74.11
905.612	74.08
905.985	74.06
906.357	74.07
906.729	74.06
907.102	74.07
907.474	74.09
907.846	74.07
908.218	74.07
908.59	74.03
908.962	74.04
909.334	74.03
909.705	74.08
910.077	74.1
910.449	74.13
910.82	74.12
911.192	74.12
911.563	74.1
911.935	74.09
912.306	74.12
912.677	74.15
913.048	74.11
913.419	74.14
913.79	74.14
914.161	74.15
914.532	74.13
914.903	74.15
915.274	74.12
915.645	74.13
916.015	74.16
916.386	74.12
916.756	74.08
917.127	74.12
917.497	74.12
917.868	74.09
918.238	74.1
918.608	74.11
918.978	74.12
919.348	74.14
919.718	74.12
920.088	74.14
920.458	74.2
920.828	74.2
921.198	74.2
921.567	74.18
921.937	74.21
922.306	74.17
922.676	74.16
923.045	74.1
923.415	74.09
923.784	74.14
924.153	74.07
924.522	73.99
924.891	74.02
925.26	74.01
925.629	74.04
925.998	74.03
926.367	74.02
926.736	74
927.104	74.08
927.473	74.12
927.842	74.1
928.21	74.13
928.578	74.12
928.947	74.11
929.315	74.11
929.683	74.12
930.051	74.11
930.42	74.13
930.788	74.13
931.156	74.08
931.523	74.02
931.891	73.96
932.259	73.88
932.627	73.85
932.994	73.85
933.362	73.77
933.729	73.71
934.097	73.66
934.464	73.59
934.831	73.52
935.199	73.53
935.566	73.47
935.933	73.51
936.3	73.48
936.667	73.49
937.034	73.48
937.401	73.49
937.767	73.45
938.134	73.42
938.501	73.47
938.867	73.55
939.234	73.57
939.6	73.63
939.967	73.69
940.333	73.85
940.699	73.97
941.065	74.06
941.431	74.22
941.798	74.39
942.163	74.59
942.529	74.77
942.895	74.89
943.261	74.96
943.627	75.18
943.992	75.28
944.358	75.4
944.723	75.47
945.089	75.53
945.454	75.64
945.82	75.61
946.185	75.63
946.55	75.69
946.915	75.7
947.28	75.63
947.645	75.5
948.01	75.45
948.375	75.39
948.74	75.26
949.104	75.18
949.469	74.98
949.834	74.95
950.198	74.8
950.562	74.69
950.927	74.59
951.291	74.54
951.655	74.52
952.02	74.44
952.384	74.48
952.748	74.53
953.112	74.45
953.476	74.43
953.839	74.38
954.203	74.32
954.567	74.23
954.931	74.19
955.294	74.16
955.658	74.09
956.021	74.05
956.385	73.95
956.748	73.85
957.111	73.79
957.474	73.82
957.837	73.75
958.2	73.73
958.563	73.62
958.926	73.55
959.289	73.58
959.652	73.59
960.015	73.53
960.377	73.42
960.74	73.36
961.102	73.35
961.465	73.25
961.827	73.15
962.189	73.08
962.552	73.06
962.914	73.02
963.276	72.94
963.638	72.86
964	72.79
964.362	72.79
964.724	72.78
965.085	72.71
965.447	72.67
965.809	72.65
966.17	72.66
966.532	72.7
966.893	72.77
967.255	72.73
967.616	72.73
967.977	72.75
968.338	72.75
968.699	72.67
969.061	72.67
969.421	72.69
969.782	72.72
970.143	72.65
970.504	72.64
970.865	72.54
971.225	72.54
971.586	72.57
971.946	72.56
972.307	72.58
972.667	72.72
973.027	72.72
973.388	72.7
973.748	72.79
974.108	72.83
974.468	72.84
974.828	72.91
975.188	72.93
975.548	72.93
975.907	72.98
976.267	73.02
976.627	73.07
976.986	73.2
977.346	73.26
977.705	73.29
978.064	73.31
978.424	73.34
978.783	73.32
979.142	73.34
979.501	73.29
979.86	73.26
980.219	73.21
980.578	73.18
980.937	73.12
981.296	73.14
981.654	73.19
982.013	73.26
982.371	73.3
982.73	73.3
983.088	73.24
983.447	73.33
983.805	73.36
984.163	73.42
984.521	73.32
984.879	73.3
985.237	73.29
985.595	73.3
985.953	73.38
986.311	73.48
986.669	73.6
987.026	73.69
987.384	73.7
987.741	73.73
988.099	73.71
988.456	73.77
988.814	73.9
989.171	73.95
989.528	73.84
989.885	73.73
990.242	73.75
990.599	73.75
990.956	73.9
991.313	74.01
991.67	74.1
992.027	74.06
992.383	74.15
992.74	74.1
993.096	74.08
993.453	74.18
993.809	74.36
994.165	74.36
994.522	74.33
994.878	74.35
995.234	74.31
995.59	74.13
995.946	74.35
996.302	74.31
996.658	74.43
997.013	74.49
997.369	74.6
997.725	74.65
998.08	74.74
998.436	74.92
998.791	74.72
999.147	74.88
999.502	75
999.857	74.97
1000.212	75.13
1000.567	75.22
1000.922	75.39
1001.277	75.4
1001.632	75.47
1001.987	75.49
1002.342	75.45
1002.696	75.87
1003.051	75.83
1003.406	75.88
1003.76	75.94
1004.114	76.19
1004.469	76.18
1004.823	76.21
1005.177	76.35
1005.531	76.26
1005.885	76.31
1006.239	76.33
1006.593	76.18
1006.947	76.19
1007.301	76.4
1007.655	76.43
1008.008	76.18
1008.362	76.19
1008.715	76.09
1009.069	75.93
1009.422	76.1
1009.776	76.14
1010.129	76.23
1010.482	76.47
1010.835	76.65
1011.188	76.68
1011.541	76.59
1011.894	76.63
1012.247	76.83
1012.6	77.05
1012.952	77.29
1013.305	77.3
1013.657	77.51
1014.01	77.76
1014.362	77.76
1014.715	77.6
1015.067	77.74
1015.419	78.07
1015.771	78.43
1016.123	78.51
1016.475	78.84
1016.827	78.92
1017.179	78.86
1017.531	79.08
1017.883	79.25
1018.234	79.33
1018.586	79.69
1018.938	79.77
1019.289	79.89
1019.64	80.11
1019.992	79.91
1020.343	79.64
1020.694	79.67
1021.045	80.32
1021.396	79.86
1021.747	79.73
1022.098	79.63
1022.449	79.59
1022.8	79.65
1023.151	79.63
1023.501	79.5
1023.852	80.15
1024.202	80.45
1024.553	80.51
1024.903	80.16
1025.253	80.93
1025.604	81.1
1025.954	81.48
1026.304	82.14
1026.654	82.53
1027.004	82.8
1027.354	82.87
1027.703	82.52
1028.053	82.39
1028.403	82.39
1028.753	82.81
1029.102	82.38
1029.452	82.36
1029.801	82.13
1030.15	81.65
1030.499	81.38
897.758	603.77
901.051	618.85
904.343	627.47
907.636	613.43
910.928	604.96
914.22	618.11
917.511	601.64
920.803	578.87
924.094	556.74
927.384	562.95
930.675	547.42
933.965	542.14
937.255	540.8
940.544	516.08
943.834	498.18
947.123	490.12
950.411	465.41
953.7	460.64
956.988	445.78
960.276	429.59
963.563	420.58
966.851	401.49
970.138	394.71
973.424	368.52
976.711	365.31
979.997	350.49
983.283	343.63
986.568	331.72
989.853	322.38
993.138	312.97
996.423	307.47
999.708	301.99
1002.992	302.27
1006.275	291.89
1009.559	289.62
1012.842	281.27
1016.125	275.65
1019.408	270.99
1022.69	267.7
1025.972	266.43
1029.254	259.52
1032.536	254.5
1035.817	246.51
1039.098	242.66
1042.379	239.84
1045.659	236.45
1048.939	234.83
1052.219	229.64
1055.498	226.7
1058.778	224.06
1062.057	220.02
1065.335	219.48
1068.614	215.42
1071.892	213.53
1075.17	208.84
1078.447	205.61
1081.724	204.54
1085.001	199.59
1088.278	201.34
1091.554	198.99
1094.83	198.36
1098.106	195.82
1101.382	194.23
1104.657	194.01
1107.932	193.02
1111.206	193.04
1114.481	190.68
1117.755	189.71
1121.029	189.88
1124.302	187.06
1127.575	183.96
1130.848	182.82
1134.121	180.66
1137.393	180.38
1140.665	180.34
1143.937	178.5
1147.208	176.23
1150.48	175.32
1153.75	173.36
1157.021	172.66
1160.291	171.26
1163.561	171.47
1166.831	169.15
1170.101	169.01
1173.37	167.95
1176.639	165.47
1179.907	165.62
1183.176	165.19
1186.444	165.79
1189.711	164.88
1192.979	165.12
1196.246	165.51
1199.513	165.21
1202.78	166
1206.046	166.18
1209.312	166.14
1212.578	167.4
1215.843	169.08
1219.108	170.09
1222.373	172.35
1225.638	175.13
1228.902	178.62
1232.166	182.75
1235.43	186.52
1238.693	190.29
1241.956	195.11
1245.219	199.96
1248.482	201.67
1251.744	200.6
1255.006	201.41
1258.268	196.59
1261.529	195.44
1264.79	190.63
1268.051	188.05
1271.312	185.53
1274.572	183.26
1277.832	177.47
1281.092	175.39
1284.351	171.69
1287.61	171.71
1290.869	171.02
1294.128	170.49
1297.386	169.59
1300.644	168.28
1303.902	167.47
1307.159	165.94
1310.416	166.92
1313.673	169.37
1316.93	170.32
1320.186	172.82
1323.442	174.38
1326.697	177.84
1329.953	178.93
1333.208	183.55
1336.463	191.99
1339.717	195.15
1342.972	203.58
1346.226	207.57
1349.479	208.99
1352.733	217.59
1355.986	223.11
1359.238	227.91
1362.491	228.31
1365.743	237.25
1368.995	238.67
1372.247	237.85
1375.498	236.45
1378.749	245.21
1382	245.06
1385.251	242.92
1388.501	242.08
1391.751	244.07
1395	240.79
1398.25	243.07
1401.499	241.2
1404.748	240.32
1407.996	234.27
1411.244	234.3
1414.492	229.34
1417.74	223.72
1420.987	219.78
1424.234	217.04
1427.481	206.46
1430.728	203.22
1433.974	196.48
1437.22	188.97
1440.465	183.83
1443.711	178.04
1446.956	172.73
1450.201	165.62
1453.445	158.62
1456.689	153.95
1459.933	148.37
1463.177	144.2
1466.42	140.71
1469.663	137.15
1472.906	134.2
1476.148	130.49
1479.391	127.9
1482.633	125.86
1485.874	124.54
1489.115	123.55
1492.356	121.97
1495.597	120.49
1498.838	119.67
1502.078	118.82
1505.318	118.32
1508.557	117.78
1511.797	116.84
1515.036	116.46
1518.274	116.06
1521.513	114.83
1524.751	114.13
1527.989	115.55
1531.227	115.25
1534.464	115.48
1537.701	114.19
1540.938	113.59
1544.174	113.66
1547.41	113.7
1550.646	113.59
1553.882	113.9
1557.117	113.99
1560.352	114.1
1563.587	112.9
1566.821	112.73
1570.055	111.77
1573.289	112.35
1576.523	112.75
1579.756	112.31
1582.989	112.63
1586.222	112.26
1589.454	112.24
1592.686	112.2
1595.918	111.5
1599.15	111.11
1602.381	111.89
1605.612	112.39
1608.843	112.64
1612.073	112.51
1615.303	112.75
1618.533	112.09
1621.762	112.83
1624.992	113.06
1628.221	112.56
1631.449	113.69
1634.678	114.15
1637.906	113.42
1641.134	113.55
1644.361	113.36
1647.588	113.6
1650.815	113.94
1654.042	114.14
1657.269	113.39
1660.495	113.58
1663.72	114.01
1666.946	113.82
1670.171	113.89
1673.396	114.72
1676.621	115.15
1679.845	115.31
1683.069	115.06
1686.293	114.98
1689.517	115.64
1692.74	116.46
1695.963	116.3
1699.185	116.66
1702.408	116.56
1705.63	116.77
1708.852	117.02
1712.073	116.44
1715.294	116.54
1718.515	116.97
1721.736	116.93
1724.956	116.43
1728.176	116.26
1731.396	116.9
1734.616	116.67
1737.835	116.9
1741.054	116.5
1744.272	116.39
1747.491	116.67
1750.709	117.93
1753.927	118
1757.144	117.99
1760.361	118.57
1763.578	119.22
1766.795	118.93
1770.011	119.21
1773.227	119.89
1776.443	121.14
1779.658	120.86
1782.874	121.31
1786.089	120.44
1789.303	120.75
1792.518	122.27
1795.732	122.94
1798.945	123.58
1802.159	123.97
1805.372	125.46
1808.585	126.27
1811.797	126.81
1815.01	128.2
1818.222	129.37
1821.434	129.71
1824.645	130.33
1827.856	131.79
1831.067	132.58
1834.278	133.47
1837.488	134.69
1840.698	135.43
1843.908	135.24
1847.117	136.52
1850.326	137.63
1853.535	138.08
1856.744	139.28
1859.952	141.15
1863.16	140.44
1866.368	138.82
1869.575	139.54
1872.782	138.3
1875.989	137.27
1879.196	136.63
1882.402	134.45
1885.608	133.65
1888.814	132.41
1892.019	133.46
1895.224	130.34
1898.429	130.42
1901.634	130.95
1904.838	131.23
1908.042	132.07
1911.246	131.32
1914.449	131.53
1917.652	131.31
1920.855	131.88
1924.058	131.31
1927.26	130.34
1930.462	131.1
1933.664	131.39
1936.865	131.84
1940.066	129.89
1943.267	127.18
1946.467	129.28
1949.668	129.23
1952.868	129.35
1956.067	129.26
1959.267	128.54
1962.466	129.13
1965.665	131.29
1968.863	130.81
1972.061	132.42
1975.259	134.81
1978.457	137.81
1981.654	138.01
1984.852	139.13
1988.048	141.52
1991.245	143.41
1994.441	147.51
1997.637	150.58
2000.833	151.93
2004.028	154.59
2007.223	158.3
2010.418	160.4
2013.613	168.7
2016.807	172.36
2020.001	176.67
2023.194	181.1
2026.388	187.83
2029.581	197.61
2032.774	203.27
2035.966	209.8
2039.158	215.1
2042.35	219.04
2045.542	223.56
2048.733	232.38
2051.924	235.51
2055.115	238.82
2058.306	241.54
2061.496	244.86
2064.686	243.66
2067.875	243.26
2071.065	245.56
2074.254	246.05
2077.442	252.32
2080.631	256.74
2083.819	254.45
2087.007	260.33
2090.195	264.46
2093.382	264.76
2096.569	265.8
2099.756	270.92
2102.942	275.52
2106.128	282.74
2109.314	283.95
2112.5	283.97
2115.685	283.59
2118.87	284.42
2122.055	282.57
2125.239	288.12
2128.424	295.7
2131.608	295.68
2134.791	294.64
2137.974	295.11
2141.157	295.99
2144.34	300.51
2147.523	307.16
2150.705	311.35
2153.887	310.21
2157.068	315.61
2160.25	317.17
2163.431	316.4
2166.611	319.86
2169.792	325.86
2172.972	331.18
2176.152	331.69
2179.331	337.47
2182.511	336.19
2185.69	339.88
2188.868	351.12
2192.047	361.38
2195.225	366.39
2198.403	373.14
2201.58	366.69
2204.758	379.39
2207.935	381.12
2211.111	390.45
2214.288	394.65
2217.464	398.79
2220.64	401.22
2223.815	401.74
2226.991	396.33
2230.166	399.94
2233.34	408.1
2236.515	424.61
2239.689	421.57
2242.863	427.14
2246.036	422.16
2249.209	430.13
2252.382	427.43
2255.555	443.99
2258.727	447.35
2261.9	463.02
2265.071	468.39
2268.243	464.62
2271.414	475.13
2274.585	481.23
2277.756	482.08
2280.926	500.27
2284.096	504.59
2287.266	509.83
2290.436	498.16
2293.605	512.27
2296.774	524.87
2299.942	527.75
2303.111	542.77
2306.279	552.95
2309.447	554.57
2312.614	559.5
2315.781	572.54
2318.948	572.99
2322.115	585.43
2325.281	614.39
2328.447	606.6
2331.613	609.79
2334.779	615.46
2337.944	630.87
2341.109	640.95
2344.274	646.85
2347.438	663.52
2350.602	674.31
2353.766	722.5
2356.929	724.45
2360.092	736.17
2363.255	739.09
2366.418	746.78
2369.58	760.57
2372.742	758.01
2375.904	753.51
2379.066	776.97
2382.227	817.32
2385.388	817.76
2388.548	770.03
2391.709	761.87
2394.869	785.13
2398.029	792.27
2401.188	797.61
2404.347	817.73
2407.506	840.92
2410.665	811.91
2413.823	817.42
2416.981	818.06
2420.139	772.27
2423.296	838.55
2426.453	896.83
2429.61	848.2
2432.767	901.72
2435.923	925.93
2439.079	909.23
2442.235	932.94
2445.391	955.91
2448.546	941.49
2451.701	992.45
2454.855	1062.9
2458.009	937.07
2461.163	946.09
2464.317	964.72
2467.471	946.56
2470.624	980.24
2473.777	953.07
2476.929	916.21
2480.082	982.51
2483.234	1032.7
2486.385	1053.97
2489.537	1080.59
2492.688	1198.24
2495.839	1181.49
2498.989	1211.8
2502.14	1216.06
2505.29	1166.01
2508.439	1294.94
2511.589	1328.37
2514.738	1278.19
2517.887	1268.14
2521.035	1183.19
2524.183	1165.34
2527.331	1150.84
2530.479	1121.95
2533.627	1153.28
