Data from N_3_div_pa_2n_Splice17_11.txt Node
Date: Sat Feb 29 14:56:09 EST 2020
User: sa697716
Spectrometer: FLMS03696
Trigger mode: 0
Integration Time (sec): 3.180400E-1
Scans to average: 20
Electric dark correction enabled: true
Nonlinearity correction enabled: true
Boxcar width: 5
XAxis mode: Wavelengths
Number of Pixels in Spectrum: 2048
>>>>>Begin Spectral Data<<<<<
187.83	79.31
188.298	85.13
188.766	81.54
189.233	81.93
189.701	89.53
190.169	81.38
190.636	78.12
191.104	90.48
191.571	446.46
192.039	385.5
192.506	-482.69
192.974	2663.62
193.441	-357
193.908	94.39
194.375	143.83
194.842	276.81
195.31	143.69
195.777	163.87
196.244	97.23
196.711	80.56
197.177	74.72
197.644	74.36
198.111	73.1
198.578	73.23
199.045	73.71
199.511	73.98
199.978	73.93
200.445	73.31
200.911	73.08
201.378	73.32
201.844	74.11
202.31	74.76
202.777	75.11
203.243	76.08
203.709	76.25
204.176	76.16
204.642	75.83
205.108	75.63
205.574	75.88
206.04	75.64
206.506	74.79
206.972	73.77
207.438	72.76
207.903	71.95
208.369	70.37
208.835	69.16
209.301	67.87
209.766	66.38
210.232	65.14
210.697	63.82
211.163	62.32
211.628	61.24
212.094	59.73
212.559	58.47
213.024	56.98
213.49	55.66
213.955	54.29
214.42	52.9
214.885	51.1
215.35	48.97
215.815	46.07
216.28	43.23
216.745	39.88
217.21	36.47
217.675	33.29
218.14	30.19
218.604	27.48
219.069	25.23
219.534	23.18
219.998	21.6
220.463	20.24
220.927	19.17
221.392	18.13
221.856	17.34
222.32	16.7
222.785	16.08
223.249	15.55
223.713	15.1
224.177	14.62
224.642	14.26
225.106	13.86
225.57	13.47
226.034	13.12
226.497	12.8
226.961	12.47
227.425	12.18
227.889	11.89
228.353	11.65
228.816	11.37
229.28	11.11
229.744	10.89
230.207	10.7
230.671	10.51
231.134	10.3
231.597	10.12
232.061	9.95
232.524	9.79
232.987	9.64
233.45	9.48
233.914	9.35
234.377	9.23
234.84	9.11
235.303	9
235.766	8.9
236.229	8.81
236.691	8.73
237.154	8.63
237.617	8.54
238.08	8.45
238.542	8.37
239.005	8.28
239.468	8.19
239.93	8.12
240.393	8.02
240.855	7.92
241.317	7.83
241.78	7.76
242.242	7.69
242.704	7.6
243.166	7.52
243.629	7.43
244.091	7.36
244.553	7.3
245.015	7.22
245.477	7.14
245.939	7.09
246.4	7.03
246.862	6.96
247.324	6.91
247.786	6.85
248.247	6.79
248.709	6.73
249.17	6.68
249.632	6.62
250.093	6.56
250.555	6.5
251.016	6.46
251.477	6.39
251.939	6.34
252.4	6.28
252.861	6.24
253.322	6.2
253.783	6.17
254.244	6.12
254.705	6.08
255.166	6.04
255.627	6
256.088	5.95
256.549	5.92
257.009	5.87
257.47	5.83
257.931	5.78
258.391	5.72
258.852	5.65
259.312	5.61
259.773	5.55
260.233	5.5
260.694	5.46
261.154	5.41
261.614	5.36
262.074	5.33
262.534	5.27
262.994	5.23
263.455	5.2
263.915	5.17
264.374	5.12
264.834	5.09
265.294	5.06
265.754	5.02
266.214	4.99
266.673	4.95
267.133	4.91
267.593	4.89
268.052	4.87
268.512	4.83
268.971	4.81
269.431	4.79
269.89	4.77
270.349	4.75
270.809	4.73
271.268	4.71
271.727	4.69
272.186	4.68
272.645	4.65
273.104	4.63
273.563	4.62
274.022	4.6
274.481	4.58
274.94	4.57
275.399	4.56
275.857	4.54
276.316	4.52
276.775	4.5
277.233	4.48
277.692	4.47
278.15	4.45
278.609	4.43
279.067	4.42
279.525	4.41
279.984	4.4
280.442	4.39
280.9	4.38
281.358	4.38
281.816	4.37
282.274	4.36
282.732	4.36
283.19	4.37
283.648	4.37
284.106	4.36
284.564	4.36
285.021	4.36
285.479	4.36
285.937	4.36
286.394	4.35
286.852	4.35
287.309	4.35
287.767	4.33
288.224	4.32
288.682	4.31
289.139	4.3
289.596	4.28
290.053	4.25
290.511	4.22
290.968	4.2
291.425	4.18
291.882	4.16
292.339	4.14
292.796	4.12
293.252	4.1
293.709	4.08
294.166	4.05
294.623	4.04
295.079	4.03
295.536	4.01
295.992	4.01
296.449	3.99
296.905	3.97
297.362	3.95
297.818	3.94
298.274	3.92
298.731	3.91
299.187	3.9
299.643	3.89
300.099	3.88
300.555	3.87
301.011	3.85
301.467	3.84
301.923	3.85
302.379	3.84
302.835	3.85
303.291	3.84
303.746	3.83
304.202	3.82
304.658	3.82
305.113	3.82
305.569	3.82
306.024	3.82
306.479	3.81
306.935	3.81
307.39	3.81
307.845	3.81
308.301	3.82
308.756	3.83
309.211	3.84
309.666	3.83
310.121	3.83
310.576	3.84
311.031	3.84
311.486	3.85
311.94	3.85
312.395	3.85
312.85	3.85
313.305	3.86
313.759	3.86
314.214	3.86
314.668	3.85
315.123	3.86
315.577	3.85
316.032	3.85
316.486	3.84
316.94	3.84
317.394	3.84
317.849	3.82
318.303	3.81
318.757	3.79
319.211	3.77
319.665	3.77
320.119	3.75
320.572	3.75
321.026	3.73
321.48	3.72
321.934	3.71
322.387	3.7
322.841	3.69
323.295	3.68
323.748	3.68
324.202	3.68
324.655	3.67
325.108	3.66
325.562	3.65
326.015	3.64
326.468	3.62
326.921	3.62
327.374	3.63
327.827	3.63
328.28	3.62
328.733	3.61
329.186	3.62
329.639	3.61
330.092	3.62
330.545	3.63
330.997	3.64
331.45	3.65
331.903	3.65
332.355	3.65
332.808	3.66
333.26	3.67
333.713	3.69
334.165	3.68
334.617	3.69
335.069	3.69
335.522	3.69
335.974	3.7
336.426	3.7
336.878	3.71
337.33	3.71
337.782	3.72
338.234	3.71
338.686	3.7
339.137	3.71
339.589	3.72
340.041	3.71
340.493	3.7
340.944	3.7
341.396	3.69
341.847	3.67
342.299	3.65
342.75	3.64
343.201	3.61
343.653	3.59
344.104	3.57
344.555	3.54
345.006	3.53
345.457	3.52
345.908	3.5
346.359	3.5
346.81	3.5
347.261	3.5
347.712	3.49
348.163	3.49
348.613	3.5
349.064	3.48
349.515	3.48
349.965	3.47
350.416	3.47
350.866	3.46
351.317	3.46
351.767	3.46
352.217	3.46
352.668	3.45
353.118	3.45
353.568	3.46
354.018	3.48
354.468	3.49
354.918	3.51
355.368	3.51
355.818	3.52
356.268	3.52
356.718	3.52
357.168	3.52
357.617	3.53
358.067	3.54
358.517	3.54
358.966	3.54
359.416	3.54
359.865	3.54
360.315	3.56
360.764	3.57
361.213	3.58
361.663	3.59
362.112	3.6
362.561	3.62
363.01	3.64
363.459	3.64
363.908	3.65
364.357	3.67
364.806	3.68
365.255	3.7
365.703	3.7
366.152	3.72
366.601	3.74
367.05	3.76
367.498	3.77
367.947	3.78
368.395	3.81
368.844	3.83
369.292	3.85
369.74	3.87
370.189	3.89
370.637	3.91
371.085	3.94
371.533	3.95
371.981	3.97
372.429	3.99
372.877	4.03
373.325	4.04
373.773	4.07
374.221	4.1
374.669	4.12
375.116	4.14
375.564	4.15
376.012	4.18
376.459	4.22
376.907	4.26
377.354	4.29
377.801	4.32
378.249	4.36
378.696	4.4
379.143	4.44
379.591	4.49
380.038	4.54
380.485	4.6
380.932	4.64
381.379	4.66
381.826	4.71
382.273	4.75
382.72	4.81
383.166	4.86
383.613	4.92
384.06	4.96
384.506	5
384.953	5.05
385.4	5.11
385.846	5.16
386.292	5.22
386.739	5.28
387.185	5.35
387.631	5.4
388.078	5.46
388.524	5.51
388.97	5.56
389.416	5.61
389.862	5.67
390.308	5.72
390.754	5.79
391.2	5.87
391.645	5.94
392.091	5.99
392.537	6.06
392.983	6.13
393.428	6.21
393.874	6.3
394.319	6.4
394.765	6.46
395.21	6.52
395.655	6.59
396.101	6.65
396.546	6.71
396.991	6.77
397.436	6.83
397.881	6.89
398.326	6.98
398.771	7.05
399.216	7.12
399.661	7.2
400.106	7.29
400.551	7.35
400.995	7.4
401.44	7.44
401.885	7.49
402.329	7.53
402.774	7.56
403.218	7.57
403.663	7.6
404.107	7.64
404.551	7.67
404.995	7.68
405.44	7.7
405.884	7.73
406.328	7.76
406.772	7.79
407.216	7.82
407.66	7.86
408.104	7.89
408.547	7.9
408.991	7.9
409.435	7.91
409.879	7.93
410.322	7.96
410.766	7.98
411.209	8
411.653	8.01
412.096	8.02
412.54	8.03
412.983	8.07
413.426	8.11
413.869	8.15
414.312	8.21
414.756	8.25
415.199	8.3
415.642	8.35
416.085	8.39
416.527	8.46
416.97	8.51
417.413	8.54
417.856	8.53
418.298	8.53
418.741	8.53
419.184	8.52
419.626	8.52
420.069	8.52
420.511	8.52
420.953	8.5
421.396	8.49
421.838	8.52
422.28	8.54
422.722	8.56
423.164	8.59
423.606	8.6
424.048	8.6
424.49	8.62
424.932	8.62
425.374	8.62
425.816	8.61
426.258	8.58
426.699	8.53
427.141	8.47
427.582	8.46
428.024	8.43
428.465	8.43
428.907	8.45
429.348	8.43
429.789	8.42
430.231	8.39
430.672	8.39
431.113	8.42
431.554	8.44
431.995	8.48
432.436	8.49
432.877	8.5
433.318	8.49
433.759	8.48
434.2	8.49
434.64	8.51
435.081	8.54
435.522	8.58
435.962	8.6
436.403	8.67
436.843	8.7
437.284	8.73
437.724	8.79
438.164	8.83
438.604	8.88
439.045	8.92
439.485	8.99
439.925	9.06
440.365	9.08
440.805	9.11
441.245	9.13
441.685	9.18
442.125	9.24
442.564	9.32
443.004	9.4
443.444	9.48
443.883	9.55
444.323	9.61
444.762	9.72
445.202	9.84
445.641	9.95
446.081	10.06
446.52	10.14
446.959	10.22
447.398	10.32
447.837	10.43
448.276	10.51
448.716	10.6
449.154	10.72
449.593	10.78
450.032	10.83
450.471	10.88
450.91	10.92
451.349	10.97
451.787	11.03
452.226	11.06
452.664	11.07
453.103	11.1
453.541	11.12
453.98	11.11
454.418	11.11
454.856	11.12
455.295	11.12
455.733	11.11
456.171	11.12
456.609	11.11
457.047	11.09
457.485	11.1
457.923	11.09
458.361	11.08
458.798	11.1
459.236	11.12
459.674	11.13
460.111	11.12
460.549	11.12
460.987	11.11
461.424	11.11
461.862	11.13
462.299	11.11
462.736	11.11
463.173	11.11
463.611	11.09
464.048	11.08
464.485	11.08
464.922	11.1
465.359	11.11
465.796	11.1
466.233	11.12
466.67	11.13
467.106	11.14
467.543	11.17
467.98	11.2
468.416	11.23
468.853	11.26
469.29	11.31
469.726	11.33
470.162	11.37
470.599	11.42
471.035	11.45
471.471	11.46
471.907	11.5
472.344	11.54
472.78	11.58
473.216	11.6
473.652	11.62
474.088	11.63
474.523	11.65
474.959	11.67
475.395	11.68
475.831	11.71
476.266	11.74
476.702	11.76
477.138	11.76
477.573	11.75
478.008	11.76
478.444	11.76
478.879	11.74
479.314	11.75
479.75	11.76
480.185	11.77
480.62	11.77
481.055	11.78
481.49	11.77
481.925	11.77
482.36	11.77
482.795	11.76
483.229	11.77
483.664	11.79
484.099	11.82
484.534	11.81
484.968	11.83
485.403	11.84
485.837	11.85
486.271	11.88
486.706	11.91
487.14	11.95
487.574	12
488.009	12.05
488.443	12.1
488.877	12.15
489.311	12.22
489.745	12.29
490.179	12.37
490.613	12.45
491.046	12.54
491.48	12.65
491.914	12.75
492.348	12.86
492.781	12.97
493.215	13.08
493.648	13.21
494.082	13.36
494.515	13.5
494.948	13.63
495.382	13.79
495.815	13.95
496.248	14.12
496.681	14.29
497.114	14.46
497.547	14.65
497.98	14.84
498.413	15.04
498.846	15.24
499.279	15.46
499.711	15.69
500.144	15.93
500.577	16.16
501.009	16.41
501.442	16.66
501.874	16.92
502.306	17.19
502.739	17.47
503.171	17.76
503.603	18.05
504.036	18.35
504.468	18.66
504.9	18.99
505.332	19.33
505.764	19.66
506.196	20.02
506.627	20.39
507.059	20.76
507.491	21.15
507.923	21.52
508.354	21.91
508.786	22.3
509.217	22.69
509.649	23.08
510.08	23.49
510.512	23.9
510.943	24.3
511.374	24.71
511.805	25.13
512.237	25.55
512.668	25.97
513.099	26.41
513.53	26.85
513.961	27.3
514.391	27.73
514.822	28.16
515.253	28.59
515.684	29
516.114	29.43
516.545	29.83
516.975	30.24
517.406	30.67
517.836	31.06
518.267	31.46
518.697	31.86
519.127	32.24
519.558	32.63
519.988	33
520.418	33.4
520.848	33.78
521.278	34.14
521.708	34.37
522.138	34.68
522.567	35
522.997	35.32
523.427	35.63
523.857	35.92
524.286	36.2
524.716	36.48
525.145	36.76
525.575	37.02
526.004	37.27
526.433	37.67
526.863	37.93
527.292	38.17
527.721	38.41
528.15	38.62
528.579	38.83
529.008	39.02
529.437	39.23
529.866	39.38
530.295	39.55
530.724	39.72
531.152	39.86
531.581	39.99
532.01	40.11
532.438	40.24
532.867	40.36
533.295	40.49
533.723	40.61
534.152	40.7
534.58	40.79
535.008	40.86
535.436	40.95
535.865	41.02
536.293	41.1
536.721	41.16
537.149	41.21
537.576	41.28
538.004	41.32
538.432	41.36
538.86	41.39
539.287	41.47
539.715	41.53
540.143	41.57
540.57	41.62
540.998	41.67
541.425	41.73
541.852	41.75
542.28	41.76
542.707	41.8
543.134	41.84
543.561	41.88
543.988	41.89
544.415	41.94
544.842	41.99
545.269	42.06
545.696	42.1
546.123	42.13
546.549	42.18
546.976	42.25
547.403	42.29
547.829	42.33
548.256	42.38
548.682	42.42
549.108	42.46
549.535	42.46
549.961	42.46
550.387	42.45
550.813	42.46
551.24	42.49
551.666	42.5
552.092	42.51
552.518	42.53
552.943	42.56
553.369	42.57
553.795	42.57
554.221	42.58
554.646	42.57
555.072	42.58
555.498	42.57
555.923	42.55
556.349	42.52
556.774	42.48
557.199	42.44
557.625	42.39
558.05	42.32
558.475	42.26
558.9	42.21
559.325	42.14
559.75	42.06
560.175	41.99
560.6	41.89
561.025	41.81
561.449	41.74
561.874	41.63
562.299	41.54
562.723	41.46
563.148	41.37
563.572	41.26
563.997	41.15
564.421	41.04
564.846	40.91
565.27	40.82
565.694	40.68
566.118	40.51
566.542	40.38
566.966	40.19
567.39	40.01
567.814	39.82
568.238	39.63
568.662	39.46
569.086	39.28
569.509	39.09
569.933	38.87
570.357	38.67
570.78	38.48
571.204	38.29
571.627	38.13
572.05	37.97
572.474	37.8
572.897	37.63
573.32	37.45
573.743	37.29
574.166	37.13
574.589	37
575.012	36.87
575.435	36.71
575.858	36.6
576.281	36.46
576.704	36.33
577.126	36.19
577.549	36.1
577.972	36
578.394	35.88
578.817	35.75
579.239	35.64
579.661	35.54
580.084	35.45
580.506	35.35
580.928	35.24
581.35	35.14
581.772	35.09
582.194	34.99
582.616	34.92
583.038	34.86
583.46	34.81
583.882	34.75
584.303	34.68
584.725	34.62
585.147	34.54
585.568	34.47
585.99	34.42
586.411	34.35
586.833	34.29
587.254	34.24
587.675	34.17
588.096	34.12
588.518	34.07
588.939	34.02
589.36	33.96
589.781	33.94
590.202	33.93
590.623	33.88
591.043	33.85
591.464	33.8
591.885	33.75
592.305	33.71
592.726	33.68
593.147	33.64
593.567	33.61
593.987	33.59
594.408	33.56
594.828	33.51
595.248	33.5
595.669	33.47
596.089	33.45
596.509	33.41
596.929	33.39
597.349	33.34
597.769	33.31
598.189	33.28
598.608	33.23
599.028	33.18
599.448	33.12
599.867	33.04
600.287	32.98
600.706	32.89
601.126	32.84
601.545	32.76
601.965	32.67
602.384	32.59
602.803	32.48
603.222	32.38
603.641	32.28
604.061	32.21
604.48	32.1
604.898	31.98
605.317	31.9
605.736	31.76
606.155	31.62
606.574	31.5
606.992	31.37
607.411	31.26
607.829	31.08
608.248	30.95
608.666	30.79
609.085	30.65
609.503	30.51
609.921	30.38
610.339	30.26
610.758	30.16
611.176	30.03
611.594	29.91
612.012	29.78
612.43	29.71
612.847	29.6
613.265	29.5
613.683	29.37
614.101	29.26
614.518	29.12
614.936	29.01
615.353	28.87
615.771	28.77
616.188	28.66
616.606	28.56
617.023	28.45
617.44	28.36
617.857	28.26
618.274	28.2
618.691	28.13
619.108	28.06
619.525	27.97
619.942	27.9
620.359	27.85
620.776	27.79
621.192	27.74
621.609	27.7
622.026	27.65
622.442	27.6
622.859	27.55
623.275	27.52
623.691	27.5
624.108	27.48
624.524	27.45
624.94	27.43
625.356	27.41
625.772	27.39
626.188	27.38
626.604	27.35
627.02	27.35
627.436	27.34
627.852	27.31
628.268	27.28
628.683	27.26
629.099	27.26
629.514	27.23
629.93	27.2
630.345	27.18
630.761	27.13
631.176	27.11
631.591	27.05
632.007	27
632.422	26.98
632.837	26.92
633.252	26.85
633.667	26.77
634.082	26.7
634.497	26.6
634.911	26.5
635.326	26.4
635.741	26.29
636.155	26.2
636.57	26.05
636.984	25.9
637.399	25.74
637.813	25.61
638.228	25.47
638.642	25.3
639.056	25.16
639.47	25.01
639.884	24.84
640.298	24.67
640.712	24.47
641.126	24.33
641.54	24.15
641.954	24
642.368	23.81
642.781	23.61
643.195	23.41
643.609	23.21
644.022	23.02
644.436	22.83
644.849	22.65
645.262	22.5
645.676	22.29
646.089	22.13
646.502	21.92
646.915	21.76
647.328	21.61
647.741	21.47
648.154	21.34
648.567	21.21
648.98	21.07
649.393	20.96
649.805	20.81
650.218	20.69
650.631	20.56
651.043	20.48
651.456	20.35
651.868	20.23
652.28	20.09
652.693	19.92
653.105	19.77
653.517	19.62
653.929	19.45
654.341	19.29
654.753	19.1
655.165	18.93
655.577	18.7
655.989	18.49
656.401	18.25
656.813	18.01
657.224	17.78
657.636	17.55
658.047	17.29
658.459	17.02
658.87	16.75
659.282	16.5
659.693	16.2
660.104	15.94
660.515	15.67
660.926	15.41
661.338	15.17
661.749	14.91
662.159	14.64
662.57	14.39
662.981	14.15
663.392	13.93
663.803	13.7
664.213	13.51
664.624	13.32
665.035	13.1
665.445	12.92
665.855	12.73
666.266	12.57
666.676	12.42
667.086	12.29
667.497	12.14
667.907	12
668.317	11.87
668.727	11.74
669.137	11.64
669.547	11.57
669.956	11.49
670.366	11.43
670.776	11.34
671.186	11.27
671.595	11.21
672.005	11.17
672.414	11.13
672.824	11.11
673.233	11.08
673.642	11.04
674.052	11.01
674.461	11
674.87	10.98
675.279	10.99
675.688	11
676.097	11.02
676.506	11.06
676.915	11.09
677.323	11.16
677.732	11.24
678.141	11.33
678.549	11.43
678.958	11.55
679.366	11.68
679.775	11.85
680.183	12.06
680.592	12.28
681	12.51
681.408	12.79
681.816	13.08
682.224	13.41
682.632	13.8
683.04	14.21
683.448	14.67
683.856	15.17
684.264	15.7
684.671	16.27
685.079	16.88
685.487	17.54
685.894	18.25
686.302	18.98
686.709	19.72
687.116	20.47
687.524	21.25
687.931	22.07
688.338	22.89
688.745	23.74
689.152	24.6
689.559	25.47
689.966	26.3
690.373	27.15
690.78	27.99
691.187	28.87
691.593	29.72
692	30.56
692.407	31.36
692.813	32.19
693.22	32.97
693.626	33.76
694.032	34.52
694.439	35.28
694.845	35.99
695.251	36.72
695.657	37.39
696.063	38.08
696.469	38.73
696.875	39.35
697.281	39.96
697.687	40.57
698.093	41.13
698.498	41.71
698.904	42.26
699.31	42.76
699.715	43.29
700.12	43.76
700.526	44.2
700.931	44.65
701.337	45.1
701.742	45.5
702.147	45.89
702.552	46.29
702.957	46.66
703.362	47.05
703.767	47.43
704.172	47.77
704.577	48.13
704.981	48.48
705.386	48.81
705.791	49.12
706.195	49.44
706.6	49.72
707.004	50.01
707.408	50.26
707.813	50.52
708.217	50.77
708.621	51.02
709.025	51.26
709.43	51.45
709.834	51.69
710.237	51.89
710.641	52.14
711.045	52.35
711.449	52.53
711.853	52.71
712.256	52.89
712.66	53.09
713.064	53.27
713.467	53.44
713.87	53.64
714.274	53.82
714.677	54.01
715.08	54.13
715.484	54.31
715.887	54.5
716.29	54.68
716.693	54.81
717.096	54.94
717.499	55.08
717.901	55.19
718.304	55.31
718.707	55.41
719.109	55.56
719.512	55.69
719.915	55.81
720.317	55.93
720.719	56.04
721.122	56.2
721.524	56.34
721.926	56.46
722.328	56.6
722.731	56.72
723.133	56.86
723.535	56.94
723.937	57.04
724.338	57.09
724.74	57.18
725.142	57.16
725.544	57.2
725.945	57.24
726.347	57.32
726.748	57.37
727.15	57.45
727.551	57.47
727.952	57.52
728.354	57.56
728.755	57.64
729.156	57.69
729.557	57.85
729.958	57.95
730.359	58.01
730.76	58.03
731.161	58.07
731.562	58.09
731.962	58.15
732.363	58.2
732.763	58.25
733.164	58.3
733.564	58.31
733.965	58.3
734.365	58.28
734.766	58.29
735.166	58.27
735.566	58.28
735.966	58.29
736.366	58.27
736.766	58.31
737.166	58.33
737.566	58.34
737.966	58.39
738.365	58.41
738.765	58.45
739.165	58.46
739.564	58.53
739.964	58.54
740.363	58.58
740.763	58.6
741.162	58.59
741.561	58.62
741.96	58.63
742.36	58.61
742.759	58.62
743.158	58.64
743.557	58.66
743.955	58.71
744.354	58.73
744.753	58.75
745.152	58.81
745.55	58.85
745.949	58.87
746.348	58.9
746.746	58.94
747.144	58.98
747.543	58.99
747.941	59.04
748.339	59.07
748.737	59.11
749.136	59.12
749.534	59.13
749.932	59.15
750.33	59.13
750.727	59.13
751.125	59.1
751.523	59.08
751.921	59.09
752.318	59.08
752.716	59.02
753.113	59
753.511	58.96
753.908	58.92
754.305	58.9
754.703	58.87
755.1	58.84
755.497	58.82
755.894	58.82
756.291	58.79
756.688	58.74
757.085	58.75
757.482	58.74
757.878	58.73
758.275	58.75
758.672	58.75
759.068	58.77
759.465	58.75
759.861	58.78
760.258	58.73
760.654	58.76
761.05	58.74
761.447	58.74
761.843	58.69
762.239	58.69
762.635	58.67
763.031	58.64
763.427	58.61
763.822	58.62
764.218	58.57
764.614	58.6
765.01	58.57
765.405	58.55
765.801	58.5
766.196	58.51
766.592	58.51
766.987	58.51
767.382	58.51
767.778	58.53
768.173	58.53
768.568	58.5
768.963	58.48
769.358	58.48
769.753	58.53
770.148	58.56
770.542	58.58
770.937	58.57
771.332	58.57
771.726	58.55
772.121	58.52
772.515	58.52
772.91	58.54
773.304	58.54
773.699	58.5
774.093	58.46
774.487	58.47
774.881	58.47
775.275	58.48
775.669	58.48
776.063	58.47
776.457	58.45
776.851	58.41
777.245	58.42
777.638	58.42
778.032	58.44
778.425	58.45
778.819	58.41
779.212	58.38
779.606	58.37
779.999	58.36
780.392	58.37
780.786	58.4
781.179	58.45
781.572	58.46
781.965	58.48
782.358	58.45
782.751	58.46
783.143	58.53
783.536	58.56
783.929	58.58
784.322	58.61
784.714	58.63
785.107	58.67
785.499	58.66
785.891	58.66
786.284	58.66
786.676	58.7
787.068	58.71
787.46	58.7
787.852	58.68
788.245	58.71
788.636	58.7
789.028	58.68
789.42	58.64
789.812	58.67
790.204	58.63
790.595	58.65
790.987	58.66
791.378	58.66
791.77	58.68
792.161	58.71
792.553	58.71
792.944	58.75
793.335	58.78
793.726	58.8
794.117	58.79
794.508	58.81
794.899	58.82
795.29	58.81
795.681	58.85
796.072	58.84
796.463	58.79
796.853	58.76
797.244	58.77
797.634	58.76
798.025	58.82
798.415	58.82
798.806	58.84
799.196	58.86
799.586	58.88
799.976	58.89
800.366	58.96
800.756	59.02
801.146	59.04
801.536	59
801.926	59.03
802.316	59
802.706	59.01
803.095	59.05
803.485	59.05
803.874	59.05
804.264	59.09
804.653	59.04
805.043	59.06
805.432	59
805.821	59.02
806.21	59.04
806.599	59.11
806.988	59.12
807.377	59.15
807.766	59.17
808.155	59.18
808.544	59.16
808.933	59.19
809.321	59.17
809.71	59.3
810.098	59.31
810.487	59.36
810.875	59.29
811.264	59.31
811.652	59.3
812.04	59.33
812.428	59.34
812.816	59.37
813.204	59.37
813.592	59.39
813.98	59.37
814.368	59.4
814.756	59.41
815.144	59.5
815.531	59.54
815.919	59.55
816.306	59.54
816.694	59.58
817.081	59.57
817.469	59.64
817.856	59.68
818.243	59.69
818.63	59.71
819.017	59.7
819.404	59.64
819.791	59.66
820.178	59.7
820.565	59.73
820.952	59.71
821.339	59.72
821.725	59.74
822.112	59.76
822.498	59.77
822.885	59.79
823.271	59.79
823.657	59.78
824.044	59.74
824.43	59.75
824.816	59.75
825.202	59.76
825.588	59.76
825.974	59.71
826.36	59.65
826.746	59.65
827.132	59.6
827.517	59.6
827.903	59.6
828.289	59.6
828.674	59.53
829.06	59.53
829.445	59.51
829.83	59.47
830.216	59.48
830.601	59.5
830.986	59.49
831.371	59.51
831.756	59.46
832.141	59.45
832.526	59.44
832.911	59.48
833.295	59.42
833.68	59.42
834.065	59.43
834.449	59.38
834.834	59.33
835.218	59.27
835.603	59.22
835.987	59.21
836.371	59.21
836.755	59.17
837.139	59.12
837.524	59.13
837.908	59.09
838.291	59.05
838.675	59.06
839.059	59.05
839.443	59.03
839.827	58.99
840.21	59.01
840.594	58.99
840.977	58.98
841.361	58.99
841.744	58.99
842.127	58.98
842.511	59.01
842.894	58.98
843.277	58.98
843.66	59
844.043	59.02
844.426	59.01
844.809	58.98
845.191	58.99
845.574	58.97
845.957	58.9
846.339	58.88
846.722	58.86
847.104	58.87
847.487	58.88
847.869	58.89
848.252	58.9
848.634	58.9
849.016	58.91
849.398	58.89
849.78	58.89
850.162	58.92
850.544	58.95
850.926	58.93
851.307	58.93
851.689	58.9
852.071	58.85
852.452	58.86
852.834	58.85
853.215	58.86
853.597	58.86
853.978	58.84
854.359	58.85
854.741	58.85
855.122	58.84
855.503	58.85
855.884	58.85
856.265	58.86
856.646	58.84
857.026	58.84
857.407	58.8
857.788	58.82
858.169	58.8
858.549	58.82
858.93	58.82
859.31	58.81
859.69	58.79
860.071	58.79
860.451	58.8
860.831	58.84
861.211	58.84
861.591	58.88
861.971	58.86
862.351	58.9
862.731	58.92
863.111	58.93
863.491	58.97
863.87	58.96
864.25	58.96
864.629	58.95
865.009	58.92
865.388	58.91
865.768	58.91
866.147	58.91
866.526	58.88
866.905	58.86
867.284	58.82
867.663	58.78
868.042	58.81
868.421	58.82
868.8	58.83
869.179	58.83
869.558	58.83
869.936	58.81
870.315	58.83
870.693	58.86
871.072	58.83
871.45	58.84
871.828	58.84
872.207	58.82
872.585	58.82
872.963	58.77
873.341	58.76
873.719	58.76
874.097	58.77
874.475	58.73
874.853	58.7
875.23	58.69
875.608	58.71
875.986	58.7
876.363	58.72
876.741	58.71
877.118	58.75
877.495	58.72
877.873	58.7
878.25	58.68
878.627	58.69
879.004	58.72
879.381	58.72
879.758	58.67
880.135	58.71
880.512	58.69
880.889	58.73
881.265	58.77
881.642	58.8
882.019	58.85
882.395	58.88
882.772	58.89
883.148	58.91
883.524	58.89
883.901	58.89
884.277	58.85
884.653	58.88
885.029	58.84
885.405	58.79
885.781	58.75
886.157	58.72
886.532	58.68
886.908	58.62
887.284	58.59
887.659	58.59
888.035	58.58
888.411	58.57
888.786	58.53
889.161	58.51
889.537	58.5
889.912	58.49
890.287	58.44
890.662	58.42
891.037	58.39
891.412	58.34
891.787	58.33
892.162	58.31
892.536	58.28
892.911	58.24
893.286	58.19
893.66	58.16
894.035	58.12
894.409	58.1
894.784	58.1
895.158	58.11
895.532	58.07
895.906	58.04
896.281	58.01
896.655	58
897.029	57.96
897.402	57.96
897.776	57.95
898.15	57.95
898.524	57.95
898.898	57.91
899.271	57.91
899.645	57.94
900.018	57.96
900.392	57.98
900.765	58.02
901.138	58.04
901.511	58.07
901.884	58.1
902.258	58.13
902.631	58.17
903.003	58.19
903.376	58.18
903.749	58.21
904.122	58.19
904.495	58.17
904.867	58.16
905.24	58.18
905.612	58.18
905.985	58.15
906.357	58.13
906.729	58.11
907.102	58.13
907.474	58.14
907.846	58.13
908.218	58.15
908.59	58.15
908.962	58.19
909.334	58.19
909.705	58.22
910.077	58.2
910.449	58.21
910.82	58.18
911.192	58.17
911.563	58.18
911.935	58.15
912.306	58.14
912.677	58.17
913.048	58.09
913.419	58.09
913.79	58.03
914.161	58.05
914.532	58.03
914.903	58.05
915.274	58.05
915.645	58.08
916.015	58.08
916.386	58.09
916.756	58.04
917.127	58.04
917.497	58.04
917.868	58.07
918.238	58.09
918.608	58.07
918.978	58.06
919.348	58.04
919.718	58.01
920.088	58.01
920.458	58.05
920.828	58.1
921.198	58.13
921.567	58.12
921.937	58.16
922.306	58.15
922.676	58.22
923.045	58.24
923.415	58.24
923.784	58.21
924.153	58.22
924.522	58.21
924.891	58.21
925.26	58.18
925.629	58.18
925.998	58.15
926.367	58.15
926.736	58.09
927.104	58.06
927.473	58.09
927.842	58.12
928.21	58.17
928.578	58.12
928.947	58.05
929.315	58.06
929.683	58.04
930.051	58
930.42	57.95
930.788	57.94
931.156	57.92
931.523	57.88
931.891	57.81
932.259	57.7
932.627	57.65
932.994	57.65
933.362	57.58
933.729	57.47
934.097	57.43
934.464	57.36
934.831	57.27
935.199	57.2
935.566	57.17
935.933	57.23
936.3	57.19
936.667	57.21
937.034	57.14
937.401	57.17
937.767	57.2
938.134	57.22
938.501	57.28
938.867	57.37
939.234	57.43
939.6	57.5
939.967	57.42
940.333	57.57
940.699	57.71
941.065	57.92
941.431	58.08
941.798	58.26
942.163	58.41
942.529	58.57
942.895	58.71
943.261	58.8
943.627	58.95
943.992	59.07
944.358	59.1
944.723	59.07
945.089	59.18
945.454	59.2
945.82	59.14
946.185	59.21
946.55	59.25
946.915	59.29
947.28	59.31
947.645	59.25
948.01	59.18
948.375	59.18
948.74	59.11
949.104	59.04
949.469	58.92
949.834	58.92
950.198	58.73
950.562	58.64
950.927	58.6
951.291	58.53
951.655	58.53
952.02	58.55
952.384	58.54
952.748	58.63
953.112	58.59
953.476	58.57
953.839	58.52
954.203	58.48
954.567	58.48
954.931	58.45
955.294	58.42
955.658	58.36
956.021	58.27
956.385	58.24
956.748	58.12
957.111	58
957.474	58.06
957.837	58.11
958.2	58.06
958.563	57.98
958.926	57.88
959.289	57.92
959.652	57.89
960.015	57.86
960.377	57.77
960.74	57.75
961.102	57.72
961.465	57.69
961.827	57.57
962.189	57.64
962.552	57.61
962.914	57.62
963.276	57.59
963.638	57.53
964	57.53
964.362	57.57
964.724	57.62
965.085	57.64
965.447	57.47
965.809	57.48
966.17	57.4
966.532	57.45
966.893	57.38
967.255	57.35
967.616	57.28
967.977	57.27
968.338	57.25
968.699	57.13
969.061	57.13
969.421	57.28
969.782	57.34
970.143	57.35
970.504	57.23
970.865	57.24
971.225	57.18
971.586	57.31
971.946	57.32
972.307	57.39
972.667	57.54
973.027	57.51
973.388	57.4
973.748	57.38
974.108	57.41
974.468	57.49
974.828	57.5
975.188	57.63
975.548	57.62
975.907	57.58
976.267	57.53
976.627	57.49
976.986	57.5
977.346	57.53
977.705	57.6
978.064	57.64
978.424	57.63
978.783	57.73
979.142	57.63
979.501	57.58
979.86	57.69
980.219	57.62
980.578	57.6
980.937	57.73
981.296	57.73
981.654	57.73
982.013	57.72
982.371	57.69
982.73	57.66
983.088	57.61
983.447	57.67
983.805	57.63
984.163	57.78
984.521	57.67
984.879	57.64
985.237	57.71
985.595	57.73
985.953	57.7
986.311	57.83
986.669	57.92
987.026	58.06
987.384	58.03
987.741	58.18
988.099	58.12
988.456	58.26
988.814	58.28
989.171	58.28
989.528	58.17
989.885	58.2
990.242	58.16
990.599	58.15
990.956	58.29
991.313	58.34
991.67	58.2
992.027	58.16
992.383	58.26
992.74	58.25
993.096	58.24
993.453	58.3
993.809	58.38
994.165	58.47
994.522	58.37
994.878	58.17
995.234	58.16
995.59	58.22
995.946	58.45
996.302	58.39
996.658	58.33
997.013	58.46
997.369	58.54
997.725	58.58
998.08	58.55
998.436	58.68
998.791	58.79
999.147	58.8
999.502	58.94
999.857	58.93
1000.212	59.03
1000.567	59.2
1000.922	59.22
1001.277	59.12
1001.632	59.22
1001.987	59.16
1002.342	59.31
1002.696	59.43
1003.051	59.33
1003.406	59.12
1003.76	59.16
1004.114	59.19
1004.469	59.07
1004.823	59.16
1005.177	59.41
1005.531	59.27
1005.885	59.59
1006.239	59.35
1006.593	59.29
1006.947	59.37
1007.301	59.59
1007.655	59.52
1008.008	59.57
1008.362	59.74
1008.715	59.6
1009.069	59.56
1009.422	59.56
1009.776	59.51
1010.129	59.68
1010.482	59.78
1010.835	60.2
1011.188	60.07
1011.541	60.04
1011.894	59.96
1012.247	59.87
1012.6	60.14
1012.952	60.2
1013.305	60.29
1013.657	60.18
1014.01	60.38
1014.362	60.61
1014.715	60.23
1015.067	60.49
1015.419	60.91
1015.771	61.22
1016.123	61.33
1016.475	61.35
1016.827	61.5
1017.179	61.67
1017.531	61.92
1017.883	62.2
1018.234	62.21
1018.586	62.5
1018.938	62.17
1019.289	61.95
1019.64	62.13
1019.992	62.35
1020.343	62.3
1020.694	62.34
1021.045	62.5
1021.396	62.69
1021.747	62.35
1022.098	62.58
1022.449	62.73
1022.8	63.22
1023.151	63.43
1023.501	63.2
1023.852	63.26
1024.202	63.26
1024.553	63.27
1024.903	63.36
1025.253	63.25
1025.604	63.53
1025.954	63.22
1026.304	63.76
1026.654	63.96
1027.004	63.99
1027.354	64.23
1027.703	64.41
1028.053	64.76
1028.403	64.67
1028.753	64.86
1029.102	64.91
1029.452	64.72
1029.801	64.84
1030.15	64.41
1030.499	64.32
897.758	459.47
901.051	468.75
904.343	469.02
907.636	463.98
910.928	455.37
914.22	459.99
917.511	448
920.803	426.37
924.094	411.98
927.384	414.94
930.675	403.94
933.965	401.31
937.255	393.89
940.544	378.4
943.834	366.43
947.123	361.84
950.411	343.11
953.7	336.94
956.988	326.03
960.276	315.02
963.563	312.92
966.851	293.75
970.138	290.32
973.424	275.12
976.711	269.5
979.997	257.92
983.283	251.44
986.568	245.09
989.853	240.18
993.138	233.45
996.423	227.41
999.708	220.74
1002.992	221.7
1006.275	214.34
1009.559	212.49
1012.842	208.36
1016.125	202.13
1019.408	198.71
1022.69	197.56
1025.972	194.4
1029.254	191.21
1032.536	188.06
1035.817	183.54
1039.098	180.94
1042.379	176.95
1045.659	175.49
1048.939	173.63
1052.219	171.41
1055.498	169.85
1058.778	166.8
1062.057	164.35
1065.335	162.6
1068.614	160.39
1071.892	157.37
1075.17	155.16
1078.447	153.25
1081.724	150.89
1085.001	147.86
1088.278	147.48
1091.554	146.01
1094.83	145.09
1098.106	143.92
1101.382	142.88
1104.657	142.51
1107.932	142.06
1111.206	142.22
1114.481	142.01
1117.755	141.42
1121.029	141.32
1124.302	139.51
1127.575	137.77
1130.848	137.22
1134.121	135.71
1137.393	135.61
1140.665	134.59
1143.937	133.11
1147.208	131.27
1150.48	129.47
1153.75	129.56
1157.021	127.81
1160.291	127.23
1163.561	126.62
1166.831	126.31
1170.101	125.59
1173.37	124.73
1176.639	123.53
1179.907	123.54
1183.176	123.2
1186.444	123.42
1189.711	122.27
1192.979	123.42
1196.246	123.95
1199.513	123.5
1202.78	123.36
1206.046	123.02
1209.312	124.57
1212.578	125.22
1215.843	126.75
1219.108	127.38
1222.373	129.01
1225.638	130.49
1228.902	133.29
1232.166	136.46
1235.43	137.68
1238.693	142.44
1241.956	145.26
1245.219	147.65
1248.482	148.9
1251.744	148.57
1255.006	148.46
1258.268	144.74
1261.529	144.09
1264.79	141.81
1268.051	138.74
1271.312	138.78
1274.572	134.84
1277.832	132.37
1281.092	130.2
1284.351	127.76
1287.61	127.72
1290.869	126.69
1294.128	126.61
1297.386	126.3
1300.644	124.73
1303.902	124.82
1307.159	123.51
1310.416	124.4
1313.673	125.78
1316.93	127.23
1320.186	129.42
1323.442	130.12
1326.697	133.22
1329.953	134.51
1333.208	138.4
1336.463	143.92
1339.717	146.14
1342.972	153.05
1346.226	155.48
1349.479	156.62
1352.733	161.86
1355.986	164.74
1359.238	168.4
1362.491	169.54
1365.743	174.94
1368.995	176.42
1372.247	176.75
1375.498	176.41
1378.749	179.73
1382	182.34
1385.251	180.13
1388.501	179.87
1391.751	180.95
1395	179.61
1398.25	180.99
1401.499	180.27
1404.748	178.19
1407.996	171.25
1411.244	170.51
1414.492	169.39
1417.74	162.9
1420.987	159.91
1424.234	158.04
1427.481	152.18
1430.728	148.2
1433.974	143.3
1437.22	139.16
1440.465	133.7
1443.711	131.05
1446.956	127.19
1450.201	122.3
1453.445	117.15
1456.689	114.4
1459.933	110.4
1463.177	105.47
1466.42	104.29
1469.663	101.07
1472.906	98.14
1476.148	96.64
1479.391	94.9
1482.633	93.2
1485.874	91.85
1489.115	91.38
1492.356	90.45
1495.597	88.72
1498.838	90.2
1502.078	88.93
1505.318	88.77
1508.557	88.22
1511.797	87.46
1515.036	86.9
1518.274	87.2
1521.513	86.7
1524.751	85.93
1527.989	86.43
1531.227	86.59
1534.464	85.69
1537.701	85.85
1540.938	85.41
1544.174	85.61
1547.41	86.14
1550.646	86.27
1553.882	86.18
1557.117	86.02
1560.352	85.92
1563.587	85.41
1566.821	85.42
1570.055	84.88
1573.289	85.01
1576.523	85.07
1579.756	85.09
1582.989	84.37
1586.222	85.1
1589.454	84.27
1592.686	84.61
1595.918	84.92
1599.15	84.88
1602.381	85.14
1605.612	85.37
1608.843	84.87
1612.073	85.22
1615.303	85.22
1618.533	85.78
1621.762	85.35
1624.992	85.87
1628.221	85.12
1631.449	85.62
1634.678	85.41
1637.906	85.35
1641.134	85.44
1644.361	85.47
1647.588	86.02
1650.815	85.84
1654.042	86.46
1657.269	85.96
1660.495	86.61
1663.72	86.74
1666.946	86.63
1670.171	87.32
1673.396	87.73
1676.621	88.11
1679.845	88.48
1683.069	87.86
1686.293	88.22
1689.517	87.86
1692.74	88.31
1695.963	88.25
1699.185	88.68
1702.408	88.11
1705.63	88.17
1708.852	88.9
1712.073	88.39
1715.294	88.18
1718.515	89.23
1721.736	88.63
1724.956	88.92
1728.176	88.8
1731.396	89.3
1734.616	89.31
1737.835	89.97
1741.054	89.6
1744.272	89.05
1747.491	89.28
1750.709	89.7
1753.927	88.81
1757.144	90.03
1760.361	89.63
1763.578	90.47
1766.795	90.13
1770.011	90.25
1773.227	90.91
1776.443	91.44
1779.658	90.9
1782.874	91.35
1786.089	91.21
1789.303	91.85
1792.518	92.03
1795.732	92.28
1798.945	92.94
1802.159	92.83
1805.372	93.77
1808.585	94.06
1811.797	94.84
1815.01	95.53
1818.222	96.4
1821.434	97.68
1824.645	97.43
1827.856	98.61
1831.067	99.4
1834.278	99.74
1837.488	100.72
1840.698	101.8
1843.908	101.43
1847.117	101.89
1850.326	102.87
1853.535	104.14
1856.744	104.05
1859.952	105.83
1863.16	104.48
1866.368	103.6
1869.575	103.47
1872.782	103.32
1875.989	100.77
1879.196	101.52
1882.402	99.88
1885.608	99.28
1888.814	96.87
1892.019	97.75
1895.224	95.15
1898.429	95.04
1901.634	95.25
1904.838	95.55
1908.042	95.55
1911.246	95.54
1914.449	94.16
1917.652	94.73
1920.855	95.05
1924.058	93.99
1927.26	92.16
1930.462	93.63
1933.664	94.39
1936.865	95.09
1940.066	93.24
1943.267	92.21
1946.467	93.36
1949.668	93.42
1952.868	93.16
1956.067	93.23
1959.267	94.91
1962.466	95.54
1965.665	96.51
1968.863	96.18
1972.061	97.2
1975.259	98.92
1978.457	100.72
1981.654	101.82
1984.852	102.7
1988.048	104.33
1991.245	106.33
1994.441	108.15
1997.637	111.37
2000.833	113.07
2004.028	114.73
2007.223	116.23
2010.418	119.06
2013.613	124.05
2016.807	127.06
2020.001	130.05
2023.194	132.99
2026.388	138.17
2029.581	145.14
2032.774	148.52
2035.966	152.4
2039.158	156.77
2042.35	160.14
2045.542	163.4
2048.733	171.98
2051.924	171.9
2055.115	174.55
2058.306	177.6
2061.496	177.9
2064.686	178.61
2067.875	177.09
2071.065	180.62
2074.254	179.77
2077.442	185.68
2080.631	187.54
2083.819	183.93
2087.007	192.02
2090.195	194.93
2093.382	193.33
2096.569	195.49
2099.756	198.08
2102.942	201.96
2106.128	205.12
2109.314	207.54
2112.5	208.52
2115.685	206.08
2118.87	207.11
2122.055	206.58
2125.239	209.88
2128.424	215.84
2131.608	215.37
2134.791	216.3
2137.974	217.14
2141.157	218.48
2144.34	221.14
2147.523	226.45
2150.705	232.97
2153.887	230.15
2157.068	231.56
2160.25	234.71
2163.431	237.22
2166.611	238.07
2169.792	242.29
2172.972	244.59
2176.152	244.96
2179.331	248.61
2182.511	246.04
2185.69	249.89
2188.868	257.88
2192.047	265.4
2195.225	269.02
2198.403	267.84
2201.58	265.32
2204.758	276.02
2207.935	277.7
2211.111	283.27
2214.288	286.81
2217.464	290.12
2220.64	292.82
2223.815	294.57
2226.991	290.67
2230.166	290.96
2233.34	301.01
2236.515	312.03
2239.689	303.39
2242.863	310.35
2246.036	309.15
2249.209	313.31
2252.382	311.97
2255.555	322.82
2258.727	325.91
2261.9	336.93
2265.071	342.69
2268.243	339.07
2271.414	349.22
2274.585	357.98
2277.756	354.71
2280.926	365.66
2284.096	374.58
2287.266	375.62
2290.436	365.47
2293.605	374.67
2296.774	382.65
2299.942	385.16
2303.111	398.66
2306.279	406.1
2309.447	404.06
2312.614	409.71
2315.781	416.27
2318.948	417.89
2322.115	427.34
2325.281	451.84
2328.447	442.79
2331.613	453.11
2334.779	454.37
2337.944	461.12
2341.109	466.51
2344.274	472.69
2347.438	483.25
2350.602	497.38
2353.766	518.46
2356.929	522.12
2360.092	527.29
2363.255	534.51
2366.418	531.92
2369.58	546.43
2372.742	555.58
2375.904	552.05
2379.066	570.13
2382.227	600.82
2385.388	597.82
2388.548	574.33
2391.709	566.31
2394.869	581.93
2398.029	585.48
2401.188	591.88
2404.347	607.21
2407.506	616.83
2410.665	593.84
2413.823	596.66
2416.981	597.99
2420.139	564.58
2423.296	617.67
2426.453	656.75
2429.61	624.39
2432.767	667.15
2435.923	681.1
2439.079	666.81
2442.235	677.21
2445.391	699.93
2448.546	694.98
2451.701	734.57
2454.855	786.34
2458.009	690.03
2461.163	706.38
2464.317	716.22
2467.471	703.52
2470.624	724.9
2473.777	706.56
2476.929	694.37
2480.082	734.98
2483.234	768.56
2486.385	782.22
2489.537	802.58
2492.688	885.35
2495.839	873.31
2498.989	902.34
2502.14	899.77
2505.29	864.04
2508.439	947.9
2511.589	960.37
2514.738	943.8
2517.887	932.46
2521.035	868.59
2524.183	859.68
2527.331	849.41
2530.479	823.25
2533.627	841.53
