Data from N_3_ofc_ct_2n_Splice17_06.txt Node
Date: Sat Feb 29 14:47:16 EST 2020
User: sa697716
Spectrometer: FLMS03696
Trigger mode: 0
Integration Time (sec): 3.180400E-1
Scans to average: 20
Electric dark correction enabled: true
Nonlinearity correction enabled: true
Boxcar width: 5
XAxis mode: Wavelengths
Number of Pixels in Spectrum: 2048
>>>>>Begin Spectral Data<<<<<
187.83	93.91
188.298	83.99
188.766	71.63
189.233	72.35
189.701	86.04
190.169	72.72
190.636	67.34
191.104	67.17
191.571	176.84
192.039	113.29
192.506	80.36
192.974	8126.42
193.441	-244.32
193.908	78.18
194.375	89.96
194.842	170.44
195.31	64.29
195.777	-7.41
196.244	30.66
196.711	33.23
197.177	32.03
197.644	32.14
198.111	32.05
198.578	32.55
199.045	32.9
199.511	33.38
199.978	33.86
200.445	33.71
200.911	34.72
201.378	34.68
201.844	35.36
202.31	36.09
202.777	36.41
203.243	36.77
203.709	37.23
204.176	36.83
204.642	36.74
205.108	36.26
205.574	36.81
206.04	36.15
206.506	36.1
206.972	35.57
207.438	35.36
207.903	35.25
208.369	34.88
208.835	34.79
209.301	34.93
209.766	34.62
210.232	34.51
210.697	34.13
211.163	34.1
211.628	33.51
212.094	33.12
212.559	32.44
213.024	32.13
213.49	31.59
213.955	31.01
214.42	30.4
214.885	29.89
215.35	29.54
215.815	28.7
216.28	27.98
216.745	27.09
217.21	26.21
217.675	25.25
218.14	24.11
218.604	23.17
219.069	22.46
219.534	21.78
219.998	21.22
220.463	20.67
220.927	20.16
221.392	19.61
221.856	19.26
222.32	18.89
222.785	18.53
223.249	18.27
223.713	18.03
224.177	17.72
224.642	17.45
225.106	17.17
225.57	16.88
226.034	16.65
226.497	16.41
226.961	16.12
227.425	15.85
227.889	15.62
228.353	15.36
228.816	15.12
229.28	14.89
229.744	14.68
230.207	14.48
230.671	14.27
231.134	14.07
231.597	13.86
232.061	13.72
232.524	13.56
232.987	13.42
233.45	13.26
233.914	13.11
234.377	12.97
234.84	12.82
235.303	12.67
235.766	12.53
236.229	12.38
236.691	12.27
237.154	12.13
237.617	12
238.08	11.86
238.542	11.73
239.005	11.61
239.468	11.47
239.93	11.34
240.393	11.24
240.855	11.11
241.317	11.01
241.78	10.91
242.242	10.8
242.704	10.68
243.166	10.58
243.629	10.48
244.091	10.37
244.553	10.28
245.015	10.18
245.477	10.08
245.939	9.99
246.4	9.89
246.862	9.8
247.324	9.74
247.786	9.66
248.247	9.58
248.709	9.49
249.17	9.4
249.632	9.33
250.093	9.23
250.555	9.16
251.016	9.09
251.477	9.01
251.939	8.94
252.4	8.85
252.861	8.78
253.322	8.7
253.783	8.66
254.244	8.6
254.705	8.54
255.166	8.51
255.627	8.46
256.088	8.39
256.549	8.34
257.009	8.29
257.47	8.26
257.931	8.19
258.391	8.14
258.852	8.07
259.312	8.01
259.773	7.96
260.233	7.89
260.694	7.84
261.154	7.79
261.614	7.74
262.074	7.7
262.534	7.63
262.994	7.59
263.455	7.56
263.915	7.52
264.374	7.48
264.834	7.46
265.294	7.42
265.754	7.36
266.214	7.33
266.673	7.31
267.133	7.27
267.593	7.25
268.052	7.21
268.512	7.18
268.971	7.14
269.431	7.11
269.89	7.07
270.349	7.05
270.809	7.03
271.268	7
271.727	6.97
272.186	6.94
272.645	6.91
273.104	6.88
273.563	6.86
274.022	6.84
274.481	6.81
274.94	6.78
275.399	6.75
275.857	6.72
276.316	6.7
276.775	6.66
277.233	6.63
277.692	6.6
278.15	6.57
278.609	6.53
279.067	6.49
279.525	6.47
279.984	6.44
280.442	6.42
280.9	6.4
281.358	6.38
281.816	6.36
282.274	6.34
282.732	6.32
283.19	6.31
283.648	6.29
284.106	6.28
284.564	6.26
285.021	6.25
285.479	6.24
285.937	6.22
286.394	6.2
286.852	6.19
287.309	6.17
287.767	6.15
288.224	6.14
288.682	6.12
289.139	6.11
289.596	6.08
290.053	6.05
290.511	6.01
290.968	5.99
291.425	5.96
291.882	5.93
292.339	5.9
292.796	5.87
293.252	5.84
293.709	5.82
294.166	5.79
294.623	5.77
295.079	5.75
295.536	5.74
295.992	5.72
296.449	5.71
296.905	5.69
297.362	5.67
297.818	5.66
298.274	5.64
298.731	5.62
299.187	5.61
299.643	5.59
300.099	5.58
300.555	5.55
301.011	5.53
301.467	5.51
301.923	5.5
302.379	5.49
302.835	5.47
303.291	5.45
303.746	5.44
304.202	5.42
304.658	5.4
305.113	5.38
305.569	5.38
306.024	5.38
306.479	5.36
306.935	5.35
307.39	5.35
307.845	5.34
308.301	5.34
308.756	5.34
309.211	5.33
309.666	5.33
310.121	5.33
310.576	5.32
311.031	5.31
311.486	5.31
311.94	5.31
312.395	5.31
312.85	5.3
313.305	5.3
313.759	5.29
314.214	5.29
314.668	5.28
315.123	5.27
315.577	5.26
316.032	5.25
316.486	5.23
316.94	5.22
317.394	5.2
317.849	5.18
318.303	5.16
318.757	5.14
319.211	5.12
319.665	5.11
320.119	5.1
320.572	5.08
321.026	5.07
321.48	5.05
321.934	5.05
322.387	5.04
322.841	5.02
323.295	5
323.748	4.99
324.202	4.99
324.655	4.97
325.108	4.95
325.562	4.92
326.015	4.91
326.468	4.9
326.921	4.88
327.374	4.87
327.827	4.86
328.28	4.85
328.733	4.84
329.186	4.82
329.639	4.81
330.092	4.81
330.545	4.81
330.997	4.8
331.45	4.79
331.903	4.77
332.355	4.77
332.808	4.77
333.26	4.76
333.713	4.76
334.165	4.77
334.617	4.78
335.069	4.78
335.522	4.78
335.974	4.78
336.426	4.79
336.878	4.8
337.33	4.8
337.782	4.79
338.234	4.8
338.686	4.79
339.137	4.79
339.589	4.78
340.041	4.77
340.493	4.76
340.944	4.75
341.396	4.76
341.847	4.73
342.299	4.71
342.75	4.7
343.201	4.69
343.653	4.68
344.104	4.66
344.555	4.65
345.006	4.63
345.457	4.61
345.908	4.59
346.359	4.58
346.81	4.57
347.261	4.56
347.712	4.57
348.163	4.55
348.613	4.53
349.064	4.51
349.515	4.5
349.965	4.5
350.416	4.5
350.866	4.49
351.317	4.48
351.767	4.47
352.217	4.46
352.668	4.45
353.118	4.46
353.568	4.46
354.018	4.47
354.468	4.46
354.918	4.47
355.368	4.48
355.818	4.48
356.268	4.48
356.718	4.49
357.168	4.49
357.617	4.49
358.067	4.49
358.517	4.49
358.966	4.5
359.416	4.51
359.865	4.51
360.315	4.5
360.764	4.49
361.213	4.48
361.663	4.47
362.112	4.48
362.561	4.47
363.01	4.47
363.459	4.46
363.908	4.45
364.357	4.44
364.806	4.42
365.255	4.43
365.703	4.43
366.152	4.44
366.601	4.44
367.05	4.45
367.498	4.45
367.947	4.45
368.395	4.47
368.844	4.48
369.292	4.48
369.74	4.48
370.189	4.48
370.637	4.49
371.085	4.51
371.533	4.52
371.981	4.51
372.429	4.51
372.877	4.52
373.325	4.51
373.773	4.52
374.221	4.52
374.669	4.53
375.116	4.52
375.564	4.52
376.012	4.51
376.459	4.52
376.907	4.53
377.354	4.54
377.801	4.55
378.249	4.57
378.696	4.59
379.143	4.61
379.591	4.63
380.038	4.66
380.485	4.69
380.932	4.72
381.379	4.74
381.826	4.76
382.273	4.78
382.72	4.81
383.166	4.83
383.613	4.85
384.06	4.87
384.506	4.9
384.953	4.92
385.4	4.94
385.846	4.96
386.292	4.98
386.739	4.99
387.185	5.02
387.631	5.05
388.078	5.07
388.524	5.08
388.97	5.1
389.416	5.11
389.862	5.13
390.308	5.16
390.754	5.18
391.2	5.21
391.645	5.24
392.091	5.25
392.537	5.27
392.983	5.31
393.428	5.35
393.874	5.38
394.319	5.41
394.765	5.42
395.21	5.43
395.655	5.45
396.101	5.47
396.546	5.5
396.991	5.51
397.436	5.51
397.881	5.52
398.326	5.55
398.771	5.56
399.216	5.59
399.661	5.62
400.106	5.65
400.551	5.66
400.995	5.66
401.44	5.65
401.885	5.66
402.329	5.66
402.774	5.66
403.218	5.66
403.663	5.67
404.107	5.67
404.551	5.67
404.995	5.67
405.44	5.67
405.884	5.68
406.328	5.68
406.772	5.7
407.216	5.71
407.66	5.71
408.104	5.71
408.547	5.7
408.991	5.68
409.435	5.68
409.879	5.68
410.322	5.69
410.766	5.71
411.209	5.72
411.653	5.7
412.096	5.71
412.54	5.72
412.983	5.73
413.426	5.75
413.869	5.77
414.312	5.79
414.756	5.81
415.199	5.83
415.642	5.84
416.085	5.85
416.527	5.88
416.97	5.88
417.413	5.87
417.856	5.85
418.298	5.83
418.741	5.83
419.184	5.82
419.626	5.79
420.069	5.78
420.511	5.76
420.953	5.75
421.396	5.75
421.838	5.76
422.28	5.78
422.722	5.8
423.164	5.82
423.606	5.83
424.048	5.84
424.49	5.86
424.932	5.85
425.374	5.86
425.816	5.85
426.258	5.82
426.699	5.79
427.141	5.76
427.582	5.75
428.024	5.75
428.465	5.75
428.907	5.75
429.348	5.75
429.789	5.75
430.231	5.75
430.672	5.76
431.113	5.79
431.554	5.81
431.995	5.83
432.436	5.82
432.877	5.81
433.318	5.81
433.759	5.81
434.2	5.82
434.64	5.83
435.081	5.84
435.522	5.86
435.962	5.88
436.403	5.9
436.843	5.92
437.284	5.95
437.724	5.97
438.164	5.97
438.604	5.99
439.045	5.99
439.485	6
439.925	6
440.365	6
440.805	5.99
441.245	5.97
441.685	5.98
442.125	5.96
442.564	5.99
443.004	6.02
443.444	6.03
443.883	6.05
444.323	6.07
444.762	6.11
445.202	6.16
445.641	6.19
446.081	6.24
446.52	6.25
446.959	6.29
447.398	6.33
447.837	6.36
448.276	6.39
448.716	6.43
449.154	6.47
449.593	6.51
450.032	6.52
450.471	6.56
450.91	6.57
451.349	6.59
451.787	6.6
452.226	6.59
452.664	6.58
453.103	6.57
453.541	6.56
453.98	6.55
454.418	6.52
454.856	6.49
455.295	6.47
455.733	6.48
456.171	6.47
456.609	6.47
457.047	6.47
457.485	6.47
457.923	6.48
458.361	6.46
458.798	6.46
459.236	6.46
459.674	6.47
460.111	6.47
460.549	6.46
460.987	6.46
461.424	6.45
461.862	6.45
462.299	6.44
462.736	6.43
463.173	6.44
463.611	6.45
464.048	6.46
464.485	6.45
464.922	6.44
465.359	6.45
465.796	6.43
466.233	6.43
466.67	6.43
467.106	6.42
467.543	6.42
467.98	6.42
468.416	6.42
468.853	6.39
469.29	6.4
469.726	6.42
470.162	6.4
470.599	6.42
471.035	6.42
471.471	6.42
471.907	6.43
472.344	6.43
472.78	6.42
473.216	6.42
473.652	6.44
474.088	6.45
474.523	6.43
474.959	6.44
475.395	6.45
475.831	6.45
476.266	6.46
476.702	6.46
477.138	6.46
477.573	6.45
478.008	6.45
478.444	6.45
478.879	6.44
479.314	6.45
479.75	6.45
480.185	6.44
480.62	6.44
481.055	6.44
481.49	6.42
481.925	6.4
482.36	6.39
482.795	6.39
483.229	6.4
483.664	6.39
484.099	6.4
484.534	6.4
484.968	6.41
485.403	6.41
485.837	6.41
486.271	6.43
486.706	6.44
487.14	6.48
487.574	6.48
488.009	6.49
488.443	6.51
488.877	6.52
489.311	6.53
489.745	6.55
490.179	6.58
490.613	6.61
491.046	6.65
491.48	6.68
491.914	6.7
492.348	6.74
492.781	6.79
493.215	6.83
493.648	6.88
494.082	6.94
494.515	7
494.948	7.06
495.382	7.12
495.815	7.18
496.248	7.26
496.681	7.33
497.114	7.4
497.547	7.48
497.98	7.57
498.413	7.67
498.846	7.76
499.279	7.86
499.711	7.96
500.144	8.07
500.577	8.18
501.009	8.31
501.442	8.45
501.874	8.59
502.306	8.73
502.739	8.88
503.171	9.03
503.603	9.2
504.036	9.38
504.468	9.57
504.9	9.75
505.332	9.95
505.764	10.14
506.196	10.35
506.627	10.57
507.059	10.79
507.491	11.03
507.923	11.27
508.354	11.51
508.786	11.76
509.217	12.02
509.649	12.31
510.08	12.59
510.512	12.88
510.943	13.19
511.374	13.51
511.805	13.83
512.237	14.15
512.668	14.49
513.099	14.85
513.53	15.22
513.961	15.58
514.391	15.93
514.822	16.29
515.253	16.67
515.684	17.02
516.114	17.41
516.545	17.78
516.975	18.17
517.406	18.57
517.836	18.93
518.267	19.31
518.697	19.69
519.127	20.09
519.558	20.49
519.988	20.87
520.418	21.25
520.848	21.63
521.278	22.01
521.708	22.36
522.138	22.72
522.567	23.08
522.997	23.42
523.427	23.77
523.857	24.1
524.286	24.43
524.716	24.74
525.145	25.04
525.575	25.34
526.004	25.64
526.433	25.93
526.863	26.22
527.292	26.49
527.721	26.75
528.15	26.98
528.579	27.24
529.008	27.45
529.437	27.68
529.866	27.88
530.295	28.07
530.724	28.25
531.152	28.44
531.581	28.58
532.01	28.74
532.438	28.89
532.867	29.03
533.295	29.15
533.723	29.27
534.152	29.38
534.58	29.49
535.008	29.57
535.436	29.67
535.865	29.75
536.293	29.83
536.721	29.89
537.149	29.97
537.576	30.03
538.004	30.07
538.432	30.14
538.86	30.19
539.287	30.24
539.715	30.3
540.143	30.33
540.57	30.38
540.998	30.42
541.425	30.45
541.852	30.48
542.28	30.51
542.707	30.56
543.134	30.6
543.561	30.62
543.988	30.64
544.415	30.7
544.842	30.74
545.269	30.77
545.696	30.81
546.123	30.86
546.549	30.9
546.976	30.95
547.403	30.99
547.829	31.02
548.256	31.07
548.682	31.1
549.108	31.11
549.535	31.13
549.961	31.14
550.387	31.13
550.813	31.12
551.24	31.11
551.666	31.1
552.092	31.08
552.518	31.05
552.943	31.03
553.369	31.01
553.795	30.97
554.221	30.93
554.646	30.89
555.072	30.86
555.498	30.81
555.923	30.74
556.349	30.65
556.774	30.57
557.199	30.49
557.625	30.39
558.05	30.29
558.475	30.18
558.9	30.06
559.325	29.94
559.75	29.81
560.175	29.68
560.6	29.55
561.025	29.41
561.449	29.27
561.874	29.12
562.299	28.94
562.723	28.77
563.148	28.58
563.572	28.41
563.997	28.22
564.421	28.03
564.846	27.83
565.27	27.62
565.694	27.41
566.118	27.17
566.542	26.95
566.966	26.73
567.39	26.5
567.814	26.26
568.238	26
568.662	25.76
569.086	25.51
569.509	25.27
569.933	25.04
570.357	24.79
570.78	24.57
571.204	24.34
571.627	24.12
572.05	23.92
572.474	23.73
572.897	23.51
573.32	23.31
573.743	23.12
574.166	22.94
574.589	22.76
575.012	22.61
575.435	22.43
575.858	22.26
576.281	22.1
576.704	21.94
577.126	21.77
577.549	21.64
577.972	21.52
578.394	21.37
578.817	21.22
579.239	21.09
579.661	20.97
580.084	20.86
580.506	20.73
580.928	20.63
581.35	20.51
581.772	20.41
582.194	20.31
582.616	20.2
583.038	20.12
583.46	20.02
583.882	19.93
584.303	19.83
584.725	19.73
585.147	19.62
585.568	19.53
585.99	19.45
586.411	19.37
586.833	19.29
587.254	19.21
587.675	19.13
588.096	19.08
588.518	19
588.939	18.94
589.36	18.87
589.781	18.83
590.202	18.76
590.623	18.69
591.043	18.63
591.464	18.56
591.885	18.51
592.305	18.47
592.726	18.41
593.147	18.38
593.567	18.33
593.987	18.29
594.408	18.25
594.828	18.23
595.248	18.2
595.669	18.17
596.089	18.14
596.509	18.1
596.929	18.04
597.349	17.99
597.769	17.94
598.189	17.91
598.608	17.85
599.028	17.79
599.448	17.73
599.867	17.69
600.287	17.62
600.706	17.56
601.126	17.49
601.545	17.43
601.965	17.36
602.384	17.29
602.803	17.2
603.222	17.13
603.641	17.06
604.061	16.97
604.48	16.87
604.898	16.79
605.317	16.7
605.736	16.62
606.155	16.54
606.574	16.44
606.992	16.33
607.411	16.25
607.829	16.09
608.248	15.98
608.666	15.87
609.085	15.77
609.503	15.65
609.921	15.54
610.339	15.44
610.758	15.32
611.176	15.23
611.594	15.12
612.012	15.01
612.43	14.95
612.847	14.86
613.265	14.76
613.683	14.67
614.101	14.58
614.518	14.49
614.936	14.38
615.353	14.3
615.771	14.2
616.188	14.13
616.606	14.05
617.023	13.97
617.44	13.88
617.857	13.81
618.274	13.75
618.691	13.68
619.108	13.63
619.525	13.58
619.942	13.51
620.359	13.47
620.776	13.43
621.192	13.4
621.609	13.36
622.026	13.32
622.442	13.28
622.859	13.24
623.275	13.23
623.691	13.2
624.108	13.16
624.524	13.14
624.94	13.11
625.356	13.08
625.772	13.06
626.188	13.06
626.604	13.04
627.02	13.04
627.436	13.02
627.852	13
628.268	12.98
628.683	12.96
629.099	12.96
629.514	12.94
629.93	12.91
630.345	12.87
630.761	12.83
631.176	12.8
631.591	12.74
632.007	12.7
632.422	12.64
632.837	12.58
633.252	12.52
633.667	12.44
634.082	12.37
634.497	12.28
634.911	12.19
635.326	12.09
635.741	11.98
636.155	11.87
636.57	11.76
636.984	11.64
637.399	11.5
637.813	11.38
638.228	11.25
638.642	11.12
639.056	11
639.47	10.87
639.884	10.73
640.298	10.62
640.712	10.49
641.126	10.35
641.54	10.22
641.954	10.11
642.368	9.98
642.781	9.86
643.195	9.74
643.609	9.61
644.022	9.5
644.436	9.39
644.849	9.29
645.262	9.2
645.676	9.11
646.089	9.02
646.502	8.93
646.915	8.85
647.328	8.78
647.741	8.69
648.154	8.64
648.567	8.6
648.98	8.55
649.393	8.49
649.805	8.44
650.218	8.38
650.631	8.34
651.043	8.31
651.456	8.27
651.868	8.22
652.28	8.19
652.693	8.12
653.105	8.07
653.517	8
653.929	7.95
654.341	7.9
654.753	7.84
655.165	7.78
655.577	7.71
655.989	7.65
656.401	7.58
656.813	7.5
657.224	7.43
657.636	7.35
658.047	7.28
658.459	7.19
658.87	7.11
659.282	7.04
659.693	6.97
660.104	6.89
660.515	6.82
660.926	6.76
661.338	6.69
661.749	6.63
662.159	6.57
662.57	6.52
662.981	6.47
663.392	6.42
663.803	6.36
664.213	6.32
664.624	6.28
665.035	6.24
665.445	6.21
665.855	6.17
666.266	6.15
666.676	6.12
667.086	6.09
667.497	6.06
667.907	6.03
668.317	6.02
668.727	6.01
669.137	6.01
669.547	6
669.956	6
670.366	6.02
670.776	6.02
671.186	6.03
671.595	6.05
672.005	6.08
672.414	6.11
672.824	6.14
673.233	6.15
673.642	6.17
674.052	6.2
674.461	6.22
674.87	6.23
675.279	6.27
675.688	6.31
676.097	6.33
676.506	6.36
676.915	6.39
677.323	6.44
677.732	6.5
678.141	6.55
678.549	6.6
678.958	6.67
679.366	6.73
679.775	6.79
680.183	6.86
680.592	6.94
681	7
681.408	7.09
681.816	7.19
682.224	7.28
682.632	7.39
683.04	7.51
683.448	7.63
683.856	7.78
684.264	7.94
684.671	8.13
685.079	8.34
685.487	8.57
685.894	8.81
686.302	9.08
686.709	9.37
687.116	9.69
687.524	10.05
687.931	10.43
688.338	10.86
688.745	11.3
689.152	11.78
689.559	12.29
689.966	12.84
690.373	13.41
690.78	14
691.187	14.61
691.593	15.28
692	15.96
692.407	16.66
692.813	17.39
693.22	18.1
693.626	18.86
694.032	19.62
694.439	20.41
694.845	21.2
695.251	22
695.657	22.82
696.063	23.61
696.469	24.41
696.875	25.21
697.281	25.97
697.687	26.8
698.093	27.57
698.498	28.39
698.904	29.17
699.31	29.95
699.715	30.75
700.12	31.51
700.526	32.29
700.931	33.03
701.337	33.8
701.742	34.55
702.147	35.28
702.552	36.03
702.957	36.73
703.362	37.44
703.767	38.14
704.172	38.82
704.577	39.51
704.981	40.17
705.386	40.83
705.791	41.49
706.195	42.12
706.6	42.74
707.004	43.36
707.408	43.97
707.813	44.57
708.217	45.18
708.621	45.76
709.025	46.37
709.43	46.94
709.834	47.53
710.237	48.08
710.641	48.68
711.045	49.23
711.449	49.77
711.853	50.3
712.256	50.84
712.66	51.37
713.064	51.88
713.467	52.38
713.87	52.88
714.274	53.38
714.677	53.85
715.08	54.3
715.484	54.77
715.887	55.25
716.29	55.72
716.693	56.13
717.096	56.55
717.499	57
717.901	57.39
718.304	57.8
718.707	58.17
719.109	58.6
719.512	58.99
719.915	59.36
720.317	59.73
720.719	60.12
721.122	60.49
721.524	60.83
721.926	61.18
722.328	61.56
722.731	61.91
723.133	62.21
723.535	62.54
723.937	62.84
724.338	63.14
724.74	63.38
725.142	63.56
725.544	63.84
725.945	64.09
726.347	64.33
726.748	64.53
727.15	64.73
727.551	65.01
727.952	65.19
728.354	65.44
728.755	65.61
729.156	65.85
729.557	66.11
729.958	66.3
730.359	66.47
730.76	66.61
731.161	66.77
731.562	66.94
731.962	67.07
732.363	67.21
732.763	67.37
733.164	67.55
733.564	67.66
733.965	67.78
734.365	67.86
734.766	68.02
735.166	68.12
735.566	68.22
735.966	68.34
736.366	68.41
736.766	68.5
737.166	68.55
737.566	68.61
737.966	68.68
738.365	68.8
738.765	68.89
739.165	68.91
739.564	68.99
739.964	69.06
740.363	69.1
740.763	69.13
741.162	69.18
741.561	69.23
741.96	69.3
742.36	69.38
742.759	69.38
743.158	69.43
743.557	69.53
743.955	69.62
744.354	69.71
744.753	69.8
745.152	69.88
745.55	69.97
745.949	70.01
746.348	70.07
746.746	70.12
747.144	70.2
747.543	70.28
747.941	70.31
748.339	70.38
748.737	70.41
749.136	70.44
749.534	70.51
749.932	70.52
750.33	70.55
750.727	70.59
751.125	70.64
751.523	70.66
751.921	70.65
752.318	70.65
752.716	70.6
753.113	70.59
753.511	70.55
753.908	70.52
754.305	70.46
754.703	70.46
755.1	70.4
755.497	70.34
755.894	70.31
756.291	70.29
756.688	70.24
757.085	70.23
757.482	70.22
757.878	70.25
758.275	70.23
758.672	70.28
759.068	70.32
759.465	70.33
759.861	70.33
760.258	70.29
760.654	70.24
761.05	70.27
761.447	70.29
761.843	70.24
762.239	70.19
762.635	70.17
763.031	70.17
763.427	70.11
763.822	70.09
764.218	70.1
764.614	70.1
765.01	70.1
765.405	70.05
765.801	70.04
766.196	70.03
766.592	70.06
766.987	70.05
767.382	70.03
767.778	70.02
768.173	70.01
768.568	69.98
768.963	69.98
769.358	69.99
769.753	70.01
770.148	69.97
770.542	69.98
770.937	69.93
771.332	69.93
771.726	69.9
772.121	69.88
772.515	69.9
772.91	69.9
773.304	69.87
773.699	69.88
774.093	69.86
774.487	69.88
774.881	69.92
775.275	69.93
775.669	69.95
776.063	69.94
776.457	69.97
776.851	69.92
777.245	69.93
777.638	69.94
778.032	69.91
778.425	69.97
778.819	69.94
779.212	69.9
779.606	69.91
779.999	69.87
780.392	69.86
780.786	69.83
781.179	69.88
781.572	69.87
781.965	69.89
782.358	69.88
782.751	69.81
783.143	69.86
783.536	69.88
783.929	69.91
784.322	69.93
784.714	69.93
785.107	69.94
785.499	69.95
785.891	69.96
786.284	69.91
786.676	70
787.068	70.06
787.46	70.03
787.852	70.02
788.245	69.98
788.636	69.98
789.028	70.01
789.42	70.03
789.812	69.99
790.204	69.96
790.595	70.01
790.987	69.97
791.378	69.95
791.77	69.96
792.161	69.96
792.553	69.99
792.944	70.03
793.335	70.04
793.726	70.01
794.117	70.05
794.508	70.1
794.899	70.08
795.29	70.1
795.681	70.13
796.072	70.15
796.463	70.16
796.853	70.16
797.244	70.16
797.634	70.13
798.025	70.17
798.415	70.14
798.806	70.16
799.196	70.2
799.586	70.21
799.976	70.21
800.366	70.23
800.756	70.25
801.146	70.26
801.536	70.28
801.926	70.28
802.316	70.31
802.706	70.36
803.095	70.41
803.485	70.4
803.874	70.41
804.264	70.46
804.653	70.45
805.043	70.45
805.432	70.45
805.821	70.42
806.21	70.53
806.599	70.57
806.988	70.58
807.377	70.57
807.766	70.59
808.155	70.62
808.544	70.6
808.933	70.65
809.321	70.71
809.71	70.77
810.098	70.8
810.487	70.8
810.875	70.75
811.264	70.77
811.652	70.76
812.04	70.77
812.428	70.78
812.816	70.8
813.204	70.78
813.592	70.78
813.98	70.78
814.368	70.78
814.756	70.79
815.144	70.85
815.531	70.85
815.919	70.89
816.306	70.88
816.694	70.91
817.081	70.91
817.469	70.95
817.856	70.97
818.243	71.01
818.63	71.07
819.017	71.05
819.404	71.04
819.791	71.04
820.178	71.03
820.565	71.06
820.952	71.07
821.339	71.08
821.725	71.12
822.112	71.11
822.498	71.11
822.885	71.1
823.271	71.14
823.657	71.12
824.044	71.13
824.43	71.17
824.816	71.16
825.202	71.13
825.588	71.14
825.974	71.12
826.36	71.1
826.746	71.1
827.132	71.06
827.517	71.08
827.903	71.11
828.289	71.09
828.674	71.08
829.06	71.09
829.445	71.11
829.83	71.08
830.216	71.06
830.601	71.04
830.986	71.04
831.371	71.07
831.756	71
832.141	70.97
832.526	70.93
832.911	70.94
833.295	70.94
833.68	70.93
834.065	70.95
834.449	70.93
834.834	70.9
835.218	70.86
835.603	70.83
835.987	70.83
836.371	70.84
836.755	70.84
837.139	70.8
837.524	70.75
837.908	70.71
838.291	70.64
838.675	70.64
839.059	70.66
839.443	70.65
839.827	70.61
840.21	70.6
840.594	70.57
840.977	70.55
841.361	70.54
841.744	70.54
842.127	70.53
842.511	70.54
842.894	70.5
843.277	70.5
843.66	70.52
844.043	70.54
844.426	70.54
844.809	70.54
845.191	70.5
845.574	70.49
845.957	70.46
846.339	70.46
846.722	70.44
847.104	70.47
847.487	70.46
847.869	70.42
848.252	70.42
848.634	70.42
849.016	70.45
849.398	70.46
849.78	70.46
850.162	70.5
850.544	70.5
850.926	70.52
851.307	70.51
851.689	70.46
852.071	70.51
852.452	70.51
852.834	70.48
853.215	70.45
853.597	70.45
853.978	70.43
854.359	70.38
854.741	70.38
855.122	70.38
855.503	70.4
855.884	70.39
856.265	70.32
856.646	70.29
857.026	70.28
857.407	70.26
857.788	70.27
858.169	70.31
858.549	70.34
858.93	70.34
859.31	70.32
859.69	70.27
860.071	70.32
860.451	70.34
860.831	70.34
861.211	70.37
861.591	70.37
861.971	70.36
862.351	70.36
862.731	70.34
863.111	70.32
863.491	70.34
863.87	70.34
864.25	70.34
864.629	70.31
865.009	70.31
865.388	70.26
865.768	70.3
866.147	70.32
866.526	70.3
866.905	70.3
867.284	70.3
867.663	70.28
868.042	70.29
868.421	70.27
868.8	70.29
869.179	70.28
869.558	70.3
869.936	70.27
870.315	70.23
870.693	70.23
871.072	70.24
871.45	70.22
871.828	70.24
872.207	70.24
872.585	70.22
872.963	70.17
873.341	70.2
873.719	70.18
874.097	70.16
874.475	70.17
874.853	70.16
875.23	70.18
875.608	70.18
875.986	70.13
876.363	70.12
876.741	70.12
877.118	70.09
877.495	70.08
877.873	70.08
878.25	70.08
878.627	70.09
879.004	70.1
879.381	70.09
879.758	70.1
880.135	70.1
880.512	70.11
880.889	70.13
881.265	70.21
881.642	70.18
882.019	70.17
882.395	70.22
882.772	70.19
883.148	70.18
883.524	70.19
883.901	70.18
884.277	70.22
884.653	70.24
885.029	70.23
885.405	70.19
885.781	70.18
886.157	70.19
886.532	70.14
886.908	70.17
887.284	70.17
887.659	70.17
888.035	70.17
888.411	70.09
888.786	70.05
889.161	70.06
889.537	70.07
889.912	70.05
890.287	70.01
890.662	69.99
891.037	69.89
891.412	69.84
891.787	69.78
892.162	69.7
892.536	69.7
892.911	69.65
893.286	69.58
893.66	69.53
894.035	69.53
894.409	69.51
894.784	69.48
895.158	69.49
895.532	69.47
895.906	69.45
896.281	69.49
896.655	69.46
897.029	69.46
897.402	69.44
897.776	69.44
898.15	69.41
898.524	69.4
898.898	69.37
899.271	69.38
899.645	69.39
900.018	69.36
900.392	69.34
900.765	69.38
901.138	69.4
901.511	69.42
901.884	69.45
902.258	69.45
902.631	69.48
903.003	69.54
903.376	69.53
903.749	69.54
904.122	69.59
904.495	69.59
904.867	69.51
905.24	69.5
905.612	69.48
905.985	69.41
906.357	69.37
906.729	69.3
907.102	69.29
907.474	69.3
907.846	69.24
908.218	69.19
908.59	69.2
908.962	69.26
909.334	69.26
909.705	69.23
910.077	69.26
910.449	69.31
910.82	69.33
911.192	69.28
911.563	69.27
911.935	69.26
912.306	69.27
912.677	69.3
913.048	69.26
913.419	69.25
913.79	69.27
914.161	69.26
914.532	69.19
914.903	69.17
915.274	69.14
915.645	69.12
916.015	69.15
916.386	69.13
916.756	69.05
917.127	69.05
917.497	69.01
917.868	68.97
918.238	68.99
918.608	69.04
918.978	69.02
919.348	69.06
919.718	69.1
920.088	69.08
920.458	69.13
920.828	69.16
921.198	69.18
921.567	69.18
921.937	69.22
922.306	69.15
922.676	69.13
923.045	69.14
923.415	69.09
923.784	69.07
924.153	69.04
924.522	68.97
924.891	68.96
925.26	68.91
925.629	68.89
925.998	68.89
926.367	68.91
926.736	68.86
927.104	68.84
927.473	68.87
927.842	68.82
928.21	68.83
928.578	68.79
928.947	68.74
929.315	68.75
929.683	68.78
930.051	68.75
930.42	68.7
930.788	68.73
931.156	68.72
931.523	68.63
931.891	68.49
932.259	68.41
932.627	68.35
932.994	68.3
933.362	68.24
933.729	68.08
934.097	67.95
934.464	67.88
934.831	67.72
935.199	67.63
935.566	67.61
935.933	67.75
936.3	67.69
936.667	67.59
937.034	67.49
937.401	67.36
937.767	67.34
938.134	67.29
938.501	67.26
938.867	67.32
939.234	67.34
939.6	67.35
939.967	67.14
940.333	67.28
940.699	67.43
941.065	67.52
941.431	67.69
941.798	67.8
942.163	67.87
942.529	67.87
942.895	67.96
943.261	68.01
943.627	68.14
943.992	68.17
944.358	68.13
944.723	68.13
945.089	68.26
945.454	68.31
945.82	68.27
946.185	68.39
946.55	68.55
946.915	68.55
947.28	68.55
947.645	68.42
948.01	68.47
948.375	68.52
948.74	68.46
949.104	68.41
949.469	68.25
949.834	68.22
950.198	68.11
950.562	67.98
950.927	67.96
951.291	67.99
951.655	68.04
952.02	67.99
952.384	67.98
952.748	67.98
953.112	67.95
953.476	68.02
953.839	68.04
954.203	67.95
954.567	67.92
954.931	67.83
955.294	67.72
955.658	67.67
956.021	67.72
956.385	67.63
956.748	67.71
957.111	67.71
957.474	67.71
957.837	67.74
958.2	67.74
958.563	67.7
958.926	67.73
959.289	67.81
959.652	67.74
960.015	67.67
960.377	67.68
960.74	67.56
961.102	67.54
961.465	67.5
961.827	67.37
962.189	67.35
962.552	67.38
962.914	67.32
963.276	67.22
963.638	67.21
964	67.26
964.362	67.23
964.724	67.21
965.085	67.15
965.447	67.09
965.809	67.03
966.17	67.03
966.532	67.05
966.893	67.03
967.255	67.07
967.616	67.14
967.977	67.15
968.338	67.07
968.699	67.04
969.061	67
969.421	67.02
969.782	67.11
970.143	67.11
970.504	67.03
970.865	66.98
971.225	66.94
971.586	66.96
971.946	66.85
972.307	66.93
972.667	66.98
973.027	67.02
973.388	66.99
973.748	67.03
974.108	67.01
974.468	67.04
974.828	67.1
975.188	67.08
975.548	67.04
975.907	67.07
976.267	67.03
976.627	66.99
976.986	66.95
977.346	66.97
977.705	66.94
978.064	66.92
978.424	66.83
978.783	66.76
979.142	66.77
979.501	66.73
979.86	66.78
980.219	66.72
980.578	66.65
980.937	66.69
981.296	66.73
981.654	66.74
982.013	66.76
982.371	66.72
982.73	66.78
983.088	66.68
983.447	66.69
983.805	66.59
984.163	66.63
984.521	66.67
984.879	66.72
985.237	66.68
985.595	66.65
985.953	66.65
986.311	66.8
986.669	66.68
987.026	66.74
987.384	66.62
987.741	66.69
988.099	66.67
988.456	66.66
988.814	66.51
989.171	66.51
989.528	66.37
989.885	66.36
990.242	66.31
990.599	66.35
990.956	66.34
991.313	66.44
991.67	66.37
992.027	66.33
992.383	66.39
992.74	66.4
993.096	66.35
993.453	66.39
993.809	66.29
994.165	66.33
994.522	66.25
994.878	66.15
995.234	65.98
995.59	65.85
995.946	65.84
996.302	65.68
996.658	65.62
997.013	65.63
997.369	65.67
997.725	65.84
998.08	65.85
998.436	65.98
998.791	66.1
999.147	66.28
999.502	66.36
999.857	66.39
1000.212	66.46
1000.567	66.49
1000.922	66.39
1001.277	66.4
1001.632	66.39
1001.987	66.3
1002.342	66.25
1002.696	66.2
1003.051	66.03
1003.406	65.77
1003.76	65.75
1004.114	65.73
1004.469	65.64
1004.823	65.64
1005.177	65.57
1005.531	65.33
1005.885	65.31
1006.239	65.26
1006.593	65.23
1006.947	65.18
1007.301	65.35
1007.655	65.38
1008.008	65.18
1008.362	65.12
1008.715	65.08
1009.069	64.89
1009.422	64.97
1009.776	64.73
1010.129	64.63
1010.482	64.54
1010.835	64.67
1011.188	64.81
1011.541	64.6
1011.894	64.77
1012.247	64.71
1012.6	64.81
1012.952	64.88
1013.305	64.72
1013.657	65.1
1014.01	65.2
1014.362	65.33
1014.715	65.16
1015.067	65.04
1015.419	65.27
1015.771	65.36
1016.123	65.33
1016.475	65.42
1016.827	65.62
1017.179	65.67
1017.531	65.29
1017.883	65.35
1018.234	65.09
1018.586	64.8
1018.938	64.49
1019.289	64.36
1019.64	64.29
1019.992	64.59
1020.343	64.34
1020.694	63.86
1021.045	63.69
1021.396	63.79
1021.747	63.45
1022.098	63.55
1022.449	63.79
1022.8	63.78
1023.151	63.84
1023.501	63.7
1023.852	63.82
1024.202	63.55
1024.553	63.43
1024.903	63.44
1025.253	63.35
1025.604	63.23
1025.954	62.81
1026.304	63.06
1026.654	63.35
1027.004	62.94
1027.354	62.67
1027.703	62.23
1028.053	62.26
1028.403	62.42
1028.753	62.4
1029.102	62.24
1029.452	62.42
1029.801	62.74
1030.15	62.4
1030.499	62.12
897.758	599.11
901.051	609.85
904.343	614.43
907.636	605.07
910.928	593.4
914.22	603.34
917.511	594.98
920.803	570.25
924.094	545.67
927.384	549.67
930.675	536.03
933.965	527.24
937.255	528.22
940.544	505.6
943.834	486.61
947.123	479.96
950.411	455.47
953.7	445.27
956.988	432.92
960.276	418.71
963.563	411.92
966.851	390.6
970.138	384.52
973.424	358.18
976.711	353.87
979.997	339.96
983.283	332.92
986.568	321.65
989.853	314.29
993.138	304.28
996.423	298.47
999.708	290.93
1002.992	291.12
1006.275	281.86
1009.559	279.57
1012.842	272.4
1016.125	265.34
1019.408	261.82
1022.69	259.89
1025.972	258.1
1029.254	251.77
1032.536	247.2
1035.817	239.7
1039.098	236.68
1042.379	234.22
1045.659	230.53
1048.939	228.18
1052.219	225.72
1055.498	221.38
1058.778	218.25
1062.057	214.49
1065.335	213.68
1068.614	210.5
1071.892	208.92
1075.17	203.63
1078.447	200.87
1081.724	200.32
1085.001	195.68
1088.278	195.02
1091.554	194.58
1094.83	192.78
1098.106	189.97
1101.382	188.45
1104.657	187.46
1107.932	186.32
1111.206	185.68
1114.481	184.78
1117.755	183.44
1121.029	183.58
1124.302	181.01
1127.575	177.93
1130.848	177.93
1134.121	175.98
1137.393	175.5
1140.665	175.01
1143.937	173.37
1147.208	171.9
1150.48	169.14
1153.75	168.32
1157.021	166.51
1160.291	165.77
1163.561	165.44
1166.831	164.93
1170.101	164.31
1173.37	163.45
1176.639	161.58
1179.907	161.68
1183.176	161.2
1186.444	161.74
1189.711	160.21
1192.979	161.93
1196.246	161.9
1199.513	161.88
1202.78	161.37
1206.046	161.01
1209.312	162.35
1212.578	164.12
1215.843	166.4
1219.108	167.46
1222.373	169.27
1225.638	172.27
1228.902	175.37
1232.166	180.26
1235.43	181.86
1238.693	185.92
1241.956	190.8
1245.219	194.88
1248.482	193.99
1251.744	193.21
1255.006	194.26
1258.268	190.24
1261.529	188.66
1264.79	184.94
1268.051	181.99
1271.312	181
1274.572	178.3
1277.832	173.74
1281.092	171.27
1284.351	169.14
1287.61	168.8
1290.869	168.49
1294.128	168.47
1297.386	167.33
1300.644	166.4
1303.902	165.01
1307.159	163.14
1310.416	164.14
1313.673	166.54
1316.93	167.32
1320.186	169.91
1323.442	171.48
1326.697	172.8
1329.953	175.2
1333.208	180.62
1336.463	186.98
1339.717	190.45
1342.972	199.48
1346.226	204.66
1349.479	205.81
1352.733	214.51
1355.986	217.33
1359.238	222.03
1362.491	224.8
1365.743	231.25
1368.995	232.61
1372.247	233.66
1375.498	232.95
1378.749	240.48
1382	239.17
1385.251	238.35
1388.501	236.42
1391.751	240.46
1395	238.75
1398.25	240.29
1401.499	238.29
1404.748	236.88
1407.996	230.61
1411.244	230.34
1414.492	225.74
1417.74	219.59
1420.987	214.59
1424.234	212.25
1427.481	204.33
1430.728	199.29
1433.974	192.78
1437.22	186.98
1440.465	181.49
1443.711	176.64
1446.956	171.79
1450.201	165.32
1453.445	158.99
1456.689	154.96
1459.933	150.13
1463.177	144.14
1466.42	142.19
1469.663	138.36
1472.906	134.85
1476.148	131.56
1479.391	129.21
1482.633	127.05
1485.874	126.01
1489.115	124.67
1492.356	122.4
1495.597	120.75
1498.838	121.49
1502.078	119.89
1505.318	119.68
1508.557	119.56
1511.797	118.4
1515.036	117.42
1518.274	117.56
1521.513	115.45
1524.751	115.23
1527.989	116.91
1531.227	116.48
1534.464	115.59
1537.701	115.42
1540.938	114.85
1544.174	114.67
1547.41	115.07
1550.646	115.3
1553.882	115.2
1557.117	115.58
1560.352	115.4
1563.587	114.35
1566.821	114.4
1570.055	113.6
1573.289	113.37
1576.523	113.6
1579.756	113.14
1582.989	113.1
1586.222	113.39
1589.454	112.79
1592.686	112.97
1595.918	112.44
1599.15	112.29
1602.381	112.31
1605.612	112.77
1608.843	112.38
1612.073	112.67
1615.303	112.81
1618.533	112.96
1621.762	112.45
1624.992	112.67
1628.221	112.25
1631.449	113.29
1634.678	112.97
1637.906	113.19
1641.134	113.4
1644.361	113.39
1647.588	113.81
1650.815	113.97
1654.042	113.6
1657.269	113.48
1660.495	114
1663.72	113.78
1666.946	113.87
1670.171	114.66
1673.396	115.02
1676.621	115.04
1679.845	115.47
1683.069	114.74
1686.293	114.63
1689.517	115.34
1692.74	115.74
1695.963	115.64
1699.185	116.72
1702.408	116.22
1705.63	116.02
1708.852	116.47
1712.073	116.45
1715.294	116.44
1718.515	116.98
1721.736	117.18
1724.956	117.51
1728.176	117.21
1731.396	117.85
1734.616	117.84
1737.835	118.03
1741.054	118.04
1744.272	117.66
1747.491	117.47
1750.709	118.44
1753.927	118.61
1757.144	118.74
1760.361	118.18
1763.578	119.49
1766.795	119.25
1770.011	118.97
1773.227	119.56
1776.443	120.5
1779.658	120.31
1782.874	121.56
1786.089	120.88
1789.303	121.07
1792.518	121.64
1795.732	122.72
1798.945	122.82
1802.159	123.24
1805.372	125.06
1808.585	125.95
1811.797	126.52
1815.01	127.42
1818.222	127.64
1821.434	129.21
1824.645	129.84
1827.856	131.75
1831.067	131.97
1834.278	133.24
1837.488	134.41
1840.698	135.08
1843.908	134.97
1847.117	136.91
1850.326	138.03
1853.535	138.8
1856.744	139.41
1859.952	140.79
1863.16	140.53
1866.368	139.56
1869.575	140.14
1872.782	138.59
1875.989	137.24
1879.196	136.88
1882.402	134.12
1885.608	134.15
1888.814	133.12
1892.019	133.91
1895.224	131.24
1898.429	130.19
1901.634	130.46
1904.838	130.13
1908.042	130.7
1911.246	129.53
1914.449	129.33
1917.652	128.77
1920.855	128.89
1924.058	128.42
1927.26	126.35
1930.462	127.26
1933.664	128.01
1936.865	128.4
1940.066	126.31
1943.267	124.79
1946.467	126.7
1949.668	126.59
1952.868	128.06
1956.067	128.01
1959.267	127.37
1962.466	128.2
1965.665	130.25
1968.863	128.95
1972.061	131.22
1975.259	133.7
1978.457	136.87
1981.654	137.06
1984.852	138.82
1988.048	140.04
1991.245	142.22
1994.441	146.34
1997.637	149.27
2000.833	150.97
2004.028	154.7
2007.223	157.64
2010.418	160.92
2013.613	166.15
2016.807	170.94
2020.001	173.55
2023.194	176.65
2026.388	182.63
2029.581	192.51
2032.774	198.7
2035.966	204.93
2039.158	210.43
2042.35	213.24
2045.542	217.42
2048.733	227.04
2051.924	227.96
2055.115	233.17
2058.306	237.82
2061.496	242.36
2064.686	241.5
2067.875	238.73
2071.065	242.19
2074.254	242.78
2077.442	250.24
2080.631	252.17
2083.819	252.04
2087.007	258.11
2090.195	260.82
2093.382	260.32
2096.569	259.92
2099.756	262.71
2102.942	268.47
2106.128	274.24
2109.314	275.96
2112.5	275.29
2115.685	275.6
2118.87	276.07
2122.055	276.96
2125.239	282.49
2128.424	290.55
2131.608	288.92
2134.791	290.29
2137.974	290.69
2141.157	291.35
2144.34	294.35
2147.523	298.41
2150.705	304.5
2153.887	301.6
2157.068	305.47
2160.25	310.45
2163.431	308.7
2166.611	312.94
2169.792	318.74
2172.972	322.78
2176.152	323.5
2179.331	331.3
2182.511	332.64
2185.69	335.41
2188.868	348.01
2192.047	357.79
2195.225	358.98
2198.403	366.46
2201.58	363.25
2204.758	374.7
2207.935	377.66
2211.111	383.83
2214.288	384.42
2217.464	389.39
2220.64	391.37
2223.815	394.76
2226.991	388.68
2230.166	392.1
2233.34	401.61
2236.515	412.6
2239.689	406.07
2242.863	414.77
2246.036	412.44
2249.209	422.2
2252.382	418.76
2255.555	436.48
2258.727	435.84
2261.9	449.95
2265.071	458.1
2268.243	450.62
2271.414	464.59
2274.585	476.28
2277.756	473.29
2280.926	492.16
2284.096	489.67
2287.266	495.68
2290.436	484.8
2293.605	497.69
2296.774	513.18
2299.942	514.59
2303.111	530.7
2306.279	541.15
2309.447	543.18
2312.614	543.46
2315.781	555.51
2318.948	566.61
2322.115	575.85
2325.281	608.17
2328.447	598.33
2331.613	601.07
2334.779	604.03
2337.944	617.76
2341.109	626.48
2344.274	632.26
2347.438	649.23
2350.602	655.2
2353.766	700.2
2356.929	702.81
2360.092	707.77
2363.255	717.65
2366.418	725.22
2369.58	741.32
2372.742	743.61
2375.904	739.5
2379.066	758.45
2382.227	805.46
2385.388	811.79
2388.548	762.53
2391.709	756.67
2394.869	780.13
2398.029	777.55
2401.188	775.51
2404.347	800.61
2407.506	819.35
2410.665	792.98
2413.823	794.55
2416.981	794.2
2420.139	752.93
2423.296	813.6
2426.453	866.55
2429.61	828.07
2432.767	885.81
2435.923	916.73
2439.079	884.06
2442.235	908.26
2445.391	923.96
2448.546	913.36
2451.701	967.19
2454.855	1030.01
2458.009	914.33
2461.163	926.14
2464.317	940.14
2467.471	919.99
2470.624	952.55
2473.777	933.18
2476.929	899.07
2480.082	968.58
2483.234	1020.55
2486.385	1034.66
2489.537	1062.67
2492.688	1168.52
2495.839	1141.68
2498.989	1167.09
2502.14	1172.56
2505.29	1125.71
2508.439	1247.87
2511.589	1280.7
2514.738	1240.06
2517.887	1218
2521.035	1147.49
2524.183	1133.2
2527.331	1118.14
2530.479	1101.71
2533.627	1126.97
