Data from N_3_div_il_4n_Splice17_12.txt Node
Date: Sat Feb 29 14:59:49 EST 2020
User: sa697716
Spectrometer: FLMS03696
Trigger mode: 0
Integration Time (sec): 3.180400E-1
Scans to average: 20
Electric dark correction enabled: true
Nonlinearity correction enabled: true
Boxcar width: 5
XAxis mode: Wavelengths
Number of Pixels in Spectrum: 2048
>>>>>Begin Spectral Data<<<<<
187.83	48.34
188.298	39.58
188.766	48.57
189.233	26.25
189.701	32.76
190.169	45.45
190.636	50.4
191.104	65.5
191.571	395.52
192.039	336.57
192.506	-293.01
192.974	896.66
193.441	123.54
193.908	91.66
194.375	-23.94
194.842	-3.74
195.31	51.01
195.777	60.44
196.244	53.24
196.711	59.63
197.177	57.85
197.644	56.03
198.111	56.61
198.578	56.45
199.045	56.88
199.511	57.28
199.978	58.15
200.445	58.11
200.911	58.22
201.378	58.56
201.844	58.94
202.31	59.17
202.777	59.36
203.243	59.33
203.709	59.68
204.176	59.17
204.642	58.8
205.108	57.92
205.574	58.08
206.04	57.9
206.506	57.46
206.972	57
207.438	56.24
207.903	55.81
208.369	54.46
208.835	53.58
209.301	52.75
209.766	51.6
210.232	51.13
210.697	50.03
211.163	48.94
211.628	47.68
212.094	46.71
212.559	45.83
213.024	44.45
213.49	43.49
213.955	42.4
214.42	41.25
214.885	40.08
215.35	37.95
215.815	35.42
216.28	32.94
216.745	30.36
217.21	27.46
217.675	24.92
218.14	22.55
218.604	20.36
219.069	18.48
219.534	16.9
219.998	15.5
220.463	14.47
220.927	13.6
221.392	12.83
221.856	12.18
222.32	11.63
222.785	11.08
223.249	10.72
223.713	10.39
224.177	9.99
224.642	9.69
225.106	9.4
225.57	9.1
226.034	8.83
226.497	8.55
226.961	8.31
227.425	8.09
227.889	7.91
228.353	7.7
228.816	7.5
229.28	7.32
229.744	7.15
230.207	7.02
230.671	6.88
231.134	6.74
231.597	6.6
232.061	6.46
232.524	6.35
232.987	6.23
233.45	6.1
233.914	6.01
234.377	5.93
234.84	5.85
235.303	5.76
235.766	5.68
236.229	5.6
236.691	5.55
237.154	5.49
237.617	5.41
238.08	5.35
238.542	5.28
239.005	5.22
239.468	5.15
239.93	5.09
240.393	5.05
240.855	4.99
241.317	4.95
241.78	4.89
242.242	4.83
242.704	4.78
243.166	4.74
243.629	4.69
244.091	4.65
244.553	4.61
245.015	4.56
245.477	4.49
245.939	4.44
246.4	4.38
246.862	4.36
247.324	4.33
247.786	4.29
248.247	4.24
248.709	4.2
249.17	4.17
249.632	4.12
250.093	4.06
250.555	4.03
251.016	4.01
251.477	3.97
251.939	3.92
252.4	3.88
252.861	3.84
253.322	3.81
253.783	3.78
254.244	3.74
254.705	3.71
255.166	3.71
255.627	3.68
256.088	3.65
256.549	3.62
257.009	3.59
257.47	3.56
257.931	3.53
258.391	3.49
258.852	3.46
259.312	3.43
259.773	3.39
260.233	3.34
260.694	3.3
261.154	3.27
261.614	3.23
262.074	3.21
262.534	3.17
262.994	3.14
263.455	3.12
263.915	3.09
264.374	3.06
264.834	3.04
265.294	3.02
265.754	2.99
266.214	2.97
266.673	2.96
267.133	2.94
267.593	2.92
268.052	2.91
268.512	2.89
268.971	2.87
269.431	2.85
269.89	2.84
270.349	2.83
270.809	2.82
271.268	2.81
271.727	2.79
272.186	2.78
272.645	2.77
273.104	2.75
273.563	2.74
274.022	2.74
274.481	2.73
274.94	2.71
275.399	2.71
275.857	2.7
276.316	2.68
276.775	2.67
277.233	2.66
277.692	2.65
278.15	2.65
278.609	2.63
279.067	2.62
279.525	2.61
279.984	2.61
280.442	2.6
280.9	2.6
281.358	2.6
281.816	2.59
282.274	2.58
282.732	2.59
283.19	2.58
283.648	2.59
284.106	2.58
284.564	2.58
285.021	2.58
285.479	2.58
285.937	2.57
286.394	2.56
286.852	2.56
287.309	2.55
287.767	2.55
288.224	2.54
288.682	2.52
289.139	2.52
289.596	2.5
290.053	2.48
290.511	2.46
290.968	2.45
291.425	2.44
291.882	2.42
292.339	2.41
292.796	2.39
293.252	2.37
293.709	2.36
294.166	2.35
294.623	2.34
295.079	2.34
295.536	2.33
295.992	2.32
296.449	2.31
296.905	2.3
297.362	2.28
297.818	2.28
298.274	2.27
298.731	2.26
299.187	2.26
299.643	2.25
300.099	2.24
300.555	2.23
301.011	2.22
301.467	2.22
301.923	2.21
302.379	2.22
302.835	2.21
303.291	2.2
303.746	2.2
304.202	2.19
304.658	2.19
305.113	2.19
305.569	2.19
306.024	2.19
306.479	2.19
306.935	2.19
307.39	2.19
307.845	2.19
308.301	2.2
308.756	2.2
309.211	2.2
309.666	2.21
310.121	2.21
310.576	2.2
311.031	2.21
311.486	2.21
311.94	2.21
312.395	2.22
312.85	2.21
313.305	2.21
313.759	2.22
314.214	2.22
314.668	2.22
315.123	2.22
315.577	2.22
316.032	2.21
316.486	2.2
316.94	2.19
317.394	2.18
317.849	2.17
318.303	2.17
318.757	2.16
319.211	2.15
319.665	2.14
320.119	2.13
320.572	2.13
321.026	2.12
321.48	2.12
321.934	2.12
322.387	2.13
322.841	2.13
323.295	2.12
323.748	2.11
324.202	2.12
324.655	2.11
325.108	2.11
325.562	2.11
326.015	2.11
326.468	2.1
326.921	2.09
327.374	2.09
327.827	2.09
328.28	2.08
328.733	2.08
329.186	2.07
329.639	2.06
330.092	2.06
330.545	2.05
330.997	2.05
331.45	2.05
331.903	2.04
332.355	2.04
332.808	2.04
333.26	2.04
333.713	2.05
334.165	2.05
334.617	2.07
335.069	2.07
335.522	2.08
335.974	2.08
336.426	2.09
336.878	2.09
337.33	2.09
337.782	2.1
338.234	2.1
338.686	2.09
339.137	2.1
339.589	2.09
340.041	2.09
340.493	2.09
340.944	2.08
341.396	2.07
341.847	2.06
342.299	2.04
342.75	2.03
343.201	2.02
343.653	2.02
344.104	2
344.555	1.99
345.006	1.98
345.457	1.97
345.908	1.97
346.359	1.97
346.81	1.97
347.261	1.97
347.712	1.96
348.163	1.96
348.613	1.95
349.064	1.94
349.515	1.93
349.965	1.93
350.416	1.92
350.866	1.92
351.317	1.91
351.767	1.91
352.217	1.91
352.668	1.92
353.118	1.93
353.568	1.94
354.018	1.95
354.468	1.94
354.918	1.96
355.368	1.97
355.818	1.97
356.268	1.98
356.718	1.99
357.168	1.99
357.617	2
358.067	2
358.517	2
358.966	2.01
359.416	2.04
359.865	2.04
360.315	2.05
360.764	2.07
361.213	2.06
361.663	2.07
362.112	2.09
362.561	2.1
363.01	2.12
363.459	2.14
363.908	2.16
364.357	2.17
364.806	2.18
365.255	2.21
365.703	2.22
366.152	2.25
366.601	2.27
367.05	2.29
367.498	2.32
367.947	2.33
368.395	2.36
368.844	2.37
369.292	2.4
369.74	2.43
370.189	2.45
370.637	2.49
371.085	2.51
371.533	2.53
371.981	2.56
372.429	2.57
372.877	2.61
373.325	2.62
373.773	2.65
374.221	2.67
374.669	2.7
375.116	2.72
375.564	2.74
376.012	2.77
376.459	2.8
376.907	2.83
377.354	2.86
377.801	2.88
378.249	2.93
378.696	2.97
379.143	3
379.591	3.02
380.038	3.05
380.485	3.08
380.932	3.11
381.379	3.13
381.826	3.16
382.273	3.19
382.72	3.21
383.166	3.23
383.613	3.24
384.06	3.27
384.506	3.29
384.953	3.31
385.4	3.33
385.846	3.35
386.292	3.38
386.739	3.39
387.185	3.42
387.631	3.44
388.078	3.46
388.524	3.47
388.97	3.5
389.416	3.5
389.862	3.52
390.308	3.53
390.754	3.54
391.2	3.56
391.645	3.58
392.091	3.59
392.537	3.6
392.983	3.62
393.428	3.64
393.874	3.64
394.319	3.65
394.765	3.66
395.21	3.66
395.655	3.67
396.101	3.67
396.546	3.68
396.991	3.68
397.436	3.66
397.881	3.67
398.326	3.68
398.771	3.69
399.216	3.71
399.661	3.73
400.106	3.76
400.551	3.76
400.995	3.76
401.44	3.75
401.885	3.75
402.329	3.76
402.774	3.75
403.218	3.75
403.663	3.73
404.107	3.73
404.551	3.71
404.995	3.7
405.44	3.68
405.884	3.68
406.328	3.67
406.772	3.68
407.216	3.69
407.66	3.69
408.104	3.69
408.547	3.7
408.991	3.69
409.435	3.69
409.879	3.69
410.322	3.71
410.766	3.71
411.209	3.71
411.653	3.7
412.096	3.68
412.54	3.68
412.983	3.68
413.426	3.7
413.869	3.71
414.312	3.72
414.756	3.72
415.199	3.71
415.642	3.75
416.085	3.77
416.527	3.79
416.97	3.8
417.413	3.8
417.856	3.78
418.298	3.76
418.741	3.75
419.184	3.75
419.626	3.74
420.069	3.74
420.511	3.72
420.953	3.71
421.396	3.72
421.838	3.74
422.28	3.75
422.722	3.77
423.164	3.78
423.606	3.8
424.048	3.79
424.49	3.8
424.932	3.79
425.374	3.78
425.816	3.77
426.258	3.73
426.699	3.7
427.141	3.68
427.582	3.67
428.024	3.67
428.465	3.67
428.907	3.67
429.348	3.67
429.789	3.68
430.231	3.68
430.672	3.69
431.113	3.71
431.554	3.72
431.995	3.72
432.436	3.72
432.877	3.71
433.318	3.71
433.759	3.72
434.2	3.72
434.64	3.73
435.081	3.73
435.522	3.75
435.962	3.76
436.403	3.78
436.843	3.8
437.284	3.81
437.724	3.83
438.164	3.84
438.604	3.86
439.045	3.86
439.485	3.87
439.925	3.87
440.365	3.86
440.805	3.85
441.245	3.83
441.685	3.84
442.125	3.85
442.564	3.87
443.004	3.86
443.444	3.86
443.883	3.87
444.323	3.88
444.762	3.92
445.202	3.94
445.641	3.98
446.081	4.02
446.52	4.01
446.959	4.01
447.398	4.02
447.837	4.06
448.276	4.06
448.716	4.08
449.154	4.09
449.593	4.07
450.032	4.07
450.471	4.06
450.91	4.05
451.349	4.06
451.787	4.06
452.226	4.04
452.664	4.02
453.103	4.02
453.541	4.01
453.98	3.98
454.418	3.98
454.856	3.94
455.295	3.92
455.733	3.91
456.171	3.9
456.609	3.89
457.047	3.88
457.485	3.86
457.923	3.84
458.361	3.83
458.798	3.84
459.236	3.83
459.674	3.83
460.111	3.85
460.549	3.84
460.987	3.84
461.424	3.85
461.862	3.84
462.299	3.85
462.736	3.86
463.173	3.85
463.611	3.84
464.048	3.84
464.485	3.84
464.922	3.81
465.359	3.83
465.796	3.81
466.233	3.81
466.67	3.82
467.106	3.79
467.543	3.78
467.98	3.79
468.416	3.79
468.853	3.78
469.29	3.79
469.726	3.8
470.162	3.78
470.599	3.79
471.035	3.79
471.471	3.78
471.907	3.79
472.344	3.79
472.78	3.79
473.216	3.79
473.652	3.8
474.088	3.81
474.523	3.79
474.959	3.8
475.395	3.79
475.831	3.78
476.266	3.77
476.702	3.76
477.138	3.75
477.573	3.74
478.008	3.73
478.444	3.71
478.879	3.69
479.314	3.69
479.75	3.68
480.185	3.67
480.62	3.67
481.055	3.67
481.49	3.66
481.925	3.64
482.36	3.63
482.795	3.62
483.229	3.62
483.664	3.61
484.099	3.6
484.534	3.59
484.968	3.59
485.403	3.58
485.837	3.57
486.271	3.56
486.706	3.56
487.14	3.58
487.574	3.57
488.009	3.57
488.443	3.59
488.877	3.6
489.311	3.61
489.745	3.62
490.179	3.63
490.613	3.64
491.046	3.66
491.48	3.68
491.914	3.69
492.348	3.71
492.781	3.74
493.215	3.75
493.648	3.79
494.082	3.81
494.515	3.84
494.948	3.86
495.382	3.9
495.815	3.94
496.248	3.98
496.681	4.01
497.114	4.04
497.547	4.07
497.98	4.12
498.413	4.14
498.846	4.19
499.279	4.24
499.711	4.29
500.144	4.34
500.577	4.39
501.009	4.45
501.442	4.5
501.874	4.57
502.306	4.64
502.739	4.71
503.171	4.79
503.603	4.87
504.036	4.96
504.468	5.05
504.9	5.15
505.332	5.26
505.764	5.38
506.196	5.49
506.627	5.61
507.059	5.72
507.491	5.84
507.923	5.96
508.354	6.08
508.786	6.2
509.217	6.32
509.649	6.46
510.08	6.59
510.512	6.71
510.943	6.86
511.374	7
511.805	7.16
512.237	7.3
512.668	7.46
513.099	7.64
513.53	7.82
513.961	8
514.391	8.17
514.822	8.33
515.253	8.52
515.684	8.69
516.114	8.88
516.545	9.05
516.975	9.24
517.406	9.42
517.836	9.6
518.267	9.78
518.697	9.97
519.127	10.17
519.558	10.37
519.988	10.55
520.418	10.73
520.848	10.9
521.278	11.1
521.708	11.27
522.138	11.44
522.567	11.6
522.997	11.76
523.427	11.92
523.857	12.07
524.286	12.22
524.716	12.37
525.145	12.54
525.575	12.69
526.004	12.82
526.433	12.97
526.863	13.11
527.292	13.25
527.721	13.39
528.15	13.5
528.579	13.61
529.008	13.72
529.437	13.82
529.866	13.9
530.295	13.99
530.724	14.11
531.152	14.19
531.581	14.26
532.01	14.35
532.438	14.41
532.867	14.47
533.295	14.54
533.723	14.59
534.152	14.67
534.58	14.72
535.008	14.75
535.436	14.78
535.865	14.8
536.293	14.84
536.721	14.87
537.149	14.89
537.576	14.92
538.004	14.96
538.432	14.98
538.86	15.01
539.287	15.04
539.715	15.07
540.143	15.08
540.57	15.11
540.998	15.16
541.425	15.17
541.852	15.19
542.28	15.21
542.707	15.22
543.134	15.24
543.561	15.24
543.988	15.25
544.415	15.27
544.842	15.3
545.269	15.33
545.696	15.35
546.123	15.38
546.549	15.41
546.976	15.45
547.403	15.47
547.829	15.49
548.256	15.52
548.682	15.55
549.108	15.57
549.535	15.59
549.961	15.58
550.387	15.57
550.813	15.56
551.24	15.56
551.666	15.56
552.092	15.55
552.518	15.55
552.943	15.55
553.369	15.52
553.795	15.5
554.221	15.48
554.646	15.44
555.072	15.43
555.498	15.41
555.923	15.4
556.349	15.34
556.774	15.29
557.199	15.26
557.625	15.2
558.05	15.14
558.475	15.09
558.9	15.04
559.325	15
559.75	14.93
560.175	14.86
560.6	14.78
561.025	14.72
561.449	14.66
561.874	14.58
562.299	14.5
562.723	14.42
563.148	14.35
563.572	14.26
563.997	14.18
564.421	14.08
564.846	13.99
565.27	13.87
565.694	13.77
566.118	13.67
566.542	13.57
566.966	13.47
567.39	13.37
567.814	13.24
568.238	13.1
568.662	12.99
569.086	12.88
569.509	12.78
569.933	12.66
570.357	12.55
570.78	12.43
571.204	12.32
571.627	12.22
572.05	12.12
572.474	12.03
572.897	11.94
573.32	11.84
573.743	11.75
574.166	11.65
574.589	11.57
575.012	11.49
575.435	11.4
575.858	11.31
576.281	11.24
576.704	11.18
577.126	11.12
577.549	11.05
577.972	10.98
578.394	10.91
578.817	10.84
579.239	10.78
579.661	10.74
580.084	10.69
580.506	10.65
580.928	10.59
581.35	10.53
581.772	10.48
582.194	10.44
582.616	10.41
583.038	10.37
583.46	10.34
583.882	10.3
584.303	10.25
584.725	10.22
585.147	10.17
585.568	10.11
585.99	10.08
586.411	10.03
586.833	10
587.254	9.97
587.675	9.94
588.096	9.92
588.518	9.88
588.939	9.85
589.36	9.81
589.781	9.81
590.202	9.78
590.623	9.75
591.043	9.72
591.464	9.68
591.885	9.65
592.305	9.62
592.726	9.58
593.147	9.57
593.567	9.54
593.987	9.52
594.408	9.48
594.828	9.46
595.248	9.45
595.669	9.43
596.089	9.4
596.509	9.37
596.929	9.33
597.349	9.3
597.769	9.27
598.189	9.25
598.608	9.22
599.028	9.2
599.448	9.17
599.867	9.14
600.287	9.1
600.706	9.08
601.126	9.06
601.545	9.03
601.965	9
602.384	8.97
602.803	8.93
603.222	8.9
603.641	8.86
604.061	8.82
604.48	8.78
604.898	8.72
605.317	8.68
605.736	8.63
606.155	8.58
606.574	8.53
606.992	8.48
607.411	8.44
607.829	8.34
608.248	8.29
608.666	8.23
609.085	8.17
609.503	8.12
609.921	8.07
610.339	8.03
610.758	7.99
611.176	7.94
611.594	7.89
612.012	7.82
612.43	7.83
612.847	7.78
613.265	7.73
613.683	7.7
614.101	7.67
614.518	7.62
614.936	7.56
615.353	7.52
615.771	7.48
616.188	7.45
616.606	7.41
617.023	7.38
617.44	7.34
617.857	7.31
618.274	7.27
618.691	7.25
619.108	7.22
619.525	7.2
619.942	7.18
620.359	7.17
620.776	7.14
621.192	7.13
621.609	7.1
622.026	7.08
622.442	7.06
622.859	7.05
623.275	7.04
623.691	7.03
624.108	7.01
624.524	6.99
624.94	6.97
625.356	6.96
625.772	6.95
626.188	6.96
626.604	6.94
627.02	6.93
627.436	6.93
627.852	6.9
628.268	6.9
628.683	6.9
629.099	6.91
629.514	6.9
629.93	6.89
630.345	6.87
630.761	6.84
631.176	6.84
631.591	6.82
632.007	6.78
632.422	6.77
632.837	6.74
633.252	6.71
633.667	6.66
634.082	6.63
634.497	6.57
634.911	6.53
635.326	6.48
635.741	6.43
636.155	6.38
636.57	6.35
636.984	6.28
637.399	6.22
637.813	6.15
638.228	6.09
638.642	6.03
639.056	5.97
639.47	5.92
639.884	5.84
640.298	5.77
640.712	5.71
641.126	5.62
641.54	5.55
641.954	5.51
642.368	5.46
642.781	5.4
643.195	5.33
643.609	5.28
644.022	5.22
644.436	5.17
644.849	5.13
645.262	5.09
645.676	5.05
646.089	5
646.502	4.95
646.915	4.91
647.328	4.87
647.741	4.84
648.154	4.81
648.567	4.78
648.98	4.76
649.393	4.73
649.805	4.68
650.218	4.66
650.631	4.64
651.043	4.62
651.456	4.6
651.868	4.57
652.28	4.55
652.693	4.52
653.105	4.49
653.517	4.46
653.929	4.45
654.341	4.43
654.753	4.4
655.165	4.36
655.577	4.32
655.989	4.27
656.401	4.23
656.813	4.18
657.224	4.14
657.636	4.1
658.047	4.06
658.459	4
658.87	3.95
659.282	3.92
659.693	3.89
660.104	3.84
660.515	3.8
660.926	3.77
661.338	3.75
661.749	3.71
662.159	3.67
662.57	3.65
662.981	3.61
663.392	3.58
663.803	3.54
664.213	3.51
664.624	3.51
665.035	3.49
665.445	3.48
665.855	3.46
666.266	3.45
666.676	3.43
667.086	3.41
667.497	3.39
667.907	3.38
668.317	3.37
668.727	3.36
669.137	3.35
669.547	3.35
669.956	3.34
670.366	3.35
670.776	3.35
671.186	3.36
671.595	3.36
672.005	3.38
672.414	3.39
672.824	3.4
673.233	3.42
673.642	3.43
674.052	3.43
674.461	3.44
674.87	3.45
675.279	3.47
675.688	3.49
676.097	3.52
676.506	3.53
676.915	3.56
677.323	3.6
677.732	3.61
678.141	3.65
678.549	3.69
678.958	3.72
679.366	3.74
679.775	3.77
680.183	3.81
680.592	3.84
681	3.88
681.408	3.92
681.816	3.96
682.224	4.03
682.632	4.09
683.04	4.14
683.448	4.21
683.856	4.31
684.264	4.4
684.671	4.51
685.079	4.63
685.487	4.75
685.894	4.89
686.302	5.04
686.709	5.19
687.116	5.35
687.524	5.54
687.931	5.74
688.338	5.95
688.745	6.18
689.152	6.41
689.559	6.67
689.966	6.94
690.373	7.24
690.78	7.53
691.187	7.84
691.593	8.17
692	8.5
692.407	8.84
692.813	9.2
693.22	9.57
693.626	9.95
694.032	10.33
694.439	10.73
694.845	11.11
695.251	11.49
695.657	11.88
696.063	12.25
696.469	12.65
696.875	13.04
697.281	13.4
697.687	13.8
698.093	14.18
698.498	14.55
698.904	14.92
699.31	15.28
699.715	15.66
700.12	16.03
700.526	16.4
700.931	16.73
701.337	17.1
701.742	17.45
702.147	17.79
702.552	18.13
702.957	18.47
703.362	18.81
703.767	19.14
704.172	19.46
704.577	19.78
704.981	20.12
705.386	20.44
705.791	20.77
706.195	21.09
706.6	21.4
707.004	21.7
707.408	22
707.813	22.26
708.217	22.55
708.621	22.83
709.025	23.1
709.43	23.35
709.834	23.62
710.237	23.85
710.641	24.1
711.045	24.34
711.449	24.58
711.853	24.81
712.256	25.08
712.66	25.33
713.064	25.55
713.467	25.78
713.87	26.03
714.274	26.28
714.677	26.5
715.08	26.71
715.484	26.92
715.887	27.13
716.29	27.36
716.693	27.54
717.096	27.74
717.499	27.94
717.901	28.14
718.304	28.35
718.707	28.53
719.109	28.74
719.512	28.96
719.915	29.15
720.317	29.34
720.719	29.49
721.122	29.67
721.524	29.84
721.926	30.01
722.328	30.16
722.731	30.32
723.133	30.46
723.535	30.61
723.937	30.74
724.338	30.86
724.74	30.99
725.142	31.07
725.544	31.21
725.945	31.32
726.347	31.41
726.748	31.5
727.15	31.57
727.551	31.66
727.952	31.74
728.354	31.85
728.755	31.95
729.156	32.08
729.557	32.22
729.958	32.3
730.359	32.41
730.76	32.49
731.161	32.58
731.562	32.71
731.962	32.8
732.363	32.87
732.763	32.96
733.164	33.02
733.564	33.04
733.965	33.09
734.365	33.14
734.766	33.16
735.166	33.2
735.566	33.24
735.966	33.26
736.366	33.27
736.766	33.32
737.166	33.35
737.566	33.37
737.966	33.43
738.365	33.48
738.765	33.5
739.165	33.56
739.564	33.6
739.964	33.65
740.363	33.7
740.763	33.76
741.162	33.78
741.561	33.8
741.96	33.85
742.36	33.87
742.759	33.87
743.158	33.89
743.557	33.92
743.955	33.97
744.354	34.01
744.753	34.03
745.152	34.03
745.55	34.06
745.949	34.09
746.348	34.13
746.746	34.15
747.144	34.2
747.543	34.28
747.941	34.31
748.339	34.33
748.737	34.34
749.136	34.34
749.534	34.39
749.932	34.41
750.33	34.41
750.727	34.4
751.125	34.41
751.523	34.4
751.921	34.38
752.318	34.36
752.716	34.34
753.113	34.34
753.511	34.32
753.908	34.3
754.305	34.27
754.703	34.25
755.1	34.23
755.497	34.2
755.894	34.2
756.291	34.15
756.688	34.13
757.085	34.12
757.482	34.08
757.878	34.09
758.275	34.08
758.672	34.1
759.068	34.11
759.465	34.12
759.861	34.11
760.258	34.11
760.654	34.13
761.05	34.17
761.447	34.18
761.843	34.18
762.239	34.16
762.635	34.16
763.031	34.16
763.427	34.15
763.822	34.16
764.218	34.18
764.614	34.19
765.01	34.18
765.405	34.16
765.801	34.16
766.196	34.18
766.592	34.2
766.987	34.21
767.382	34.21
767.778	34.24
768.173	34.25
768.568	34.24
768.963	34.24
769.358	34.26
769.753	34.28
770.148	34.28
770.542	34.28
770.937	34.28
771.332	34.28
771.726	34.29
772.121	34.26
772.515	34.24
772.91	34.24
773.304	34.23
773.699	34.24
774.093	34.24
774.487	34.24
774.881	34.26
775.275	34.27
775.669	34.28
776.063	34.27
776.457	34.26
776.851	34.24
777.245	34.25
777.638	34.28
778.032	34.28
778.425	34.28
778.819	34.29
779.212	34.27
779.606	34.26
779.999	34.26
780.392	34.24
780.786	34.27
781.179	34.32
781.572	34.33
781.965	34.34
782.358	34.31
782.751	34.34
783.143	34.35
783.536	34.36
783.929	34.4
784.322	34.43
784.714	34.43
785.107	34.45
785.499	34.43
785.891	34.43
786.284	34.41
786.676	34.45
787.068	34.44
787.46	34.44
787.852	34.48
788.245	34.45
788.636	34.45
789.028	34.43
789.42	34.44
789.812	34.45
790.204	34.44
790.595	34.45
790.987	34.45
791.378	34.43
791.77	34.45
792.161	34.42
792.553	34.41
792.944	34.42
793.335	34.47
793.726	34.46
794.117	34.46
794.508	34.49
794.899	34.5
795.29	34.49
795.681	34.51
796.072	34.52
796.463	34.48
796.853	34.48
797.244	34.46
797.634	34.43
798.025	34.44
798.415	34.46
798.806	34.45
799.196	34.47
799.586	34.5
799.976	34.49
800.366	34.49
800.756	34.52
801.146	34.54
801.536	34.53
801.926	34.55
802.316	34.57
802.706	34.59
803.095	34.59
803.485	34.59
803.874	34.54
804.264	34.56
804.653	34.53
805.043	34.54
805.432	34.52
805.821	34.53
806.21	34.54
806.599	34.54
806.988	34.54
807.377	34.55
807.766	34.53
808.155	34.55
808.544	34.56
808.933	34.59
809.321	34.6
809.71	34.63
810.098	34.62
810.487	34.63
810.875	34.6
811.264	34.58
811.652	34.59
812.04	34.61
812.428	34.63
812.816	34.63
813.204	34.61
813.592	34.61
813.98	34.59
814.368	34.62
814.756	34.62
815.144	34.66
815.531	34.66
815.919	34.64
816.306	34.66
816.694	34.65
817.081	34.63
817.469	34.65
817.856	34.68
818.243	34.7
818.63	34.72
819.017	34.74
819.404	34.7
819.791	34.72
820.178	34.73
820.565	34.72
820.952	34.69
821.339	34.7
821.725	34.71
822.112	34.68
822.498	34.7
822.885	34.7
823.271	34.68
823.657	34.69
824.044	34.69
824.43	34.7
824.816	34.69
825.202	34.7
825.588	34.69
825.974	34.69
826.36	34.66
826.746	34.65
827.132	34.61
827.517	34.6
827.903	34.61
828.289	34.59
828.674	34.57
829.06	34.58
829.445	34.58
829.83	34.6
830.216	34.56
830.601	34.57
830.986	34.58
831.371	34.62
831.756	34.56
832.141	34.56
832.526	34.53
832.911	34.55
833.295	34.53
833.68	34.54
834.065	34.53
834.449	34.51
834.834	34.46
835.218	34.43
835.603	34.39
835.987	34.42
836.371	34.4
836.755	34.4
837.139	34.37
837.524	34.36
837.908	34.32
838.291	34.3
838.675	34.3
839.059	34.32
839.443	34.31
839.827	34.31
840.21	34.3
840.594	34.29
840.977	34.28
841.361	34.28
841.744	34.29
842.127	34.27
842.511	34.25
842.894	34.24
843.277	34.23
843.66	34.23
844.043	34.22
844.426	34.21
844.809	34.2
845.191	34.19
845.574	34.16
845.957	34.14
846.339	34.15
846.722	34.16
847.104	34.17
847.487	34.17
847.869	34.16
848.252	34.14
848.634	34.16
849.016	34.18
849.398	34.16
849.78	34.19
850.162	34.18
850.544	34.2
850.926	34.16
851.307	34.21
851.689	34.19
852.071	34.18
852.452	34.2
852.834	34.19
853.215	34.17
853.597	34.21
853.978	34.19
854.359	34.2
854.741	34.2
855.122	34.21
855.503	34.16
855.884	34.15
856.265	34.16
856.646	34.14
857.026	34.15
857.407	34.12
857.788	34.12
858.169	34.11
858.549	34.1
858.93	34.08
859.31	34.1
859.69	34.09
860.071	34.12
860.451	34.12
860.831	34.14
861.211	34.13
861.591	34.15
861.971	34.13
862.351	34.15
862.731	34.15
863.111	34.14
863.491	34.16
863.87	34.17
864.25	34.16
864.629	34.17
865.009	34.18
865.388	34.16
865.768	34.17
866.147	34.18
866.526	34.18
866.905	34.18
867.284	34.19
867.663	34.19
868.042	34.2
868.421	34.19
868.8	34.17
869.179	34.17
869.558	34.18
869.936	34.19
870.315	34.19
870.693	34.19
871.072	34.17
871.45	34.16
871.828	34.16
872.207	34.17
872.585	34.19
872.963	34.19
873.341	34.2
873.719	34.18
874.097	34.17
874.475	34.17
874.853	34.18
875.23	34.21
875.608	34.21
875.986	34.2
876.363	34.18
876.741	34.17
877.118	34.19
877.495	34.2
877.873	34.2
878.25	34.19
878.627	34.21
879.004	34.22
879.381	34.22
879.758	34.21
880.135	34.21
880.512	34.23
880.889	34.24
881.265	34.24
881.642	34.23
882.019	34.24
882.395	34.24
882.772	34.24
883.148	34.24
883.524	34.24
883.901	34.24
884.277	34.24
884.653	34.23
885.029	34.22
885.405	34.19
885.781	34.18
886.157	34.18
886.532	34.17
886.908	34.17
887.284	34.17
887.659	34.19
888.035	34.18
888.411	34.16
888.786	34.13
889.161	34.11
889.537	34.12
889.912	34.09
890.287	34.06
890.662	34.04
891.037	34.01
891.412	33.96
891.787	33.93
892.162	33.92
892.536	33.92
892.911	33.91
893.286	33.88
893.66	33.85
894.035	33.87
894.409	33.88
894.784	33.86
895.158	33.85
895.532	33.84
895.906	33.83
896.281	33.81
896.655	33.79
897.029	33.8
897.402	33.8
897.776	33.81
898.15	33.79
898.524	33.77
898.898	33.79
899.271	33.78
899.645	33.81
900.018	33.79
900.392	33.81
900.765	33.85
901.138	33.84
901.511	33.84
901.884	33.86
902.258	33.88
902.631	33.91
903.003	33.92
903.376	33.94
903.749	33.95
904.122	33.97
904.495	33.97
904.867	33.93
905.24	33.94
905.612	33.97
905.985	33.97
906.357	33.96
906.729	33.96
907.102	33.95
907.474	33.94
907.846	33.94
908.218	33.95
908.59	33.94
908.962	33.98
909.334	33.98
909.705	33.98
910.077	33.97
910.449	33.99
910.82	33.97
911.192	33.97
911.563	34
911.935	34.02
912.306	34.03
912.677	34.07
913.048	34.06
913.419	34.07
913.79	34.07
914.161	34.07
914.532	34.05
914.903	34.08
915.274	34.09
915.645	34.09
916.015	34.07
916.386	34.04
916.756	34.03
917.127	34.04
917.497	34.06
917.868	34.1
918.238	34.12
918.608	34.15
918.978	34.13
919.348	34.13
919.718	34.12
920.088	34.14
920.458	34.16
920.828	34.18
921.198	34.19
921.567	34.15
921.937	34.19
922.306	34.18
922.676	34.18
923.045	34.19
923.415	34.2
923.784	34.21
924.153	34.21
924.522	34.21
924.891	34.2
925.26	34.19
925.629	34.22
925.998	34.16
926.367	34.12
926.736	34.1
927.104	34.08
927.473	34.07
927.842	34.04
928.21	34.03
928.578	34.01
928.947	34
929.315	33.98
929.683	33.99
930.051	33.97
930.42	34.01
930.788	34
931.156	34.04
931.523	34.05
931.891	34.02
932.259	33.99
932.627	33.97
932.994	33.99
933.362	33.94
933.729	33.91
934.097	33.93
934.464	33.91
934.831	33.91
935.199	33.89
935.566	33.89
935.933	33.98
936.3	34.05
936.667	34.07
937.034	34
937.401	34.04
937.767	34.07
938.134	34.12
938.501	34.11
938.867	34.19
939.234	34.21
939.6	34.23
939.967	34.21
940.333	34.29
940.699	34.38
941.065	34.48
941.431	34.59
941.798	34.7
942.163	34.84
942.529	34.94
942.895	35.02
943.261	35.08
943.627	35.23
943.992	35.29
944.358	35.26
944.723	35.28
945.089	35.31
945.454	35.29
945.82	35.24
946.185	35.17
946.55	35.21
946.915	35.15
947.28	35.19
947.645	35.09
948.01	35.1
948.375	35.1
948.74	35.05
949.104	35.02
949.469	35.02
949.834	35.02
950.198	34.96
950.562	34.89
950.927	34.83
951.291	34.73
951.655	34.72
952.02	34.66
952.384	34.68
952.748	34.66
953.112	34.64
953.476	34.61
953.839	34.59
954.203	34.6
954.567	34.55
954.931	34.57
955.294	34.58
955.658	34.52
956.021	34.48
956.385	34.46
956.748	34.47
957.111	34.49
957.474	34.48
957.837	34.45
958.2	34.4
958.563	34.46
958.926	34.41
959.289	34.36
959.652	34.4
960.015	34.4
960.377	34.35
960.74	34.31
961.102	34.28
961.465	34.29
961.827	34.23
962.189	34.21
962.552	34.15
962.914	34.17
963.276	34.15
963.638	34.04
964	34.06
964.362	34.08
964.724	34.04
965.085	34.01
965.447	34.01
965.809	34.01
966.17	34.04
966.532	34.06
966.893	34.04
967.255	34.04
967.616	34.09
967.977	34.09
968.338	34.02
968.699	34.04
969.061	34.05
969.421	34.04
969.782	34.1
970.143	34
970.504	34
970.865	33.94
971.225	33.98
971.586	34
971.946	34.02
972.307	34.08
972.667	34.14
973.027	34.17
973.388	34.12
973.748	34.14
974.108	34.19
974.468	34.21
974.828	34.3
975.188	34.28
975.548	34.28
975.907	34.23
976.267	34.24
976.627	34.22
976.986	34.17
977.346	34.21
977.705	34.19
978.064	34.21
978.424	34.22
978.783	34.25
979.142	34.24
979.501	34.24
979.86	34.2
980.219	34.16
980.578	34.18
980.937	34.29
981.296	34.34
981.654	34.45
982.013	34.49
982.371	34.48
982.73	34.45
983.088	34.37
983.447	34.47
983.805	34.55
984.163	34.63
984.521	34.59
984.879	34.61
985.237	34.6
985.595	34.59
985.953	34.6
986.311	34.59
986.669	34.62
987.026	34.69
987.384	34.64
987.741	34.72
988.099	34.62
988.456	34.66
988.814	34.67
989.171	34.67
989.528	34.59
989.885	34.59
990.242	34.62
990.599	34.7
990.956	34.76
991.313	34.68
991.67	34.74
992.027	34.79
992.383	34.88
992.74	34.75
993.096	34.77
993.453	34.81
993.809	34.8
994.165	34.75
994.522	34.73
994.878	34.79
995.234	34.85
995.59	34.69
995.946	34.75
996.302	34.71
996.658	34.84
997.013	34.79
997.369	34.92
997.725	34.94
998.08	35.02
998.436	35.07
998.791	34.98
999.147	35.08
999.502	35.17
999.857	35.26
1000.212	35.28
1000.567	35.3
1000.922	35.43
1001.277	35.35
1001.632	35.61
1001.987	35.6
1002.342	35.73
1002.696	35.85
1003.051	35.73
1003.406	35.86
1003.76	35.79
1004.114	35.82
1004.469	35.68
1004.823	35.64
1005.177	35.76
1005.531	35.55
1005.885	35.59
1006.239	35.57
1006.593	35.63
1006.947	35.77
1007.301	35.71
1007.655	35.86
1008.008	35.91
1008.362	36.09
1008.715	36.35
1009.069	36.24
1009.422	36.34
1009.776	36.42
1010.129	36.32
1010.482	36.5
1010.835	36.79
1011.188	36.8
1011.541	36.5
1011.894	36.46
1012.247	36.49
1012.6	36.46
1012.952	36.76
1013.305	36.71
1013.657	36.82
1014.01	37.24
1014.362	37.39
1014.715	37.18
1015.067	37.56
1015.419	37.94
1015.771	38.37
1016.123	38.64
1016.475	38.68
1016.827	38.56
1017.179	38.84
1017.531	38.92
1017.883	38.94
1018.234	38.85
1018.586	39.01
1018.938	38.66
1019.289	38.75
1019.64	38.96
1019.992	38.93
1020.343	38.89
1020.694	38.87
1021.045	38.86
1021.396	38.99
1021.747	39.05
1022.098	39.23
1022.449	39.39
1022.8	39.59
1023.151	39.61
1023.501	39.32
1023.852	39.51
1024.202	39.7
1024.553	39.88
1024.903	40.18
1025.253	40.02
1025.604	39.92
1025.954	39.42
1026.304	39.98
1026.654	40.22
1027.004	40.7
1027.354	40.73
1027.703	40.53
1028.053	40.23
1028.403	40.02
1028.753	39.98
1029.102	40.44
1029.452	40.63
1029.801	41.35
1030.15	40.9
1030.499	40.89
897.758	473.13
901.051	491.65
904.343	491.01
907.636	480.22
910.928	472.13
914.22	479.23
917.511	467.63
920.803	450.47
924.094	433.95
927.384	435.85
930.675	423.08
933.965	418.61
937.255	412.27
940.544	396.45
943.834	381.5
947.123	375.95
950.411	356.33
953.7	354.21
956.988	338.08
960.276	323.71
963.563	320.38
966.851	302.53
970.138	297.36
973.424	277.28
976.711	274.49
979.997	264.16
983.283	256.51
986.568	247.64
989.853	241.93
993.138	235.18
996.423	230.6
999.708	223.2
1002.992	223.7
1006.275	217.66
1009.559	216.2
1012.842	208.28
1016.125	200.58
1019.408	198.32
1022.69	196.42
1025.972	193.19
1029.254	188.89
1032.536	185
1035.817	180.14
1039.098	176.41
1042.379	170.74
1045.659	168.66
1048.939	167.47
1052.219	165.86
1055.498	163.29
1058.778	160.46
1062.057	157.21
1065.335	156.09
1068.614	154.21
1071.892	150.79
1075.17	148
1078.447	146.81
1081.724	144.48
1085.001	141.4
1088.278	141.1
1091.554	139.42
1094.83	138.36
1098.106	135.82
1101.382	135.01
1104.657	133.95
1107.932	133.54
1111.206	132.76
1114.481	131.83
1117.755	131.39
1121.029	130.76
1124.302	128.49
1127.575	127.39
1130.848	126.63
1134.121	125.54
1137.393	124.44
1140.665	124.51
1143.937	123.41
1147.208	121.62
1150.48	120.06
1153.75	119.01
1157.021	118.62
1160.291	118.13
1163.561	117.31
1166.831	116.12
1170.101	115.77
1173.37	115.18
1176.639	112.79
1179.907	113.03
1183.176	112.67
1186.444	113.62
1189.711	112.19
1192.979	112.72
1196.246	113.01
1199.513	112.04
1202.78	113.24
1206.046	113.32
1209.312	114.25
1212.578	115.32
1215.843	117.11
1219.108	117.54
1222.373	118.71
1225.638	121.48
1228.902	123.69
1232.166	127.91
1235.43	130.51
1238.693	133.73
1241.956	136.49
1245.219	139.64
1248.482	140.57
1251.744	139.61
1255.006	142.24
1258.268	137.83
1261.529	136.79
1264.79	133.05
1268.051	130.23
1271.312	129.57
1274.572	126.87
1277.832	124.43
1281.092	121.38
1284.351	119.11
1287.61	118.78
1290.869	116.7
1294.128	116.9
1297.386	116.22
1300.644	116.02
1303.902	114.86
1307.159	113.71
1310.416	114.06
1313.673	114.83
1316.93	117.18
1320.186	119.27
1323.442	120.83
1326.697	123.36
1329.953	124.74
1333.208	129.09
1336.463	134.57
1339.717	137.11
1342.972	145.27
1346.226	148.74
1349.479	150.3
1352.733	156.37
1355.986	159.71
1359.238	163.11
1362.491	165.68
1365.743	173.08
1368.995	173.02
1372.247	173.63
1375.498	173.9
1378.749	177.92
1382	181.24
1385.251	178.39
1388.501	178.73
1391.751	180.71
1395	179.42
1398.25	181.74
1401.499	179.77
1404.748	180.63
1407.996	176.05
1411.244	176.03
1414.492	172.71
1417.74	165.88
1420.987	164.14
1424.234	161.23
1427.481	155.07
1430.728	151.43
1433.974	145.69
1437.22	141.16
1440.465	135.48
1443.711	131.05
1446.956	126.34
1450.201	122.76
1453.445	117.09
1456.689	113.17
1459.933	109.39
1463.177	105.77
1466.42	103.56
1469.663	99.79
1472.906	96.88
1476.148	94.41
1479.391	92.7
1482.633	91.52
1485.874	88.38
1489.115	88.18
1492.356	86.8
1495.597	84.75
1498.838	84.32
1502.078	83.37
1505.318	83.29
1508.557	82.09
1511.797	81.91
1515.036	81.07
1518.274	80.6
1521.513	80.04
1524.751	79.05
1527.989	79.59
1531.227	80
1534.464	79.17
1537.701	78.15
1540.938	77.76
1544.174	78.58
1547.41	78.09
1550.646	78.09
1553.882	77.69
1557.117	77.79
1560.352	77.55
1563.587	76.88
1566.821	76.45
1570.055	76
1573.289	76.44
1576.523	76.22
1579.756	75.42
1582.989	75.6
1586.222	75.07
1589.454	76.21
1592.686	75.69
1595.918	75.7
1599.15	75.49
1602.381	75.65
1605.612	75.8
1608.843	75.41
1612.073	75.67
1615.303	75.85
1618.533	75.06
1621.762	75.54
1624.992	74.71
1628.221	74.44
1631.449	74.68
1634.678	74.78
1637.906	74.81
1641.134	74.56
1644.361	74.78
1647.588	75.01
1650.815	74.91
1654.042	75.95
1657.269	75.09
1660.495	75.37
1663.72	76.15
1666.946	76.15
1670.171	76.65
1673.396	77.56
1676.621	77.42
1679.845	77.36
1683.069	77.68
1686.293	77.76
1689.517	77.3
1692.74	78.17
1695.963	78.02
1699.185	78.07
1702.408	77.67
1705.63	77.48
1708.852	77.69
1712.073	78.05
1715.294	78.15
1718.515	78.56
1721.736	78.77
1724.956	79.14
1728.176	79.07
1731.396	79.3
1734.616	79.61
1737.835	80.4
1741.054	80.4
1744.272	80.26
1747.491	80.96
1750.709	81.37
1753.927	81.04
1757.144	81.13
1760.361	81.6
1763.578	82.35
1766.795	82.65
1770.011	82.54
1773.227	83.13
1776.443	84.22
1779.658	83.58
1782.874	84.31
1786.089	83.77
1789.303	84.17
1792.518	85.21
1795.732	85.76
1798.945	86.45
1802.159	86.13
1805.372	87.29
1808.585	87.65
1811.797	88.11
1815.01	89.06
1818.222	89.37
1821.434	91.42
1824.645	91.6
1827.856	93.5
1831.067	93.84
1834.278	94.55
1837.488	96.1
1840.698	97.02
1843.908	97.04
1847.117	98.22
1850.326	99.54
1853.535	100.47
1856.744	100.8
1859.952	102.72
1863.16	101.36
1866.368	101.02
1869.575	102.26
1872.782	102.32
1875.989	100.75
1879.196	101.77
1882.402	100.9
1885.608	100.86
1888.814	100.38
1892.019	101.61
1895.224	99.54
1898.429	100.55
1901.634	101.26
1904.838	100.96
1908.042	101.81
1911.246	102.38
1914.449	102.06
1917.652	101
1920.855	101.59
1924.058	101.02
1927.26	100.03
1930.462	101.25
1933.664	100.85
1936.865	101.3
1940.066	100.04
1943.267	97.92
1946.467	99.84
1949.668	99.76
1952.868	100.67
1956.067	99.9
1959.267	100.93
1962.466	101.67
1965.665	102.89
1968.863	102.68
1972.061	103.24
1975.259	105.35
1978.457	108.21
1981.654	107.59
1984.852	108.83
1988.048	110.88
1991.245	112.66
1994.441	114.37
1997.637	116.79
2000.833	118.77
2004.028	119.98
2007.223	123.94
2010.418	125.81
2013.613	131.41
2016.807	134.78
2020.001	137.47
2023.194	140.52
2026.388	146.19
2029.581	154.18
2032.774	158.09
2035.966	162.21
2039.158	168.08
2042.35	169.65
2045.542	173.42
2048.733	178.84
2051.924	180
2055.115	183.98
2058.306	186.42
2061.496	189.01
2064.686	186.32
2067.875	186.95
2071.065	188.52
2074.254	189.11
2077.442	195.08
2080.631	198.13
2083.819	197.77
2087.007	204.42
2090.195	205.59
2093.382	206.63
2096.569	207.09
2099.756	210.15
2102.942	214.63
2106.128	220.25
2109.314	220.69
2112.5	220.96
2115.685	217.67
2118.87	218.35
2122.055	217.07
2125.239	220.12
2128.424	226.12
2131.608	225.22
2134.791	226.83
2137.974	227.75
2141.157	227.2
2144.34	230.34
2147.523	236.63
2150.705	243.31
2153.887	241.85
2157.068	245.19
2160.25	247.37
2163.431	246.12
2166.611	248.64
2169.792	253.08
2172.972	255.81
2176.152	257.22
2179.331	261.24
2182.511	258.92
2185.69	261.98
2188.868	271.68
2192.047	279.79
2195.225	285.64
2198.403	286.71
2201.58	284.63
2204.758	298.11
2207.935	298.51
2211.111	305.55
2214.288	308.57
2217.464	313.22
2220.64	313.29
2223.815	313.7
2226.991	309.14
2230.166	311.14
2233.34	321.11
2236.515	331.76
2239.689	321.28
2242.863	329.34
2246.036	326.16
2249.209	334.4
2252.382	331.14
2255.555	345.97
2258.727	347.35
2261.9	359.82
2265.071	364.3
2268.243	361.33
2271.414	370.63
2274.585	379.72
2277.756	378.68
2280.926	392.61
2284.096	394.67
2287.266	397.75
2290.436	391.45
2293.605	400.85
2296.774	413.23
2299.942	411.1
2303.111	423.7
2306.279	432.31
2309.447	430.95
2312.614	433.12
2315.781	442.66
2318.948	444.04
2322.115	454.59
2325.281	477.46
2328.447	473.13
2331.613	477.94
2334.779	484.01
2337.944	493.92
2341.109	502.4
2344.274	511.2
2347.438	523.12
2350.602	530
2353.766	563.81
2356.929	563.87
2360.092	576.01
2363.255	578.8
2366.418	578.5
2369.58	592.14
2372.742	599
2375.904	596.18
2379.066	612.64
2382.227	653.49
2385.388	650.69
2388.548	622.2
2391.709	620.02
2394.869	627.94
2398.029	636.32
2401.188	640.62
2404.347	663.01
2407.506	675.55
2410.665	650.77
2413.823	653.19
2416.981	648.35
2420.139	619.24
2423.296	670.05
2426.453	705.54
2429.61	674.1
2432.767	716.5
2435.923	733.23
2439.079	716.33
2442.235	730.26
2445.391	747.86
2448.546	745.36
2451.701	785.82
2454.855	839.47
2458.009	743.84
2461.163	758.25
2464.317	765.13
2467.471	751.56
2470.624	778.63
2473.777	755.85
2476.929	735.95
2480.082	782.49
2483.234	817.83
2486.385	834.48
2489.537	860.28
2492.688	946.2
2495.839	928.05
2498.989	964.37
2502.14	963
2505.29	926.8
2508.439	1017.42
2511.589	1039.4
2514.738	1012.33
2517.887	1001.28
2521.035	940.3
2524.183	925.6
2527.331	916.93
2530.479	902.67
2533.627	918.01
