Data from N_3_dec_va_2n_Splice17_14.txt Node
Date: Sat Feb 29 15:03:08 EST 2020
User: sa697716
Spectrometer: FLMS03696
Trigger mode: 0
Integration Time (sec): 3.180400E-1
Scans to average: 20
Electric dark correction enabled: true
Nonlinearity correction enabled: true
Boxcar width: 5
XAxis mode: Wavelengths
Number of Pixels in Spectrum: 2048
>>>>>Begin Spectral Data<<<<<
187.83	50.13
188.298	45.42
188.766	44.78
189.233	33.36
189.701	38.84
190.169	47.33
190.636	52.57
191.104	47.19
191.571	286.82
192.039	186.61
192.506	305.56
192.974	11019.93
193.441	-626.27
193.908	94.86
194.375	150.36
194.842	65.52
195.31	48.17
195.777	15.75
196.244	54.91
196.711	77.86
197.177	80.19
197.644	80.02
198.111	80.12
198.578	81.47
199.045	82.66
199.511	82
199.978	82.96
200.445	82.91
200.911	83.31
201.378	83.59
201.844	84.15
202.31	84.06
202.777	84.43
203.243	84.85
203.709	84.75
204.176	84.16
204.642	83.84
205.108	83.33
205.574	83.59
206.04	82.94
206.506	81.92
206.972	80.72
207.438	80.52
207.903	79.43
208.369	77.68
208.835	76.81
209.301	75.92
209.766	74.49
210.232	73.17
210.697	71.64
211.163	70.6
211.628	69.38
212.094	68.42
212.559	66.67
213.024	65.33
213.49	64.21
213.955	63.05
214.42	61.31
214.885	59.39
215.35	57.31
215.815	54.12
216.28	50.53
216.745	46.84
217.21	42.88
217.675	39.24
218.14	35.95
218.604	32.9
219.069	30.24
219.534	27.99
219.998	26.21
220.463	24.65
220.927	23.38
221.392	22.33
221.856	21.37
222.32	20.57
222.785	19.89
223.249	19.27
223.713	18.73
224.177	18.2
224.642	17.77
225.106	17.34
225.57	16.86
226.034	16.48
226.497	16.09
226.961	15.72
227.425	15.36
227.889	15.03
228.353	14.71
228.816	14.41
229.28	14.09
229.744	13.83
230.207	13.56
230.671	13.32
231.134	13.07
231.597	12.84
232.061	12.62
232.524	12.43
232.987	12.23
233.45	12.03
233.914	11.84
234.377	11.68
234.84	11.52
235.303	11.37
235.766	11.23
236.229	11.09
236.691	10.96
237.154	10.84
237.617	10.72
238.08	10.58
238.542	10.47
239.005	10.36
239.468	10.23
239.93	10.13
240.393	10.02
240.855	9.9
241.317	9.79
241.78	9.7
242.242	9.58
242.704	9.48
243.166	9.39
243.629	9.28
244.091	9.17
244.553	9.1
245.015	8.99
245.477	8.89
245.939	8.8
246.4	8.71
246.862	8.63
247.324	8.55
247.786	8.46
248.247	8.39
248.709	8.31
249.17	8.24
249.632	8.15
250.093	8.06
250.555	7.98
251.016	7.92
251.477	7.85
251.939	7.77
252.4	7.69
252.861	7.62
253.322	7.56
253.783	7.5
254.244	7.44
254.705	7.38
255.166	7.34
255.627	7.28
256.088	7.22
256.549	7.16
257.009	7.11
257.47	7.05
257.931	6.99
258.391	6.91
258.852	6.85
259.312	6.79
259.773	6.74
260.233	6.67
260.694	6.62
261.154	6.56
261.614	6.51
262.074	6.45
262.534	6.39
262.994	6.34
263.455	6.3
263.915	6.25
264.374	6.19
264.834	6.14
265.294	6.1
265.754	6.05
266.214	6
266.673	5.95
267.133	5.92
267.593	5.88
268.052	5.84
268.512	5.81
268.971	5.77
269.431	5.75
269.89	5.72
270.349	5.7
270.809	5.68
271.268	5.66
271.727	5.65
272.186	5.62
272.645	5.6
273.104	5.58
273.563	5.57
274.022	5.54
274.481	5.51
274.94	5.49
275.399	5.46
275.857	5.44
276.316	5.42
276.775	5.39
277.233	5.37
277.692	5.35
278.15	5.32
278.609	5.29
279.067	5.27
279.525	5.26
279.984	5.24
280.442	5.22
280.9	5.21
281.358	5.2
281.816	5.19
282.274	5.18
282.732	5.17
283.19	5.17
283.648	5.17
284.106	5.16
284.564	5.16
285.021	5.16
285.479	5.16
285.937	5.15
286.394	5.15
286.852	5.14
287.309	5.12
287.767	5.1
288.224	5.08
288.682	5.06
289.139	5.04
289.596	5.01
290.053	4.97
290.511	4.94
290.968	4.91
291.425	4.87
291.882	4.85
292.339	4.82
292.796	4.78
293.252	4.75
293.709	4.73
294.166	4.71
294.623	4.68
295.079	4.66
295.536	4.65
295.992	4.63
296.449	4.61
296.905	4.59
297.362	4.57
297.818	4.56
298.274	4.55
298.731	4.53
299.187	4.52
299.643	4.5
300.099	4.49
300.555	4.48
301.011	4.46
301.467	4.45
301.923	4.44
302.379	4.44
302.835	4.42
303.291	4.41
303.746	4.41
304.202	4.39
304.658	4.39
305.113	4.38
305.569	4.38
306.024	4.37
306.479	4.36
306.935	4.37
307.39	4.36
307.845	4.37
308.301	4.36
308.756	4.37
309.211	4.37
309.666	4.37
310.121	4.38
310.576	4.38
311.031	4.37
311.486	4.38
311.94	4.37
312.395	4.37
312.85	4.37
313.305	4.37
313.759	4.36
314.214	4.36
314.668	4.36
315.123	4.36
315.577	4.35
316.032	4.34
316.486	4.33
316.94	4.31
317.394	4.3
317.849	4.28
318.303	4.27
318.757	4.24
319.211	4.22
319.665	4.2
320.119	4.18
320.572	4.18
321.026	4.17
321.48	4.16
321.934	4.16
322.387	4.14
322.841	4.14
323.295	4.13
323.748	4.13
324.202	4.13
324.655	4.13
325.108	4.11
325.562	4.09
326.015	4.08
326.468	4.07
326.921	4.05
327.374	4.05
327.827	4.04
328.28	4.03
328.733	4.03
329.186	4.02
329.639	4.01
330.092	4.01
330.545	4.01
330.997	4.02
331.45	4.02
331.903	4.03
332.355	4.03
332.808	4.03
333.26	4.04
333.713	4.05
334.165	4.06
334.617	4.07
335.069	4.09
335.522	4.1
335.974	4.1
336.426	4.1
336.878	4.09
337.33	4.1
337.782	4.1
338.234	4.1
338.686	4.1
339.137	4.1
339.589	4.09
340.041	4.08
340.493	4.06
340.944	4.05
341.396	4.04
341.847	4.03
342.299	4
342.75	3.98
343.201	3.96
343.653	3.94
344.104	3.92
344.555	3.91
345.006	3.89
345.457	3.87
345.908	3.86
346.359	3.84
346.81	3.83
347.261	3.82
347.712	3.82
348.163	3.81
348.613	3.79
349.064	3.78
349.515	3.76
349.965	3.76
350.416	3.74
350.866	3.75
351.317	3.74
351.767	3.74
352.217	3.74
352.668	3.74
353.118	3.75
353.568	3.76
354.018	3.77
354.468	3.78
354.918	3.78
355.368	3.79
355.818	3.78
356.268	3.78
356.718	3.78
357.168	3.78
357.617	3.77
358.067	3.76
358.517	3.75
358.966	3.75
359.416	3.76
359.865	3.75
360.315	3.75
360.764	3.75
361.213	3.75
361.663	3.75
362.112	3.76
362.561	3.76
363.01	3.77
363.459	3.76
363.908	3.75
364.357	3.74
364.806	3.74
365.255	3.74
365.703	3.75
366.152	3.75
366.601	3.75
367.05	3.76
367.498	3.75
367.947	3.74
368.395	3.76
368.844	3.75
369.292	3.75
369.74	3.75
370.189	3.74
370.637	3.74
371.085	3.73
371.533	3.73
371.981	3.72
372.429	3.72
372.877	3.72
373.325	3.7
373.773	3.69
374.221	3.69
374.669	3.69
375.116	3.67
375.564	3.66
376.012	3.66
376.459	3.66
376.907	3.65
377.354	3.65
377.801	3.64
378.249	3.64
378.696	3.65
379.143	3.65
379.591	3.65
380.038	3.67
380.485	3.67
380.932	3.66
381.379	3.65
381.826	3.65
382.273	3.65
382.72	3.65
383.166	3.64
383.613	3.63
384.06	3.63
384.506	3.62
384.953	3.61
385.4	3.61
385.846	3.6
386.292	3.6
386.739	3.6
387.185	3.61
387.631	3.61
388.078	3.61
388.524	3.59
388.97	3.59
389.416	3.59
389.862	3.6
390.308	3.58
390.754	3.59
391.2	3.61
391.645	3.62
392.091	3.63
392.537	3.63
392.983	3.65
393.428	3.67
393.874	3.69
394.319	3.7
394.765	3.7
395.21	3.71
395.655	3.73
396.101	3.72
396.546	3.73
396.991	3.73
397.436	3.74
397.881	3.75
398.326	3.77
398.771	3.79
399.216	3.81
399.661	3.84
400.106	3.87
400.551	3.88
400.995	3.88
401.44	3.89
401.885	3.9
402.329	3.92
402.774	3.93
403.218	3.94
403.663	3.95
404.107	3.97
404.551	3.98
404.995	3.97
405.44	3.99
405.884	4.02
406.328	4.04
406.772	4.06
407.216	4.07
407.66	4.09
408.104	4.09
408.547	4.11
408.991	4.12
409.435	4.12
409.879	4.15
410.322	4.18
410.766	4.19
411.209	4.22
411.653	4.24
412.096	4.26
412.54	4.27
412.983	4.3
413.426	4.34
413.869	4.37
414.312	4.42
414.756	4.45
415.199	4.47
415.642	4.51
416.085	4.53
416.527	4.56
416.97	4.58
417.413	4.59
417.856	4.6
418.298	4.63
418.741	4.64
419.184	4.64
419.626	4.64
420.069	4.63
420.511	4.63
420.953	4.64
421.396	4.64
421.838	4.67
422.28	4.7
422.722	4.73
423.164	4.72
423.606	4.74
424.048	4.74
424.49	4.77
424.932	4.79
425.374	4.79
425.816	4.77
426.258	4.76
426.699	4.73
427.141	4.71
427.582	4.7
428.024	4.7
428.465	4.7
428.907	4.72
429.348	4.73
429.789	4.73
430.231	4.74
430.672	4.77
431.113	4.81
431.554	4.83
431.995	4.86
432.436	4.88
432.877	4.88
433.318	4.88
433.759	4.9
434.2	4.91
434.64	4.94
435.081	4.94
435.522	4.99
435.962	5.01
436.403	5.06
436.843	5.07
437.284	5.1
437.724	5.14
438.164	5.16
438.604	5.18
439.045	5.2
439.485	5.2
439.925	5.23
440.365	5.22
440.805	5.21
441.245	5.2
441.685	5.21
442.125	5.22
442.564	5.23
443.004	5.25
443.444	5.27
443.883	5.3
444.323	5.3
444.762	5.35
445.202	5.39
445.641	5.43
446.081	5.49
446.52	5.51
446.959	5.53
447.398	5.57
447.837	5.6
448.276	5.6
448.716	5.61
449.154	5.65
449.593	5.65
450.032	5.66
450.471	5.66
450.91	5.64
451.349	5.65
451.787	5.65
452.226	5.62
452.664	5.61
453.103	5.61
453.541	5.61
453.98	5.59
454.418	5.55
454.856	5.52
455.295	5.49
455.733	5.47
456.171	5.47
456.609	5.47
457.047	5.45
457.485	5.43
457.923	5.41
458.361	5.4
458.798	5.39
459.236	5.4
459.674	5.4
460.111	5.41
460.549	5.4
460.987	5.4
461.424	5.39
461.862	5.4
462.299	5.4
462.736	5.41
463.173	5.4
463.611	5.4
464.048	5.42
464.485	5.42
464.922	5.41
465.359	5.43
465.796	5.42
466.233	5.42
466.67	5.44
467.106	5.44
467.543	5.45
467.98	5.47
468.416	5.48
468.853	5.46
469.29	5.47
469.726	5.48
470.162	5.47
470.599	5.47
471.035	5.47
471.471	5.45
471.907	5.47
472.344	5.47
472.78	5.46
473.216	5.44
473.652	5.45
474.088	5.46
474.523	5.46
474.959	5.44
475.395	5.42
475.831	5.42
476.266	5.41
476.702	5.39
477.138	5.37
477.573	5.34
478.008	5.33
478.444	5.3
478.879	5.28
479.314	5.26
479.75	5.26
480.185	5.25
480.62	5.22
481.055	5.21
481.49	5.19
481.925	5.17
482.36	5.15
482.795	5.13
483.229	5.14
483.664	5.13
484.099	5.12
484.534	5.12
484.968	5.11
485.403	5.12
485.837	5.11
486.271	5.12
486.706	5.12
487.14	5.14
487.574	5.16
488.009	5.17
488.443	5.18
488.877	5.19
489.311	5.21
489.745	5.23
490.179	5.25
490.613	5.28
491.046	5.31
491.48	5.34
491.914	5.37
492.348	5.4
492.781	5.45
493.215	5.49
493.648	5.55
494.082	5.61
494.515	5.67
494.948	5.72
495.382	5.78
495.815	5.85
496.248	5.92
496.681	5.99
497.114	6.05
497.547	6.13
497.98	6.21
498.413	6.29
498.846	6.37
499.279	6.47
499.711	6.56
500.144	6.67
500.577	6.78
501.009	6.88
501.442	7.01
501.874	7.15
502.306	7.29
502.739	7.43
503.171	7.59
503.603	7.75
504.036	7.9
504.468	8.08
504.9	8.28
505.332	8.47
505.764	8.67
506.196	8.89
506.627	9.11
507.059	9.32
507.491	9.55
507.923	9.79
508.354	10.04
508.786	10.3
509.217	10.55
509.649	10.82
510.08	11.1
510.512	11.36
510.943	11.65
511.374	11.93
511.805	12.23
512.237	12.54
512.668	12.84
513.099	13.17
513.53	13.51
513.961	13.86
514.391	14.18
514.822	14.52
515.253	14.89
515.684	15.23
516.114	15.6
516.545	15.95
516.975	16.32
517.406	16.69
517.836	17.04
518.267	17.39
518.697	17.74
519.127	18.1
519.558	18.46
519.988	18.8
520.418	19.15
520.848	19.5
521.278	19.86
521.708	20.23
522.138	20.55
522.567	20.86
522.997	21.18
523.427	21.5
523.857	21.79
524.286	22.08
524.716	22.38
525.145	22.67
525.575	22.93
526.004	23.18
526.433	23.41
526.863	23.65
527.292	23.91
527.721	24.13
528.15	24.34
528.579	24.56
529.008	24.77
529.437	24.96
529.866	25.15
530.295	25.33
530.724	25.49
531.152	25.66
531.581	25.81
532.01	25.93
532.438	26.07
532.867	26.19
533.295	26.3
533.723	26.42
534.152	26.52
534.58	26.6
535.008	26.68
535.436	26.75
535.865	26.82
536.293	26.91
536.721	26.98
537.149	27.04
537.576	27.11
538.004	27.16
538.432	27.2
538.86	27.24
539.287	27.27
539.715	27.33
540.143	27.37
540.57	27.4
540.998	27.42
541.425	27.45
541.852	27.49
542.28	27.52
542.707	27.56
543.134	27.6
543.561	27.63
543.988	27.66
544.415	27.7
544.842	27.72
545.269	27.77
545.696	27.8
546.123	27.85
546.549	27.86
546.976	27.89
547.403	27.93
547.829	27.99
548.256	28.02
548.682	28.05
549.108	28.1
549.535	28.14
549.961	28.14
550.387	28.15
550.813	28.14
551.24	28.16
551.666	28.17
552.092	28.16
552.518	28.13
552.943	28.12
553.369	28.11
553.795	28.06
554.221	28.01
554.646	28
555.072	27.96
555.498	27.92
555.923	27.85
556.349	27.77
556.774	27.69
557.199	27.62
557.625	27.54
558.05	27.43
558.475	27.34
558.9	27.25
559.325	27.14
559.75	27.03
560.175	26.91
560.6	26.8
561.025	26.67
561.449	26.52
561.874	26.37
562.299	26.22
562.723	26.06
563.148	25.9
563.572	25.73
563.997	25.55
564.421	25.36
564.846	25.18
565.27	24.99
565.694	24.81
566.118	24.63
566.542	24.44
566.966	24.23
567.39	24.01
567.814	23.79
568.238	23.56
568.662	23.34
569.086	23.15
569.509	22.94
569.933	22.73
570.357	22.5
570.78	22.28
571.204	22.05
571.627	21.85
572.05	21.69
572.474	21.52
572.897	21.35
573.32	21.19
573.743	21
574.166	20.83
574.589	20.68
575.012	20.54
575.435	20.39
575.858	20.25
576.281	20.12
576.704	19.98
577.126	19.85
577.549	19.74
577.972	19.61
578.394	19.49
578.817	19.37
579.239	19.26
579.661	19.14
580.084	19.04
580.506	18.95
580.928	18.84
581.35	18.73
581.772	18.62
582.194	18.52
582.616	18.44
583.038	18.37
583.46	18.31
583.882	18.23
584.303	18.16
584.725	18.08
585.147	17.99
585.568	17.9
585.99	17.85
586.411	17.78
586.833	17.69
587.254	17.61
587.675	17.53
588.096	17.45
588.518	17.38
588.939	17.32
589.36	17.24
589.781	17.2
590.202	17.15
590.623	17.07
591.043	17.01
591.464	16.95
591.885	16.9
592.305	16.85
592.726	16.8
593.147	16.75
593.567	16.69
593.987	16.67
594.408	16.61
594.828	16.56
595.248	16.52
595.669	16.49
596.089	16.46
596.509	16.4
596.929	16.34
597.349	16.29
597.769	16.23
598.189	16.2
598.608	16.13
599.028	16.08
599.448	16.02
599.867	15.97
600.287	15.9
600.706	15.85
601.126	15.82
601.545	15.77
601.965	15.72
602.384	15.66
602.803	15.6
603.222	15.54
603.641	15.48
604.061	15.42
604.48	15.35
604.898	15.27
605.317	15.18
605.736	15.1
606.155	15
606.574	14.92
606.992	14.82
607.411	14.71
607.829	14.58
608.248	14.49
608.666	14.39
609.085	14.29
609.503	14.2
609.921	14.11
610.339	14
610.758	13.92
611.176	13.82
611.594	13.73
612.012	13.64
612.43	13.57
612.847	13.5
613.265	13.42
613.683	13.33
614.101	13.24
614.518	13.16
614.936	13.08
615.353	13
615.771	12.93
616.188	12.85
616.606	12.78
617.023	12.71
617.44	12.62
617.857	12.55
618.274	12.49
618.691	12.43
619.108	12.38
619.525	12.33
619.942	12.28
620.359	12.24
620.776	12.2
621.192	12.16
621.609	12.14
622.026	12.11
622.442	12.08
622.859	12.07
623.275	12.04
623.691	12.02
624.108	12.01
624.524	11.99
624.94	11.97
625.356	11.96
625.772	11.94
626.188	11.93
626.604	11.9
627.02	11.9
627.436	11.88
627.852	11.87
628.268	11.84
628.683	11.81
629.099	11.79
629.514	11.75
629.93	11.72
630.345	11.69
630.761	11.65
631.176	11.62
631.591	11.56
632.007	11.5
632.422	11.45
632.837	11.38
633.252	11.32
633.667	11.23
634.082	11.16
634.497	11.06
634.911	10.96
635.326	10.87
635.741	10.76
636.155	10.67
636.57	10.55
636.984	10.41
637.399	10.29
637.813	10.15
638.228	10.02
638.642	9.9
639.056	9.78
639.47	9.64
639.884	9.48
640.298	9.36
640.712	9.21
641.126	9.09
641.54	8.96
641.954	8.85
642.368	8.73
642.781	8.61
643.195	8.48
643.609	8.35
644.022	8.25
644.436	8.16
644.849	8.07
645.262	7.98
645.676	7.87
646.089	7.78
646.502	7.67
646.915	7.59
647.328	7.53
647.741	7.46
648.154	7.42
648.567	7.37
648.98	7.31
649.393	7.25
649.805	7.19
650.218	7.16
650.631	7.12
651.043	7.1
651.456	7.07
651.868	7.03
652.28	7.01
652.693	6.95
653.105	6.9
653.517	6.85
653.929	6.83
654.341	6.79
654.753	6.73
655.165	6.67
655.577	6.61
655.989	6.54
656.401	6.47
656.813	6.39
657.224	6.34
657.636	6.27
658.047	6.2
658.459	6.1
658.87	6.03
659.282	5.97
659.693	5.89
660.104	5.83
660.515	5.76
660.926	5.7
661.338	5.64
661.749	5.55
662.159	5.49
662.57	5.44
662.981	5.39
663.392	5.33
663.803	5.28
664.213	5.24
664.624	5.21
665.035	5.16
665.445	5.13
665.855	5.1
666.266	5.07
666.676	5.03
667.086	5
667.497	4.97
667.907	4.95
668.317	4.93
668.727	4.89
669.137	4.87
669.547	4.86
669.956	4.84
670.366	4.84
670.776	4.85
671.186	4.85
671.595	4.85
672.005	4.86
672.414	4.86
672.824	4.88
673.233	4.91
673.642	4.92
674.052	4.93
674.461	4.95
674.87	4.98
675.279	5
675.688	5.02
676.097	5.06
676.506	5.09
676.915	5.13
677.323	5.16
677.732	5.19
678.141	5.25
678.549	5.31
678.958	5.38
679.366	5.41
679.775	5.47
680.183	5.54
680.592	5.62
681	5.68
681.408	5.77
681.816	5.86
682.224	5.96
682.632	6.08
683.04	6.2
683.448	6.33
683.856	6.49
684.264	6.67
684.671	6.87
685.079	7.07
685.487	7.34
685.894	7.61
686.302	7.91
686.709	8.24
687.116	8.57
687.524	8.94
687.931	9.35
688.338	9.8
688.745	10.27
689.152	10.77
689.559	11.3
689.966	11.84
690.373	12.43
690.78	13.03
691.187	13.65
691.593	14.31
692	15
692.407	15.67
692.813	16.38
693.22	17.08
693.626	17.82
694.032	18.56
694.439	19.31
694.845	20.05
695.251	20.83
695.657	21.59
696.063	22.35
696.469	23.1
696.875	23.84
697.281	24.55
697.687	25.31
698.093	26.02
698.498	26.77
698.904	27.49
699.31	28.2
699.715	28.9
700.12	29.57
700.526	30.24
700.931	30.89
701.337	31.59
701.742	32.25
702.147	32.87
702.552	33.52
702.957	34.11
703.362	34.74
703.767	35.33
704.172	35.91
704.577	36.47
704.981	37.05
705.386	37.65
705.791	38.18
706.195	38.72
706.6	39.25
707.004	39.76
707.408	40.28
707.813	40.75
708.217	41.25
708.621	41.74
709.025	42.29
709.43	42.75
709.834	43.22
710.237	43.69
710.641	44.14
711.045	44.59
711.449	45
711.853	45.44
712.256	45.9
712.66	46.32
713.064	46.71
713.467	47.07
713.87	47.48
714.274	47.89
714.677	48.25
715.08	48.66
715.484	49.04
715.887	49.43
716.29	49.76
716.693	50.09
717.096	50.46
717.499	50.81
717.901	51.14
718.304	51.46
718.707	51.76
719.109	52.09
719.512	52.4
719.915	52.67
720.317	52.95
720.719	53.23
721.122	53.54
721.524	53.77
721.926	54.04
722.328	54.33
722.731	54.59
723.133	54.82
723.535	55.08
723.937	55.27
724.338	55.48
724.74	55.72
725.142	55.86
725.544	56.03
725.945	56.23
726.347	56.4
726.748	56.54
727.15	56.67
727.551	56.85
727.952	56.98
728.354	57.18
728.755	57.37
729.156	57.55
729.557	57.75
729.958	57.93
730.359	58.05
730.76	58.16
731.161	58.3
731.562	58.45
731.962	58.57
732.363	58.67
732.763	58.77
733.164	58.86
733.564	58.93
733.965	59.02
734.365	59.06
734.766	59.14
735.166	59.23
735.566	59.27
735.966	59.34
736.366	59.39
736.766	59.45
737.166	59.51
737.566	59.58
737.966	59.63
738.365	59.72
738.765	59.84
739.165	59.9
739.564	59.94
739.964	60.01
740.363	60.04
740.763	60.08
741.162	60.13
741.561	60.19
741.96	60.25
742.36	60.32
742.759	60.32
743.158	60.29
743.557	60.33
743.955	60.38
744.354	60.44
744.753	60.5
745.152	60.53
745.55	60.55
745.949	60.58
746.348	60.59
746.746	60.64
747.144	60.71
747.543	60.78
747.941	60.85
748.339	60.9
748.737	60.92
749.136	60.93
749.534	61
749.932	61.01
750.33	61.02
750.727	61.03
751.125	61.01
751.523	60.98
751.921	60.97
752.318	60.97
752.716	60.93
753.113	60.93
753.511	60.87
753.908	60.82
754.305	60.8
754.703	60.77
755.1	60.76
755.497	60.76
755.894	60.79
756.291	60.76
756.688	60.74
757.085	60.78
757.482	60.77
757.878	60.84
758.275	60.89
758.672	60.94
759.068	60.98
759.465	61
759.861	60.97
760.258	60.94
760.654	60.94
761.05	60.95
761.447	60.9
761.843	60.85
762.239	60.81
762.635	60.74
763.031	60.7
763.427	60.64
763.822	60.58
764.218	60.56
764.614	60.57
765.01	60.55
765.405	60.5
765.801	60.5
766.196	60.51
766.592	60.51
766.987	60.53
767.382	60.54
767.778	60.58
768.173	60.6
768.568	60.59
768.963	60.55
769.358	60.56
769.753	60.63
770.148	60.62
770.542	60.61
770.937	60.59
771.332	60.59
771.726	60.57
772.121	60.5
772.515	60.53
772.91	60.57
773.304	60.62
773.699	60.59
774.093	60.57
774.487	60.57
774.881	60.62
775.275	60.65
775.669	60.68
776.063	60.69
776.457	60.69
776.851	60.65
777.245	60.6
777.638	60.57
778.032	60.6
778.425	60.58
778.819	60.58
779.212	60.53
779.606	60.53
779.999	60.54
780.392	60.55
780.786	60.56
781.179	60.63
781.572	60.65
781.965	60.66
782.358	60.63
782.751	60.63
783.143	60.63
783.536	60.69
783.929	60.68
784.322	60.68
784.714	60.69
785.107	60.71
785.499	60.7
785.891	60.69
786.284	60.66
786.676	60.72
787.068	60.71
787.46	60.69
787.852	60.68
788.245	60.69
788.636	60.7
789.028	60.68
789.42	60.67
789.812	60.65
790.204	60.63
790.595	60.68
790.987	60.66
791.378	60.69
791.77	60.76
792.161	60.8
792.553	60.78
792.944	60.79
793.335	60.8
793.726	60.82
794.117	60.8
794.508	60.84
794.899	60.85
795.29	60.82
795.681	60.82
796.072	60.82
796.463	60.77
796.853	60.8
797.244	60.81
797.634	60.8
798.025	60.87
798.415	60.88
798.806	60.91
799.196	60.94
799.586	60.98
799.976	61.03
800.366	61.03
800.756	61.06
801.146	61.05
801.536	61.07
801.926	61.1
802.316	61.05
802.706	61.08
803.095	61.07
803.485	61.06
803.874	61.09
804.264	61.12
804.653	61.1
805.043	61.11
805.432	61.1
805.821	61.06
806.21	61.09
806.599	61.17
806.988	61.16
807.377	61.22
807.766	61.24
808.155	61.25
808.544	61.24
808.933	61.29
809.321	61.31
809.71	61.38
810.098	61.44
810.487	61.44
810.875	61.4
811.264	61.45
811.652	61.44
812.04	61.45
812.428	61.45
812.816	61.48
813.204	61.47
813.592	61.5
813.98	61.5
814.368	61.5
814.756	61.51
815.144	61.56
815.531	61.57
815.919	61.54
816.306	61.54
816.694	61.58
817.081	61.54
817.469	61.56
817.856	61.57
818.243	61.58
818.63	61.61
819.017	61.63
819.404	61.62
819.791	61.62
820.178	61.69
820.565	61.7
820.952	61.7
821.339	61.78
821.725	61.79
822.112	61.79
822.498	61.81
822.885	61.79
823.271	61.79
823.657	61.78
824.044	61.76
824.43	61.76
824.816	61.73
825.202	61.71
825.588	61.68
825.974	61.65
826.36	61.6
826.746	61.6
827.132	61.57
827.517	61.54
827.903	61.55
828.289	61.53
828.674	61.51
829.06	61.53
829.445	61.53
829.83	61.51
830.216	61.53
830.601	61.54
830.986	61.49
831.371	61.5
831.756	61.44
832.141	61.41
832.526	61.38
832.911	61.36
833.295	61.35
833.68	61.34
834.065	61.32
834.449	61.26
834.834	61.21
835.218	61.24
835.603	61.22
835.987	61.23
836.371	61.24
836.755	61.22
837.139	61.24
837.524	61.24
837.908	61.21
838.291	61.2
838.675	61.2
839.059	61.22
839.443	61.18
839.827	61.16
840.21	61.17
840.594	61.14
840.977	61.12
841.361	61.13
841.744	61.1
842.127	61.07
842.511	61.05
842.894	61.03
843.277	61.01
843.66	61.02
844.043	61.02
844.426	60.99
844.809	60.97
845.191	60.96
845.574	60.89
845.957	60.87
846.339	60.84
846.722	60.84
847.104	60.85
847.487	60.86
847.869	60.81
848.252	60.81
848.634	60.81
849.016	60.81
849.398	60.81
849.78	60.82
850.162	60.82
850.544	60.85
850.926	60.84
851.307	60.83
851.689	60.8
852.071	60.81
852.452	60.8
852.834	60.8
853.215	60.81
853.597	60.8
853.978	60.78
854.359	60.76
854.741	60.78
855.122	60.8
855.503	60.79
855.884	60.77
856.265	60.76
856.646	60.77
857.026	60.75
857.407	60.74
857.788	60.75
858.169	60.75
858.549	60.79
858.93	60.76
859.31	60.73
859.69	60.72
860.071	60.74
860.451	60.77
860.831	60.75
861.211	60.73
861.591	60.78
861.971	60.76
862.351	60.79
862.731	60.8
863.111	60.8
863.491	60.82
863.87	60.82
864.25	60.82
864.629	60.77
865.009	60.75
865.388	60.77
865.768	60.73
866.147	60.75
866.526	60.72
866.905	60.69
867.284	60.69
867.663	60.69
868.042	60.68
868.421	60.66
868.8	60.71
869.179	60.77
869.558	60.78
869.936	60.76
870.315	60.76
870.693	60.78
871.072	60.77
871.45	60.78
871.828	60.78
872.207	60.84
872.585	60.85
872.963	60.81
873.341	60.78
873.719	60.78
874.097	60.79
874.475	60.77
874.853	60.75
875.23	60.75
875.608	60.76
875.986	60.74
876.363	60.67
876.741	60.66
877.118	60.65
877.495	60.65
877.873	60.61
878.25	60.62
878.627	60.62
879.004	60.59
879.381	60.58
879.758	60.54
880.135	60.56
880.512	60.6
880.889	60.61
881.265	60.65
881.642	60.65
882.019	60.69
882.395	60.7
882.772	60.7
883.148	60.71
883.524	60.69
883.901	60.68
884.277	60.65
884.653	60.61
885.029	60.57
885.405	60.53
885.781	60.48
886.157	60.44
886.532	60.41
886.908	60.42
887.284	60.4
887.659	60.4
888.035	60.42
888.411	60.37
888.786	60.34
889.161	60.33
889.537	60.32
889.912	60.31
890.287	60.3
890.662	60.26
891.037	60.19
891.412	60.15
891.787	60.11
892.162	60.06
892.536	60.05
892.911	60.02
893.286	59.98
893.66	59.94
894.035	59.9
894.409	59.89
894.784	59.88
895.158	59.9
895.532	59.87
895.906	59.86
896.281	59.84
896.655	59.84
897.029	59.84
897.402	59.82
897.776	59.8
898.15	59.8
898.524	59.78
898.898	59.77
899.271	59.77
899.645	59.79
900.018	59.8
900.392	59.81
900.765	59.81
901.138	59.83
901.511	59.83
901.884	59.87
902.258	59.88
902.631	59.9
903.003	59.92
903.376	59.92
903.749	59.92
904.122	59.93
904.495	59.92
904.867	59.94
905.24	59.95
905.612	59.97
905.985	59.95
906.357	59.93
906.729	59.92
907.102	59.93
907.474	59.95
907.846	59.91
908.218	59.89
908.59	59.86
908.962	59.84
909.334	59.82
909.705	59.82
910.077	59.82
910.449	59.84
910.82	59.8
911.192	59.77
911.563	59.75
911.935	59.76
912.306	59.78
912.677	59.82
913.048	59.84
913.419	59.82
913.79	59.84
914.161	59.85
914.532	59.86
914.903	59.88
915.274	59.86
915.645	59.89
916.015	59.94
916.386	59.93
916.756	59.9
917.127	59.88
917.497	59.9
917.868	59.9
918.238	59.94
918.608	59.92
918.978	59.93
919.348	59.95
919.718	59.93
920.088	59.92
920.458	59.98
920.828	60.02
921.198	60.05
921.567	60.03
921.937	60.06
922.306	60.03
922.676	60.05
923.045	60.05
923.415	60.09
923.784	60.07
924.153	60.09
924.522	60.02
924.891	59.99
925.26	59.95
925.629	59.95
925.998	59.91
926.367	59.89
926.736	59.86
927.104	59.88
927.473	59.86
927.842	59.86
928.21	59.87
928.578	59.83
928.947	59.85
929.315	59.85
929.683	59.89
930.051	59.88
930.42	59.9
930.788	59.91
931.156	59.87
931.523	59.86
931.891	59.82
932.259	59.74
932.627	59.72
932.994	59.66
933.362	59.62
933.729	59.51
934.097	59.46
934.464	59.43
934.831	59.3
935.199	59.29
935.566	59.2
935.933	59.18
936.3	59.09
936.667	59.07
937.034	59.05
937.401	59
937.767	59.01
938.134	59.03
938.501	58.99
938.867	59.12
939.234	59.21
939.6	59.29
939.967	59.32
940.333	59.57
940.699	59.79
941.065	59.98
941.431	60.14
941.798	60.35
942.163	60.46
942.529	60.58
942.895	60.69
943.261	60.69
943.627	60.8
943.992	60.91
944.358	60.92
944.723	60.87
945.089	60.97
945.454	61.03
945.82	61.03
946.185	61.07
946.55	61.14
946.915	61.13
947.28	61.19
947.645	61.13
948.01	61.1
948.375	61.11
948.74	61.08
949.104	61
949.469	60.82
949.834	60.76
950.198	60.59
950.562	60.45
950.927	60.39
951.291	60.26
951.655	60.24
952.02	60.24
952.384	60.18
952.748	60.14
953.112	60.04
953.476	60.05
953.839	59.98
954.203	60
954.567	59.99
954.931	59.97
955.294	59.93
955.658	59.97
956.021	59.95
956.385	59.95
956.748	59.91
957.111	59.92
957.474	59.97
957.837	60
958.2	59.92
958.563	59.88
958.926	59.77
959.289	59.8
959.652	59.75
960.015	59.72
960.377	59.65
960.74	59.6
961.102	59.56
961.465	59.51
961.827	59.43
962.189	59.41
962.552	59.33
962.914	59.33
963.276	59.33
963.638	59.21
964	59.16
964.362	59.11
964.724	59.1
965.085	59.08
965.447	59.01
965.809	58.98
966.17	59
966.532	59.1
966.893	59.07
967.255	58.98
967.616	59.02
967.977	59.01
968.338	59.03
968.699	59.01
969.061	59.04
969.421	59.07
969.782	59.09
970.143	59.06
970.504	59.01
970.865	58.97
971.225	59.02
971.586	59
971.946	59.05
972.307	59.04
972.667	59.07
973.027	59.07
973.388	59.02
973.748	59.08
974.108	59.07
974.468	59.1
974.828	59.14
975.188	59.17
975.548	59.22
975.907	59.24
976.267	59.25
976.627	59.24
976.986	59.2
977.346	59.28
977.705	59.22
978.064	59.28
978.424	59.29
978.783	59.37
979.142	59.3
979.501	59.25
979.86	59.3
980.219	59.22
980.578	59.2
980.937	59.34
981.296	59.32
981.654	59.4
982.013	59.37
982.371	59.33
982.73	59.26
983.088	59.3
983.447	59.34
983.805	59.33
984.163	59.47
984.521	59.41
984.879	59.33
985.237	59.38
985.595	59.38
985.953	59.39
986.311	59.43
986.669	59.48
987.026	59.54
987.384	59.58
987.741	59.5
988.099	59.5
988.456	59.62
988.814	59.66
989.171	59.65
989.528	59.57
989.885	59.58
990.242	59.65
990.599	59.72
990.956	59.68
991.313	59.7
991.67	59.83
992.027	59.83
992.383	59.85
992.74	59.94
993.096	59.87
993.453	59.99
993.809	60.1
994.165	60.16
994.522	60.3
994.878	60.43
995.234	60.4
995.59	60.26
995.946	60.32
996.302	60.27
996.658	60.23
997.013	60.41
997.369	60.59
997.725	60.67
998.08	60.7
998.436	60.56
998.791	60.52
999.147	60.57
999.502	60.74
999.857	60.86
1000.212	60.91
1000.567	61.02
1000.922	61.08
1001.277	60.98
1001.632	61.16
1001.987	61.07
1002.342	61.15
1002.696	61.17
1003.051	61.12
1003.406	60.96
1003.76	60.85
1004.114	61.09
1004.469	60.99
1004.823	60.96
1005.177	61.18
1005.531	61.01
1005.885	61.14
1006.239	61.3
1006.593	61.25
1006.947	61.46
1007.301	61.74
1007.655	61.81
1008.008	61.77
1008.362	61.93
1008.715	62.02
1009.069	61.9
1009.422	61.75
1009.776	61.72
1010.129	61.68
1010.482	61.83
1010.835	61.99
1011.188	61.94
1011.541	61.78
1011.894	61.83
1012.247	61.87
1012.6	62.05
1012.952	62.04
1013.305	62.54
1013.657	62.67
1014.01	62.73
1014.362	62.93
1014.715	62.82
1015.067	62.96
1015.419	63.5
1015.771	63.62
1016.123	63.48
1016.475	63.6
1016.827	63.75
1017.179	63.7
1017.531	63.9
1017.883	64.21
1018.234	64.44
1018.586	64.4
1018.938	64.47
1019.289	64.38
1019.64	64.75
1019.992	65
1020.343	65.07
1020.694	65.02
1021.045	65.02
1021.396	65.17
1021.747	64.96
1022.098	64.93
1022.449	65.45
1022.8	65.7
1023.151	65.72
1023.501	65.51
1023.852	65.93
1024.202	65.93
1024.553	66.19
1024.903	66.43
1025.253	66.55
1025.604	66.81
1025.954	66.95
1026.304	67.55
1026.654	67.96
1027.004	68.41
1027.354	68.64
1027.703	68.38
1028.053	68.2
1028.403	68.09
1028.753	68.59
1029.102	68.41
1029.452	68.44
1029.801	68.24
1030.15	67.57
1030.499	67.2
897.758	558.94
901.051	563.35
904.343	570.59
907.636	561.05
910.928	550.82
914.22	562.78
917.511	548.79
920.803	523.68
924.094	506.27
927.384	510.28
930.675	497.54
933.965	491.21
937.255	489.03
940.544	468.01
943.834	451.08
947.123	444.31
950.411	419.43
953.7	413.74
956.988	401.74
960.276	384.63
963.563	378.51
966.851	355.39
970.138	351.71
973.424	331.07
976.711	325.47
979.997	313.23
983.283	305.57
986.568	296.16
989.853	290.59
993.138	281.96
996.423	276.56
999.708	270.37
1002.992	272.84
1006.275	262.61
1009.559	259.93
1012.842	253.55
1016.125	245.44
1019.408	241.97
1022.69	240.26
1025.972	236.56
1029.254	230.51
1032.536	227.17
1035.817	219.62
1039.098	215.7
1042.379	211.32
1045.659	209.86
1048.939	207.51
1052.219	205.54
1055.498	202.68
1058.778	199.24
1062.057	195.78
1065.335	194.97
1068.614	191.18
1071.892	189.3
1075.17	186.02
1078.447	184.79
1081.724	182.81
1085.001	178.79
1088.278	178.95
1091.554	176.86
1094.83	175.49
1098.106	173.35
1101.382	172.92
1104.657	172.48
1107.932	172.69
1111.206	171.39
1114.481	170.55
1117.755	168.91
1121.029	168.97
1124.302	165.57
1127.575	164.5
1130.848	164.11
1134.121	162.41
1137.393	161.57
1140.665	161.2
1143.937	159.35
1147.208	157.41
1150.48	154.91
1153.75	154.53
1157.021	153.11
1160.291	152.95
1163.561	152.45
1166.831	150.18
1170.101	149.49
1173.37	148.63
1176.639	146.46
1179.907	146.88
1183.176	146.69
1186.444	147.09
1189.711	145.21
1192.979	147.16
1196.246	146.6
1199.513	146.95
1202.78	148.07
1206.046	147.76
1209.312	148.92
1212.578	149.92
1215.843	151.55
1219.108	152.16
1222.373	154.64
1225.638	157.92
1228.902	160.46
1232.166	165.58
1235.43	166.1
1238.693	170.05
1241.956	174.85
1245.219	177.48
1248.482	179.44
1251.744	177.87
1255.006	180.02
1258.268	175.12
1261.529	173.67
1264.79	168.77
1268.051	166.02
1271.312	165.47
1274.572	162.62
1277.832	158.38
1281.092	156.58
1284.351	153.21
1287.61	153.26
1290.869	151.59
1294.128	151.25
1297.386	150.68
1300.644	150.27
1303.902	148.9
1307.159	148.03
1310.416	148.29
1313.673	150.43
1316.93	151.62
1320.186	154.11
1323.442	155.45
1326.697	158.54
1329.953	159.57
1333.208	164.12
1336.463	171.31
1339.717	174.27
1342.972	182.59
1346.226	187.17
1349.479	187.82
1352.733	195.71
1355.986	200.27
1359.238	204.04
1362.491	206.09
1365.743	213.28
1368.995	214.16
1372.247	214.11
1375.498	213.29
1378.749	218.68
1382	220.72
1385.251	219.54
1388.501	217.44
1391.751	219.59
1395	218.65
1398.25	220.05
1401.499	219.42
1404.748	219.84
1407.996	213
1411.244	213.94
1414.492	210.43
1417.74	202.86
1420.987	199.24
1424.234	197.07
1427.481	189.31
1430.728	183.72
1433.974	178.21
1437.22	172.6
1440.465	166.13
1443.711	161.97
1446.956	156.04
1450.201	150.43
1453.445	145.36
1456.689	141.14
1459.933	136.54
1463.177	131.48
1466.42	129.94
1469.663	125.76
1472.906	123.03
1476.148	120.49
1479.391	117.9
1482.633	116.7
1485.874	115.07
1489.115	113.92
1492.356	112.85
1495.597	111.16
1498.838	110.94
1502.078	109.97
1505.318	110.16
1508.557	108.92
1511.797	107.87
1515.036	108.03
1518.274	107.07
1521.513	106.09
1524.751	105.12
1527.989	105.69
1531.227	105.96
1534.464	105.52
1537.701	104.67
1540.938	103.81
1544.174	104.55
1547.41	104.92
1550.646	103.99
1553.882	104.31
1557.117	103.87
1560.352	104.01
1563.587	103.05
1566.821	102.63
1570.055	102.2
1573.289	102.63
1576.523	102.42
1579.756	101.73
1582.989	102.06
1586.222	102.2
1589.454	102.21
1592.686	102.31
1595.918	102.26
1599.15	101.98
1602.381	102.87
1605.612	103.25
1608.843	102.64
1612.073	103.23
1615.303	103.33
1618.533	102.74
1621.762	103.38
1624.992	103.25
1628.221	102.91
1631.449	103.25
1634.678	103.37
1637.906	102.57
1641.134	102.93
1644.361	102.89
1647.588	103.55
1650.815	103.48
1654.042	103.48
1657.269	102.74
1660.495	103.35
1663.72	103.56
1666.946	103.47
1670.171	103.9
1673.396	104.67
1676.621	104.06
1679.845	104.67
1683.069	104.26
1686.293	104.06
1689.517	104.6
1692.74	105.16
1695.963	104.94
1699.185	105.12
1702.408	104.68
1705.63	104.86
1708.852	105.29
1712.073	105.46
1715.294	105.12
1718.515	105.73
1721.736	106.07
1724.956	105.64
1728.176	105.41
1731.396	106.47
1734.616	106.95
1737.835	107.86
1741.054	107.23
1744.272	106.82
1747.491	107.36
1750.709	108.05
1753.927	107.61
1757.144	108.33
1760.361	108.74
1763.578	109.66
1766.795	109.32
1770.011	109.33
1773.227	109.36
1776.443	110.78
1779.658	110.36
1782.874	111.27
1786.089	110.44
1789.303	110.93
1792.518	110.93
1795.732	112.01
1798.945	112.13
1802.159	112.58
1805.372	113.63
1808.585	114.77
1811.797	114.99
1815.01	116.22
1818.222	116.26
1821.434	118.2
1824.645	119.16
1827.856	121.07
1831.067	120.71
1834.278	122.19
1837.488	122.94
1840.698	123.95
1843.908	123.9
1847.117	125.08
1850.326	126.28
1853.535	127.33
1856.744	127.89
1859.952	128.92
1863.16	128.15
1866.368	128.18
1869.575	128.34
1872.782	127.33
1875.989	125.36
1879.196	125.04
1882.402	123.82
1885.608	123.51
1888.814	121.94
1892.019	122.25
1895.224	119.44
1898.429	119.6
1901.634	119.33
1904.838	120.08
1908.042	120.63
1911.246	121.15
1914.449	121.14
1917.652	119.85
1920.855	120.8
1924.058	118.76
1927.26	118.27
1930.462	119.09
1933.664	119.02
1936.865	120.29
1940.066	117.18
1943.267	116.18
1946.467	117.47
1949.668	117.54
1952.868	118.91
1956.067	117.61
1959.267	119.89
1962.466	119.86
1965.665	121.8
1968.863	122.24
1972.061	122.77
1975.259	125.26
1978.457	126.84
1981.654	127.21
1984.852	128.45
1988.048	129.45
1991.245	131.3
1994.441	133.59
1997.637	136.39
2000.833	138.21
2004.028	139.63
2007.223	143.52
2010.418	146.9
2013.613	152.23
2016.807	155.81
2020.001	159.57
2023.194	164.4
2026.388	170.84
2029.581	179.87
2032.774	185.47
2035.966	191.1
2039.158	196.27
2042.35	199.23
2045.542	203.44
2048.733	212.41
2051.924	214.27
2055.115	216.21
2058.306	218.16
2061.496	221.65
2064.686	219.53
2067.875	219.8
2071.065	220.23
2074.254	220.9
2077.442	227.68
2080.631	229.92
2083.819	230.09
2087.007	236.13
2090.195	240.01
2093.382	240.68
2096.569	241.33
2099.756	245.93
2102.942	251.05
2106.128	258.83
2109.314	259.32
2112.5	257.62
2115.685	255.97
2118.87	256.57
2122.055	256.3
2125.239	262.07
2128.424	268.43
2131.608	265.89
2134.791	266.28
2137.974	266.66
2141.157	266.66
2144.34	271.95
2147.523	277.81
2150.705	284.57
2153.887	281.69
2157.068	284.32
2160.25	286.59
2163.431	285.51
2166.611	290.12
2169.792	295.37
2172.972	299.64
2176.152	299.4
2179.331	304.41
2182.511	303.67
2185.69	307.56
2188.868	317.62
2192.047	326.54
2195.225	331.02
2198.403	336.44
2201.58	332.64
2204.758	344.82
2207.935	345.81
2211.111	355.64
2214.288	356.52
2217.464	362.07
2220.64	362.98
2223.815	367.31
2226.991	361.96
2230.166	365.06
2233.34	373.18
2236.515	386.54
2239.689	380.15
2242.863	384.34
2246.036	378.53
2249.209	390.59
2252.382	388.66
2255.555	402.52
2258.727	402.97
2261.9	416.31
2265.071	421.94
2268.243	417.35
2271.414	428.81
2274.585	435.71
2277.756	435.31
2280.926	454.84
2284.096	458.76
2287.266	459.28
2290.436	452.41
2293.605	462.31
2296.774	475.32
2299.942	474.85
2303.111	491.4
2306.279	498.32
2309.447	501.18
2312.614	504.25
2315.781	513.87
2318.948	510.75
2322.115	523.52
2325.281	549.09
2328.447	544.26
2331.613	550.43
2334.779	554.86
2337.944	564.64
2341.109	573.16
2344.274	578.54
2347.438	598.51
2350.602	609.27
2353.766	651.6
2356.929	652.74
2360.092	660.82
2363.255	665.81
2366.418	670.23
2369.58	692.39
2372.742	685.35
2375.904	685.83
2379.066	708.2
2382.227	742.4
2385.388	735.18
2388.548	697.93
2391.709	691.73
2394.869	711.08
2398.029	717.86
2401.188	718.15
2404.347	734.53
2407.506	764.2
2410.665	737.77
2413.823	735.82
2416.981	737.34
2420.139	702.42
2423.296	761.5
2426.453	812.63
2429.61	775.29
2432.767	824.95
2435.923	848.16
2439.079	828.32
2442.235	844.09
2445.391	860.46
2448.546	858.22
2451.701	906.38
2454.855	971.78
2458.009	855.2
2461.163	871.02
2464.317	878.58
2467.471	859.72
2470.624	892.19
2473.777	869.49
2476.929	846.52
2480.082	905.51
2483.234	949.58
2486.385	963.84
2489.537	988.3
2492.688	1090.75
2495.839	1068.29
2498.989	1101.16
2502.14	1106.25
2505.29	1059.32
2508.439	1163.29
2511.589	1190.62
2514.738	1152.75
2517.887	1138.1
2521.035	1074.1
2524.183	1058.65
2527.331	1048.51
2530.479	1022.35
2533.627	1047.93
