Data from N_3_dec_wc_4n_Splice17_04.txt Node
Date: Sat Feb 29 14:50:40 EST 2020
User: sa697716
Spectrometer: FLMS03696
Trigger mode: 0
Integration Time (sec): 3.180400E-1
Scans to average: 20
Electric dark correction enabled: true
Nonlinearity correction enabled: true
Boxcar width: 5
XAxis mode: Wavelengths
Number of Pixels in Spectrum: 2048
>>>>>Begin Spectral Data<<<<<
187.83	61.19
188.298	31.49
188.766	37.77
189.233	38.74
189.701	50.77
190.169	58.67
190.636	51.29
191.104	30.48
191.571	-30.37
192.039	45.22
192.506	-196.1
192.974	-383.48
193.441	368.31
193.908	19.02
194.375	0.92
194.842	31.6
195.31	57.24
195.777	58.95
196.244	54.8
196.711	51.85
197.177	48.87
197.644	48.94
198.111	48.84
198.578	47.37
199.045	47.61
199.511	47.86
199.978	48.63
200.445	48.28
200.911	48.74
201.378	48.47
201.844	48.85
202.31	49.68
202.777	49.39
203.243	49.84
203.709	50.17
204.176	50.03
204.642	49.73
205.108	49.52
205.574	49.93
206.04	49.51
206.506	49.44
206.972	48.96
207.438	48
207.903	48.26
208.369	47.33
208.835	46.89
209.301	46.32
209.766	45.6
210.232	44.96
210.697	44.32
211.163	43.73
211.628	43.14
212.094	42.57
212.559	41.79
213.024	41.02
213.49	40.36
213.955	39.66
214.42	38.88
214.885	37.95
215.35	36.69
215.815	35.11
216.28	33.25
216.745	31.37
217.21	29.36
217.675	27.68
218.14	25.93
218.604	24.43
219.069	23.16
219.534	21.96
219.998	20.98
220.463	20.16
220.927	19.44
221.392	18.84
221.856	18.26
222.32	17.75
222.785	17.29
223.249	16.91
223.713	16.56
224.177	16.17
224.642	15.9
225.106	15.61
225.57	15.31
226.034	15.04
226.497	14.77
226.961	14.52
227.425	14.28
227.889	14.04
228.353	13.82
228.816	13.61
229.28	13.39
229.744	13.18
230.207	13
230.671	12.81
231.134	12.62
231.597	12.43
232.061	12.26
232.524	12.11
232.987	11.94
233.45	11.78
233.914	11.63
234.377	11.49
234.84	11.34
235.303	11.18
235.766	11.03
236.229	10.9
236.691	10.79
237.154	10.68
237.617	10.55
238.08	10.45
238.542	10.34
239.005	10.22
239.468	10.1
239.93	10.01
240.393	9.93
240.855	9.83
241.317	9.74
241.78	9.64
242.242	9.54
242.704	9.46
243.166	9.38
243.629	9.3
244.091	9.19
244.553	9.13
245.015	9.05
245.477	8.96
245.939	8.9
246.4	8.82
246.862	8.75
247.324	8.68
247.786	8.61
248.247	8.54
248.709	8.46
249.17	8.41
249.632	8.33
250.093	8.25
250.555	8.2
251.016	8.13
251.477	8.06
251.939	8.01
252.4	7.95
252.861	7.9
253.322	7.85
253.783	7.82
254.244	7.77
254.705	7.73
255.166	7.7
255.627	7.66
256.088	7.62
256.549	7.58
257.009	7.54
257.47	7.51
257.931	7.46
258.391	7.41
258.852	7.36
259.312	7.32
259.773	7.27
260.233	7.23
260.694	7.18
261.154	7.14
261.614	7.1
262.074	7.06
262.534	7.01
262.994	6.97
263.455	6.94
263.915	6.91
264.374	6.87
264.834	6.83
265.294	6.79
265.754	6.75
266.214	6.72
266.673	6.69
267.133	6.66
267.593	6.63
268.052	6.6
268.512	6.57
268.971	6.54
269.431	6.51
269.89	6.49
270.349	6.47
270.809	6.46
271.268	6.44
271.727	6.42
272.186	6.4
272.645	6.38
273.104	6.36
273.563	6.35
274.022	6.34
274.481	6.32
274.94	6.3
275.399	6.28
275.857	6.25
276.316	6.23
276.775	6.22
277.233	6.19
277.692	6.17
278.15	6.15
278.609	6.12
279.067	6.09
279.525	6.08
279.984	6.06
280.442	6.05
280.9	6.04
281.358	6.02
281.816	6
282.274	5.99
282.732	5.97
283.19	5.96
283.648	5.95
284.106	5.95
284.564	5.94
285.021	5.93
285.479	5.92
285.937	5.91
286.394	5.9
286.852	5.9
287.309	5.89
287.767	5.88
288.224	5.87
288.682	5.85
289.139	5.83
289.596	5.81
290.053	5.78
290.511	5.74
290.968	5.72
291.425	5.69
291.882	5.66
292.339	5.64
292.796	5.61
293.252	5.59
293.709	5.57
294.166	5.55
294.623	5.53
295.079	5.51
295.536	5.5
295.992	5.48
296.449	5.46
296.905	5.44
297.362	5.42
297.818	5.4
298.274	5.38
298.731	5.37
299.187	5.36
299.643	5.34
300.099	5.33
300.555	5.31
301.011	5.31
301.467	5.29
301.923	5.28
302.379	5.27
302.835	5.27
303.291	5.25
303.746	5.24
304.202	5.22
304.658	5.21
305.113	5.2
305.569	5.19
306.024	5.18
306.479	5.17
306.935	5.17
307.39	5.17
307.845	5.16
308.301	5.16
308.756	5.16
309.211	5.16
309.666	5.16
310.121	5.15
310.576	5.15
311.031	5.14
311.486	5.14
311.94	5.14
312.395	5.12
312.85	5.12
313.305	5.12
313.759	5.11
314.214	5.11
314.668	5.11
315.123	5.11
315.577	5.11
316.032	5.11
316.486	5.1
316.94	5.1
317.394	5.1
317.849	5.08
318.303	5.07
318.757	5.06
319.211	5.04
319.665	5.02
320.119	5
320.572	5
321.026	4.98
321.48	4.96
321.934	4.96
322.387	4.94
322.841	4.93
323.295	4.92
323.748	4.91
324.202	4.89
324.655	4.89
325.108	4.87
325.562	4.85
326.015	4.84
326.468	4.83
326.921	4.81
327.374	4.8
327.827	4.79
328.28	4.78
328.733	4.78
329.186	4.77
329.639	4.75
330.092	4.74
330.545	4.74
330.997	4.74
331.45	4.74
331.903	4.73
332.355	4.73
332.808	4.73
333.26	4.73
333.713	4.73
334.165	4.74
334.617	4.74
335.069	4.74
335.522	4.75
335.974	4.75
336.426	4.74
336.878	4.74
337.33	4.75
337.782	4.75
338.234	4.74
338.686	4.73
339.137	4.74
339.589	4.74
340.041	4.73
340.493	4.71
340.944	4.71
341.396	4.71
341.847	4.69
342.299	4.67
342.75	4.64
343.201	4.63
343.653	4.61
344.104	4.59
344.555	4.57
345.006	4.55
345.457	4.54
345.908	4.53
346.359	4.52
346.81	4.51
347.261	4.49
347.712	4.5
348.163	4.5
348.613	4.48
349.064	4.47
349.515	4.46
349.965	4.45
350.416	4.45
350.866	4.44
351.317	4.43
351.767	4.43
352.217	4.43
352.668	4.43
353.118	4.43
353.568	4.44
354.018	4.45
354.468	4.45
354.918	4.46
355.368	4.48
355.818	4.47
356.268	4.48
356.718	4.48
357.168	4.48
357.617	4.48
358.067	4.48
358.517	4.48
358.966	4.48
359.416	4.49
359.865	4.48
360.315	4.48
360.764	4.49
361.213	4.48
361.663	4.49
362.112	4.5
362.561	4.51
363.01	4.52
363.459	4.52
363.908	4.52
364.357	4.52
364.806	4.53
365.255	4.54
365.703	4.54
366.152	4.55
366.601	4.57
367.05	4.58
367.498	4.58
367.947	4.6
368.395	4.62
368.844	4.63
369.292	4.65
369.74	4.67
370.189	4.68
370.637	4.7
371.085	4.72
371.533	4.73
371.981	4.74
372.429	4.75
372.877	4.76
373.325	4.77
373.773	4.79
374.221	4.82
374.669	4.84
375.116	4.86
375.564	4.88
376.012	4.91
376.459	4.95
376.907	4.98
377.354	5.02
377.801	5.05
378.249	5.09
378.696	5.13
379.143	5.16
379.591	5.18
380.038	5.22
380.485	5.26
380.932	5.3
381.379	5.31
381.826	5.35
382.273	5.39
382.72	5.42
383.166	5.45
383.613	5.48
384.06	5.52
384.506	5.56
384.953	5.59
385.4	5.63
385.846	5.66
386.292	5.7
386.739	5.73
387.185	5.77
387.631	5.81
388.078	5.85
388.524	5.87
388.97	5.89
389.416	5.91
389.862	5.94
390.308	5.97
390.754	5.98
391.2	6.01
391.645	6.05
392.091	6.06
392.537	6.09
392.983	6.12
393.428	6.16
393.874	6.19
394.319	6.22
394.765	6.24
395.21	6.25
395.655	6.28
396.101	6.29
396.546	6.3
396.991	6.32
397.436	6.31
397.881	6.31
398.326	6.33
398.771	6.35
399.216	6.37
399.661	6.4
400.106	6.42
400.551	6.42
400.995	6.39
401.44	6.38
401.885	6.37
402.329	6.37
402.774	6.36
403.218	6.34
403.663	6.31
404.107	6.31
404.551	6.3
404.995	6.29
405.44	6.28
405.884	6.29
406.328	6.29
406.772	6.28
407.216	6.3
407.66	6.29
408.104	6.28
408.547	6.28
408.991	6.25
409.435	6.24
409.879	6.24
410.322	6.24
410.766	6.24
411.209	6.24
411.653	6.23
412.096	6.21
412.54	6.21
412.983	6.21
413.426	6.22
413.869	6.23
414.312	6.25
414.756	6.26
415.199	6.26
415.642	6.27
416.085	6.28
416.527	6.3
416.97	6.31
417.413	6.31
417.856	6.29
418.298	6.28
418.741	6.25
419.184	6.22
419.626	6.19
420.069	6.19
420.511	6.18
420.953	6.17
421.396	6.15
421.838	6.15
422.28	6.16
422.722	6.18
423.164	6.19
423.606	6.21
424.048	6.22
424.49	6.22
424.932	6.21
425.374	6.21
425.816	6.21
426.258	6.18
426.699	6.15
427.141	6.13
427.582	6.11
428.024	6.11
428.465	6.1
428.907	6.12
429.348	6.12
429.789	6.13
430.231	6.12
430.672	6.12
431.113	6.14
431.554	6.16
431.995	6.17
432.436	6.18
432.877	6.16
433.318	6.16
433.759	6.15
434.2	6.15
434.64	6.16
435.081	6.15
435.522	6.17
435.962	6.18
436.403	6.22
436.843	6.24
437.284	6.26
437.724	6.3
438.164	6.31
438.604	6.33
439.045	6.35
439.485	6.35
439.925	6.36
440.365	6.35
440.805	6.34
441.245	6.32
441.685	6.33
442.125	6.34
442.564	6.34
443.004	6.37
443.444	6.4
443.883	6.43
444.323	6.44
444.762	6.5
445.202	6.57
445.641	6.6
446.081	6.63
446.52	6.64
446.959	6.68
447.398	6.72
447.837	6.77
448.276	6.8
448.716	6.84
449.154	6.89
449.593	6.9
450.032	6.9
450.471	6.94
450.91	6.96
451.349	6.97
451.787	6.99
452.226	6.97
452.664	6.93
453.103	6.92
453.541	6.9
453.98	6.89
454.418	6.89
454.856	6.86
455.295	6.84
455.733	6.83
456.171	6.82
456.609	6.8
457.047	6.8
457.485	6.79
457.923	6.79
458.361	6.77
458.798	6.77
459.236	6.76
459.674	6.76
460.111	6.76
460.549	6.75
460.987	6.74
461.424	6.73
461.862	6.72
462.299	6.73
462.736	6.72
463.173	6.72
463.611	6.7
464.048	6.71
464.485	6.71
464.922	6.69
465.359	6.7
465.796	6.69
466.233	6.7
466.67	6.7
467.106	6.71
467.543	6.72
467.98	6.71
468.416	6.73
468.853	6.71
469.29	6.71
469.726	6.74
470.162	6.73
470.599	6.72
471.035	6.72
471.471	6.72
471.907	6.72
472.344	6.72
472.78	6.72
473.216	6.7
473.652	6.69
474.088	6.71
474.523	6.7
474.959	6.7
475.395	6.73
475.831	6.74
476.266	6.74
476.702	6.73
477.138	6.73
477.573	6.73
478.008	6.74
478.444	6.75
478.879	6.75
479.314	6.75
479.75	6.75
480.185	6.74
480.62	6.74
481.055	6.73
481.49	6.73
481.925	6.73
482.36	6.72
482.795	6.71
483.229	6.71
483.664	6.7
484.099	6.7
484.534	6.69
484.968	6.69
485.403	6.68
485.837	6.69
486.271	6.69
486.706	6.69
487.14	6.71
487.574	6.72
488.009	6.75
488.443	6.78
488.877	6.8
489.311	6.84
489.745	6.87
490.179	6.91
490.613	6.95
491.046	7
491.48	7.05
491.914	7.09
492.348	7.14
492.781	7.19
493.215	7.22
493.648	7.28
494.082	7.35
494.515	7.41
494.948	7.46
495.382	7.52
495.815	7.59
496.248	7.66
496.681	7.74
497.114	7.82
497.547	7.91
497.98	8.01
498.413	8.12
498.846	8.23
499.279	8.35
499.711	8.47
500.144	8.59
500.577	8.71
501.009	8.85
501.442	8.99
501.874	9.15
502.306	9.31
502.739	9.46
503.171	9.61
503.603	9.79
504.036	9.96
504.468	10.16
504.9	10.35
505.332	10.56
505.764	10.77
506.196	11
506.627	11.22
507.059	11.45
507.491	11.7
507.923	11.94
508.354	12.21
508.786	12.48
509.217	12.74
509.649	13.03
510.08	13.33
510.512	13.62
510.943	13.92
511.374	14.24
511.805	14.55
512.237	14.87
512.668	15.21
513.099	15.54
513.53	15.9
513.961	16.25
514.391	16.59
514.822	16.93
515.253	17.29
515.684	17.63
516.114	18
516.545	18.35
516.975	18.73
517.406	19.09
517.836	19.45
518.267	19.8
518.697	20.17
519.127	20.53
519.558	20.9
519.988	21.26
520.418	21.6
520.848	21.92
521.278	22.27
521.708	22.46
522.138	22.78
522.567	23.11
522.997	23.43
523.427	23.74
523.857	24.04
524.286	24.34
524.716	24.61
525.145	24.92
525.575	25.22
526.004	25.47
526.433	25.88
526.863	26.14
527.292	26.38
527.721	26.62
528.15	26.84
528.579	27.06
529.008	27.24
529.437	27.45
529.866	27.62
530.295	27.79
530.724	27.97
531.152	28.13
531.581	28.27
532.01	28.41
532.438	28.55
532.867	28.69
533.295	28.81
533.723	28.96
534.152	29.08
534.58	29.16
535.008	29.24
535.436	29.32
535.865	29.4
536.293	29.5
536.721	29.57
537.149	29.64
537.576	29.69
538.004	29.73
538.432	29.76
538.86	29.8
539.287	29.87
539.715	29.94
540.143	29.96
540.57	30
540.998	30.03
541.425	30.07
541.852	30.09
542.28	30.09
542.707	30.16
543.134	30.21
543.561	30.23
543.988	30.26
544.415	30.28
544.842	30.33
545.269	30.36
545.696	30.4
546.123	30.43
546.549	30.48
546.976	30.54
547.403	30.57
547.829	30.6
548.256	30.64
548.682	30.66
549.108	30.71
549.535	30.73
549.961	30.74
550.387	30.75
550.813	30.76
551.24	30.78
551.666	30.78
552.092	30.79
552.518	30.77
552.943	30.77
553.369	30.76
553.795	30.75
554.221	30.73
554.646	30.71
555.072	30.68
555.498	30.64
555.923	30.6
556.349	30.52
556.774	30.45
557.199	30.4
557.625	30.31
558.05	30.22
558.475	30.12
558.9	30.04
559.325	29.93
559.75	29.81
560.175	29.7
560.6	29.55
561.025	29.45
561.449	29.34
561.874	29.22
562.299	29.09
562.723	28.95
563.148	28.81
563.572	28.65
563.997	28.51
564.421	28.34
564.846	28.18
565.27	28.03
565.694	27.85
566.118	27.67
566.542	27.48
566.966	27.29
567.39	27.11
567.814	26.91
568.238	26.71
568.662	26.5
569.086	26.32
569.509	26.13
569.933	25.92
570.357	25.71
570.78	25.5
571.204	25.31
571.627	25.11
572.05	24.92
572.474	24.74
572.897	24.57
573.32	24.4
573.743	24.21
574.166	24.04
574.589	23.88
575.012	23.75
575.435	23.6
575.858	23.48
576.281	23.36
576.704	23.24
577.126	23.1
577.549	23.01
577.972	22.91
578.394	22.78
578.817	22.66
579.239	22.57
579.661	22.45
580.084	22.35
580.506	22.23
580.928	22.13
581.35	22.03
581.772	21.95
582.194	21.83
582.616	21.74
583.038	21.67
583.46	21.59
583.882	21.52
584.303	21.45
584.725	21.37
585.147	21.26
585.568	21.16
585.99	21.06
586.411	20.98
586.833	20.91
587.254	20.83
587.675	20.75
588.096	20.67
588.518	20.59
588.939	20.52
589.36	20.44
589.781	20.39
590.202	20.34
590.623	20.28
591.043	20.22
591.464	20.16
591.885	20.11
592.305	20.07
592.726	20.02
593.147	19.96
593.567	19.9
593.987	19.86
594.408	19.81
594.828	19.78
595.248	19.72
595.669	19.69
596.089	19.64
596.509	19.57
596.929	19.52
597.349	19.46
597.769	19.41
598.189	19.37
598.608	19.31
599.028	19.28
599.448	19.23
599.867	19.18
600.287	19.13
600.706	19.08
601.126	19.02
601.545	18.97
601.965	18.92
602.384	18.87
602.803	18.81
603.222	18.74
603.641	18.65
604.061	18.57
604.48	18.5
604.898	18.41
605.317	18.33
605.736	18.25
606.155	18.15
606.574	18.06
606.992	17.98
607.411	17.9
607.829	17.77
608.248	17.68
608.666	17.59
609.085	17.51
609.503	17.41
609.921	17.33
610.339	17.24
610.758	17.17
611.176	17.08
611.594	16.99
612.012	16.89
612.43	16.87
612.847	16.78
613.265	16.71
613.683	16.61
614.101	16.53
614.518	16.43
614.936	16.35
615.353	16.26
615.771	16.18
616.188	16.11
616.606	16.05
617.023	15.95
617.44	15.88
617.857	15.8
618.274	15.74
618.691	15.69
619.108	15.64
619.525	15.59
619.942	15.55
620.359	15.51
620.776	15.46
621.192	15.42
621.609	15.4
622.026	15.36
622.442	15.32
622.859	15.29
623.275	15.27
623.691	15.25
624.108	15.22
624.524	15.2
624.94	15.16
625.356	15.14
625.772	15.12
626.188	15.11
626.604	15.08
627.02	15.08
627.436	15.05
627.852	15.02
628.268	15
628.683	14.98
629.099	14.96
629.514	14.93
629.93	14.88
630.345	14.83
630.761	14.77
631.176	14.73
631.591	14.66
632.007	14.59
632.422	14.53
632.837	14.44
633.252	14.36
633.667	14.25
634.082	14.16
634.497	14.03
634.911	13.93
635.326	13.81
635.741	13.68
636.155	13.57
636.57	13.43
636.984	13.26
637.399	13.11
637.813	12.95
638.228	12.78
638.642	12.61
639.056	12.45
639.47	12.28
639.884	12.11
640.298	11.93
640.712	11.75
641.126	11.57
641.54	11.4
641.954	11.25
642.368	11.1
642.781	10.94
643.195	10.79
643.609	10.65
644.022	10.5
644.436	10.38
644.849	10.26
645.262	10.15
645.676	10.04
646.089	9.93
646.502	9.82
646.915	9.72
647.328	9.64
647.741	9.56
648.154	9.49
648.567	9.43
648.98	9.37
649.393	9.33
649.805	9.25
650.218	9.21
650.631	9.16
651.043	9.13
651.456	9.09
651.868	9.05
652.28	9.03
652.693	8.98
653.105	8.92
653.517	8.89
653.929	8.84
654.341	8.81
654.753	8.76
655.165	8.71
655.577	8.63
655.989	8.56
656.401	8.49
656.813	8.41
657.224	8.33
657.636	8.26
658.047	8.15
658.459	8.05
658.87	7.96
659.282	7.87
659.693	7.78
660.104	7.69
660.515	7.6
660.926	7.52
661.338	7.43
661.749	7.34
662.159	7.26
662.57	7.19
662.981	7.12
663.392	7.04
663.803	6.96
664.213	6.91
664.624	6.85
665.035	6.8
665.445	6.75
665.855	6.71
666.266	6.68
666.676	6.63
667.086	6.6
667.497	6.56
667.907	6.52
668.317	6.49
668.727	6.46
669.137	6.43
669.547	6.44
669.956	6.42
670.366	6.42
670.776	6.42
671.186	6.41
671.595	6.41
672.005	6.42
672.414	6.44
672.824	6.46
673.233	6.47
673.642	6.48
674.052	6.47
674.461	6.49
674.87	6.5
675.279	6.53
675.688	6.56
676.097	6.6
676.506	6.65
676.915	6.69
677.323	6.75
677.732	6.81
678.141	6.88
678.549	6.95
678.958	7.03
679.366	7.09
679.775	7.19
680.183	7.27
680.592	7.36
681	7.47
681.408	7.6
681.816	7.72
682.224	7.87
682.632	8.05
683.04	8.23
683.448	8.43
683.856	8.67
684.264	8.92
684.671	9.21
685.079	9.5
685.487	9.84
685.894	10.19
686.302	10.6
686.709	11.01
687.116	11.46
687.524	11.94
687.931	12.45
688.338	12.99
688.745	13.56
689.152	14.17
689.559	14.8
689.966	15.44
690.373	16.11
690.78	16.79
691.187	17.5
691.593	18.23
692	18.96
692.407	19.71
692.813	20.49
693.22	21.25
693.626	22
694.032	22.77
694.439	23.56
694.845	24.33
695.251	25.11
695.657	25.87
696.063	26.64
696.469	27.42
696.875	28.15
697.281	28.85
697.687	29.59
698.093	30.32
698.498	31.04
698.904	31.73
699.31	32.41
699.715	33.1
700.12	33.73
700.526	34.37
700.931	34.99
701.337	35.62
701.742	36.22
702.147	36.82
702.552	37.43
702.957	38
703.362	38.58
703.767	39.12
704.172	39.64
704.577	40.19
704.981	40.72
705.386	41.24
705.791	41.79
706.195	42.32
706.6	42.78
707.004	43.25
707.408	43.73
707.813	44.17
708.217	44.63
708.621	45.09
709.025	45.52
709.43	45.95
709.834	46.37
710.237	46.73
710.641	47.15
711.045	47.54
711.449	47.9
711.853	48.28
712.256	48.7
712.66	49.05
713.064	49.39
713.467	49.72
713.87	50.05
714.274	50.38
714.677	50.72
715.08	51.02
715.484	51.37
715.887	51.72
716.29	52.01
716.693	52.26
717.096	52.58
717.499	52.9
717.901	53.21
718.304	53.51
718.707	53.78
719.109	54.08
719.512	54.38
719.915	54.61
720.317	54.86
720.719	55.1
721.122	55.36
721.524	55.58
721.926	55.81
722.328	56.03
722.731	56.22
723.133	56.42
723.535	56.61
723.937	56.82
724.338	56.99
724.74	57.14
725.142	57.26
725.544	57.41
725.945	57.55
726.347	57.71
726.748	57.87
727.15	57.99
727.551	58.14
727.952	58.25
728.354	58.38
728.755	58.53
729.156	58.69
729.557	58.9
729.958	59.07
730.359	59.2
730.76	59.27
731.161	59.36
731.562	59.49
731.962	59.6
732.363	59.71
732.763	59.78
733.164	59.87
733.564	59.91
733.965	59.94
734.365	59.99
734.766	60.04
735.166	60.11
735.566	60.13
735.966	60.17
736.366	60.2
736.766	60.25
737.166	60.3
737.566	60.3
737.966	60.39
738.365	60.46
738.765	60.5
739.165	60.54
739.564	60.58
739.964	60.65
740.363	60.7
740.763	60.77
741.162	60.8
741.561	60.84
741.96	60.92
742.36	60.93
742.759	60.92
743.158	60.92
743.557	60.98
743.955	61.05
744.354	61.1
744.753	61.14
745.152	61.12
745.55	61.13
745.949	61.15
746.348	61.17
746.746	61.23
747.144	61.31
747.543	61.38
747.941	61.43
748.339	61.48
748.737	61.52
749.136	61.56
749.534	61.62
749.932	61.68
750.33	61.7
750.727	61.71
751.125	61.7
751.523	61.68
751.921	61.71
752.318	61.69
752.716	61.62
753.113	61.6
753.511	61.53
753.908	61.52
754.305	61.46
754.703	61.43
755.1	61.39
755.497	61.38
755.894	61.37
756.291	61.32
756.688	61.31
757.085	61.31
757.482	61.27
757.878	61.32
758.275	61.27
758.672	61.3
759.068	61.31
759.465	61.29
759.861	61.3
760.258	61.26
760.654	61.26
761.05	61.25
761.447	61.23
761.843	61.21
762.239	61.18
762.635	61.21
763.031	61.18
763.427	61.16
763.822	61.16
764.218	61.1
764.614	61.11
765.01	61.08
765.405	61.07
765.801	61.06
766.196	61.05
766.592	61.08
766.987	61.05
767.382	61.06
767.778	61.08
768.173	61.07
768.568	61.06
768.963	61.08
769.358	61.08
769.753	61.08
770.148	61.08
770.542	61.07
770.937	61.05
771.332	61.09
771.726	61.07
772.121	61.04
772.515	61.06
772.91	61.09
773.304	61.07
773.699	61.09
774.093	61.07
774.487	61.12
774.881	61.14
775.275	61.14
775.669	61.12
776.063	61.09
776.457	61.1
776.851	61.09
777.245	61.1
777.638	61.09
778.032	61.08
778.425	61.11
778.819	61.07
779.212	61.03
779.606	61.02
779.999	61.03
780.392	61.05
780.786	61.06
781.179	61.1
781.572	61.08
781.965	61.1
782.358	61.07
782.751	61.08
783.143	61.08
783.536	61.15
783.929	61.16
784.322	61.17
784.714	61.16
785.107	61.19
785.499	61.18
785.891	61.19
786.284	61.19
786.676	61.24
787.068	61.21
787.46	61.2
787.852	61.18
788.245	61.2
788.636	61.21
789.028	61.21
789.42	61.16
789.812	61.16
790.204	61.14
790.595	61.14
790.987	61.12
791.378	61.14
791.77	61.21
792.161	61.22
792.553	61.2
792.944	61.2
793.335	61.24
793.726	61.22
794.117	61.23
794.508	61.26
794.899	61.27
795.29	61.3
795.681	61.33
796.072	61.31
796.463	61.3
796.853	61.34
797.244	61.32
797.634	61.33
798.025	61.35
798.415	61.38
798.806	61.39
799.196	61.43
799.586	61.45
799.976	61.44
800.366	61.46
800.756	61.49
801.146	61.5
801.536	61.54
801.926	61.58
802.316	61.63
802.706	61.64
803.095	61.67
803.485	61.67
803.874	61.7
804.264	61.76
804.653	61.79
805.043	61.8
805.432	61.76
805.821	61.73
806.21	61.75
806.599	61.81
806.988	61.82
807.377	61.82
807.766	61.86
808.155	61.86
808.544	61.84
808.933	61.83
809.321	61.85
809.71	61.92
810.098	61.93
810.487	61.96
810.875	61.92
811.264	61.96
811.652	62
812.04	62
812.428	62.03
812.816	62.06
813.204	62.09
813.592	62.11
813.98	62.12
814.368	62.17
814.756	62.17
815.144	62.18
815.531	62.16
815.919	62.15
816.306	62.15
816.694	62.19
817.081	62.19
817.469	62.22
817.856	62.26
818.243	62.26
818.63	62.31
819.017	62.33
819.404	62.34
819.791	62.38
820.178	62.39
820.565	62.37
820.952	62.33
821.339	62.36
821.725	62.35
822.112	62.37
822.498	62.39
822.885	62.36
823.271	62.37
823.657	62.39
824.044	62.36
824.43	62.39
824.816	62.41
825.202	62.42
825.588	62.4
825.974	62.39
826.36	62.36
826.746	62.36
827.132	62.34
827.517	62.37
827.903	62.36
828.289	62.39
828.674	62.36
829.06	62.4
829.445	62.41
829.83	62.42
830.216	62.44
830.601	62.44
830.986	62.45
831.371	62.47
831.756	62.4
832.141	62.41
832.526	62.37
832.911	62.42
833.295	62.39
833.68	62.35
834.065	62.35
834.449	62.3
834.834	62.23
835.218	62.21
835.603	62.2
835.987	62.19
836.371	62.15
836.755	62.13
837.139	62.05
837.524	62.04
837.908	62.02
838.291	61.98
838.675	61.99
839.059	62
839.443	62
839.827	61.98
840.21	62
840.594	62.03
840.977	62.03
841.361	62.06
841.744	62.06
842.127	62.04
842.511	62.05
842.894	62.03
843.277	62.05
843.66	62.04
844.043	62.04
844.426	61.99
844.809	61.97
845.191	61.95
845.574	61.89
845.957	61.86
846.339	61.86
846.722	61.83
847.104	61.81
847.487	61.8
847.869	61.79
848.252	61.75
848.634	61.78
849.016	61.8
849.398	61.8
849.78	61.83
850.162	61.83
850.544	61.84
850.926	61.85
851.307	61.88
851.689	61.85
852.071	61.85
852.452	61.89
852.834	61.88
853.215	61.87
853.597	61.9
853.978	61.87
854.359	61.87
854.741	61.88
855.122	61.89
855.503	61.9
855.884	61.93
856.265	61.92
856.646	61.9
857.026	61.91
857.407	61.85
857.788	61.85
858.169	61.86
858.549	61.87
858.93	61.85
859.31	61.84
859.69	61.79
860.071	61.8
860.451	61.79
860.831	61.81
861.211	61.81
861.591	61.85
861.971	61.84
862.351	61.84
862.731	61.83
863.111	61.83
863.491	61.84
863.87	61.87
864.25	61.88
864.629	61.89
865.009	61.88
865.388	61.87
865.768	61.86
866.147	61.87
866.526	61.87
866.905	61.87
867.284	61.88
867.663	61.88
868.042	61.88
868.421	61.86
868.8	61.86
869.179	61.83
869.558	61.85
869.936	61.84
870.315	61.82
870.693	61.85
871.072	61.84
871.45	61.8
871.828	61.77
872.207	61.76
872.585	61.75
872.963	61.73
873.341	61.74
873.719	61.72
874.097	61.75
874.475	61.74
874.853	61.71
875.23	61.71
875.608	61.77
875.986	61.8
876.363	61.79
876.741	61.79
877.118	61.78
877.495	61.79
877.873	61.77
878.25	61.76
878.627	61.8
879.004	61.78
879.381	61.81
879.758	61.76
880.135	61.79
880.512	61.83
880.889	61.82
881.265	61.86
881.642	61.83
882.019	61.88
882.395	61.86
882.772	61.83
883.148	61.83
883.524	61.85
883.901	61.83
884.277	61.79
884.653	61.78
885.029	61.76
885.405	61.72
885.781	61.7
886.157	61.67
886.532	61.68
886.908	61.71
887.284	61.72
887.659	61.68
888.035	61.7
888.411	61.68
888.786	61.66
889.161	61.67
889.537	61.69
889.912	61.69
890.287	61.67
890.662	61.65
891.037	61.57
891.412	61.53
891.787	61.52
892.162	61.48
892.536	61.47
892.911	61.45
893.286	61.38
893.66	61.33
894.035	61.29
894.409	61.26
894.784	61.25
895.158	61.26
895.532	61.25
895.906	61.24
896.281	61.21
896.655	61.18
897.029	61.19
897.402	61.22
897.776	61.21
898.15	61.22
898.524	61.22
898.898	61.19
899.271	61.18
899.645	61.18
900.018	61.17
900.392	61.19
900.765	61.22
901.138	61.22
901.511	61.23
901.884	61.26
902.258	61.27
902.631	61.28
903.003	61.31
903.376	61.28
903.749	61.3
904.122	61.3
904.495	61.31
904.867	61.26
905.24	61.22
905.612	61.2
905.985	61.16
906.357	61.12
906.729	61.11
907.102	61.08
907.474	61.11
907.846	61.07
908.218	61.06
908.59	61.02
908.962	61.06
909.334	61.06
909.705	61.05
910.077	61.03
910.449	61.02
910.82	61.01
911.192	61
911.563	60.97
911.935	60.95
912.306	60.94
912.677	60.95
913.048	60.91
913.419	60.91
913.79	60.88
914.161	60.9
914.532	60.92
914.903	60.91
915.274	60.89
915.645	60.91
916.015	60.95
916.386	60.94
916.756	60.93
917.127	60.95
917.497	60.94
917.868	60.92
918.238	60.93
918.608	60.97
918.978	60.96
919.348	60.91
919.718	60.92
920.088	60.93
920.458	60.94
920.828	60.96
921.198	61
921.567	60.97
921.937	61.01
922.306	61
922.676	60.97
923.045	60.95
923.415	61
923.784	60.98
924.153	60.93
924.522	60.93
924.891	60.92
925.26	60.85
925.629	60.84
925.998	60.85
926.367	60.85
926.736	60.83
927.104	60.84
927.473	60.82
927.842	60.8
928.21	60.84
928.578	60.8
928.947	60.77
929.315	60.75
929.683	60.79
930.051	60.76
930.42	60.71
930.788	60.69
931.156	60.64
931.523	60.65
931.891	60.56
932.259	60.44
932.627	60.39
932.994	60.33
933.362	60.25
933.729	60.15
934.097	60.06
934.464	60
934.831	59.87
935.199	59.79
935.566	59.64
935.933	59.71
936.3	59.63
936.667	59.55
937.034	59.44
937.401	59.39
937.767	59.3
938.134	59.2
938.501	59.16
938.867	59.16
939.234	59.24
939.6	59.35
939.967	59.27
940.333	59.42
940.699	59.51
941.065	59.72
941.431	59.82
941.798	59.94
942.163	60.14
942.529	60.24
942.895	60.37
943.261	60.35
943.627	60.46
943.992	60.56
944.358	60.59
944.723	60.56
945.089	60.58
945.454	60.65
945.82	60.72
946.185	60.75
946.55	60.85
946.915	60.9
947.28	60.91
947.645	60.91
948.01	60.81
948.375	60.85
948.74	60.84
949.104	60.84
949.469	60.65
949.834	60.51
950.198	60.4
950.562	60.23
950.927	60.2
951.291	60.19
951.655	60.11
952.02	60.13
952.384	60.06
952.748	60.07
953.112	60
953.476	60.06
953.839	60.07
954.203	60.03
954.567	60.03
954.931	60.02
955.294	59.96
955.658	59.88
956.021	59.83
956.385	59.82
956.748	59.78
957.111	59.73
957.474	59.77
957.837	59.83
958.2	59.82
958.563	59.85
958.926	59.83
959.289	59.82
959.652	59.85
960.015	59.82
960.377	59.8
960.74	59.78
961.102	59.76
961.465	59.66
961.827	59.41
962.189	59.37
962.552	59.31
962.914	59.23
963.276	59.23
963.638	59.18
964	59.16
964.362	59.1
964.724	59.06
965.085	59.01
965.447	59.01
965.809	59.12
966.17	59.1
966.532	59.16
966.893	59.17
967.255	59.14
967.616	59.17
967.977	59.2
968.338	59.21
968.699	59.2
969.061	59.23
969.421	59.24
969.782	59.2
970.143	59.19
970.504	59.08
970.865	58.95
971.225	58.85
971.586	58.85
971.946	58.8
972.307	58.81
972.667	58.86
973.027	58.82
973.388	58.8
973.748	58.83
974.108	58.82
974.468	58.89
974.828	58.99
975.188	59.08
975.548	59.01
975.907	58.99
976.267	58.96
976.627	58.84
976.986	58.94
977.346	58.97
977.705	59.04
978.064	59.1
978.424	59.05
978.783	59.02
979.142	58.95
979.501	58.95
979.86	58.95
980.219	58.87
980.578	58.99
980.937	58.96
981.296	58.92
981.654	58.99
982.013	59.01
982.371	58.99
982.73	58.98
983.088	58.97
983.447	59.07
983.805	59.09
984.163	59.17
984.521	58.99
984.879	59.02
985.237	59.09
985.595	59
985.953	58.93
986.311	59.04
986.669	59.06
987.026	59.23
987.384	59.17
987.741	59.14
988.099	59.23
988.456	59.28
988.814	59.23
989.171	59.13
989.528	58.94
989.885	58.9
990.242	58.88
990.599	58.96
990.956	58.87
991.313	58.95
991.67	58.99
992.027	58.87
992.383	58.97
992.74	58.97
993.096	58.95
993.453	59.06
993.809	59.16
994.165	59.1
994.522	58.93
994.878	58.81
995.234	58.75
995.59	58.56
995.946	58.56
996.302	58.35
996.658	58.29
997.013	58.35
997.369	58.38
997.725	58.42
998.08	58.39
998.436	58.55
998.791	58.62
999.147	58.65
999.502	58.86
999.857	59.1
1000.212	59.25
1000.567	59.24
1000.922	59.34
1001.277	59.37
1001.632	59.32
1001.987	59.35
1002.342	59.39
1002.696	59.49
1003.051	59.36
1003.406	59.46
1003.76	59.2
1004.114	59.3
1004.469	59.27
1004.823	59.12
1005.177	59.22
1005.531	59.13
1005.885	59.26
1006.239	59.08
1006.593	58.93
1006.947	58.92
1007.301	58.66
1007.655	58.72
1008.008	58.59
1008.362	58.84
1008.715	59.05
1009.069	58.82
1009.422	58.72
1009.776	58.65
1010.129	58.71
1010.482	58.99
1010.835	59.18
1011.188	59.25
1011.541	59.13
1011.894	59.15
1012.247	58.92
1012.6	58.94
1012.952	59.04
1013.305	59.25
1013.657	59.48
1014.01	59.73
1014.362	59.62
1014.715	59.41
1015.067	59.47
1015.419	59.69
1015.771	59.96
1016.123	59.93
1016.475	59.85
1016.827	59.8
1017.179	59.91
1017.531	59.48
1017.883	59.48
1018.234	59.45
1018.586	59.5
1018.938	59.12
1019.289	58.84
1019.64	58.8
1019.992	59.15
1020.343	58.87
1020.694	59.13
1021.045	59.1
1021.396	59.25
1021.747	59.09
1022.098	59.13
1022.449	59.23
1022.8	59.44
1023.151	59.53
1023.501	59.44
1023.852	59.37
1024.202	59.74
1024.553	59.61
1024.903	59.45
1025.253	59.34
1025.604	59.48
1025.954	59.33
1026.304	59.8
1026.654	59.99
1027.004	60.24
1027.354	59.96
1027.703	59.59
1028.053	59.32
1028.403	58.98
1028.753	59.38
1029.102	59.67
1029.452	59.58
1029.801	59.77
1030.15	59.32
1030.499	59.42
897.758	533.38
901.051	544.58
904.343	550.88
907.636	541.95
910.928	531.88
914.22	540.44
917.511	530.36
920.803	502.4
924.094	485.67
927.384	492.69
930.675	476.32
933.965	472.7
937.255	470.92
940.544	449.47
943.834	429.94
947.123	423.41
950.411	401.49
953.7	395.22
956.988	386.58
960.276	370.01
963.563	365.37
966.851	348.4
970.138	341.29
973.424	319
976.711	317.19
979.997	308.56
983.283	300.31
986.568	291.53
989.853	283.1
993.138	272.22
996.423	268.89
999.708	262.04
1002.992	261.65
1006.275	254.71
1009.559	253.76
1012.842	243.96
1016.125	236
1019.408	233.11
1022.69	231.19
1025.972	228.12
1029.254	224.77
1032.536	219.75
1035.817	212.52
1039.098	210
1042.379	206.08
1045.659	202.67
1048.939	202.33
1052.219	199.51
1055.498	195.69
1058.778	192.91
1062.057	190.23
1065.335	188.39
1068.614	184.67
1071.892	182.32
1075.17	178.53
1078.447	176.65
1081.724	175.18
1085.001	170.77
1088.278	170.82
1091.554	170
1094.83	169.48
1098.106	166.62
1101.382	165.8
1104.657	166.04
1107.932	165.6
1111.206	164.38
1114.481	163.58
1117.755	162.1
1121.029	162.65
1124.302	160.15
1127.575	158.04
1130.848	156.71
1134.121	155.29
1137.393	154.41
1140.665	154.26
1143.937	152.71
1147.208	151.49
1150.48	149.18
1153.75	148.81
1157.021	147.5
1160.291	146.33
1163.561	145.97
1166.831	144.98
1170.101	144.47
1173.37	144.2
1176.639	142.09
1179.907	142.14
1183.176	141.16
1186.444	141.82
1189.711	140.25
1192.979	140.54
1196.246	140.43
1199.513	141.43
1202.78	140.7
1206.046	140.56
1209.312	141.72
1212.578	142.55
1215.843	144.55
1219.108	145.44
1222.373	147.01
1225.638	149.73
1228.902	152.76
1232.166	159.08
1235.43	159.19
1238.693	163.73
1241.956	167.82
1245.219	170.36
1248.482	172.41
1251.744	171.34
1255.006	172.09
1258.268	169.08
1261.529	168.02
1264.79	163.74
1268.051	159.34
1271.312	158.58
1274.572	155.32
1277.832	152.19
1281.092	149.76
1284.351	146.59
1287.61	146.47
1290.869	146.6
1294.128	145.06
1297.386	144.39
1300.644	143.98
1303.902	143.04
1307.159	141.9
1310.416	143.46
1313.673	144.48
1316.93	146.5
1320.186	148.4
1323.442	149.52
1326.697	151.42
1329.953	152.97
1333.208	156.83
1336.463	163.07
1339.717	166.41
1342.972	175.1
1346.226	179.35
1349.479	180.81
1352.733	187.13
1355.986	190.38
1359.238	194.62
1362.491	195.03
1365.743	202.33
1368.995	204.29
1372.247	205.16
1375.498	204.32
1378.749	209.97
1382	208.43
1385.251	207.06
1388.501	205.48
1391.751	208.25
1395	206.26
1398.25	209.01
1401.499	207.36
1404.748	206.58
1407.996	199.69
1411.244	199.47
1414.492	194.98
1417.74	190.23
1420.987	186.8
1424.234	184.03
1427.481	176.45
1430.728	172.15
1433.974	166.42
1437.22	160.49
1440.465	155.03
1443.711	150.81
1446.956	146.01
1450.201	140.52
1453.445	134.5
1456.689	130.4
1459.933	126.1
1463.177	121.37
1466.42	119.19
1469.663	116.01
1472.906	112.9
1476.148	109.44
1479.391	107.38
1482.633	105.5
1485.874	103.63
1489.115	102.77
1492.356	101.25
1495.597	99.95
1498.838	99.84
1502.078	98.62
1505.318	98.02
1508.557	97.55
1511.797	97.06
1515.036	96.37
1518.274	96.76
1521.513	95.74
1524.751	95.2
1527.989	95.92
1531.227	95.58
1534.464	95.5
1537.701	94.81
1540.938	94.45
1544.174	94.35
1547.41	94.88
1550.646	95.03
1553.882	94.81
1557.117	94.61
1560.352	94.84
1563.587	94.29
1566.821	94.26
1570.055	93.62
1573.289	94.11
1576.523	94.32
1579.756	93.98
1582.989	94.04
1586.222	94.25
1589.454	93.98
1592.686	94.52
1595.918	94.32
1599.15	94.29
1602.381	94.65
1605.612	94.91
1608.843	94.63
1612.073	94.61
1615.303	95.12
1618.533	94.7
1621.762	94.27
1624.992	95.05
1628.221	94.61
1631.449	94.84
1634.678	94.7
1637.906	94.69
1641.134	94.99
1644.361	95.1
1647.588	95.91
1650.815	96.07
1654.042	96.58
1657.269	96.34
1660.495	96.18
1663.72	96.58
1666.946	96.45
1670.171	97.12
1673.396	97.48
1676.621	97.45
1679.845	97.92
1683.069	97.27
1686.293	97.25
1689.517	96.92
1692.74	97.44
1695.963	97.6
1699.185	97.7
1702.408	97.37
1705.63	97.61
1708.852	98
1712.073	98
1715.294	97.98
1718.515	97.78
1721.736	98
1724.956	98.52
1728.176	98.5
1731.396	98.74
1734.616	98.86
1737.835	99.36
1741.054	98.98
1744.272	98.77
1747.491	98.59
1750.709	99.05
1753.927	99.72
1757.144	99.44
1760.361	99.24
1763.578	100.13
1766.795	100.16
1770.011	99.91
1773.227	100.28
1776.443	100.93
1779.658	100.76
1782.874	101.4
1786.089	100.96
1789.303	100.89
1792.518	102.42
1795.732	102.82
1798.945	102.84
1802.159	103.3
1805.372	105.01
1808.585	105.75
1811.797	106.42
1815.01	107.11
1818.222	108.09
1821.434	109.19
1824.645	109.79
1827.856	111
1831.067	111.77
1834.278	113.27
1837.488	113.46
1840.698	114.66
1843.908	114.74
1847.117	115.9
1850.326	116.94
1853.535	117.4
1856.744	118.44
1859.952	119.39
1863.16	118.59
1866.368	117.55
1869.575	117.56
1872.782	117.93
1875.989	115.26
1879.196	115.52
1882.402	112.91
1885.608	113.19
1888.814	112.36
1892.019	112.88
1895.224	111.2
1898.429	110.86
1901.634	111.59
1904.838	112.52
1908.042	112.82
1911.246	112.33
1914.449	112.39
1917.652	113.19
1920.855	113.11
1924.058	112.32
1927.26	110.96
1930.462	111.99
1933.664	112.26
1936.865	112.23
1940.066	109.47
1943.267	108.1
1946.467	110.36
1949.668	110.37
1952.868	110.86
1956.067	110.88
1959.267	111.87
1962.466	112.47
1965.665	113.51
1968.863	112.95
1972.061	115.45
1975.259	117.77
1978.457	120.02
1981.654	120.14
1984.852	120.99
1988.048	122.54
1991.245	123.85
1994.441	127.15
1997.637	128.6
2000.833	131.03
2004.028	134.12
2007.223	135.39
2010.418	138.12
2013.613	143.7
2016.807	147.22
2020.001	149.63
2023.194	154.15
2026.388	160.4
2029.581	166.09
2032.774	173.54
2035.966	178.33
2039.158	182.66
2042.35	187.4
2045.542	190.03
2048.733	197.19
2051.924	199.31
2055.115	204.36
2058.306	206.32
2061.496	208.66
2064.686	209.89
2067.875	207.79
2071.065	210.32
2074.254	210.89
2077.442	216.95
2080.631	221.13
2083.819	220.58
2087.007	226.33
2090.195	229.62
2093.382	229.83
2096.569	231.01
2099.756	233.35
2102.942	238.29
2106.128	242.61
2109.314	245.35
2112.5	244.75
2115.685	242.75
2118.87	242.71
2122.055	242.85
2125.239	248.35
2128.424	255.29
2131.608	253.8
2134.791	255.13
2137.974	256.89
2141.157	259.03
2144.34	260.9
2147.523	266.5
2150.705	273.27
2153.887	269.87
2157.068	273.2
2160.25	273.66
2163.431	272.78
2166.611	276.32
2169.792	281.26
2172.972	284.92
2176.152	284.06
2179.331	290.85
2182.511	289.31
2185.69	292.03
2188.868	305.19
2192.047	312.06
2195.225	316.86
2198.403	319.7
2201.58	318.01
2204.758	328.55
2207.935	328.98
2211.111	337.96
2214.288	338.36
2217.464	342.94
2220.64	345.05
2223.815	345.5
2226.991	340.02
2230.166	342.09
2233.34	352.96
2236.515	363.16
2239.689	353.46
2242.863	363.24
2246.036	358.09
2249.209	365.78
2252.382	364.52
2255.555	377.23
2258.727	380.74
2261.9	395.56
2265.071	402.2
2268.243	397.42
2271.414	409.59
2274.585	423.68
2277.756	421
2280.926	434.94
2284.096	441.06
2287.266	444.85
2290.436	434.98
2293.605	444.56
2296.774	459.88
2299.942	458.71
2303.111	471.74
2306.279	481.03
2309.447	481.66
2312.614	482.73
2315.781	498.53
2318.948	497.66
2322.115	507.06
2325.281	536.33
2328.447	530.19
2331.613	530.35
2334.779	536.68
2337.944	549.45
2341.109	553.85
2344.274	560.39
2347.438	571.86
2350.602	577.62
2353.766	619.15
2356.929	620.22
2360.092	631.97
2363.255	634.74
2366.418	644.73
2369.58	660.77
2372.742	659.64
2375.904	657.48
2379.066	676.23
2382.227	713.27
2385.388	721.58
2388.548	680.71
2391.709	674.63
2394.869	697.43
2398.029	694.96
2401.188	696.26
2404.347	714.14
2407.506	736.39
2410.665	711.11
2413.823	711.62
2416.981	716.47
2420.139	681.19
2423.296	732.88
2426.453	779.37
2429.61	739.91
2432.767	794.81
2435.923	818
2439.079	798.09
2442.235	812.21
2445.391	834.89
2448.546	834.49
2451.701	877.49
2454.855	927.88
2458.009	825.27
2461.163	837.24
2464.317	849.42
2467.471	831.82
2470.624	862.51
2473.777	842.2
2476.929	818.24
2480.082	868.85
2483.234	906.09
2486.385	923.96
2489.537	947.56
2492.688	1045.52
2495.839	1033.8
2498.989	1057.62
2502.14	1062.67
2505.29	1013.42
2508.439	1125.79
2511.589	1153.67
2514.738	1125.25
2517.887	1114.98
2521.035	1046.5
2524.183	1027.28
2527.331	1016.2
2530.479	991.24
2533.627	1012.73
