Data from N_3_ofc_oh_4n_Splice17_15.txt Node
Date: Sat Feb 29 15:06:23 EST 2020
User: sa697716
Spectrometer: FLMS03696
Trigger mode: 0
Integration Time (sec): 3.180400E-1
Scans to average: 20
Electric dark correction enabled: true
Nonlinearity correction enabled: true
Boxcar width: 5
XAxis mode: Wavelengths
Number of Pixels in Spectrum: 2048
>>>>>Begin Spectral Data<<<<<
187.83	144.21
188.298	146.37
188.766	125.71
189.233	116.43
189.701	115.03
190.169	115.76
190.636	128.5
191.104	121.98
191.571	244.39
192.039	238.81
192.506	-152.26
192.974	4230.72
193.441	183.37
193.908	11.53
194.375	-74.82
194.842	-11.4
195.31	56.21
195.777	120.06
196.244	100.88
196.711	96.54
197.177	97.01
197.644	96.46
198.111	95.2
198.578	96.15
199.045	96.73
199.511	96.71
199.978	96.61
200.445	96.13
200.911	96.38
201.378	96.32
201.844	96.95
202.31	97.21
202.777	97.64
203.243	98.1
203.709	97.72
204.176	97.37
204.642	97.01
205.108	96.72
205.574	96.54
206.04	95.93
206.506	95.43
206.972	94.49
207.438	93.77
207.903	92.51
208.369	90.75
208.835	89.86
209.301	88.62
209.766	87.03
210.232	85.48
210.697	84.04
211.163	82.53
211.628	80.97
212.094	79.6
212.559	77.88
213.024	76.28
213.49	74.72
213.955	73.18
214.42	71.47
214.885	69.36
215.35	66.9
215.815	63.42
216.28	59.77
216.745	55.56
217.21	51.22
217.675	47.24
218.14	43.62
218.604	40.49
219.069	37.59
219.534	35.14
219.998	33.19
220.463	31.47
220.927	30.1
221.392	28.88
221.856	27.89
222.32	27.02
222.785	26.21
223.249	25.56
223.713	24.95
224.177	24.45
224.642	23.97
225.106	23.49
225.57	23.02
226.034	22.61
226.497	22.18
226.961	21.75
227.425	21.38
227.889	21.03
228.353	20.68
228.816	20.35
229.28	19.97
229.744	19.66
230.207	19.36
230.671	19.07
231.134	18.76
231.597	18.5
232.061	18.29
232.524	18.05
232.987	17.79
233.45	17.54
233.914	17.3
234.377	17.1
234.84	16.91
235.303	16.73
235.766	16.54
236.229	16.38
236.691	16.2
237.154	16.02
237.617	15.85
238.08	15.7
238.542	15.57
239.005	15.43
239.468	15.29
239.93	15.15
240.393	15.01
240.855	14.87
241.317	14.75
241.78	14.63
242.242	14.49
242.704	14.37
243.166	14.24
243.629	14.12
244.091	14.01
244.553	13.89
245.015	13.78
245.477	13.64
245.939	13.51
246.4	13.38
246.862	13.25
247.324	13.15
247.786	13.03
248.247	12.92
248.709	12.81
249.17	12.7
249.632	12.57
250.093	12.45
250.555	12.35
251.016	12.26
251.477	12.16
251.939	12.07
252.4	11.99
252.861	11.91
253.322	11.82
253.783	11.75
254.244	11.66
254.705	11.6
255.166	11.54
255.627	11.47
256.088	11.39
256.549	11.33
257.009	11.25
257.47	11.18
257.931	11.1
258.391	11
258.852	10.92
259.312	10.84
259.773	10.76
260.233	10.67
260.694	10.58
261.154	10.5
261.614	10.42
262.074	10.35
262.534	10.26
262.994	10.2
263.455	10.13
263.915	10.06
264.374	9.99
264.834	9.92
265.294	9.85
265.754	9.79
266.214	9.73
266.673	9.68
267.133	9.62
267.593	9.57
268.052	9.52
268.512	9.48
268.971	9.45
269.431	9.41
269.89	9.38
270.349	9.34
270.809	9.32
271.268	9.29
271.727	9.26
272.186	9.23
272.645	9.19
273.104	9.16
273.563	9.14
274.022	9.1
274.481	9.07
274.94	9.03
275.399	9
275.857	8.96
276.316	8.92
276.775	8.89
277.233	8.85
277.692	8.83
278.15	8.79
278.609	8.76
279.067	8.73
279.525	8.7
279.984	8.69
280.442	8.67
280.9	8.66
281.358	8.64
281.816	8.62
282.274	8.6
282.732	8.59
283.19	8.59
283.648	8.57
284.106	8.55
284.564	8.55
285.021	8.53
285.479	8.51
285.937	8.5
286.394	8.48
286.852	8.48
287.309	8.46
287.767	8.44
288.224	8.42
288.682	8.4
289.139	8.38
289.596	8.34
290.053	8.29
290.511	8.25
290.968	8.2
291.425	8.16
291.882	8.12
292.339	8.08
292.796	8.04
293.252	7.99
293.709	7.96
294.166	7.92
294.623	7.89
295.079	7.87
295.536	7.85
295.992	7.82
296.449	7.8
296.905	7.77
297.362	7.74
297.818	7.72
298.274	7.7
298.731	7.68
299.187	7.66
299.643	7.65
300.099	7.63
300.555	7.61
301.011	7.6
301.467	7.57
301.923	7.56
302.379	7.54
302.835	7.53
303.291	7.51
303.746	7.5
304.202	7.48
304.658	7.47
305.113	7.46
305.569	7.45
306.024	7.44
306.479	7.44
306.935	7.43
307.39	7.44
307.845	7.44
308.301	7.44
308.756	7.45
309.211	7.46
309.666	7.46
310.121	7.46
310.576	7.47
311.031	7.48
311.486	7.48
311.94	7.48
312.395	7.48
312.85	7.49
313.305	7.49
313.759	7.49
314.214	7.48
314.668	7.49
315.123	7.5
315.577	7.5
316.032	7.48
316.486	7.48
316.94	7.46
317.394	7.45
317.849	7.43
318.303	7.42
318.757	7.39
319.211	7.36
319.665	7.34
320.119	7.31
320.572	7.29
321.026	7.28
321.48	7.26
321.934	7.25
322.387	7.23
322.841	7.21
323.295	7.2
323.748	7.19
324.202	7.18
324.655	7.17
325.108	7.16
325.562	7.13
326.015	7.11
326.468	7.1
326.921	7.09
327.374	7.08
327.827	7.08
328.28	7.07
328.733	7.07
329.186	7.07
329.639	7.06
330.092	7.05
330.545	7.06
330.997	7.07
331.45	7.08
331.903	7.08
332.355	7.09
332.808	7.09
333.26	7.1
333.713	7.11
334.165	7.12
334.617	7.14
335.069	7.14
335.522	7.16
335.974	7.17
336.426	7.17
336.878	7.18
337.33	7.19
337.782	7.2
338.234	7.2
338.686	7.2
339.137	7.2
339.589	7.18
340.041	7.18
340.493	7.16
340.944	7.15
341.396	7.14
341.847	7.12
342.299	7.09
342.75	7.06
343.201	7.04
343.653	7
344.104	6.98
344.555	6.96
345.006	6.93
345.457	6.91
345.908	6.88
346.359	6.87
346.81	6.86
347.261	6.85
347.712	6.85
348.163	6.84
348.613	6.83
349.064	6.81
349.515	6.8
349.965	6.8
350.416	6.8
350.866	6.81
351.317	6.79
351.767	6.78
352.217	6.77
352.668	6.76
353.118	6.76
353.568	6.77
354.018	6.79
354.468	6.79
354.918	6.79
355.368	6.8
355.818	6.78
356.268	6.8
356.718	6.81
357.168	6.82
357.617	6.82
358.067	6.82
358.517	6.81
358.966	6.81
359.416	6.81
359.865	6.81
360.315	6.8
360.764	6.81
361.213	6.8
361.663	6.8
362.112	6.8
362.561	6.8
363.01	6.81
363.459	6.81
363.908	6.81
364.357	6.81
364.806	6.8
365.255	6.8
365.703	6.79
366.152	6.79
366.601	6.8
367.05	6.8
367.498	6.79
367.947	6.79
368.395	6.81
368.844	6.81
369.292	6.8
369.74	6.81
370.189	6.82
370.637	6.82
371.085	6.83
371.533	6.83
371.981	6.82
372.429	6.82
372.877	6.83
373.325	6.81
373.773	6.81
374.221	6.82
374.669	6.82
375.116	6.82
375.564	6.82
376.012	6.83
376.459	6.83
376.907	6.84
377.354	6.85
377.801	6.86
378.249	6.88
378.696	6.9
379.143	6.91
379.591	6.94
380.038	6.95
380.485	6.97
380.932	6.98
381.379	6.99
381.826	7.01
382.273	7.02
382.72	7.03
383.166	7.02
383.613	7.02
384.06	7.03
384.506	7.03
384.953	7.03
385.4	7.05
385.846	7.07
386.292	7.08
386.739	7.11
387.185	7.14
387.631	7.16
388.078	7.2
388.524	7.21
388.97	7.22
389.416	7.22
389.862	7.25
390.308	7.27
390.754	7.28
391.2	7.32
391.645	7.35
392.091	7.37
392.537	7.39
392.983	7.41
393.428	7.45
393.874	7.49
394.319	7.52
394.765	7.54
395.21	7.55
395.655	7.57
396.101	7.58
396.546	7.6
396.991	7.62
397.436	7.63
397.881	7.65
398.326	7.69
398.771	7.73
399.216	7.77
399.661	7.8
400.106	7.83
400.551	7.85
400.995	7.85
401.44	7.84
401.885	7.83
402.329	7.83
402.774	7.82
403.218	7.82
403.663	7.79
404.107	7.79
404.551	7.8
404.995	7.81
405.44	7.81
405.884	7.83
406.328	7.85
406.772	7.87
407.216	7.9
407.66	7.92
408.104	7.93
408.547	7.95
408.991	7.95
409.435	7.95
409.879	7.95
410.322	7.99
410.766	8.01
411.209	8.03
411.653	8.05
412.096	8.06
412.54	8.07
412.983	8.09
413.426	8.13
413.869	8.17
414.312	8.22
414.756	8.26
415.199	8.27
415.642	8.3
416.085	8.32
416.527	8.35
416.97	8.37
417.413	8.38
417.856	8.38
418.298	8.35
418.741	8.34
419.184	8.32
419.626	8.31
420.069	8.3
420.511	8.3
420.953	8.29
421.396	8.29
421.838	8.29
422.28	8.33
422.722	8.36
423.164	8.39
423.606	8.41
424.048	8.41
424.49	8.45
424.932	8.46
425.374	8.44
425.816	8.44
426.258	8.41
426.699	8.37
427.141	8.33
427.582	8.31
428.024	8.32
428.465	8.34
428.907	8.38
429.348	8.38
429.789	8.4
430.231	8.42
430.672	8.46
431.113	8.53
431.554	8.59
431.995	8.66
432.436	8.68
432.877	8.7
433.318	8.7
433.759	8.73
434.2	8.77
434.64	8.82
435.081	8.86
435.522	8.9
435.962	8.94
436.403	9.01
436.843	9.02
437.284	9.07
437.724	9.14
438.164	9.18
438.604	9.22
439.045	9.23
439.485	9.25
439.925	9.27
440.365	9.3
440.805	9.32
441.245	9.28
441.685	9.34
442.125	9.37
442.564	9.39
443.004	9.43
443.444	9.45
443.883	9.48
444.323	9.51
444.762	9.58
445.202	9.65
445.641	9.69
446.081	9.77
446.52	9.8
446.959	9.85
447.398	9.92
447.837	9.98
448.276	10.01
448.716	10.06
449.154	10.12
449.593	10.15
450.032	10.16
450.471	10.19
450.91	10.21
451.349	10.24
451.787	10.23
452.226	10.21
452.664	10.2
453.103	10.21
453.541	10.22
453.98	10.2
454.418	10.17
454.856	10.14
455.295	10.11
455.733	10.09
456.171	10.07
456.609	10.07
457.047	10.05
457.485	10.03
457.923	10.02
458.361	10
458.798	10.02
459.236	10.02
459.674	10.03
460.111	10.03
460.549	10.03
460.987	10.03
461.424	10.02
461.862	10.02
462.299	10.01
462.736	10.01
463.173	10.02
463.611	10
464.048	10
464.485	10
464.922	10
465.359	10.01
465.796	10.02
466.233	10.04
466.67	10.07
467.106	10.09
467.543	10.11
467.98	10.11
468.416	10.12
468.853	10.14
469.29	10.16
469.726	10.17
470.162	10.17
470.599	10.18
471.035	10.18
471.471	10.17
471.907	10.19
472.344	10.18
472.78	10.19
473.216	10.19
473.652	10.19
474.088	10.19
474.523	10.2
474.959	10.19
475.395	10.19
475.831	10.19
476.266	10.18
476.702	10.18
477.138	10.17
477.573	10.14
478.008	10.15
478.444	10.13
478.879	10.12
479.314	10.12
479.75	10.13
480.185	10.11
480.62	10.1
481.055	10.09
481.49	10.06
481.925	10.04
482.36	10.04
482.795	10.01
483.229	10.02
483.664	10
484.099	9.98
484.534	9.97
484.968	9.97
485.403	9.96
485.837	9.97
486.271	9.97
486.706	9.97
487.14	9.99
487.574	10
488.009	9.99
488.443	10.01
488.877	10.02
489.311	10.03
489.745	10.05
490.179	10.08
490.613	10.11
491.046	10.14
491.48	10.18
491.914	10.21
492.348	10.24
492.781	10.29
493.215	10.32
493.648	10.37
494.082	10.43
494.515	10.48
494.948	10.52
495.382	10.58
495.815	10.66
496.248	10.72
496.681	10.79
497.114	10.86
497.547	10.94
497.98	11.03
498.413	11.11
498.846	11.2
499.279	11.3
499.711	11.4
500.144	11.51
500.577	11.61
501.009	11.73
501.442	11.86
501.874	11.99
502.306	12.13
502.739	12.26
503.171	12.41
503.603	12.58
504.036	12.75
504.468	12.93
504.9	13.11
505.332	13.3
505.764	13.5
506.196	13.72
506.627	13.94
507.059	14.17
507.491	14.42
507.923	14.68
508.354	14.94
508.786	15.2
509.217	15.47
509.649	15.77
510.08	16.08
510.512	16.38
510.943	16.69
511.374	17.02
511.805	17.35
512.237	17.68
512.668	18.02
513.099	18.39
513.53	18.77
513.961	19.14
514.391	19.49
514.822	19.86
515.253	20.24
515.684	20.61
516.114	20.99
516.545	21.38
516.975	21.79
517.406	22.17
517.836	22.55
518.267	22.92
518.697	23.32
519.127	23.74
519.558	24.14
519.988	24.53
520.418	24.94
520.848	25.33
521.278	25.75
521.708	26.17
522.138	26.56
522.567	26.95
522.997	27.33
523.427	27.69
523.857	28.03
524.286	28.39
524.716	28.72
525.145	29.06
525.575	29.39
526.004	29.68
526.433	29.96
526.863	30.25
527.292	30.53
527.721	30.8
528.15	31.05
528.579	31.31
529.008	31.56
529.437	31.78
529.866	31.99
530.295	32.19
530.724	32.43
531.152	32.61
531.581	32.81
532.01	33
532.438	33.16
532.867	33.34
533.295	33.49
533.723	33.64
534.152	33.79
534.58	33.91
535.008	34.03
535.436	34.11
535.865	34.19
536.293	34.27
536.721	34.35
537.149	34.43
537.576	34.49
538.004	34.56
538.432	34.6
538.86	34.67
539.287	34.75
539.715	34.79
540.143	34.84
540.57	34.9
540.998	34.96
541.425	35.01
541.852	35.07
542.28	35.12
542.707	35.16
543.134	35.21
543.561	35.23
543.988	35.29
544.415	35.34
544.842	35.37
545.269	35.43
545.696	35.47
546.123	35.52
546.549	35.56
546.976	35.61
547.403	35.65
547.829	35.72
548.256	35.78
548.682	35.78
549.108	35.83
549.535	35.87
549.961	35.89
550.387	35.91
550.813	35.9
551.24	35.91
551.666	35.93
552.092	35.94
552.518	35.95
552.943	35.95
553.369	35.95
553.795	35.95
554.221	35.92
554.646	35.91
555.072	35.88
555.498	35.84
555.923	35.81
556.349	35.73
556.774	35.66
557.199	35.58
557.625	35.49
558.05	35.39
558.475	35.28
558.9	35.18
559.325	35.06
559.75	34.92
560.175	34.81
560.6	34.66
561.025	34.53
561.449	34.37
561.874	34.19
562.299	34.03
562.723	33.84
563.148	33.65
563.572	33.48
563.997	33.3
564.421	33.1
564.846	32.89
565.27	32.68
565.694	32.46
566.118	32.23
566.542	32.02
566.966	31.81
567.39	31.6
567.814	31.36
568.238	31.09
568.662	30.84
569.086	30.61
569.509	30.38
569.933	30.14
570.357	29.89
570.78	29.67
571.204	29.42
571.627	29.19
572.05	28.98
572.474	28.79
572.897	28.63
573.32	28.44
573.743	28.26
574.166	28.07
574.589	27.89
575.012	27.75
575.435	27.58
575.858	27.44
576.281	27.3
576.704	27.16
577.126	26.99
577.549	26.85
577.972	26.72
578.394	26.58
578.817	26.45
579.239	26.35
579.661	26.21
580.084	26.1
580.506	25.98
580.928	25.86
581.35	25.75
581.772	25.67
582.194	25.56
582.616	25.44
583.038	25.34
583.46	25.25
583.882	25.14
584.303	25.05
584.725	24.95
585.147	24.86
585.568	24.78
585.99	24.66
586.411	24.56
586.833	24.48
587.254	24.4
587.675	24.34
588.096	24.26
588.518	24.19
588.939	24.13
589.36	24.05
589.781	23.99
590.202	23.94
590.623	23.89
591.043	23.82
591.464	23.75
591.885	23.67
592.305	23.62
592.726	23.57
593.147	23.53
593.567	23.46
593.987	23.41
594.408	23.36
594.828	23.27
595.248	23.25
595.669	23.19
596.089	23.13
596.509	23.08
596.929	23.02
597.349	22.95
597.769	22.88
598.189	22.84
598.608	22.77
599.028	22.71
599.448	22.67
599.867	22.58
600.287	22.51
600.706	22.46
601.126	22.42
601.545	22.36
601.965	22.3
602.384	22.23
602.803	22.15
603.222	22.08
603.641	22.02
604.061	21.94
604.48	21.88
604.898	21.82
605.317	21.73
605.736	21.63
606.155	21.54
606.574	21.44
606.992	21.36
607.411	21.28
607.829	21.13
608.248	21.02
608.666	20.91
609.085	20.8
609.503	20.69
609.921	20.6
610.339	20.51
610.758	20.41
611.176	20.33
611.594	20.24
612.012	20.13
612.43	20.1
612.847	20.01
613.265	19.93
613.683	19.83
614.101	19.72
614.518	19.61
614.936	19.52
615.353	19.44
615.771	19.33
616.188	19.24
616.606	19.14
617.023	19.06
617.44	18.98
617.857	18.9
618.274	18.84
618.691	18.8
619.108	18.76
619.525	18.69
619.942	18.64
620.359	18.59
620.776	18.54
621.192	18.5
621.609	18.47
622.026	18.42
622.442	18.4
622.859	18.35
623.275	18.33
623.691	18.29
624.108	18.3
624.524	18.28
624.94	18.26
625.356	18.25
625.772	18.23
626.188	18.22
626.604	18.19
627.02	18.17
627.436	18.16
627.852	18.12
628.268	18.11
628.683	18.05
629.099	18.01
629.514	17.98
629.93	17.94
630.345	17.9
630.761	17.82
631.176	17.79
631.591	17.73
632.007	17.65
632.422	17.58
632.837	17.49
633.252	17.4
633.667	17.29
634.082	17.19
634.497	17.08
634.911	16.95
635.326	16.82
635.741	16.69
636.155	16.55
636.57	16.42
636.984	16.25
637.399	16.09
637.813	15.93
638.228	15.78
638.642	15.62
639.056	15.45
639.47	15.28
639.884	15.12
640.298	14.93
640.712	14.77
641.126	14.6
641.54	14.45
641.954	14.27
642.368	14.12
642.781	13.97
643.195	13.82
643.609	13.67
644.022	13.53
644.436	13.4
644.849	13.29
645.262	13.16
645.676	13.04
646.089	12.94
646.502	12.84
646.915	12.74
647.328	12.66
647.741	12.56
648.154	12.49
648.567	12.44
648.98	12.37
649.393	12.31
649.805	12.24
650.218	12.19
650.631	12.15
651.043	12.11
651.456	12.09
651.868	12.04
652.28	12.01
652.693	11.96
653.105	11.91
653.517	11.87
653.929	11.83
654.341	11.81
654.753	11.76
655.165	11.7
655.577	11.63
655.989	11.56
656.401	11.48
656.813	11.41
657.224	11.33
657.636	11.24
658.047	11.16
658.459	11.06
658.87	10.96
659.282	10.89
659.693	10.8
660.104	10.71
660.515	10.63
660.926	10.55
661.338	10.48
661.749	10.39
662.159	10.31
662.57	10.24
662.981	10.17
663.392	10.1
663.803	10.02
664.213	9.95
664.624	9.91
665.035	9.84
665.445	9.78
665.855	9.73
666.266	9.69
666.676	9.64
667.086	9.6
667.497	9.57
667.907	9.53
668.317	9.5
668.727	9.48
669.137	9.46
669.547	9.44
669.956	9.43
670.366	9.43
670.776	9.42
671.186	9.41
671.595	9.39
672.005	9.4
672.414	9.41
672.824	9.41
673.233	9.43
673.642	9.43
674.052	9.43
674.461	9.44
674.87	9.45
675.279	9.47
675.688	9.5
676.097	9.53
676.506	9.55
676.915	9.58
677.323	9.61
677.732	9.65
678.141	9.69
678.549	9.76
678.958	9.83
679.366	9.88
679.775	9.97
680.183	10.06
680.592	10.15
681	10.25
681.408	10.36
681.816	10.48
682.224	10.62
682.632	10.79
683.04	10.95
683.448	11.13
683.856	11.35
684.264	11.58
684.671	11.85
685.079	12.14
685.487	12.47
685.894	12.83
686.302	13.22
686.709	13.63
687.116	14.07
687.524	14.57
687.931	15.09
688.338	15.64
688.745	16.23
689.152	16.85
689.559	17.48
689.966	18.16
690.373	18.88
690.78	19.59
691.187	20.36
691.593	21.13
692	21.94
692.407	22.75
692.813	23.6
693.22	24.43
693.626	25.28
694.032	26.16
694.439	27.04
694.845	27.91
695.251	28.8
695.657	29.66
696.063	30.57
696.469	31.44
696.875	32.33
697.281	33.17
697.687	34.07
698.093	34.93
698.498	35.77
698.904	36.61
699.31	37.43
699.715	38.25
700.12	39.07
700.526	39.88
700.931	40.65
701.337	41.43
701.742	42.19
702.147	42.94
702.552	43.71
702.957	44.44
703.362	45.16
703.767	45.87
704.172	46.59
704.577	47.28
704.981	47.92
705.386	48.59
705.791	49.23
706.195	49.86
706.6	50.45
707.004	51.03
707.408	51.63
707.813	52.19
708.217	52.76
708.621	53.31
709.025	53.85
709.43	54.4
709.834	54.92
710.237	55.4
710.641	55.93
711.045	56.42
711.449	56.9
711.853	57.37
712.256	57.88
712.66	58.35
713.064	58.78
713.467	59.22
713.87	59.65
714.274	60.13
714.677	60.58
715.08	60.97
715.484	61.45
715.887	61.91
716.29	62.32
716.693	62.68
717.096	63.1
717.499	63.5
717.901	63.85
718.304	64.23
718.707	64.58
719.109	64.96
719.512	65.34
719.915	65.66
720.317	65.97
720.719	66.27
721.122	66.6
721.524	66.87
721.926	67.18
722.328	67.52
722.731	67.82
723.133	68.09
723.535	68.36
723.937	68.64
724.338	68.87
724.74	69.12
725.142	69.34
725.544	69.56
725.945	69.82
726.347	70.06
726.748	70.22
727.15	70.4
727.551	70.61
727.952	70.79
728.354	70.98
728.755	71.17
729.156	71.34
729.557	71.55
729.958	71.76
730.359	71.9
730.76	72
731.161	72.16
731.562	72.31
731.962	72.43
732.363	72.52
732.763	72.62
733.164	72.74
733.564	72.81
733.965	72.87
734.365	72.89
734.766	73
735.166	73.12
735.566	73.19
735.966	73.26
736.366	73.31
736.766	73.42
737.166	73.51
737.566	73.57
737.966	73.69
738.365	73.76
738.765	73.84
739.165	73.86
739.564	73.9
739.964	73.92
740.363	73.97
740.763	74.02
741.162	74.03
741.561	74.09
741.96	74.13
742.36	74.16
742.759	74.2
743.158	74.25
743.557	74.33
743.955	74.41
744.354	74.48
744.753	74.53
745.152	74.62
745.55	74.68
745.949	74.73
746.348	74.76
746.746	74.85
747.144	74.95
747.543	75
747.941	75.04
748.339	75.12
748.737	75.2
749.136	75.26
749.534	75.29
749.932	75.33
750.33	75.32
750.727	75.38
751.125	75.33
751.523	75.3
751.921	75.33
752.318	75.3
752.716	75.23
753.113	75.18
753.511	75.1
753.908	75.05
754.305	74.99
754.703	74.97
755.1	74.91
755.497	74.89
755.894	74.9
756.291	74.86
756.688	74.86
757.085	74.85
757.482	74.85
757.878	74.87
758.275	74.89
758.672	74.92
759.068	74.96
759.465	74.97
759.861	74.97
760.258	74.94
760.654	74.97
761.05	74.98
761.447	74.96
761.843	74.92
762.239	74.94
762.635	74.92
763.031	74.94
763.427	74.89
763.822	74.87
764.218	74.85
764.614	74.85
765.01	74.82
765.405	74.78
765.801	74.8
766.196	74.83
766.592	74.8
766.987	74.82
767.382	74.78
767.778	74.78
768.173	74.79
768.568	74.74
768.963	74.75
769.358	74.74
769.753	74.76
770.148	74.73
770.542	74.71
770.937	74.73
771.332	74.78
771.726	74.77
772.121	74.77
772.515	74.78
772.91	74.87
773.304	74.86
773.699	74.87
774.093	74.87
774.487	74.88
774.881	74.89
775.275	74.9
775.669	74.85
776.063	74.86
776.457	74.83
776.851	74.82
777.245	74.8
777.638	74.82
778.032	74.86
778.425	74.85
778.819	74.89
779.212	74.89
779.606	74.87
779.999	74.89
780.392	74.88
780.786	74.94
781.179	74.97
781.572	74.97
781.965	74.99
782.358	74.94
782.751	74.96
783.143	74.93
783.536	75
783.929	75.04
784.322	75.03
784.714	75.11
785.107	75.16
785.499	75.16
785.891	75.18
786.284	75.14
786.676	75.21
787.068	75.2
787.46	75.22
787.852	75.2
788.245	75.2
788.636	75.23
789.028	75.17
789.42	75.11
789.812	75.13
790.204	75.1
790.595	75.16
790.987	75.16
791.378	75.18
791.77	75.2
792.161	75.2
792.553	75.2
792.944	75.19
793.335	75.24
793.726	75.25
794.117	75.18
794.508	75.2
794.899	75.17
795.29	75.16
795.681	75.16
796.072	75.16
796.463	75.2
796.853	75.21
797.244	75.24
797.634	75.23
798.025	75.25
798.415	75.31
798.806	75.33
799.196	75.36
799.586	75.38
799.976	75.42
800.366	75.47
800.756	75.43
801.146	75.42
801.536	75.45
801.926	75.5
802.316	75.53
802.706	75.57
803.095	75.61
803.485	75.66
803.874	75.69
804.264	75.75
804.653	75.71
805.043	75.75
805.432	75.75
805.821	75.73
806.21	75.74
806.599	75.86
806.988	75.85
807.377	75.83
807.766	75.81
808.155	75.84
808.544	75.82
808.933	75.86
809.321	75.91
809.71	75.96
810.098	75.98
810.487	76
810.875	75.94
811.264	76.01
811.652	76.07
812.04	76.07
812.428	76.1
812.816	76.14
813.204	76.17
813.592	76.13
813.98	76.11
814.368	76.1
814.756	76.1
815.144	76.11
815.531	76.08
815.919	76.07
816.306	76.08
816.694	76.09
817.081	76.05
817.469	76.07
817.856	76.14
818.243	76.16
818.63	76.21
819.017	76.17
819.404	76.16
819.791	76.14
820.178	76.14
820.565	76.16
820.952	76.16
821.339	76.2
821.725	76.21
822.112	76.2
822.498	76.23
822.885	76.23
823.271	76.27
823.657	76.26
824.044	76.28
824.43	76.28
824.816	76.25
825.202	76.21
825.588	76.19
825.974	76.15
826.36	76.12
826.746	76.11
827.132	76.06
827.517	76.08
827.903	76.03
828.289	75.98
828.674	75.95
829.06	75.97
829.445	75.98
829.83	75.95
830.216	75.93
830.601	75.92
830.986	75.89
831.371	75.9
831.756	75.8
832.141	75.88
832.526	75.9
832.911	75.93
833.295	75.9
833.68	75.86
834.065	75.85
834.449	75.85
834.834	75.8
835.218	75.79
835.603	75.79
835.987	75.79
836.371	75.77
836.755	75.72
837.139	75.66
837.524	75.63
837.908	75.59
838.291	75.55
838.675	75.51
839.059	75.5
839.443	75.43
839.827	75.39
840.21	75.4
840.594	75.36
840.977	75.35
841.361	75.35
841.744	75.4
842.127	75.42
842.511	75.41
842.894	75.4
843.277	75.41
843.66	75.41
844.043	75.4
844.426	75.36
844.809	75.35
845.191	75.31
845.574	75.25
845.957	75.18
846.339	75.12
846.722	75.11
847.104	75.1
847.487	75.11
847.869	75.11
848.252	75.1
848.634	75.11
849.016	75.12
849.398	75.13
849.78	75.2
850.162	75.22
850.544	75.24
850.926	75.23
851.307	75.23
851.689	75.19
852.071	75.2
852.452	75.2
852.834	75.19
853.215	75.19
853.597	75.21
853.978	75.13
854.359	75.11
854.741	75.11
855.122	75.12
855.503	75.16
855.884	75.18
856.265	75.15
856.646	75.13
857.026	75.1
857.407	75.05
857.788	75.05
858.169	75.11
858.549	75.14
858.93	75.16
859.31	75.14
859.69	75.09
860.071	75.09
860.451	75.1
860.831	75.14
861.211	75.16
861.591	75.19
861.971	75.14
862.351	75.15
862.731	75.1
863.111	75.09
863.491	75.13
863.87	75.15
864.25	75.18
864.629	75.15
865.009	75.11
865.388	75.13
865.768	75.1
866.147	75.15
866.526	75.14
866.905	75.16
867.284	75.16
867.663	75.14
868.042	75.14
868.421	75.11
868.8	75.15
869.179	75.16
869.558	75.16
869.936	75.17
870.315	75.14
870.693	75.11
871.072	75.06
871.45	75.05
871.828	75.04
872.207	75.04
872.585	75.03
872.963	74.98
873.341	74.97
873.719	74.95
874.097	74.92
874.475	74.91
874.853	74.89
875.23	74.92
875.608	74.95
875.986	74.96
876.363	74.92
876.741	74.95
877.118	74.96
877.495	74.93
877.873	74.95
878.25	74.96
878.627	74.97
879.004	74.99
879.381	75
879.758	74.96
880.135	74.93
880.512	74.94
880.889	74.92
881.265	74.93
881.642	74.95
882.019	74.96
882.395	74.95
882.772	74.93
883.148	74.88
883.524	74.89
883.901	74.9
884.277	74.88
884.653	74.88
885.029	74.85
885.405	74.82
885.781	74.77
886.157	74.73
886.532	74.7
886.908	74.71
887.284	74.73
887.659	74.73
888.035	74.69
888.411	74.64
888.786	74.61
889.161	74.62
889.537	74.58
889.912	74.56
890.287	74.51
890.662	74.5
891.037	74.41
891.412	74.33
891.787	74.27
892.162	74.2
892.536	74.21
892.911	74.16
893.286	74.07
893.66	74.05
894.035	74.04
894.409	74.02
894.784	74
895.158	73.99
895.532	73.99
895.906	73.97
896.281	73.99
896.655	73.96
897.029	73.94
897.402	73.98
897.776	74.01
898.15	74
898.524	73.98
898.898	73.95
899.271	73.98
899.645	73.95
900.018	73.96
900.392	73.99
900.765	74
901.138	74.05
901.511	74.04
901.884	74.02
902.258	74.01
902.631	74.04
903.003	74.08
903.376	74.1
903.749	74.16
904.122	74.18
904.495	74.15
904.867	74.14
905.24	74.14
905.612	74.13
905.985	74.11
906.357	74.11
906.729	74.13
907.102	74.13
907.474	74.15
907.846	74.14
908.218	74.13
908.59	74.12
908.962	74.13
909.334	74.15
909.705	74.16
910.077	74.19
910.449	74.26
910.82	74.26
911.192	74.26
911.563	74.21
911.935	74.17
912.306	74.21
912.677	74.23
913.048	74.24
913.419	74.22
913.79	74.24
914.161	74.26
914.532	74.23
914.903	74.2
915.274	74.22
915.645	74.25
916.015	74.33
916.386	74.34
916.756	74.3
917.127	74.29
917.497	74.26
917.868	74.25
918.238	74.29
918.608	74.29
918.978	74.3
919.348	74.24
919.718	74.25
920.088	74.25
920.458	74.26
920.828	74.31
921.198	74.32
921.567	74.32
921.937	74.31
922.306	74.28
922.676	74.3
923.045	74.33
923.415	74.36
923.784	74.4
924.153	74.34
924.522	74.32
924.891	74.3
925.26	74.29
925.629	74.31
925.998	74.3
926.367	74.27
926.736	74.2
927.104	74.22
927.473	74.21
927.842	74.13
928.21	74.14
928.578	74.06
928.947	74.04
929.315	74.05
929.683	74.1
930.051	74.07
930.42	74.07
930.788	74.05
931.156	73.98
931.523	73.98
931.891	73.95
932.259	73.9
932.627	73.87
932.994	73.83
933.362	73.74
933.729	73.62
934.097	73.61
934.464	73.56
934.831	73.53
935.199	73.51
935.566	73.42
935.933	73.42
936.3	73.37
936.667	73.39
937.034	73.39
937.401	73.43
937.767	73.41
938.134	73.42
938.501	73.44
938.867	73.54
939.234	73.62
939.6	73.67
939.967	73.76
940.333	73.99
940.699	74.19
941.065	74.35
941.431	74.54
941.798	74.77
942.163	74.96
942.529	75.02
942.895	75.02
943.261	75.11
943.627	75.29
943.992	75.37
944.358	75.34
944.723	75.29
945.089	75.33
945.454	75.33
945.82	75.25
946.185	75.22
946.55	75.4
946.915	75.43
947.28	75.38
947.645	75.32
948.01	75.3
948.375	75.31
948.74	75.22
949.104	75.21
949.469	74.99
949.834	74.9
950.198	74.76
950.562	74.63
950.927	74.57
951.291	74.47
951.655	74.34
952.02	74.25
952.384	74.24
952.748	74.16
953.112	74.08
953.476	74.09
953.839	74.09
954.203	74.05
954.567	73.96
954.931	73.91
955.294	73.81
955.658	73.83
956.021	73.77
956.385	73.69
956.748	73.75
957.111	73.68
957.474	73.62
957.837	73.62
958.2	73.55
958.563	73.46
958.926	73.39
959.289	73.43
959.652	73.34
960.015	73.35
960.377	73.39
960.74	73.37
961.102	73.36
961.465	73.44
961.827	73.27
962.189	73.28
962.552	73.26
962.914	73.26
963.276	73.27
963.638	73.29
964	73.24
964.362	73.18
964.724	73.2
965.085	73.19
965.447	73.07
965.809	73.11
966.17	73.08
966.532	73.18
966.893	73.13
967.255	73.02
967.616	73.07
967.977	73.08
968.338	73
968.699	72.87
969.061	72.79
969.421	72.82
969.782	72.85
970.143	72.81
970.504	72.76
970.865	72.72
971.225	72.79
971.586	72.75
971.946	72.69
972.307	72.69
972.667	72.76
973.027	72.82
973.388	72.82
973.748	72.84
974.108	72.87
974.468	72.85
974.828	72.92
975.188	72.97
975.548	72.96
975.907	73
976.267	73.03
976.627	73
976.986	72.98
977.346	72.99
977.705	73.06
978.064	73.14
978.424	73.16
978.783	73.19
979.142	73.11
979.501	73.05
979.86	73.08
980.219	73.07
980.578	73.01
980.937	73.14
981.296	73.22
981.654	73.25
982.013	73.28
982.371	73.28
982.73	73.27
983.088	73.33
983.447	73.51
983.805	73.48
984.163	73.48
984.521	73.47
984.879	73.47
985.237	73.51
985.595	73.51
985.953	73.45
986.311	73.54
986.669	73.56
987.026	73.67
987.384	73.66
987.741	73.76
988.099	73.88
988.456	74.06
988.814	73.98
989.171	73.95
989.528	73.85
989.885	73.85
990.242	73.93
990.599	74.14
990.956	74.08
991.313	74.14
991.67	74.17
992.027	74.15
992.383	74.13
992.74	74.21
993.096	74.16
993.453	74.25
993.809	74.39
994.165	74.37
994.522	74.29
994.878	74.35
995.234	74.31
995.59	74.38
995.946	74.39
996.302	74.29
996.658	74.27
997.013	74.38
997.369	74.48
997.725	74.73
998.08	74.78
998.436	74.77
998.791	74.8
999.147	74.84
999.502	74.83
999.857	74.92
1000.212	75.06
1000.567	75.25
1000.922	75.25
1001.277	75.22
1001.632	75.13
1001.987	75.15
1002.342	75.25
1002.696	75.42
1003.051	75.4
1003.406	75.34
1003.76	75.41
1004.114	75.74
1004.469	75.49
1004.823	75.58
1005.177	75.73
1005.531	75.58
1005.885	75.71
1006.239	75.77
1006.593	75.64
1006.947	75.75
1007.301	75.83
1007.655	75.9
1008.008	75.7
1008.362	76.05
1008.715	76.04
1009.069	75.96
1009.422	75.98
1009.776	75.91
1010.129	75.9
1010.482	76.17
1010.835	76.42
1011.188	76.74
1011.541	76.78
1011.894	76.86
1012.247	76.77
1012.6	76.92
1012.952	76.95
1013.305	77.1
1013.657	77.13
1014.01	77.4
1014.362	77.47
1014.715	77.41
1015.067	77.4
1015.419	77.51
1015.771	77.8
1016.123	77.95
1016.475	78.25
1016.827	78.6
1017.179	78.85
1017.531	79.16
1017.883	79.42
1018.234	79.49
1018.586	79.57
1018.938	79.33
1019.289	79.37
1019.64	79.51
1019.992	79.75
1020.343	79.46
1020.694	79.5
1021.045	79.58
1021.396	79.54
1021.747	79.09
1022.098	78.97
1022.449	79.01
1022.8	79.4
1023.151	79.44
1023.501	79.54
1023.852	79.82
1024.202	80.2
1024.553	80.04
1024.903	80.25
1025.253	80.47
1025.604	81.15
1025.954	81.21
1026.304	81.76
1026.654	82.12
1027.004	82.59
1027.354	82.57
1027.703	82.41
1028.053	82.25
1028.403	82.57
1028.753	83.14
1029.102	83.2
1029.452	83.02
1029.801	83.35
1030.15	83.1
1030.499	82.96
897.758	614.29
901.051	630.74
904.343	634.74
907.636	624.15
910.928	612.87
914.22	626.93
917.511	610.07
920.803	584.11
924.094	560.89
927.384	566.28
930.675	553.51
933.965	547.89
937.255	545.26
940.544	522.87
943.834	502.2
947.123	496.14
950.411	469.18
953.7	464.92
956.988	450.77
960.276	434.56
963.563	428.1
966.851	403.42
970.138	397.78
973.424	372.27
976.711	366.62
979.997	352.71
983.283	344.8
986.568	333.86
989.853	325.62
993.138	313.87
996.423	310.11
999.708	302.6
1002.992	305.7
1006.275	293.46
1009.559	290.8
1012.842	284.84
1016.125	277.84
1019.408	273.44
1022.69	270.76
1025.972	268.79
1029.254	263.29
1032.536	256.89
1035.817	249.37
1039.098	244.72
1042.379	241.21
1045.659	238.66
1048.939	236.55
1052.219	230.86
1055.498	228.45
1058.778	225.26
1062.057	220.47
1065.335	219.36
1068.614	216.81
1071.892	214.49
1075.17	209.91
1078.447	208.12
1081.724	206.04
1085.001	201.42
1088.278	204.24
1091.554	201.21
1094.83	200.08
1098.106	197.59
1101.382	196.69
1104.657	195.71
1107.932	194.09
1111.206	194.11
1114.481	192.46
1117.755	191.19
1121.029	190.8
1124.302	186.99
1127.575	184.6
1130.848	183.54
1134.121	182.2
1137.393	181.53
1140.665	180.68
1143.937	179.88
1147.208	177.32
1150.48	175.85
1153.75	174.26
1157.021	173.5
1160.291	173.03
1163.561	172.95
1166.831	170.85
1170.101	170.53
1173.37	169.48
1176.639	167.73
1179.907	167.22
1183.176	167.13
1186.444	167.71
1189.711	166.94
1192.979	167.19
1196.246	167.23
1199.513	166.78
1202.78	168.1
1206.046	167.78
1209.312	168.76
1212.578	169.64
1215.843	171.85
1219.108	172.77
1222.373	175.1
1225.638	177.7
1228.902	181.24
1232.166	185.54
1235.43	189.18
1238.693	192.56
1241.956	197.22
1245.219	201.26
1248.482	203.02
1251.744	202.14
1255.006	202.43
1258.268	197.32
1261.529	196.49
1264.79	191.46
1268.051	188.85
1271.312	186.85
1274.572	184.34
1277.832	178.83
1281.092	176.51
1284.351	172.92
1287.61	173.02
1290.869	172.35
1294.128	171.84
1297.386	170.7
1300.644	170.42
1303.902	168.59
1307.159	166.61
1310.416	167.48
1313.673	170.6
1316.93	171.46
1320.186	174.44
1323.442	175.99
1326.697	179.53
1329.953	180.51
1333.208	185.47
1336.463	193.32
1339.717	197.82
1342.972	207.2
1346.226	210.6
1349.479	211.77
1352.733	220.07
1355.986	225.57
1359.238	230
1362.491	230.57
1365.743	239
1368.995	241.35
1372.247	240.1
1375.498	238.71
1378.749	246.6
1382	248.01
1385.251	246.51
1388.501	245.3
1391.751	246.82
1395	244.47
1398.25	247.45
1401.499	244.96
1404.748	243.6
1407.996	237.84
1411.244	238.19
1414.492	234.2
1417.74	227.89
1420.987	222.83
1424.234	220.04
1427.481	210.18
1430.728	205.5
1433.974	197.73
1437.22	191.92
1440.465	186.64
1443.711	181.09
1446.956	174.97
1450.201	168.35
1453.445	160.09
1456.689	155.84
1459.933	151.18
1463.177	145.39
1466.42	142.8
1469.663	139.3
1472.906	136.09
1476.148	131.83
1479.391	129.13
1482.633	127.36
1485.874	125.18
1489.115	124.97
1492.356	122.88
1495.597	120.97
1498.838	121.02
1502.078	120.09
1505.318	119.73
1508.557	118.98
1511.797	118.04
1515.036	117.99
1518.274	117.71
1521.513	116.25
1524.751	115.7
1527.989	116.9
1531.227	116.9
1534.464	117.04
1537.701	115.57
1540.938	114.89
1544.174	115.1
1547.41	115.13
1550.646	114.89
1553.882	115.02
1557.117	115.16
1560.352	114.79
1563.587	114.06
1566.821	113.79
1570.055	112.66
1573.289	113.05
1576.523	113.45
1579.756	112.98
1582.989	113.72
1586.222	112.95
1589.454	113.53
1592.686	113.26
1595.918	113.67
1599.15	113.18
1602.381	113.47
1605.612	114.24
1608.843	114.41
1612.073	114.11
1615.303	114.5
1618.533	113.64
1621.762	114.82
1624.992	114.03
1628.221	113.89
1631.449	114.04
1634.678	114.61
1637.906	114.17
1641.134	114.17
1644.361	114.14
1647.588	114.74
1650.815	114.8
1654.042	114.72
1657.269	113.62
1660.495	114.13
1663.72	114.95
1666.946	114.71
1670.171	114.83
1673.396	115.57
1676.621	115.87
1679.845	116.02
1683.069	115.79
1686.293	115.44
1689.517	116.13
1692.74	117.04
1695.963	116.89
1699.185	117.14
1702.408	117.12
1705.63	117.29
1708.852	117.72
1712.073	117.36
1715.294	117.28
1718.515	117.44
1721.736	117.5
1724.956	117.37
1728.176	117.12
1731.396	117.87
1734.616	117.57
1737.835	118.04
1741.054	117.16
1744.272	117.15
1747.491	117.37
1750.709	118.42
1753.927	118.63
1757.144	119.39
1760.361	119.79
1763.578	120.64
1766.795	120.16
1770.011	120.21
1773.227	120.57
1776.443	122.33
1779.658	122.01
1782.874	122.04
1786.089	121.92
1789.303	122.22
1792.518	123.23
1795.732	123.52
1798.945	124.37
1802.159	125.07
1805.372	126.7
1808.585	127.48
1811.797	127.93
1815.01	128.68
1818.222	130.25
1821.434	131.06
1824.645	131.67
1827.856	133.18
1831.067	134
1834.278	134.89
1837.488	135.52
1840.698	136.3
1843.908	136.5
1847.117	137.71
1850.326	139.13
1853.535	139.55
1856.744	139.87
1859.952	141.1
1863.16	140.3
1866.368	139.33
1869.575	139.54
1872.782	139.06
1875.989	137.42
1879.196	137.19
1882.402	135.46
1885.608	134.97
1888.814	133.9
1892.019	134.75
1895.224	132.25
1898.429	132.52
1901.634	132.69
1904.838	133.08
1908.042	133.42
1911.246	133.57
1914.449	133.38
1917.652	132.44
1920.855	133.34
1924.058	132.68
1927.26	131.82
1930.462	133.31
1933.664	133.27
1936.865	134.42
1940.066	131.46
1943.267	129.79
1946.467	131.39
1949.668	131.42
1952.868	132.46
1956.067	131.65
1959.267	130.94
1962.466	131.64
1965.665	133.1
1968.863	133
1972.061	133.83
1975.259	137.28
1978.457	139.95
1981.654	140.19
1984.852	141.27
1988.048	143.18
1991.245	145.2
1994.441	149.71
1997.637	151.26
2000.833	153.75
2004.028	155.8
2007.223	160.44
2010.418	162.73
2013.613	170.14
2016.807	174.19
2020.001	177.92
2023.194	183.24
2026.388	189.18
2029.581	198.48
2032.774	207.24
2035.966	212.44
2039.158	218.27
2042.35	220.62
2045.542	226.39
2048.733	236
2051.924	238.18
2055.115	241.35
2058.306	243.37
2061.496	249.73
2064.686	246.95
2067.875	244
2071.065	246.91
2074.254	247.45
2077.442	254.68
2080.631	256.79
2083.819	254.56
2087.007	261.74
2090.195	266.06
2093.382	266.84
2096.569	266.9
2099.756	272.9
2102.942	279.61
2106.128	285.6
2109.314	287.69
2112.5	287.75
2115.685	286.55
2118.87	287.47
2122.055	285.57
2125.239	292.12
2128.424	298.9
2131.608	296.71
2134.791	299.31
2137.974	299.27
2141.157	300.09
2144.34	303.6
2147.523	309.76
2150.705	316.1
2153.887	313.81
2157.068	318.93
2160.25	321.08
2163.431	320.23
2166.611	326.03
2169.792	328.02
2172.972	332.99
2176.152	333.43
2179.331	340.91
2182.511	340.5
2185.69	343.41
2188.868	355.08
2192.047	364.9
2195.225	370.18
2198.403	375.23
2201.58	369.2
2204.758	382.69
2207.935	385.38
2211.111	394.35
2214.288	395.96
2217.464	400.39
2220.64	403.37
2223.815	406.16
2226.991	398.29
2230.166	400.75
2233.34	411.91
2236.515	427.95
2239.689	423.14
2242.863	430.05
2246.036	425.83
2249.209	436.71
2252.382	433.08
2255.555	449.6
2258.727	449.91
2261.9	471.03
2265.071	477.05
2268.243	469.17
2271.414	480.01
2274.585	490.39
2277.756	487.95
2280.926	509.14
2284.096	512.33
2287.266	519.26
2290.436	508.16
2293.605	522.6
2296.774	534.66
2299.942	534.45
2303.111	552.39
2306.279	564.77
2309.447	562.86
2312.614	565.49
2315.781	576.74
2318.948	577.73
2322.115	589.38
2325.281	619.38
2328.447	611.7
2331.613	617.99
2334.779	624.83
2337.944	640.53
2341.109	648.67
2344.274	656.33
2347.438	674.82
2350.602	686.8
2353.766	732.68
2356.929	732.12
2360.092	742.83
2363.255	747.19
2366.418	750.41
2369.58	768.83
2372.742	761.74
2375.904	757.55
2379.066	781.91
2382.227	831.61
2385.388	830.06
2388.548	785.23
2391.709	779.88
2394.869	798.82
2398.029	805.68
2401.188	807.84
2404.347	832.81
2407.506	860.03
2410.665	824.76
2413.823	830.31
2416.981	824.95
2420.139	778.37
2423.296	842.02
2426.453	900.57
2429.61	859.77
2432.767	915.16
2435.923	941.1
2439.079	919.23
2442.235	941.38
2445.391	969.18
2448.546	957.13
2451.701	1011.02
2454.855	1085.77
2458.009	956.88
2461.163	968.92
2464.317	988.46
2467.471	960.47
2470.624	1001.91
2473.777	967.67
2476.929	937.86
2480.082	1003.52
2483.234	1052.5
2486.385	1073.22
2489.537	1099.56
2492.688	1220.21
2495.839	1194.89
2498.989	1226.97
2502.14	1240.79
2505.29	1177.97
2508.439	1310.2
2511.589	1342.7
2514.738	1297.87
2517.887	1284.7
2521.035	1196.36
2524.183	1183.65
2527.331	1169.83
2530.479	1144.66
2533.627	1169.73
