Data from N_3_hir_il_4n_Splice17_19.txt Node
Date: Sat Feb 29 15:13:25 EST 2020
User: sa697716
Spectrometer: FLMS03696
Trigger mode: 0
Integration Time (sec): 3.180400E-1
Scans to average: 20
Electric dark correction enabled: true
Nonlinearity correction enabled: true
Boxcar width: 5
XAxis mode: Wavelengths
Number of Pixels in Spectrum: 2048
>>>>>Begin Spectral Data<<<<<
187.83	137.22
188.298	145.88
188.766	127.01
189.233	136.88
189.701	139.61
190.169	132.64
190.636	147.31
191.104	180.53
191.571	576.64
192.039	417.3
192.506	-325.67
192.974	-752.61
193.441	340.93
193.908	46.62
194.375	123.34
194.842	202.66
195.31	82.98
195.777	75.95
196.244	32.91
196.711	32.31
197.177	31.06
197.644	31.2
198.111	30.95
198.578	31.48
199.045	31.46
199.511	31.83
199.978	32.26
200.445	32.32
200.911	32.61
201.378	32.86
201.844	33.19
202.31	33.7
202.777	33.77
203.243	34.41
203.709	34.68
204.176	34.3
204.642	34.12
205.108	34.05
205.574	34.49
206.04	34.51
206.506	34.25
206.972	33.86
207.438	33.82
207.903	34.05
208.369	33.49
208.835	33.2
209.301	33.22
209.766	32.94
210.232	32.38
210.697	31.98
211.163	31.38
211.628	31.21
212.094	30.91
212.559	30.23
213.024	29.2
213.49	28.91
213.955	28.35
214.42	27.71
214.885	27.02
215.35	26.33
215.815	25.09
216.28	24.01
216.745	22.99
217.21	21.75
217.675	20.64
218.14	19.57
218.604	18.37
219.069	17.48
219.534	16.68
219.998	15.94
220.463	15.42
220.927	14.98
221.392	14.53
221.856	14.06
222.32	13.69
222.785	13.39
223.249	13.15
223.713	12.96
224.177	12.7
224.642	12.49
225.106	12.3
225.57	12.11
226.034	11.91
226.497	11.72
226.961	11.55
227.425	11.33
227.889	11.13
228.353	10.94
228.816	10.76
229.28	10.57
229.744	10.44
230.207	10.3
230.671	10.12
231.134	9.98
231.597	9.82
232.061	9.7
232.524	9.6
232.987	9.48
233.45	9.35
233.914	9.23
234.377	9.15
234.84	9.03
235.303	8.91
235.766	8.82
236.229	8.71
236.691	8.64
237.154	8.54
237.617	8.46
238.08	8.37
238.542	8.3
239.005	8.21
239.468	8.13
239.93	8.07
240.393	7.99
240.855	7.91
241.317	7.85
241.78	7.78
242.242	7.7
242.704	7.63
243.166	7.57
243.629	7.5
244.091	7.44
244.553	7.38
245.015	7.32
245.477	7.25
245.939	7.19
246.4	7.12
246.862	7.06
247.324	7.03
247.786	6.98
248.247	6.92
248.709	6.86
249.17	6.8
249.632	6.74
250.093	6.67
250.555	6.63
251.016	6.59
251.477	6.54
251.939	6.49
252.4	6.43
252.861	6.38
253.322	6.33
253.783	6.3
254.244	6.26
254.705	6.21
255.166	6.19
255.627	6.14
256.088	6.09
256.549	6.06
257.009	6.02
257.47	5.99
257.931	5.95
258.391	5.91
258.852	5.86
259.312	5.82
259.773	5.78
260.233	5.73
260.694	5.69
261.154	5.65
261.614	5.61
262.074	5.58
262.534	5.53
262.994	5.5
263.455	5.46
263.915	5.44
264.374	5.4
264.834	5.37
265.294	5.34
265.754	5.31
266.214	5.28
266.673	5.25
267.133	5.21
267.593	5.19
268.052	5.16
268.512	5.14
268.971	5.11
269.431	5.08
269.89	5.06
270.349	5.03
270.809	5.02
271.268	5
271.727	4.99
272.186	4.97
272.645	4.94
273.104	4.92
273.563	4.9
274.022	4.88
274.481	4.87
274.94	4.84
275.399	4.83
275.857	4.81
276.316	4.79
276.775	4.76
277.233	4.73
277.692	4.72
278.15	4.7
278.609	4.67
279.067	4.65
279.525	4.62
279.984	4.6
280.442	4.58
280.9	4.56
281.358	4.54
281.816	4.52
282.274	4.51
282.732	4.5
283.19	4.48
283.648	4.47
284.106	4.45
284.564	4.45
285.021	4.44
285.479	4.43
285.937	4.42
286.394	4.4
286.852	4.4
287.309	4.38
287.767	4.37
288.224	4.35
288.682	4.34
289.139	4.33
289.596	4.3
290.053	4.28
290.511	4.25
290.968	4.23
291.425	4.21
291.882	4.19
292.339	4.17
292.796	4.15
293.252	4.13
293.709	4.11
294.166	4.08
294.623	4.07
295.079	4.06
295.536	4.05
295.992	4.03
296.449	4.02
296.905	4
297.362	3.99
297.818	3.97
298.274	3.96
298.731	3.95
299.187	3.94
299.643	3.93
300.099	3.92
300.555	3.91
301.011	3.89
301.467	3.87
301.923	3.86
302.379	3.85
302.835	3.84
303.291	3.83
303.746	3.81
304.202	3.8
304.658	3.79
305.113	3.77
305.569	3.76
306.024	3.76
306.479	3.75
306.935	3.75
307.39	3.74
307.845	3.74
308.301	3.73
308.756	3.73
309.211	3.73
309.666	3.72
310.121	3.72
310.576	3.71
311.031	3.71
311.486	3.71
311.94	3.7
312.395	3.7
312.85	3.69
313.305	3.69
313.759	3.68
314.214	3.68
314.668	3.68
315.123	3.67
315.577	3.66
316.032	3.65
316.486	3.64
316.94	3.63
317.394	3.63
317.849	3.62
318.303	3.61
318.757	3.59
319.211	3.57
319.665	3.56
320.119	3.55
320.572	3.55
321.026	3.54
321.48	3.53
321.934	3.53
322.387	3.52
322.841	3.51
323.295	3.5
323.748	3.5
324.202	3.49
324.655	3.48
325.108	3.47
325.562	3.45
326.015	3.44
326.468	3.44
326.921	3.42
327.374	3.42
327.827	3.41
328.28	3.4
328.733	3.4
329.186	3.4
329.639	3.39
330.092	3.39
330.545	3.39
330.997	3.39
331.45	3.38
331.903	3.38
332.355	3.37
332.808	3.37
333.26	3.37
333.713	3.37
334.165	3.36
334.617	3.36
335.069	3.35
335.522	3.35
335.974	3.34
336.426	3.34
336.878	3.34
337.33	3.33
337.782	3.33
338.234	3.33
338.686	3.32
339.137	3.33
339.589	3.33
340.041	3.33
340.493	3.31
340.944	3.31
341.396	3.3
341.847	3.29
342.299	3.27
342.75	3.25
343.201	3.24
343.653	3.22
344.104	3.21
344.555	3.2
345.006	3.18
345.457	3.17
345.908	3.16
346.359	3.16
346.81	3.15
347.261	3.14
347.712	3.14
348.163	3.14
348.613	3.13
349.064	3.12
349.515	3.1
349.965	3.08
350.416	3.08
350.866	3.08
351.317	3.07
351.767	3.06
352.217	3.06
352.668	3.07
353.118	3.06
353.568	3.07
354.018	3.07
354.468	3.07
354.918	3.08
355.368	3.09
355.818	3.09
356.268	3.09
356.718	3.09
357.168	3.08
357.617	3.07
358.067	3.06
358.517	3.05
358.966	3.05
359.416	3.06
359.865	3.05
360.315	3.03
360.764	3.02
361.213	3.01
361.663	3
362.112	3.02
362.561	3.01
363.01	3.02
363.459	3.01
363.908	3.01
364.357	3.01
364.806	3.01
365.255	3.01
365.703	3.01
366.152	3.02
366.601	3.02
367.05	3.01
367.498	3.02
367.947	3
368.395	3.01
368.844	3.01
369.292	3
369.74	3
370.189	3
370.637	2.99
371.085	2.99
371.533	2.99
371.981	2.99
372.429	2.97
372.877	2.98
373.325	2.96
373.773	2.96
374.221	2.96
374.669	2.97
375.116	2.96
375.564	2.96
376.012	2.96
376.459	2.97
376.907	2.97
377.354	2.99
377.801	3
378.249	3.01
378.696	3.03
379.143	3.03
379.591	3.03
380.038	3.04
380.485	3.05
380.932	3.06
381.379	3.07
381.826	3.08
382.273	3.08
382.72	3.08
383.166	3.1
383.613	3.11
384.06	3.12
384.506	3.13
384.953	3.14
385.4	3.16
385.846	3.16
386.292	3.18
386.739	3.19
387.185	3.22
387.631	3.24
388.078	3.26
388.524	3.26
388.97	3.28
389.416	3.3
389.862	3.32
390.308	3.34
390.754	3.38
391.2	3.41
391.645	3.44
392.091	3.45
392.537	3.48
392.983	3.51
393.428	3.56
393.874	3.59
394.319	3.63
394.765	3.66
395.21	3.68
395.655	3.7
396.101	3.73
396.546	3.76
396.991	3.79
397.436	3.82
397.881	3.85
398.326	3.89
398.771	3.93
399.216	3.97
399.661	4.01
400.106	4.06
400.551	4.09
400.995	4.11
401.44	4.13
401.885	4.16
402.329	4.21
402.774	4.23
403.218	4.25
403.663	4.27
404.107	4.31
404.551	4.34
404.995	4.36
405.44	4.39
405.884	4.42
406.328	4.46
406.772	4.49
407.216	4.5
407.66	4.54
408.104	4.58
408.547	4.61
408.991	4.62
409.435	4.65
409.879	4.68
410.322	4.71
410.766	4.75
411.209	4.78
411.653	4.81
412.096	4.83
412.54	4.86
412.983	4.89
413.426	4.91
413.869	4.96
414.312	4.99
414.756	5.03
415.199	5.07
415.642	5.11
416.085	5.13
416.527	5.17
416.97	5.21
417.413	5.23
417.856	5.24
418.298	5.25
418.741	5.25
419.184	5.25
419.626	5.25
420.069	5.26
420.511	5.26
420.953	5.28
421.396	5.28
421.838	5.31
422.28	5.33
422.722	5.36
423.164	5.36
423.606	5.39
424.048	5.39
424.49	5.41
424.932	5.43
425.374	5.44
425.816	5.43
426.258	5.43
426.699	5.4
427.141	5.38
427.582	5.37
428.024	5.38
428.465	5.38
428.907	5.41
429.348	5.41
429.789	5.4
430.231	5.4
430.672	5.42
431.113	5.44
431.554	5.46
431.995	5.46
432.436	5.47
432.877	5.45
433.318	5.47
433.759	5.46
434.2	5.46
434.64	5.48
435.081	5.47
435.522	5.49
435.962	5.48
436.403	5.52
436.843	5.55
437.284	5.57
437.724	5.61
438.164	5.61
438.604	5.65
439.045	5.67
439.485	5.69
439.925	5.71
440.365	5.7
440.805	5.71
441.245	5.7
441.685	5.71
442.125	5.71
442.564	5.71
443.004	5.73
443.444	5.73
443.883	5.74
444.323	5.75
444.762	5.79
445.202	5.86
445.641	5.91
446.081	5.97
446.52	5.98
446.959	6.01
447.398	6.05
447.837	6.1
448.276	6.12
448.716	6.16
449.154	6.19
449.593	6.23
450.032	6.22
450.471	6.26
450.91	6.26
451.349	6.29
451.787	6.3
452.226	6.3
452.664	6.29
453.103	6.28
453.541	6.28
453.98	6.27
454.418	6.25
454.856	6.23
455.295	6.21
455.733	6.2
456.171	6.18
456.609	6.17
457.047	6.16
457.485	6.15
457.923	6.15
458.361	6.13
458.798	6.14
459.236	6.13
459.674	6.13
460.111	6.13
460.549	6.12
460.987	6.12
461.424	6.11
461.862	6.11
462.299	6.11
462.736	6.11
463.173	6.11
463.611	6.11
464.048	6.11
464.485	6.11
464.922	6.11
465.359	6.11
465.796	6.1
466.233	6.11
466.67	6.12
467.106	6.12
467.543	6.12
467.98	6.14
468.416	6.14
468.853	6.14
469.29	6.14
469.726	6.15
470.162	6.16
470.599	6.18
471.035	6.19
471.471	6.2
471.907	6.22
472.344	6.23
472.78	6.23
473.216	6.24
473.652	6.23
474.088	6.25
474.523	6.24
474.959	6.25
475.395	6.27
475.831	6.26
476.266	6.25
476.702	6.24
477.138	6.24
477.573	6.22
478.008	6.22
478.444	6.22
478.879	6.21
479.314	6.2
479.75	6.2
480.185	6.19
480.62	6.2
481.055	6.21
481.49	6.19
481.925	6.19
482.36	6.17
482.795	6.17
483.229	6.17
483.664	6.17
484.099	6.17
484.534	6.16
484.968	6.16
485.403	6.17
485.837	6.17
486.271	6.17
486.706	6.18
487.14	6.21
487.574	6.22
488.009	6.23
488.443	6.25
488.877	6.27
489.311	6.29
489.745	6.33
490.179	6.35
490.613	6.37
491.046	6.42
491.48	6.45
491.914	6.49
492.348	6.53
492.781	6.57
493.215	6.63
493.648	6.68
494.082	6.74
494.515	6.79
494.948	6.85
495.382	6.93
495.815	7
496.248	7.07
496.681	7.14
497.114	7.2
497.547	7.27
497.98	7.34
498.413	7.41
498.846	7.49
499.279	7.58
499.711	7.67
500.144	7.75
500.577	7.85
501.009	7.95
501.442	8.07
501.874	8.2
502.306	8.33
502.739	8.46
503.171	8.6
503.603	8.75
504.036	8.9
504.468	9.08
504.9	9.24
505.332	9.41
505.764	9.59
506.196	9.77
506.627	9.95
507.059	10.14
507.491	10.36
507.923	10.56
508.354	10.76
508.786	10.98
509.217	11.18
509.649	11.41
510.08	11.64
510.512	11.88
510.943	12.13
511.374	12.38
511.805	12.63
512.237	12.88
512.668	13.14
513.099	13.41
513.53	13.68
513.961	13.96
514.391	14.23
514.822	14.52
515.253	14.8
515.684	15.08
516.114	15.38
516.545	15.69
516.975	15.99
517.406	16.3
517.836	16.6
518.267	16.9
518.697	17.21
519.127	17.52
519.558	17.81
519.988	18.1
520.418	18.39
520.848	18.67
521.278	18.95
521.708	19.08
522.138	19.33
522.567	19.59
522.997	19.84
523.427	20.08
523.857	20.33
524.286	20.58
524.716	20.82
525.145	21.05
525.575	21.27
526.004	21.48
526.433	21.82
526.863	22.03
527.292	22.22
527.721	22.42
528.15	22.58
528.579	22.74
529.008	22.92
529.437	23.07
529.866	23.2
530.295	23.36
530.724	23.51
531.152	23.66
531.581	23.77
532.01	23.89
532.438	24.01
532.867	24.12
533.295	24.23
533.723	24.32
534.152	24.41
534.58	24.5
535.008	24.54
535.436	24.57
535.865	24.62
536.293	24.71
536.721	24.78
537.149	24.83
537.576	24.88
538.004	24.91
538.432	24.94
538.86	24.97
539.287	25.01
539.715	25.07
540.143	25.12
540.57	25.15
540.998	25.19
541.425	25.23
541.852	25.26
542.28	25.28
542.707	25.33
543.134	25.38
543.561	25.4
543.988	25.44
544.415	25.46
544.842	25.49
545.269	25.51
545.696	25.53
546.123	25.54
546.549	25.57
546.976	25.61
547.403	25.63
547.829	25.63
548.256	25.68
548.682	25.71
549.108	25.74
549.535	25.78
549.961	25.8
550.387	25.81
550.813	25.79
551.24	25.8
551.666	25.8
552.092	25.79
552.518	25.77
552.943	25.77
553.369	25.75
553.795	25.73
554.221	25.7
554.646	25.67
555.072	25.66
555.498	25.64
555.923	25.61
556.349	25.56
556.774	25.53
557.199	25.49
557.625	25.42
558.05	25.36
558.475	25.28
558.9	25.2
559.325	25.1
559.75	25.02
560.175	24.93
560.6	24.85
561.025	24.75
561.449	24.63
561.874	24.53
562.299	24.42
562.723	24.31
563.148	24.21
563.572	24.11
563.997	24
564.421	23.86
564.846	23.73
565.27	23.59
565.694	23.44
566.118	23.31
566.542	23.15
566.966	23
567.39	22.81
567.814	22.66
568.238	22.47
568.662	22.29
569.086	22.14
569.509	21.98
569.933	21.8
570.357	21.62
570.78	21.46
571.204	21.3
571.627	21.14
572.05	21
572.474	20.84
572.897	20.7
573.32	20.55
573.743	20.4
574.166	20.26
574.589	20.14
575.012	20.03
575.435	19.89
575.858	19.77
576.281	19.66
576.704	19.55
577.126	19.45
577.549	19.37
577.972	19.3
578.394	19.2
578.817	19.11
579.239	19.02
579.661	18.94
580.084	18.85
580.506	18.77
580.928	18.69
581.35	18.61
581.772	18.53
582.194	18.43
582.616	18.36
583.038	18.28
583.46	18.21
583.882	18.15
584.303	18.1
584.725	18.05
585.147	17.96
585.568	17.9
585.99	17.84
586.411	17.77
586.833	17.7
587.254	17.65
587.675	17.6
588.096	17.54
588.518	17.48
588.939	17.44
589.36	17.38
589.781	17.35
590.202	17.31
590.623	17.27
591.043	17.24
591.464	17.21
591.885	17.17
592.305	17.13
592.726	17.1
593.147	17.09
593.567	17.03
593.987	17.02
594.408	16.98
594.828	16.94
595.248	16.91
595.669	16.87
596.089	16.83
596.509	16.79
596.929	16.77
597.349	16.73
597.769	16.68
598.189	16.65
598.608	16.6
599.028	16.56
599.448	16.53
599.867	16.49
600.287	16.45
600.706	16.41
601.126	16.35
601.545	16.28
601.965	16.22
602.384	16.18
602.803	16.11
603.222	16.04
603.641	15.98
604.061	15.9
604.48	15.83
604.898	15.77
605.317	15.7
605.736	15.63
606.155	15.56
606.574	15.49
606.992	15.39
607.411	15.32
607.829	15.19
608.248	15.12
608.666	15.04
609.085	14.96
609.503	14.85
609.921	14.77
610.339	14.69
610.758	14.59
611.176	14.5
611.594	14.42
612.012	14.32
612.43	14.28
612.847	14.2
613.265	14.13
613.683	14.05
614.101	13.96
614.518	13.87
614.936	13.8
615.353	13.73
615.771	13.65
616.188	13.6
616.606	13.54
617.023	13.49
617.44	13.43
617.857	13.35
618.274	13.29
618.691	13.24
619.108	13.21
619.525	13.16
619.942	13.13
620.359	13.1
620.776	13.06
621.192	13.02
621.609	12.97
622.026	12.94
622.442	12.91
622.859	12.89
623.275	12.89
623.691	12.87
624.108	12.84
624.524	12.82
624.94	12.8
625.356	12.77
625.772	12.78
626.188	12.77
626.604	12.76
627.02	12.75
627.436	12.74
627.852	12.71
628.268	12.69
628.683	12.67
629.099	12.66
629.514	12.63
629.93	12.59
630.345	12.54
630.761	12.5
631.176	12.46
631.591	12.42
632.007	12.38
632.422	12.35
632.837	12.31
633.252	12.27
633.667	12.22
634.082	12.17
634.497	12.12
634.911	12.06
635.326	11.98
635.741	11.91
636.155	11.83
636.57	11.75
636.984	11.65
637.399	11.54
637.813	11.43
638.228	11.31
638.642	11.22
639.056	11.1
639.47	11
639.884	10.88
640.298	10.76
640.712	10.64
641.126	10.52
641.54	10.4
641.954	10.3
642.368	10.19
642.781	10.09
643.195	9.96
643.609	9.86
644.022	9.74
644.436	9.66
644.849	9.56
645.262	9.48
645.676	9.39
646.089	9.3
646.502	9.21
646.915	9.13
647.328	9.06
647.741	8.98
648.154	8.92
648.567	8.87
648.98	8.81
649.393	8.74
649.805	8.69
650.218	8.64
650.631	8.6
651.043	8.54
651.456	8.5
651.868	8.45
652.28	8.42
652.693	8.35
653.105	8.3
653.517	8.24
653.929	8.21
654.341	8.15
654.753	8.08
655.165	8.01
655.577	7.94
655.989	7.85
656.401	7.75
656.813	7.65
657.224	7.59
657.636	7.51
658.047	7.42
658.459	7.33
658.87	7.23
659.282	7.15
659.693	7.06
660.104	6.98
660.515	6.9
660.926	6.83
661.338	6.75
661.749	6.66
662.159	6.57
662.57	6.49
662.981	6.42
663.392	6.36
663.803	6.28
664.213	6.22
664.624	6.17
665.035	6.11
665.445	6.07
665.855	6.02
666.266	5.99
666.676	5.96
667.086	5.91
667.497	5.87
667.907	5.82
668.317	5.79
668.727	5.77
669.137	5.73
669.547	5.72
669.956	5.7
670.366	5.68
670.776	5.67
671.186	5.66
671.595	5.66
672.005	5.66
672.414	5.67
672.824	5.69
673.233	5.71
673.642	5.71
674.052	5.71
674.461	5.71
674.87	5.72
675.279	5.73
675.688	5.74
676.097	5.76
676.506	5.78
676.915	5.81
677.323	5.84
677.732	5.87
678.141	5.91
678.549	5.97
678.958	6.02
679.366	6.06
679.775	6.12
680.183	6.18
680.592	6.25
681	6.33
681.408	6.42
681.816	6.5
682.224	6.6
682.632	6.73
683.04	6.86
683.448	7
683.856	7.17
684.264	7.36
684.671	7.57
685.079	7.77
685.487	8.01
685.894	8.27
686.302	8.56
686.709	8.86
687.116	9.17
687.524	9.51
687.931	9.86
688.338	10.25
688.745	10.65
689.152	11.08
689.559	11.53
689.966	11.98
690.373	12.46
690.78	12.95
691.187	13.48
691.593	14
692	14.53
692.407	15.1
692.813	15.67
693.22	16.23
693.626	16.8
694.032	17.39
694.439	17.98
694.845	18.57
695.251	19.16
695.657	19.75
696.063	20.36
696.469	20.95
696.875	21.52
697.281	22.07
697.687	22.65
698.093	23.22
698.498	23.77
698.904	24.32
699.31	24.87
699.715	25.42
700.12	25.9
700.526	26.41
700.931	26.91
701.337	27.4
701.742	27.89
702.147	28.36
702.552	28.84
702.957	29.3
703.362	29.75
703.767	30.18
704.172	30.61
704.577	31.08
704.981	31.52
705.386	31.94
705.791	32.35
706.195	32.77
706.6	33.18
707.004	33.54
707.408	33.92
707.813	34.3
708.217	34.67
708.621	35.04
709.025	35.39
709.43	35.71
709.834	36.08
710.237	36.4
710.641	36.75
711.045	37.05
711.449	37.4
711.853	37.73
712.256	38.07
712.66	38.37
713.064	38.68
713.467	38.97
713.87	39.27
714.274	39.56
714.677	39.86
715.08	40.13
715.484	40.42
715.887	40.72
716.29	40.97
716.693	41.22
717.096	41.47
717.499	41.72
717.901	41.96
718.304	42.18
718.707	42.4
719.109	42.65
719.512	42.9
719.915	43.1
720.317	43.31
720.719	43.5
721.122	43.71
721.524	43.93
721.926	44.15
722.328	44.38
722.731	44.6
723.133	44.78
723.535	44.96
723.937	45.12
724.338	45.3
724.74	45.44
725.142	45.58
725.544	45.73
725.945	45.84
726.347	45.97
726.748	46.04
727.15	46.17
727.551	46.3
727.952	46.41
728.354	46.54
728.755	46.64
729.156	46.78
729.557	46.93
729.958	47.07
730.359	47.21
730.76	47.3
731.161	47.4
731.562	47.47
731.962	47.56
732.363	47.6
732.763	47.69
733.164	47.76
733.564	47.82
733.965	47.87
734.365	47.9
734.766	47.91
735.166	47.94
735.566	48.02
735.966	48.07
736.366	48.11
736.766	48.2
737.166	48.24
737.566	48.29
737.966	48.35
738.365	48.4
738.765	48.45
739.165	48.52
739.564	48.58
739.964	48.59
740.363	48.61
740.763	48.64
741.162	48.65
741.561	48.68
741.96	48.71
742.36	48.75
742.759	48.74
743.158	48.78
743.557	48.79
743.955	48.86
744.354	48.92
744.753	48.99
745.152	49.01
745.55	49.05
745.949	49.09
746.348	49.13
746.746	49.14
747.144	49.21
747.543	49.22
747.941	49.28
748.339	49.32
748.737	49.36
749.136	49.36
749.534	49.39
749.932	49.41
750.33	49.43
750.727	49.44
751.125	49.47
751.523	49.47
751.921	49.51
752.318	49.51
752.716	49.48
753.113	49.48
753.511	49.47
753.908	49.45
754.305	49.45
754.703	49.43
755.1	49.4
755.497	49.36
755.894	49.33
756.291	49.3
756.688	49.27
757.085	49.23
757.482	49.19
757.878	49.19
758.275	49.18
758.672	49.17
759.068	49.16
759.465	49.17
759.861	49.16
760.258	49.14
760.654	49.13
761.05	49.15
761.447	49.15
761.843	49.14
762.239	49.13
762.635	49.13
763.031	49.11
763.427	49.07
763.822	49.04
764.218	49.03
764.614	49.06
765.01	49.08
765.405	49.06
765.801	49.04
766.196	49.05
766.592	49.06
766.987	49.08
767.382	49.1
767.778	49.13
768.173	49.14
768.568	49.13
768.963	49.1
769.358	49.08
769.753	49.12
770.148	49.18
770.542	49.18
770.937	49.18
771.332	49.17
771.726	49.18
772.121	49.16
772.515	49.17
772.91	49.23
773.304	49.19
773.699	49.18
774.093	49.15
774.487	49.11
774.881	49.13
775.275	49.12
775.669	49.12
776.063	49.09
776.457	49.1
776.851	49.06
777.245	49.03
777.638	49.09
778.032	49.11
778.425	49.13
778.819	49.17
779.212	49.14
779.606	49.16
779.999	49.17
780.392	49.18
780.786	49.16
781.179	49.22
781.572	49.23
781.965	49.24
782.358	49.21
782.751	49.22
783.143	49.19
783.536	49.22
783.929	49.22
784.322	49.23
784.714	49.24
785.107	49.27
785.499	49.28
785.891	49.28
786.284	49.24
786.676	49.28
787.068	49.28
787.46	49.28
787.852	49.28
788.245	49.28
788.636	49.27
789.028	49.26
789.42	49.25
789.812	49.24
790.204	49.2
790.595	49.23
790.987	49.24
791.378	49.25
791.77	49.3
792.161	49.28
792.553	49.26
792.944	49.28
793.335	49.33
793.726	49.34
794.117	49.34
794.508	49.38
794.899	49.4
795.29	49.39
795.681	49.38
796.072	49.39
796.463	49.37
796.853	49.4
797.244	49.4
797.634	49.38
798.025	49.38
798.415	49.4
798.806	49.39
799.196	49.41
799.586	49.46
799.976	49.47
800.366	49.46
800.756	49.51
801.146	49.54
801.536	49.58
801.926	49.59
802.316	49.63
802.706	49.62
803.095	49.68
803.485	49.72
803.874	49.7
804.264	49.73
804.653	49.73
805.043	49.72
805.432	49.67
805.821	49.66
806.21	49.7
806.599	49.74
806.988	49.76
807.377	49.79
807.766	49.76
808.155	49.81
808.544	49.81
808.933	49.83
809.321	49.89
809.71	49.97
810.098	49.96
810.487	49.97
810.875	49.96
811.264	49.99
811.652	50
812.04	50.06
812.428	50.04
812.816	50.07
813.204	50.07
813.592	50.04
813.98	50.02
814.368	50.06
814.756	50.06
815.144	50.1
815.531	50.09
815.919	50.07
816.306	50.03
816.694	50.04
817.081	50.01
817.469	50.03
817.856	50.09
818.243	50.11
818.63	50.15
819.017	50.19
819.404	50.16
819.791	50.19
820.178	50.22
820.565	50.2
820.952	50.22
821.339	50.27
821.725	50.28
822.112	50.25
822.498	50.24
822.885	50.21
823.271	50.2
823.657	50.22
824.044	50.2
824.43	50.2
824.816	50.22
825.202	50.23
825.588	50.21
825.974	50.23
826.36	50.23
826.746	50.3
827.132	50.28
827.517	50.29
827.903	50.28
828.289	50.27
828.674	50.25
829.06	50.27
829.445	50.27
829.83	50.25
830.216	50.22
830.601	50.21
830.986	50.17
831.371	50.18
831.756	50.13
832.141	50.14
832.526	50.12
832.911	50.13
833.295	50.12
833.68	50.11
834.065	50.13
834.449	50.09
834.834	50.06
835.218	50.03
835.603	50.02
835.987	50.03
836.371	50.03
836.755	50.03
837.139	50.01
837.524	49.99
837.908	49.94
838.291	49.9
838.675	49.94
839.059	49.95
839.443	49.95
839.827	49.93
840.21	49.92
840.594	49.91
840.977	49.9
841.361	49.9
841.744	49.89
842.127	49.9
842.511	49.89
842.894	49.85
843.277	49.85
843.66	49.84
844.043	49.86
844.426	49.85
844.809	49.81
845.191	49.79
845.574	49.75
845.957	49.73
846.339	49.71
846.722	49.72
847.104	49.74
847.487	49.73
847.869	49.75
848.252	49.71
848.634	49.74
849.016	49.77
849.398	49.76
849.78	49.78
850.162	49.8
850.544	49.84
850.926	49.83
851.307	49.81
851.689	49.78
852.071	49.76
852.452	49.79
852.834	49.75
853.215	49.75
853.597	49.76
853.978	49.74
854.359	49.73
854.741	49.74
855.122	49.76
855.503	49.79
855.884	49.81
856.265	49.81
856.646	49.8
857.026	49.83
857.407	49.81
857.788	49.83
858.169	49.85
858.549	49.88
858.93	49.87
859.31	49.86
859.69	49.81
860.071	49.82
860.451	49.84
860.831	49.85
861.211	49.83
861.591	49.83
861.971	49.82
862.351	49.83
862.731	49.79
863.111	49.79
863.491	49.81
863.87	49.81
864.25	49.8
864.629	49.77
865.009	49.78
865.388	49.76
865.768	49.77
866.147	49.79
866.526	49.78
866.905	49.79
867.284	49.79
867.663	49.79
868.042	49.79
868.421	49.79
868.8	49.79
869.179	49.79
869.558	49.78
869.936	49.74
870.315	49.71
870.693	49.73
871.072	49.71
871.45	49.69
871.828	49.68
872.207	49.69
872.585	49.67
872.963	49.66
873.341	49.66
873.719	49.69
874.097	49.7
874.475	49.73
874.853	49.74
875.23	49.75
875.608	49.76
875.986	49.74
876.363	49.72
876.741	49.71
877.118	49.7
877.495	49.71
877.873	49.66
878.25	49.68
878.627	49.62
879.004	49.6
879.381	49.6
879.758	49.58
880.135	49.57
880.512	49.61
880.889	49.67
881.265	49.72
881.642	49.74
882.019	49.8
882.395	49.8
882.772	49.83
883.148	49.81
883.524	49.82
883.901	49.83
884.277	49.83
884.653	49.81
885.029	49.78
885.405	49.75
885.781	49.71
886.157	49.68
886.532	49.67
886.908	49.69
887.284	49.68
887.659	49.68
888.035	49.66
888.411	49.66
888.786	49.65
889.161	49.65
889.537	49.63
889.912	49.59
890.287	49.57
890.662	49.56
891.037	49.52
891.412	49.47
891.787	49.42
892.162	49.4
892.536	49.39
892.911	49.36
893.286	49.31
893.66	49.28
894.035	49.29
894.409	49.27
894.784	49.25
895.158	49.23
895.532	49.23
895.906	49.23
896.281	49.2
896.655	49.17
897.029	49.14
897.402	49.14
897.776	49.14
898.15	49.11
898.524	49.09
898.898	49.08
899.271	49.08
899.645	49.05
900.018	49.05
900.392	49.06
900.765	49.07
901.138	49.06
901.511	49.06
901.884	49.05
902.258	49.04
902.631	49.05
903.003	49.04
903.376	49.01
903.749	49.05
904.122	49.07
904.495	49.08
904.867	49.07
905.24	49.08
905.612	49.04
905.985	49.05
906.357	49.05
906.729	49.06
907.102	49.05
907.474	49.08
907.846	49.05
908.218	49.04
908.59	49.01
908.962	49.01
909.334	49.03
909.705	49.07
910.077	49.06
910.449	49.09
910.82	49.06
911.192	49.04
911.563	49.02
911.935	49.05
912.306	49.07
912.677	49.09
913.048	49.08
913.419	49.05
913.79	49.03
914.161	49.02
914.532	49.03
914.903	49.06
915.274	49.09
915.645	49.11
916.015	49.09
916.386	49.07
916.756	49.03
917.127	49.04
917.497	49.04
917.868	49.07
918.238	49.09
918.608	49.1
918.978	49.06
919.348	49.04
919.718	49.06
920.088	49.09
920.458	49.12
920.828	49.17
921.198	49.2
921.567	49.21
921.937	49.22
922.306	49.2
922.676	49.16
923.045	49.2
923.415	49.18
923.784	49.15
924.153	49.11
924.522	49.11
924.891	49.08
925.26	49.06
925.629	49.04
925.998	49.01
926.367	49.02
926.736	49.02
927.104	49.02
927.473	49.06
927.842	49.01
928.21	49
928.578	48.96
928.947	48.94
929.315	48.93
929.683	48.96
930.051	48.89
930.42	48.85
930.788	48.82
931.156	48.77
931.523	48.74
931.891	48.7
932.259	48.67
932.627	48.57
932.994	48.48
933.362	48.37
933.729	48.23
934.097	48.18
934.464	48.12
934.831	48.03
935.199	47.97
935.566	47.85
935.933	47.85
936.3	47.74
936.667	47.78
937.034	47.79
937.401	47.7
937.767	47.74
938.134	47.69
938.501	47.66
938.867	47.74
939.234	47.8
939.6	47.84
939.967	47.86
940.333	47.96
940.699	48.03
941.065	48.04
941.431	48.23
941.798	48.33
942.163	48.57
942.529	48.68
942.895	48.7
943.261	48.67
943.627	48.76
943.992	48.8
944.358	48.82
944.723	48.81
945.089	48.95
945.454	49.06
945.82	48.99
946.185	49.03
946.55	49.09
946.915	48.97
947.28	49.06
947.645	49.16
948.01	49.15
948.375	49.17
948.74	49.14
949.104	49.15
949.469	49.02
949.834	49
950.198	48.92
950.562	48.82
950.927	48.85
951.291	48.75
951.655	48.68
952.02	48.7
952.384	48.72
952.748	48.65
953.112	48.64
953.476	48.66
953.839	48.65
954.203	48.59
954.567	48.56
954.931	48.55
955.294	48.55
955.658	48.49
956.021	48.49
956.385	48.54
956.748	48.59
957.111	48.56
957.474	48.53
957.837	48.52
958.2	48.47
958.563	48.5
958.926	48.44
959.289	48.44
959.652	48.45
960.015	48.41
960.377	48.26
960.74	48.15
961.102	48.14
961.465	48.13
961.827	48.09
962.189	48.09
962.552	48.03
962.914	48.02
963.276	48.03
963.638	47.98
964	47.97
964.362	47.99
964.724	48.1
965.085	48.09
965.447	48.08
965.809	48.04
966.17	48.09
966.532	48.09
966.893	48.04
967.255	47.97
967.616	47.95
967.977	47.9
968.338	47.91
968.699	47.81
969.061	47.71
969.421	47.68
969.782	47.68
970.143	47.61
970.504	47.55
970.865	47.58
971.225	47.56
971.586	47.59
971.946	47.56
972.307	47.5
972.667	47.49
973.027	47.57
973.388	47.52
973.748	47.54
974.108	47.54
974.468	47.58
974.828	47.58
975.188	47.58
975.548	47.52
975.907	47.54
976.267	47.58
976.627	47.58
976.986	47.51
977.346	47.57
977.705	47.56
978.064	47.6
978.424	47.58
978.783	47.6
979.142	47.58
979.501	47.57
979.86	47.54
980.219	47.45
980.578	47.47
980.937	47.48
981.296	47.55
981.654	47.63
982.013	47.61
982.371	47.6
982.73	47.63
983.088	47.61
983.447	47.71
983.805	47.75
984.163	47.83
984.521	47.77
984.879	47.82
985.237	47.81
985.595	47.82
985.953	47.77
986.311	47.91
986.669	47.9
987.026	48
987.384	47.92
987.741	47.89
988.099	47.96
988.456	48.04
988.814	47.94
989.171	47.88
989.528	47.67
989.885	47.54
990.242	47.52
990.599	47.48
990.956	47.4
991.313	47.46
991.67	47.51
992.027	47.42
992.383	47.43
992.74	47.47
993.096	47.43
993.453	47.55
993.809	47.73
994.165	47.62
994.522	47.62
994.878	47.65
995.234	47.64
995.59	47.58
995.946	47.64
996.302	47.47
996.658	47.49
997.013	47.54
997.369	47.49
997.725	47.54
998.08	47.65
998.436	47.68
998.791	47.64
999.147	47.67
999.502	47.71
999.857	47.74
1000.212	47.8
1000.567	47.91
1000.922	47.89
1001.277	47.94
1001.632	47.89
1001.987	47.7
1002.342	47.74
1002.696	47.72
1003.051	47.56
1003.406	47.46
1003.76	47.37
1004.114	47.51
1004.469	47.36
1004.823	47.34
1005.177	47.42
1005.531	47.33
1005.885	47.55
1006.239	47.56
1006.593	47.58
1006.947	47.5
1007.301	47.51
1007.655	47.51
1008.008	47.38
1008.362	47.42
1008.715	47.37
1009.069	47.16
1009.422	47.14
1009.776	47.07
1010.129	46.98
1010.482	47.12
1010.835	47.36
1011.188	47.29
1011.541	47.1
1011.894	47.11
1012.247	46.96
1012.6	46.92
1012.952	47.14
1013.305	47.09
1013.657	46.97
1014.01	47.01
1014.362	47.11
1014.715	47.03
1015.067	47.2
1015.419	47.37
1015.771	47.48
1016.123	47.59
1016.475	47.88
1016.827	47.74
1017.179	47.91
1017.531	47.95
1017.883	48.01
1018.234	47.9
1018.586	47.84
1018.938	47.4
1019.289	47.48
1019.64	47.78
1019.992	47.91
1020.343	47.49
1020.694	47.44
1021.045	47.37
1021.396	47.38
1021.747	47.63
1022.098	47.59
1022.449	47.7
1022.8	48.08
1023.151	47.97
1023.501	47.53
1023.852	47.38
1024.202	47.65
1024.553	48.01
1024.903	48.2
1025.253	48.72
1025.604	48.34
1025.954	48.25
1026.304	48.3
1026.654	48.3
1027.004	48.51
1027.354	48.6
1027.703	48.67
1028.053	48.41
1028.403	47.8
1028.753	47.68
1029.102	46.87
1029.452	46.67
1029.801	46.45
1030.15	46.28
1030.499	46.12
897.758	687.74
901.051	709.55
904.343	708.85
907.636	699.22
910.928	692.5
914.22	699.56
917.511	686.54
920.803	654.5
924.094	632.14
927.384	636.07
930.675	618.65
933.965	613.27
937.255	604.2
940.544	581.06
943.834	556.22
947.123	542.76
950.411	519.07
953.7	509.4
956.988	493.83
960.276	468.8
963.563	464.16
966.851	436.37
970.138	430.58
973.424	401.96
976.711	395.49
979.997	378.54
983.283	371.39
986.568	357.42
989.853	348.17
993.138	335.74
996.423	330.52
999.708	319.56
1002.992	322.5
1006.275	307.87
1009.559	306.03
1012.842	296.74
1016.125	288.6
1019.408	282.53
1022.69	280.08
1025.972	276.01
1029.254	269.98
1032.536	264.24
1035.817	257.53
1039.098	251.26
1042.379	247.98
1045.659	243.56
1048.939	241.99
1052.219	235.46
1055.498	231.38
1058.778	226.91
1062.057	222.43
1065.335	220.74
1068.614	217.18
1071.892	213.13
1075.17	210.12
1078.447	206.87
1081.724	205.92
1085.001	200.96
1088.278	201.98
1091.554	200.98
1094.83	199.33
1098.106	196.88
1101.382	195.41
1104.657	194.37
1107.932	192.91
1111.206	191.39
1114.481	190.27
1117.755	188.43
1121.029	188.32
1124.302	185.59
1127.575	181.24
1130.848	180.87
1134.121	178.94
1137.393	178.03
1140.665	177.55
1143.937	176.21
1147.208	173.16
1150.48	170.93
1153.75	170.48
1157.021	168.55
1160.291	167.91
1163.561	167.85
1166.831	166.08
1170.101	165.46
1173.37	164.35
1176.639	162.24
1179.907	163.29
1183.176	163.51
1186.444	163.3
1189.711	160.93
1192.979	163.22
1196.246	162.77
1199.513	162.89
1202.78	162.78
1206.046	162.88
1209.312	163.25
1212.578	165.23
1215.843	165.64
1219.108	166.37
1222.373	169.85
1225.638	173.5
1228.902	175.89
1232.166	183.05
1235.43	186.47
1238.693	192.03
1241.956	196.4
1245.219	201.48
1248.482	202.7
1251.744	202.97
1255.006	203.54
1258.268	198.5
1261.529	197.02
1264.79	191.28
1268.051	187.05
1271.312	184.45
1274.572	181
1277.832	175.62
1281.092	173.78
1284.351	169.54
1287.61	169.59
1290.869	169.3
1294.128	168.14
1297.386	166.85
1300.644	166.83
1303.902	164.93
1307.159	164.21
1310.416	164.42
1313.673	167.62
1316.93	168.87
1320.186	172.22
1323.442	173.8
1326.697	176.84
1329.953	178.99
1333.208	185.66
1336.463	193.27
1339.717	198.09
1342.972	208.25
1346.226	213.92
1349.479	215.48
1352.733	225.28
1355.986	230.19
1359.238	234.92
1362.491	238.24
1365.743	247.01
1368.995	247.04
1372.247	249.06
1375.498	248.13
1378.749	256.51
1382	256.96
1385.251	256.82
1388.501	255.98
1391.751	259.39
1395	258.23
1398.25	260.15
1401.499	259.46
1404.748	260.94
1407.996	253.31
1411.244	253.85
1414.492	248.69
1417.74	243.5
1420.987	236.73
1424.234	233.35
1427.481	223.63
1430.728	218.61
1433.974	210.97
1437.22	203.89
1440.465	196.82
1443.711	190.73
1446.956	185.55
1450.201	179.46
1453.445	170.44
1456.689	165.95
1459.933	160.33
1463.177	154.13
1466.42	151.48
1469.663	146.93
1472.906	143.05
1476.148	139.12
1479.391	135.86
1482.633	132.79
1485.874	129.54
1489.115	129.3
1492.356	126.47
1495.597	124.25
1498.838	123.79
1502.078	121.61
1505.318	120.98
1508.557	119.81
1511.797	118.74
1515.036	118.26
1518.274	117.58
1521.513	115.98
1524.751	115.2
1527.989	116.43
1531.227	116.17
1534.464	115.25
1537.701	114.45
1540.938	113.51
1544.174	113.62
1547.41	113.07
1550.646	112.72
1553.882	113.01
1557.117	112.61
1560.352	112.23
1563.587	110.66
1566.821	110.46
1570.055	109.84
1573.289	109.33
1576.523	109.76
1579.756	109.12
1582.989	109.29
1586.222	108.94
1589.454	108.96
1592.686	108.6
1595.918	108.25
1599.15	108.28
1602.381	108.16
1605.612	108.37
1608.843	108.79
1612.073	108.74
1615.303	108.86
1618.533	108.57
1621.762	108.79
1624.992	108.29
1628.221	108.32
1631.449	108.69
1634.678	108.59
1637.906	108.78
1641.134	109.06
1644.361	108.59
1647.588	109.39
1650.815	109.61
1654.042	109.38
1657.269	109.03
1660.495	109.52
1663.72	109.94
1666.946	110.21
1670.171	110.87
1673.396	110.84
1676.621	110.78
1679.845	111.19
1683.069	111.06
1686.293	110.56
1689.517	111.39
1692.74	111.95
1695.963	111.67
1699.185	112.25
1702.408	111.97
1705.63	111.8
1708.852	112.87
1712.073	112.77
1715.294	112.83
1718.515	113.44
1721.736	114.18
1724.956	113.9
1728.176	113.7
1731.396	114.7
1734.616	114.45
1737.835	115.09
1741.054	115.12
1744.272	115.07
1747.491	115.21
1750.709	116.36
1753.927	115.83
1757.144	116.7
1760.361	117.43
1763.578	117.42
1766.795	117.93
1770.011	118.39
1773.227	118.43
1776.443	120.42
1779.658	120.17
1782.874	120.93
1786.089	120.42
1789.303	120.88
1792.518	121.67
1795.732	122.26
1798.945	123.9
1802.159	124.11
1805.372	125.54
1808.585	127.04
1811.797	126.83
1815.01	128.33
1818.222	129.74
1821.434	131
1824.645	132.31
1827.856	133.95
1831.067	134.58
1834.278	136.18
1837.488	137.15
1840.698	138.53
1843.908	138.44
1847.117	140.86
1850.326	142.23
1853.535	141.87
1856.744	143.81
1859.952	145.14
1863.16	145.14
1866.368	145.03
1869.575	146.04
1872.782	146.03
1875.989	145.56
1879.196	145.76
1882.402	144.06
1885.608	144.13
1888.814	144.94
1892.019	146.74
1895.224	144.58
1898.429	145.09
1901.634	145.95
1904.838	146.9
1908.042	148.01
1911.246	147.38
1914.449	147.95
1917.652	147.58
1920.855	148.31
1924.058	147.81
1927.26	146.48
1930.462	148.39
1933.664	147.83
1936.865	148.69
1940.066	145.92
1943.267	144.28
1946.467	145.67
1949.668	146.37
1952.868	147.35
1956.067	146.62
1959.267	146.79
1962.466	147.42
1965.665	148.14
1968.863	149.22
1972.061	150.86
1975.259	154.19
1978.457	156.94
1981.654	157.24
1984.852	158.63
1988.048	160.68
1991.245	162.94
1994.441	166.32
1997.637	170
2000.833	172.23
2004.028	174.19
2007.223	179.16
2010.418	182.03
2013.613	189.33
2016.807	195.3
2020.001	199.18
2023.194	204.24
2026.388	212.62
2029.581	223.33
2032.774	229.42
2035.966	236.56
2039.158	244.13
2042.35	247.3
2045.542	253.62
2048.733	260.71
2051.924	265.04
2055.115	268.78
2058.306	272.26
2061.496	276.74
2064.686	275.69
2067.875	274.19
2071.065	276.75
2074.254	276.43
2077.442	283.74
2080.631	286.31
2083.819	288.9
2087.007	292.3
2090.195	297.18
2093.382	298.74
2096.569	298.66
2099.756	305.35
2102.942	312.46
2106.128	319.17
2109.314	321.48
2112.5	322
2115.685	319.6
2118.87	320.48
2122.055	321.75
2125.239	327.41
2128.424	335.33
2131.608	332.74
2134.791	331.03
2137.974	331.5
2141.157	334.53
2144.34	338.06
2147.523	344.31
2150.705	352.6
2153.887	349.56
2157.068	354.03
2160.25	353.74
2163.431	352.9
2166.611	361.04
2169.792	367.92
2172.972	374.13
2176.152	372.99
2179.331	380.27
2182.511	380
2185.69	384.33
2188.868	398.42
2192.047	410.18
2195.225	419.6
2198.403	425.02
2201.58	416.29
2204.758	433.01
2207.935	435.61
2211.111	445.98
2214.288	447.59
2217.464	453.77
2220.64	453.6
2223.815	457.39
2226.991	447.03
2230.166	452.84
2233.34	463.06
2236.515	482.69
2239.689	471.8
2242.863	478.17
2246.036	474.61
2249.209	489.91
2252.382	489.53
2255.555	509.63
2258.727	509.75
2261.9	532.03
2265.071	537.23
2268.243	531.83
2271.414	543.32
2274.585	555.09
2277.756	556.71
2280.926	586.69
2284.096	583.37
2287.266	585.16
2290.436	574.93
2293.605	588.44
2296.774	608.28
2299.942	607.37
2303.111	624.96
2306.279	638.34
2309.447	644.17
2312.614	645.46
2315.781	653.02
2318.948	660.07
2322.115	672.5
2325.281	710.2
2328.447	706.95
2331.613	706.27
2334.779	717.15
2337.944	731.71
2341.109	745.68
2344.274	753.23
2347.438	776.6
2350.602	783.71
2353.766	837.07
2356.929	838.82
2360.092	846.4
2363.255	850.78
2366.418	861.02
2369.58	883.86
2372.742	882.04
2375.904	876.12
2379.066	900.14
2382.227	947.47
2385.388	951.52
2388.548	898.39
2391.709	894.19
2394.869	925.09
2398.029	926.62
2401.188	926.17
2404.347	954.32
2407.506	988.66
2410.665	946.86
2413.823	954.84
2416.981	955.83
2420.139	903.94
2423.296	977.91
2426.453	1041.07
2429.61	984.51
2432.767	1052.24
2435.923	1085.78
2439.079	1046.77
2442.235	1070.71
2445.391	1103.7
2448.546	1088.48
2451.701	1155.27
2454.855	1237.63
2458.009	1099.21
2461.163	1107.74
2464.317	1131.68
2467.471	1105.67
2470.624	1145.18
2473.777	1123.82
2476.929	1082.08
2480.082	1159.19
2483.234	1217.81
2486.385	1238.79
2489.537	1264.83
2492.688	1392.14
2495.839	1372.13
2498.989	1412.41
2502.14	1419.42
2505.29	1357.88
2508.439	1508.27
2511.589	1553.41
2514.738	1495.06
2517.887	1481.7
2521.035	1377.98
2524.183	1361.98
2527.331	1345.4
2530.479	1319.41
2533.627	1344.39
