Data from N_3_hir_wi_4n_Splice17_01.txt Node
Date: Sat Feb 29 14:54:01 EST 2020
User: sa697716
Spectrometer: FLMS03696
Trigger mode: 0
Integration Time (sec): 3.180400E-1
Scans to average: 20
Electric dark correction enabled: true
Nonlinearity correction enabled: true
Boxcar width: 5
XAxis mode: Wavelengths
Number of Pixels in Spectrum: 2048
>>>>>Begin Spectral Data<<<<<
187.83	82.22
188.298	76.85
188.766	73.24
189.233	69.48
189.701	83.58
190.169	80.12
190.636	81.22
191.104	101.45
191.571	326.28
192.039	233.25
192.506	-140.86
192.974	1478.93
193.441	397.64
193.908	7.93
194.375	-36.94
194.842	114.13
195.31	44.84
195.777	57.77
196.244	71.43
196.711	63.19
197.177	61.23
197.644	60.26
198.111	58.53
198.578	57.91
199.045	58.15
199.511	58.44
199.978	58.19
200.445	58.23
200.911	58.32
201.378	58.09
201.844	58.17
202.31	58.3
202.777	58.32
203.243	58.59
203.709	59
204.176	58.47
204.642	57.89
205.108	57.34
205.574	57.46
206.04	56.89
206.506	56.17
206.972	55.39
207.438	53.83
207.903	52.98
208.369	51.78
208.835	50.84
209.301	49.68
209.766	48.47
210.232	47.45
210.697	46.16
211.163	44.84
211.628	43.64
212.094	42.61
212.559	41.98
213.024	40.85
213.49	39.66
213.955	38.68
214.42	37.51
214.885	36.05
215.35	34.35
215.815	31.79
216.28	29.33
216.745	26.53
217.21	23.42
217.675	20.68
218.14	18.17
218.604	15.95
219.069	13.9
219.534	12.23
219.998	10.82
220.463	9.65
220.927	8.78
221.392	7.89
221.856	7.23
222.32	6.72
222.785	6.21
223.249	5.8
223.713	5.47
224.177	5.12
224.642	4.87
225.106	4.63
225.57	4.37
226.034	4.13
226.497	3.98
226.961	3.79
227.425	3.6
227.889	3.43
228.353	3.26
228.816	3.13
229.28	2.99
229.744	2.88
230.207	2.78
230.671	2.68
231.134	2.6
231.597	2.49
232.061	2.42
232.524	2.37
232.987	2.31
233.45	2.26
233.914	2.2
234.377	2.17
234.84	2.12
235.303	2.09
235.766	2.08
236.229	2.03
236.691	2.02
237.154	1.99
237.617	1.96
238.08	1.93
238.542	1.91
239.005	1.89
239.468	1.85
239.93	1.83
240.393	1.81
240.855	1.77
241.317	1.76
241.78	1.74
242.242	1.7
242.704	1.68
243.166	1.67
243.629	1.64
244.091	1.6
244.553	1.59
245.015	1.57
245.477	1.54
245.939	1.52
246.4	1.49
246.862	1.47
247.324	1.46
247.786	1.44
248.247	1.41
248.709	1.4
249.17	1.4
249.632	1.37
250.093	1.33
250.555	1.32
251.016	1.31
251.477	1.3
251.939	1.27
252.4	1.25
252.861	1.25
253.322	1.23
253.783	1.23
254.244	1.21
254.705	1.2
255.166	1.21
255.627	1.18
256.088	1.16
256.549	1.14
257.009	1.13
257.47	1.12
257.931	1.09
258.391	1.07
258.852	1.02
259.312	1.01
259.773	0.99
260.233	0.95
260.694	0.93
261.154	0.91
261.614	0.89
262.074	0.88
262.534	0.85
262.994	0.84
263.455	0.83
263.915	0.82
264.374	0.79
264.834	0.78
265.294	0.77
265.754	0.75
266.214	0.75
266.673	0.73
267.133	0.72
267.593	0.71
268.052	0.69
268.512	0.69
268.971	0.68
269.431	0.68
269.89	0.67
270.349	0.66
270.809	0.67
271.268	0.67
271.727	0.67
272.186	0.66
272.645	0.66
273.104	0.66
273.563	0.66
274.022	0.67
274.481	0.67
274.94	0.67
275.399	0.67
275.857	0.67
276.316	0.67
276.775	0.67
277.233	0.67
277.692	0.68
278.15	0.67
278.609	0.68
279.067	0.67
279.525	0.68
279.984	0.68
280.442	0.69
280.9	0.7
281.358	0.71
281.816	0.71
282.274	0.72
282.732	0.73
283.19	0.74
283.648	0.75
284.106	0.75
284.564	0.77
285.021	0.77
285.479	0.78
285.937	0.78
286.394	0.77
286.852	0.78
287.309	0.78
287.767	0.77
288.224	0.77
288.682	0.77
289.139	0.78
289.596	0.77
290.053	0.76
290.511	0.74
290.968	0.74
291.425	0.74
291.882	0.73
292.339	0.72
292.796	0.71
293.252	0.7
293.709	0.7
294.166	0.69
294.623	0.69
295.079	0.69
295.536	0.69
295.992	0.68
296.449	0.68
296.905	0.68
297.362	0.68
297.818	0.68
298.274	0.67
298.731	0.67
299.187	0.68
299.643	0.68
300.099	0.68
300.555	0.68
301.011	0.68
301.467	0.68
301.923	0.69
302.379	0.69
302.835	0.7
303.291	0.7
303.746	0.7
304.202	0.7
304.658	0.7
305.113	0.7
305.569	0.71
306.024	0.72
306.479	0.72
306.935	0.72
307.39	0.73
307.845	0.73
308.301	0.74
308.756	0.76
309.211	0.76
309.666	0.77
310.121	0.77
310.576	0.78
311.031	0.78
311.486	0.79
311.94	0.8
312.395	0.81
312.85	0.81
313.305	0.82
313.759	0.82
314.214	0.82
314.668	0.82
315.123	0.82
315.577	0.82
316.032	0.82
316.486	0.82
316.94	0.83
317.394	0.82
317.849	0.82
318.303	0.81
318.757	0.81
319.211	0.8
319.665	0.8
320.119	0.79
320.572	0.8
321.026	0.79
321.48	0.79
321.934	0.79
322.387	0.79
322.841	0.79
323.295	0.78
323.748	0.79
324.202	0.8
324.655	0.81
325.108	0.81
325.562	0.81
326.015	0.81
326.468	0.81
326.921	0.81
327.374	0.82
327.827	0.82
328.28	0.82
328.733	0.83
329.186	0.83
329.639	0.84
330.092	0.85
330.545	0.86
330.997	0.87
331.45	0.88
331.903	0.89
332.355	0.9
332.808	0.9
333.26	0.91
333.713	0.93
334.165	0.94
334.617	0.95
335.069	0.95
335.522	0.96
335.974	0.97
336.426	0.98
336.878	0.99
337.33	0.99
337.782	1
338.234	1.01
338.686	1.01
339.137	1.01
339.589	1.01
340.041	1.02
340.493	1.01
340.944	1
341.396	1
341.847	1
342.299	0.99
342.75	0.98
343.201	0.97
343.653	0.96
344.104	0.96
344.555	0.96
345.006	0.96
345.457	0.96
345.908	0.95
346.359	0.95
346.81	0.97
347.261	0.96
347.712	0.97
348.163	0.97
348.613	0.98
349.064	0.97
349.515	0.97
349.965	0.97
350.416	0.97
350.866	0.99
351.317	0.99
351.767	0.99
352.217	1
352.668	1.01
353.118	1.01
353.568	1.02
354.018	1.03
354.468	1.03
354.918	1.04
355.368	1.04
355.818	1.04
356.268	1.05
356.718	1.05
357.168	1.04
357.617	1.03
358.067	1.03
358.517	1.04
358.966	1.04
359.416	1.05
359.865	1.05
360.315	1.07
360.764	1.07
361.213	1.07
361.663	1.07
362.112	1.09
362.561	1.11
363.01	1.13
363.459	1.13
363.908	1.13
364.357	1.13
364.806	1.13
365.255	1.14
365.703	1.15
366.152	1.15
366.601	1.16
367.05	1.16
367.498	1.15
367.947	1.16
368.395	1.16
368.844	1.16
369.292	1.16
369.74	1.17
370.189	1.15
370.637	1.16
371.085	1.17
371.533	1.17
371.981	1.17
372.429	1.17
372.877	1.17
373.325	1.16
373.773	1.17
374.221	1.18
374.669	1.18
375.116	1.18
375.564	1.17
376.012	1.17
376.459	1.18
376.907	1.18
377.354	1.18
377.801	1.19
378.249	1.2
378.696	1.2
379.143	1.22
379.591	1.24
380.038	1.25
380.485	1.27
380.932	1.28
381.379	1.27
381.826	1.3
382.273	1.31
382.72	1.33
383.166	1.33
383.613	1.35
384.06	1.38
384.506	1.4
384.953	1.43
385.4	1.49
385.846	1.54
386.292	1.63
386.739	1.71
387.185	1.81
387.631	1.89
388.078	1.97
388.524	2.03
388.97	2.1
389.416	2.18
389.862	2.32
390.308	2.47
390.754	2.65
391.2	2.82
391.645	2.97
392.091	3.09
392.537	3.25
392.983	3.5
393.428	3.84
393.874	4.26
394.319	4.7
394.765	5.14
395.21	5.59
395.655	6.09
396.101	6.63
396.546	7.25
396.991	7.94
397.436	8.66
397.881	9.38
398.326	10.06
398.771	10.72
399.216	11.37
399.661	11.99
400.106	12.55
400.551	13.04
400.995	13.47
401.44	13.85
401.885	14.23
402.329	14.63
402.774	15.06
403.218	15.56
403.663	16.09
404.107	16.66
404.551	17.24
404.995	17.77
405.44	18.29
405.884	18.86
406.328	19.54
406.772	20.32
407.216	21.11
407.66	21.83
408.104	22.45
408.547	23.01
408.991	23.54
409.435	24.12
409.879	24.81
410.322	25.58
410.766	26.37
411.209	27.12
411.653	27.76
412.096	28.36
412.54	28.93
412.983	29.56
413.426	30.21
413.869	30.86
414.312	31.56
414.756	32.18
415.199	32.73
415.642	33.25
416.085	33.71
416.527	34.11
416.97	34.4
417.413	34.58
417.856	34.62
418.298	34.65
418.741	34.77
419.184	34.9
419.626	35.11
420.069	35.39
420.511	35.63
420.953	35.9
421.396	36.23
421.838	36.73
422.28	37.33
422.722	37.99
423.164	38.65
423.606	39.19
424.048	39.59
424.49	39.79
424.932	39.64
425.374	39.15
425.816	38.37
426.258	37.58
426.699	37.06
427.141	37.09
427.582	37.52
428.024	38.21
428.465	38.97
428.907	39.71
429.348	40.42
429.789	41.35
430.231	42.79
430.672	44.79
431.113	47.04
431.554	49.2
431.995	50.84
432.436	52.06
432.877	53.01
433.318	53.76
433.759	54.62
434.2	55.7
434.64	57.01
435.081	58.32
435.522	59.46
435.962	60.38
436.403	61.19
436.843	61.96
437.284	62.82
437.724	63.7
438.164	64.8
438.604	65.98
439.045	67.23
439.485	68.42
439.925	69.38
440.365	70.17
440.805	70.82
441.245	71.37
441.685	71.94
442.125	72.64
442.564	73.46
443.004	74.35
443.444	75.31
443.883	76.28
444.323	77.31
444.762	78.35
445.202	79.57
445.641	80.93
446.081	82.53
446.52	84.14
446.959	85.59
447.398	86.78
447.837	87.59
448.276	87.98
448.716	88.37
449.154	88.73
449.593	89.1
450.032	89.34
450.471	89.35
450.91	89.18
451.349	88.99
451.787	88.89
452.226	88.92
452.664	89.08
453.103	89.38
453.541	89.52
453.98	89.41
454.418	89.24
454.856	88.93
455.295	88.68
455.733	88.49
456.171	88.34
456.609	88.22
457.047	88.11
457.485	88.14
457.923	88.29
458.361	88.57
458.798	89
459.236	89.44
459.674	89.86
460.111	90.31
460.549	90.74
460.987	91.21
461.424	91.69
461.862	92.17
462.299	92.53
462.736	92.97
463.173	93.56
463.611	94.3
464.048	95.18
464.485	96.23
464.922	97.39
465.359	98.45
465.796	99.42
466.233	100.38
466.67	101.56
467.106	103.05
467.543	104.57
467.98	105.99
468.416	107.26
468.853	108.36
469.29	109.5
469.726	110.58
470.162	111.81
470.599	113.05
471.035	114.15
471.471	114.88
471.907	115.28
472.344	115.62
472.78	115.91
473.216	116.3
473.652	116.66
474.088	116.88
474.523	117.01
474.959	117.04
475.395	117.07
475.831	117.03
476.266	117.12
476.702	117.17
477.138	117.09
477.573	116.9
478.008	116.5
478.444	116.01
478.879	115.41
479.314	114.68
479.75	113.85
480.185	112.88
480.62	111.66
481.055	109.89
481.49	107.62
481.925	105.21
482.36	103.02
482.795	101.17
483.229	99.75
483.664	98.6
484.099	97.61
484.534	96.76
484.968	96.14
485.403	95.89
485.837	96.17
486.271	96.87
486.706	97.57
487.14	98.03
487.574	98.18
488.009	98.16
488.443	98.08
488.877	98.04
489.311	98
489.745	97.96
490.179	97.96
490.613	97.92
491.046	97.95
491.48	98.11
491.914	98.44
492.348	98.93
492.781	99.33
493.215	99.64
493.648	99.87
494.082	100
494.515	100.11
494.948	100.2
495.382	100.27
495.815	100.21
496.248	100.16
496.681	100.01
497.114	99.83
497.547	99.72
497.98	99.77
498.413	99.99
498.846	100.32
499.279	100.56
499.711	100.72
500.144	101.02
500.577	101.58
501.009	102.31
501.442	103.24
501.874	104.18
502.306	105.11
502.739	105.78
503.171	106.43
503.603	107
504.036	107.66
504.468	108.48
504.9	109.26
505.332	109.93
505.764	110.52
506.196	111.02
506.627	111.62
507.059	112.26
507.491	113.05
507.923	113.77
508.354	114.47
508.786	115.08
509.217	115.52
509.649	115.96
510.08	116.37
510.512	116.87
510.943	117.42
511.374	117.79
511.805	117.87
512.237	117.65
512.668	117.28
513.099	117.05
513.53	116.92
513.961	116.93
514.391	117.09
514.822	117.43
515.253	117.88
515.684	118.35
516.114	119
516.545	119.88
516.975	121.27
517.406	122.79
517.836	124.17
518.267	125.43
518.697	126.6
519.127	127.75
519.558	128.79
519.988	129.67
520.418	130.52
520.848	131.2
521.278	131.78
521.708	131.79
522.138	131.7
522.567	131.65
522.997	131.7
523.427	131.93
523.857	132.16
524.286	132.51
524.716	132.87
525.145	133.12
525.575	133.44
526.004	133.94
526.433	134.88
526.863	135.99
527.292	137.01
527.721	137.75
528.15	138.13
528.579	138.27
529.008	138.25
529.437	138.19
529.866	138.13
530.295	138.19
530.724	138.28
531.152	138.3
531.581	138.29
532.01	138.25
532.438	138.28
532.867	138.5
533.295	138.77
533.723	139.03
534.152	139.18
534.58	139.31
535.008	139.15
535.436	138.81
535.865	138.39
536.293	137.93
536.721	137.69
537.149	137.63
537.576	137.65
538.004	137.71
538.432	137.75
538.86	137.86
539.287	138.1
539.715	138.54
540.143	139.09
540.57	139.78
540.998	140.58
541.425	141.26
541.852	141.94
542.28	142.55
542.707	143.13
543.134	143.65
543.561	144.09
543.988	144.56
544.415	145.06
544.842	145.6
545.269	146.14
545.696	146.6
546.123	147.13
546.549	147.63
546.976	148.13
547.403	148.64
547.829	149.21
548.256	149.79
548.682	150.19
549.108	150.65
549.535	151.05
549.961	151.42
550.387	151.85
550.813	152.25
551.24	152.62
551.666	152.9
552.092	153.02
552.518	153.07
552.943	153.15
553.369	153.24
553.795	153.15
554.221	152.87
554.646	152.45
555.072	151.91
555.498	151.39
555.923	150.95
556.349	150.56
556.774	150.33
557.199	150.08
557.625	149.79
558.05	149.46
558.475	149.21
558.9	149.06
559.325	148.9
559.75	148.73
560.175	148.48
560.6	148.06
561.025	147.43
561.449	146.68
561.874	145.96
562.299	145.31
562.723	144.69
563.148	143.99
563.572	143.23
563.997	142.44
564.421	141.53
564.846	140.62
565.27	139.82
565.694	138.97
566.118	138.04
566.542	137.09
566.966	136.12
567.39	135.13
567.814	134.32
568.238	133.63
568.662	133.09
569.086	132.65
569.509	132.31
569.933	131.86
570.357	131.54
570.78	131.31
571.204	131.11
571.627	130.95
572.05	130.89
572.474	130.72
572.897	130.52
573.32	130.26
573.743	130.02
574.166	129.66
574.589	129.48
575.012	129.44
575.435	129.53
575.858	129.71
576.281	129.91
576.704	130.08
577.126	130.3
577.549	130.62
577.972	131.07
578.394	131.52
578.817	132.08
579.239	132.68
579.661	133.19
580.084	133.62
580.506	134
580.928	134.24
581.35	134.47
581.772	134.64
582.194	134.74
582.616	134.83
583.038	134.98
583.46	135.05
583.882	134.82
584.303	134.39
584.725	133.72
585.147	132.99
585.568	132.45
585.99	132.09
586.411	131.91
586.833	131.74
587.254	131.57
587.675	131.42
588.096	131.36
588.518	131.45
588.939	131.75
589.36	132.29
589.781	132.85
590.202	133.25
590.623	133.45
591.043	133.43
591.464	133.37
591.885	133.31
592.305	133.16
592.726	132.94
593.147	132.68
593.567	132.36
593.987	131.98
594.408	131.62
594.828	131.26
595.248	130.91
595.669	130.44
596.089	129.89
596.509	129.27
596.929	128.58
597.349	127.83
597.769	127.11
598.189	126.47
598.608	125.89
599.028	125.36
599.448	124.89
599.867	124.4
600.287	124.06
600.706	123.64
601.126	123.26
601.545	122.93
601.965	122.69
602.384	122.48
602.803	122.22
603.222	121.9
603.641	121.54
604.061	121.17
604.48	120.72
604.898	120.27
605.317	119.89
605.736	119.45
606.155	119.05
606.574	118.63
606.992	118.25
607.411	117.87
607.829	117.51
608.248	117.18
608.666	116.8
609.085	116.47
609.503	116.04
609.921	115.72
610.339	115.47
610.758	115.19
611.176	114.84
611.594	114.4
612.012	113.92
612.43	113.44
612.847	112.99
613.265	112.69
613.683	112.44
614.101	112.26
614.518	112.1
614.936	111.9
615.353	111.75
615.771	111.69
616.188	111.72
616.606	111.76
617.023	111.82
617.44	111.8
617.857	111.64
618.274	111.46
618.691	111.21
619.108	110.88
619.525	110.54
619.942	110.13
620.359	109.67
620.776	109.14
621.192	108.66
621.609	108.21
622.026	107.83
622.442	107.53
622.859	107.14
623.275	106.79
623.691	106.39
624.108	106.04
624.524	105.73
624.94	105.42
625.356	105.12
625.772	104.91
626.188	104.68
626.604	104.39
627.02	104.07
627.436	103.83
627.852	103.69
628.268	103.65
628.683	103.62
629.099	103.62
629.514	103.61
629.93	103.68
630.345	103.72
630.761	103.76
631.176	103.85
631.591	103.92
632.007	103.98
632.422	104.04
632.837	104.09
633.252	104.13
633.667	104.18
634.082	104.29
634.497	104.34
634.911	104.3
635.326	104.2
635.741	104.11
636.155	103.97
636.57	103.84
636.984	103.62
637.399	103.4
637.813	103.19
638.228	102.92
638.642	102.66
639.056	102.39
639.47	102.2
639.884	102.07
640.298	101.93
640.712	101.8
641.126	101.65
641.54	101.5
641.954	101.31
642.368	101.04
642.781	100.81
643.195	100.51
643.609	100.28
644.022	100.01
644.436	99.62
644.849	99.17
645.262	98.71
645.676	98.28
646.089	98.03
646.502	97.81
646.915	97.64
647.328	97.43
647.741	97.26
648.154	97.09
648.567	96.96
648.98	96.89
649.393	96.93
649.805	97
650.218	96.96
650.631	96.69
651.043	96.23
651.456	95.38
651.868	94.28
652.28	93.11
652.693	92.08
653.105	91.27
653.517	90.69
653.929	90.21
654.341	89.86
654.753	89.64
655.165	89.51
655.577	89.58
655.989	90.09
656.401	90.82
656.813	91.67
657.224	92.35
657.636	92.81
658.047	93.06
658.459	93.14
658.87	93.07
659.282	92.94
659.693	92.78
660.104	92.61
660.515	92.37
660.926	92.2
661.338	91.94
661.749	91.64
662.159	91.29
662.57	90.92
662.981	90.63
663.392	90.33
663.803	89.98
664.213	89.71
664.624	89.41
665.035	89.08
665.445	88.71
665.855	88.34
666.266	87.99
666.676	87.66
667.086	87.3
667.497	86.87
667.907	86.49
668.317	86.17
668.727	85.8
669.137	85.46
669.547	85.14
669.956	84.82
670.366	84.58
670.776	84.28
671.186	83.98
671.595	83.74
672.005	83.57
672.414	83.37
672.824	83.18
673.233	83.02
673.642	82.83
674.052	82.67
674.461	82.51
674.87	82.35
675.279	82.25
675.688	82.16
676.097	82.08
676.506	81.99
676.915	81.9
677.323	81.86
677.732	81.85
678.141	81.83
678.549	81.79
678.958	81.83
679.366	81.79
679.775	81.75
680.183	81.71
680.592	81.7
681	81.71
681.408	81.66
681.816	81.41
682.224	80.78
682.632	79.74
683.04	78.39
683.448	77.08
683.856	75.93
684.264	74.93
684.671	73.97
685.079	73.06
685.487	72.22
685.894	71.57
686.302	71.21
686.709	71.32
687.116	72.04
687.524	73.19
687.931	74.39
688.338	75.55
688.745	76.63
689.152	77.75
689.559	78.8
689.966	79.79
690.373	80.77
690.78	81.6
691.187	82.39
691.593	83.05
692	83.7
692.407	84.31
692.813	84.89
693.22	85.41
693.626	85.9
694.032	86.33
694.439	86.78
694.845	87.16
695.251	87.55
695.657	87.85
696.063	88.14
696.469	88.3
696.875	88.35
697.281	88.39
697.687	88.46
698.093	88.5
698.498	88.61
698.904	88.74
699.31	88.9
699.715	89.13
700.12	89.38
700.526	89.7
700.931	89.99
701.337	90.38
701.742	90.72
702.147	91.05
702.552	91.42
702.957	91.75
703.362	92.07
703.767	92.31
704.172	92.51
704.577	92.68
704.981	92.81
705.386	92.97
705.791	93.13
706.195	93.27
706.6	93.39
707.004	93.54
707.408	93.64
707.813	93.71
708.217	93.71
708.621	93.71
709.025	93.77
709.43	93.78
709.834	93.87
710.237	93.83
710.641	93.83
711.045	93.77
711.449	93.67
711.853	93.5
712.256	93.23
712.66	92.82
713.064	92.24
713.467	91.43
713.87	90.5
714.274	89.37
714.677	88.2
715.08	86.98
715.484	85.85
715.887	84.73
716.29	83.88
716.693	83.29
717.096	83.18
717.499	83.37
717.901	83.81
718.304	84.37
718.707	85.01
719.109	85.67
719.512	86.26
719.915	86.78
720.317	87.25
720.719	87.52
721.122	87.61
721.524	87.47
721.926	87.23
722.328	86.92
722.731	86.63
723.133	86.35
723.535	86.19
723.937	86.14
724.338	86.02
724.74	85.93
725.142	85.78
725.544	85.75
725.945	85.72
726.347	85.69
726.748	85.6
727.15	85.59
727.551	85.71
727.952	85.87
728.354	86.12
728.755	86.44
729.156	86.9
729.557	87.46
729.958	87.97
730.359	88.39
730.76	88.72
731.161	89.06
731.562	89.34
731.962	89.51
732.363	89.63
732.763	89.71
733.164	89.75
733.564	89.69
733.965	89.52
734.365	89.19
734.766	88.93
735.166	88.69
735.566	88.47
735.966	88.3
736.366	88.13
736.766	87.92
737.166	87.69
737.566	87.46
737.966	87.23
738.365	87.12
738.765	87.11
739.165	87.15
739.564	87.18
739.964	87.18
740.363	87.13
740.763	87.14
741.162	87.12
741.561	87.16
741.96	87.24
742.36	87.32
742.759	87.32
743.158	87.3
743.557	87.23
743.955	87.22
744.354	87.22
744.753	87.2
745.152	87.12
745.55	87.06
745.949	86.97
746.348	86.82
746.746	86.67
747.144	86.6
747.543	86.49
747.941	86.44
748.339	86.38
748.737	86.3
749.136	86.25
749.534	86.28
749.932	86.34
750.33	86.38
750.727	86.43
751.125	86.47
751.523	86.4
751.921	86.38
752.318	86.34
752.716	86.25
753.113	86.19
753.511	86.1
753.908	85.95
754.305	85.64
754.703	84.79
755.1	82.97
755.497	79.89
755.894	75.66
756.291	70.61
756.688	65.33
757.085	60.35
757.482	55.81
757.878	51.5
758.275	47.15
758.672	42.82
759.068	39.01
759.465	36.29
759.861	35.17
760.258	35.53
760.654	37.13
761.05	39.3
761.447	41.54
761.843	43.73
762.239	46.06
762.635	48.85
763.031	52.15
763.427	55.76
763.822	59.48
764.218	63.13
764.614	66.65
765.01	69.89
765.405	72.85
765.801	75.58
766.196	78
766.592	80.04
766.987	81.76
767.382	83.08
767.778	84.15
768.173	85.01
768.568	85.66
768.963	86.22
769.358	86.69
769.753	87.11
770.148	87.37
770.542	87.51
770.937	87.64
771.332	87.72
771.726	87.83
772.121	87.85
772.515	87.9
772.91	87.94
773.304	87.85
773.699	87.75
774.093	87.61
774.487	87.55
774.881	87.5
775.275	87.42
775.669	87.32
776.063	87.12
776.457	86.93
776.851	86.75
777.245	86.63
777.638	86.52
778.032	86.46
778.425	86.38
778.819	86.2
779.212	85.95
779.606	85.73
779.999	85.45
780.392	85.28
780.786	85.11
781.179	84.94
781.572	84.66
781.965	84.46
782.358	84.08
782.751	83.75
783.143	83.45
783.536	83.22
783.929	82.98
784.322	82.72
784.714	82.41
785.107	82.12
785.499	81.74
785.891	81.32
786.284	80.82
786.676	80.47
787.068	80.04
787.46	79.58
787.852	79.12
788.245	78.64
788.636	78.14
789.028	77.59
789.42	77.03
789.812	76.51
790.204	76
790.595	75.56
790.987	75.12
791.378	74.7
791.77	74.41
792.161	74.06
792.553	73.7
792.944	73.41
793.335	73.19
793.726	72.94
794.117	72.71
794.508	72.53
794.899	72.26
795.29	71.9
795.681	71.55
796.072	71.12
796.463	70.7
796.853	70.28
797.244	69.85
797.634	69.37
798.025	68.94
798.415	68.46
798.806	67.96
799.196	67.52
799.586	67.09
799.976	66.67
800.366	66.21
800.756	65.77
801.146	65.34
801.536	64.91
801.926	64.48
802.316	64.05
802.706	63.66
803.095	63.26
803.485	62.82
803.874	62.38
804.264	61.91
804.653	61.41
805.043	60.91
805.432	60.36
805.821	59.8
806.21	59.28
806.599	58.71
806.988	58.11
807.377	57.53
807.766	56.95
808.155	56.36
808.544	55.71
808.933	55.07
809.321	54.41
809.71	53.73
810.098	52.97
810.487	52.13
810.875	51.26
811.264	50.35
811.652	49.36
812.04	48.36
812.428	47.38
812.816	46.49
813.204	45.65
813.592	44.83
813.98	44.06
814.368	43.35
814.756	42.73
815.144	42.17
815.531	41.69
815.919	41.36
816.306	41.12
816.694	40.97
817.081	40.8
817.469	40.6
817.856	40.34
818.243	39.93
818.63	39.48
819.017	38.99
819.404	38.56
819.791	38.22
820.178	37.9
820.565	37.55
820.952	37.15
821.339	36.75
821.725	36.43
822.112	36.2
822.498	36.12
822.885	36.07
823.271	35.99
823.657	35.83
824.044	35.54
824.43	35.18
824.816	34.81
825.202	34.42
825.588	34.09
825.974	33.71
826.36	33.32
826.746	32.94
827.132	32.56
827.517	32.23
827.903	31.94
828.289	31.64
828.674	31.38
829.06	31.13
829.445	30.9
829.83	30.65
830.216	30.43
830.601	30.23
830.986	30.03
831.371	29.88
831.756	29.71
832.141	29.55
832.526	29.43
832.911	29.31
833.295	29.18
833.68	29.06
834.065	28.94
834.449	28.77
834.834	28.6
835.218	28.44
835.603	28.28
835.987	28.12
836.371	27.97
836.755	27.8
837.139	27.62
837.524	27.46
837.908	27.26
838.291	27.08
838.675	26.91
839.059	26.75
839.443	26.57
839.827	26.36
840.21	26.2
840.594	26
840.977	25.83
841.361	25.67
841.744	25.51
842.127	25.36
842.511	25.21
842.894	25.05
843.277	24.91
843.66	24.77
844.043	24.64
844.426	24.48
844.809	24.3
845.191	24.07
845.574	23.82
845.957	23.56
846.339	23.32
846.722	23.1
847.104	22.93
847.487	22.74
847.869	22.54
848.252	22.34
848.634	22.17
849.016	22.02
849.398	21.82
849.78	21.57
850.162	21.31
850.544	21.06
850.926	20.83
851.307	20.63
851.689	20.43
852.071	20.26
852.452	20.12
852.834	19.98
853.215	19.88
853.597	19.88
853.978	19.93
854.359	20.03
854.741	20.1
855.122	20.13
855.503	20.09
855.884	20.05
856.265	20
856.646	19.93
857.026	19.85
857.407	19.74
857.788	19.63
858.169	19.51
858.549	19.39
858.93	19.28
859.31	19.16
859.69	19.06
860.071	18.97
860.451	18.84
860.831	18.71
861.211	18.55
861.591	18.37
861.971	18.12
862.351	17.89
862.731	17.67
863.111	17.47
863.491	17.28
863.87	17.09
864.25	16.94
864.629	16.78
865.009	16.65
865.388	16.55
865.768	16.51
866.147	16.53
866.526	16.54
866.905	16.55
867.284	16.54
867.663	16.53
868.042	16.51
868.421	16.46
868.8	16.44
869.179	16.4
869.558	16.35
869.936	16.3
870.315	16.24
870.693	16.19
871.072	16.12
871.45	16.05
871.828	15.98
872.207	15.92
872.585	15.86
872.963	15.8
873.341	15.74
873.719	15.7
874.097	15.64
874.475	15.6
874.853	15.56
875.23	15.51
875.608	15.44
875.986	15.36
876.363	15.29
876.741	15.23
877.118	15.15
877.495	15.12
877.873	15.04
878.25	14.98
878.627	14.91
879.004	14.84
879.381	14.78
879.758	14.71
880.135	14.69
880.512	14.65
880.889	14.59
881.265	14.54
881.642	14.48
882.019	14.41
882.395	14.33
882.772	14.26
883.148	14.18
883.524	14.09
883.901	14.04
884.277	13.96
884.653	13.87
885.029	13.8
885.405	13.72
885.781	13.66
886.157	13.6
886.532	13.56
886.908	13.5
887.284	13.47
887.659	13.44
888.035	13.36
888.411	13.29
888.786	13.22
889.161	13.16
889.537	13.09
889.912	13
890.287	12.91
890.662	12.79
891.037	12.66
891.412	12.53
891.787	12.38
892.162	12.26
892.536	12.11
892.911	11.97
893.286	11.82
893.66	11.68
894.035	11.52
894.409	11.37
894.784	11.21
895.158	11.08
895.532	10.9
895.906	10.77
896.281	10.63
896.655	10.51
897.029	10.38
897.402	10.27
897.776	10.15
898.15	10.05
898.524	9.97
898.898	9.94
899.271	9.92
899.645	9.96
900.018	9.97
900.392	10.02
900.765	10.09
901.138	10.16
901.511	10.24
901.884	10.31
902.258	10.4
902.631	10.44
903.003	10.46
903.376	10.45
903.749	10.41
904.122	10.37
904.495	10.29
904.867	10.19
905.24	10.08
905.612	9.97
905.985	9.89
906.357	9.77
906.729	9.7
907.102	9.63
907.474	9.58
907.846	9.54
908.218	9.49
908.59	9.46
908.962	9.46
909.334	9.44
909.705	9.42
910.077	9.4
910.449	9.4
910.82	9.4
911.192	9.37
911.563	9.32
911.935	9.28
912.306	9.26
912.677	9.26
913.048	9.2
913.419	9.18
913.79	9.13
914.161	9.1
914.532	9.07
914.903	9.03
915.274	9.04
915.645	9.08
916.015	9.11
916.386	9.14
916.756	9.12
917.127	9.17
917.497	9.22
917.868	9.29
918.238	9.33
918.608	9.36
918.978	9.39
919.348	9.41
919.718	9.4
920.088	9.38
920.458	9.37
920.828	9.38
921.198	9.34
921.567	9.31
921.937	9.29
922.306	9.26
922.676	9.21
923.045	9.16
923.415	9.12
923.784	9.09
924.153	9.07
924.522	9.02
924.891	8.95
925.26	8.9
925.629	8.84
925.998	8.73
926.367	8.63
926.736	8.53
927.104	8.44
927.473	8.32
927.842	8.15
928.21	7.97
928.578	7.79
928.947	7.6
929.315	7.39
929.683	7.18
930.051	7
930.42	6.77
930.788	6.56
931.156	6.35
931.523	6.16
931.891	6.02
932.259	5.9
932.627	5.81
932.994	5.75
933.362	5.69
933.729	5.62
934.097	5.61
934.464	5.65
934.831	5.72
935.199	5.78
935.566	5.93
935.933	6.19
936.3	6.35
936.667	6.52
937.034	6.72
937.401	6.91
937.767	7.18
938.134	7.39
938.501	7.64
938.867	7.87
939.234	8.14
939.6	8.25
939.967	8.25
940.333	8.35
940.699	8.5
941.065	8.56
941.431	8.58
941.798	8.61
942.163	8.64
942.529	8.66
942.895	8.65
943.261	8.57
943.627	8.63
943.992	8.58
944.358	8.53
944.723	8.49
945.089	8.44
945.454	8.5
945.82	8.49
946.185	8.47
946.55	8.44
946.915	8.45
947.28	8.42
947.645	8.36
948.01	8.34
948.375	8.37
948.74	8.36
949.104	8.33
949.469	8.27
949.834	8.23
950.198	8.17
950.562	8.1
950.927	7.97
951.291	7.97
951.655	7.93
952.02	7.84
952.384	7.78
952.748	7.66
953.112	7.54
953.476	7.49
953.839	7.44
954.203	7.38
954.567	7.32
954.931	7.35
955.294	7.29
955.658	7.21
956.021	7.21
956.385	7.21
956.748	7.18
957.111	7.23
957.474	7.21
957.837	7.15
958.2	7.19
958.563	7.24
958.926	7.28
959.289	7.28
959.652	7.31
960.015	7.31
960.377	7.26
960.74	7.31
961.102	7.34
961.465	7.37
961.827	7.36
962.189	7.34
962.552	7.28
962.914	7.24
963.276	7.21
963.638	7.21
964	7.26
964.362	7.33
964.724	7.37
965.085	7.37
965.447	7.45
965.809	7.52
966.17	7.58
966.532	7.64
966.893	7.7
967.255	7.8
967.616	7.89
967.977	7.94
968.338	7.94
968.699	7.98
969.061	7.98
969.421	7.95
969.782	8.05
970.143	8.11
970.504	8.16
970.865	8.19
971.225	8.16
971.586	8.17
971.946	8.16
972.307	8.17
972.667	8.17
973.027	8.26
973.388	8.25
973.748	8.16
974.108	8.06
974.468	8.07
974.828	8.04
975.188	8.09
975.548	8.07
975.907	8.12
976.267	8.17
976.627	8.16
976.986	8.13
977.346	8.22
977.705	8.3
978.064	8.42
978.424	8.45
978.783	8.48
979.142	8.53
979.501	8.58
979.86	8.58
980.219	8.61
980.578	8.69
980.937	8.79
981.296	8.75
981.654	8.77
982.013	8.81
982.371	8.84
982.73	8.9
983.088	8.86
983.447	8.87
983.805	8.89
984.163	8.93
984.521	8.94
984.879	8.98
985.237	9.1
985.595	9.23
985.953	9.3
986.311	9.31
986.669	9.34
987.026	9.38
987.384	9.39
987.741	9.53
988.099	9.52
988.456	9.63
988.814	9.67
989.171	9.65
989.528	9.63
989.885	9.58
990.242	9.69
990.599	9.78
990.956	9.9
991.313	9.92
991.67	10
992.027	10.12
992.383	10.08
992.74	10.05
993.096	10.08
993.453	10.17
993.809	10.26
994.165	10.27
994.522	10.24
994.878	10.26
995.234	10.4
995.59	10.27
995.946	10.31
996.302	10.46
996.658	10.58
997.013	10.64
997.369	10.65
997.725	10.62
998.08	10.52
998.436	10.67
998.791	10.72
999.147	10.8
999.502	10.93
999.857	11.01
1000.212	10.94
1000.567	10.87
1000.922	11.03
1001.277	11.07
1001.632	11.39
1001.987	11.43
1002.342	11.42
1002.696	11.51
1003.051	11.34
1003.406	11.32
1003.76	11.31
1004.114	11.38
1004.469	11.51
1004.823	11.48
1005.177	11.61
1005.531	11.56
1005.885	11.89
1006.239	11.97
1006.593	11.8
1006.947	12.07
1007.301	12.15
1007.655	12.31
1008.008	12.32
1008.362	12.38
1008.715	12.46
1009.069	12.46
1009.422	12.43
1009.776	12.43
1010.129	12.49
1010.482	12.79
1010.835	12.89
1011.188	13
1011.541	12.82
1011.894	12.89
1012.247	12.99
1012.6	13.02
1012.952	13.24
1013.305	13.36
1013.657	13.66
1014.01	13.85
1014.362	13.99
1014.715	14.15
1015.067	14.29
1015.419	14.78
1015.771	14.91
1016.123	14.96
1016.475	15.32
1016.827	15.47
1017.179	15.5
1017.531	15.48
1017.883	15.51
1018.234	15.54
1018.586	15.69
1018.938	15.6
1019.289	15.33
1019.64	15.84
1019.992	16.26
1020.343	16.31
1020.694	16.45
1021.045	16.7
1021.396	17.06
1021.747	17.45
1022.098	17.9
1022.449	17.96
1022.8	18.53
1023.151	18.78
1023.501	19.01
1023.852	19.07
1024.202	19.18
1024.553	19.31
1024.903	19.59
1025.253	19.72
1025.604	19.77
1025.954	19.8
1026.304	20.5
1026.654	20.74
1027.004	21.34
1027.354	21.17
1027.703	21.5
1028.053	21.74
1028.403	21.62
1028.753	22.01
1029.102	22.18
1029.452	22.49
1029.801	22.79
1030.15	22.55
1030.499	22.6
897.758	470.92
901.051	480.2
904.343	481.35
907.636	475.57
910.928	470.7
914.22	474.15
917.511	461.67
920.803	443.55
924.094	426.18
927.384	428.9
930.675	419.64
933.965	416.44
937.255	413.25
940.544	397.53
943.834	382.1
947.123	376.07
950.411	358.33
953.7	352.12
956.988	342.26
960.276	331
963.563	323.55
966.851	303.94
970.138	299.29
973.424	281.46
976.711	276.49
979.997	264.74
983.283	255.4
986.568	248.24
989.853	244.24
993.138	235.94
996.423	229.36
999.708	225.18
1002.992	225.5
1006.275	219.44
1009.559	217.5
1012.842	212.65
1016.125	206.04
1019.408	204.66
1022.69	201.48
1025.972	197.67
1029.254	194.18
1032.536	191.24
1035.817	184.43
1039.098	182.55
1042.379	177.44
1045.659	174.87
1048.939	172.69
1052.219	170.6
1055.498	168.09
1058.778	165.89
1062.057	163.42
1065.335	161.15
1068.614	158.15
1071.892	156.7
1075.17	153.05
1078.447	151.4
1081.724	150.28
1085.001	146.15
1088.278	145.88
1091.554	144.52
1094.83	144.06
1098.106	142.07
1101.382	141.4
1104.657	141.27
1107.932	140.73
1111.206	139.7
1114.481	138.67
1117.755	136.89
1121.029	137.42
1124.302	135.63
1127.575	133.42
1130.848	132.18
1134.121	131.11
1137.393	130.46
1140.665	129.82
1143.937	127.89
1147.208	126.57
1150.48	125.08
1153.75	125.28
1157.021	124.4
1160.291	123.23
1163.561	123.14
1166.831	122.44
1170.101	121.24
1173.37	121.8
1176.639	120.23
1179.907	119.98
1183.176	119.91
1186.444	120.19
1189.711	118.66
1192.979	119.19
1196.246	119.97
1199.513	119.24
1202.78	119.2
1206.046	119.5
1209.312	119.73
1212.578	119.96
1215.843	122.49
1219.108	123.27
1222.373	125.32
1225.638	127.48
1228.902	130.35
1232.166	134.72
1235.43	136.12
1238.693	140.83
1241.956	143.47
1245.219	146.2
1248.482	147.34
1251.744	146.25
1255.006	147.37
1258.268	142.91
1261.529	142.19
1264.79	138.88
1268.051	135.12
1271.312	134.69
1274.572	131.05
1277.832	128.52
1281.092	125.81
1284.351	123.71
1287.61	123.73
1290.869	122.61
1294.128	122.36
1297.386	122.28
1300.644	121.05
1303.902	120.03
1307.159	119.13
1310.416	120.32
1313.673	121.19
1316.93	123.24
1320.186	124.39
1323.442	126.03
1326.697	128.15
1329.953	129.35
1333.208	132.73
1336.463	138.23
1339.717	141.5
1342.972	148.76
1346.226	151.66
1349.479	153.32
1352.733	158.73
1355.986	163.15
1359.238	165.7
1362.491	167.57
1365.743	173.73
1368.995	174.63
1372.247	175.96
1375.498	174.13
1378.749	178.34
1382	180.62
1385.251	178.45
1388.501	178.8
1391.751	180.36
1395	179.25
1398.25	180.23
1401.499	179.47
1404.748	178.6
1407.996	172.52
1411.244	173.83
1414.492	171.43
1417.74	164.58
1420.987	161.77
1424.234	158.58
1427.481	152.16
1430.728	148.02
1433.974	142.77
1437.22	139.02
1440.465	133.57
1443.711	129.71
1446.956	125.14
1450.201	120.66
1453.445	114.41
1456.689	111.24
1459.933	107.25
1463.177	103.36
1466.42	101.06
1469.663	98
1472.906	94.41
1476.148	92.11
1479.391	90.23
1482.633	88.6
1485.874	86.45
1489.115	86.29
1492.356	84.7
1495.597	82.89
1498.838	82.94
1502.078	81.99
1505.318	81.5
1508.557	80.59
1511.797	80.02
1515.036	79.17
1518.274	78.89
1521.513	78.05
1524.751	77.66
1527.989	77.88
1531.227	78.27
1534.464	77.47
1537.701	77.32
1540.938	76.79
1544.174	76.97
1547.41	77.43
1550.646	77.61
1553.882	77.65
1557.117	77.89
1560.352	77.4
1563.587	77.07
1566.821	76.77
1570.055	76.56
1573.289	76.36
1576.523	76.29
1579.756	76.44
1582.989	76.68
1586.222	76.27
1589.454	76.43
1592.686	76.35
1595.918	76.26
1599.15	76.32
1602.381	76.65
1605.612	76.81
1608.843	76.56
1612.073	77.08
1615.303	76.8
1618.533	76.1
1621.762	76.22
1624.992	76.52
1628.221	75.88
1631.449	76.62
1634.678	77.11
1637.906	76.88
1641.134	76.81
1644.361	77.03
1647.588	77.52
1650.815	77.88
1654.042	77.75
1657.269	77.63
1660.495	77.95
1663.72	78.05
1666.946	78.04
1670.171	77.95
1673.396	78.46
1676.621	78.89
1679.845	79.66
1683.069	78.95
1686.293	78.74
1689.517	79.1
1692.74	79.49
1695.963	79.17
1699.185	79.57
1702.408	79.5
1705.63	79.52
1708.852	79.86
1712.073	79.45
1715.294	78.9
1718.515	79.99
1721.736	80.11
1724.956	80.3
1728.176	80.36
1731.396	80.61
1734.616	80.83
1737.835	80.95
1741.054	80.64
1744.272	80.6
1747.491	80.72
1750.709	81.63
1753.927	81.1
1757.144	81.13
1760.361	81.1
1763.578	81.9
1766.795	82.28
1770.011	82.12
1773.227	82.49
1776.443	83.43
1779.658	82.82
1782.874	84.02
1786.089	83
1789.303	83.37
1792.518	84.98
1795.732	85.23
1798.945	85.58
1802.159	85.91
1805.372	87.03
1808.585	87.84
1811.797	88.31
1815.01	89.65
1818.222	89.7
1821.434	91.2
1824.645	91.25
1827.856	91.8
1831.067	92.54
1834.278	93.97
1837.488	94.47
1840.698	95.5
1843.908	95.16
1847.117	96.7
1850.326	97.3
1853.535	98.28
1856.744	99.15
1859.952	100.95
1863.16	100.66
1866.368	100.3
1869.575	100.07
1872.782	99.54
1875.989	98.4
1879.196	99.84
1882.402	97.99
1885.608	98.08
1888.814	97.42
1892.019	98.58
1895.224	96.51
1898.429	97.24
1901.634	97.79
1904.838	99.21
1908.042	100.04
1911.246	99.18
1914.449	98.63
1917.652	99.2
1920.855	99.8
1924.058	99.03
1927.26	97.83
1930.462	98.74
1933.664	98.76
1936.865	99.13
1940.066	96.16
1943.267	95.5
1946.467	97.51
1949.668	97.72
1952.868	97.93
1956.067	97.18
1959.267	98.49
1962.466	98.89
1965.665	100.81
1968.863	99.91
1972.061	101.95
1975.259	104.26
1978.457	106.18
1981.654	105.92
1984.852	106.19
1988.048	107.46
1991.245	109.31
1994.441	110.58
1997.637	113.29
2000.833	113.69
2004.028	116.89
2007.223	118.48
2010.418	120.5
2013.613	124.64
2016.807	128.79
2020.001	130.95
2023.194	135.47
2026.388	140.18
2029.581	148.21
2032.774	152.97
2035.966	157.37
2039.158	160.99
2042.35	163.54
2045.542	167.02
2048.733	176.02
2051.924	176.62
2055.115	180.73
2058.306	181.43
2061.496	183.72
2064.686	183.48
2067.875	182.72
2071.065	186.47
2074.254	185.94
2077.442	191.6
2080.631	194.7
2083.819	191.87
2087.007	198.12
2090.195	201.61
2093.382	202.07
2096.569	203.55
2099.756	206.16
2102.942	209.59
2106.128	213.87
2109.314	216.34
2112.5	216.6
2115.685	214.6
2118.87	215.86
2122.055	215.57
2125.239	219.74
2128.424	224.86
2131.608	222.55
2134.791	222.58
2137.974	223.04
2141.157	224.21
2144.34	226.34
2147.523	230.04
2150.705	235.41
2153.887	233.29
2157.068	236.05
2160.25	237.33
2163.431	238.56
2166.611	241.4
2169.792	247.6
2172.972	251.5
2176.152	251.21
2179.331	255.31
2182.511	256.05
2185.69	258.83
2188.868	267.56
2192.047	277.05
2195.225	281.85
2198.403	283.1
2201.58	282.43
2204.758	289.4
2207.935	291.36
2211.111	298.39
2214.288	300.89
2217.464	305.01
2220.64	307
2223.815	307.91
2226.991	302.68
2230.166	303.98
2233.34	313.76
2236.515	323.25
2239.689	318.33
2242.863	324.17
2246.036	320.8
2249.209	328.01
2252.382	325.29
2255.555	338.05
2258.727	340.75
2261.9	351.93
2265.071	356.99
2268.243	353.87
2271.414	363.37
2274.585	372.71
2277.756	370.69
2280.926	385.14
2284.096	388.87
2287.266	394.6
2290.436	386.47
2293.605	396.04
2296.774	407.73
2299.942	406.48
2303.111	417.95
2306.279	426.56
2309.447	428.66
2312.614	431.07
2315.781	439.33
2318.948	447.53
2322.115	453.63
2325.281	476.65
2328.447	471.49
2331.613	476.61
2334.779	484.83
2337.944	488.91
2341.109	499.48
2344.274	501.99
2347.438	513.85
2350.602	523.53
2353.766	549.82
2356.929	552.25
2360.092	562.41
2363.255	569.02
2366.418	569.47
2369.58	584.32
2372.742	589.31
2375.904	586.07
2379.066	604.05
2382.227	635.64
2385.388	637.7
2388.548	601.76
2391.709	600.36
2394.869	616.18
2398.029	612.83
2401.188	621
2404.347	638.36
2407.506	660.96
2410.665	635.36
2413.823	643.68
2416.981	650.45
2420.139	618.12
2423.296	674.74
2426.453	711.18
2429.61	676.11
2432.767	730.43
2435.923	744.55
2439.079	723.65
2442.235	736.55
2445.391	762.23
2448.546	747.77
2451.701	788.14
2454.855	839.02
2458.009	744.29
2461.163	751.65
2464.317	767.54
2467.471	748.99
2470.624	774.28
2473.777	756.56
2476.929	737.07
2480.082	776.04
2483.234	815.2
2486.385	828.11
2489.537	851.33
2492.688	930.95
2495.839	920.59
2498.989	947.36
2502.14	951.49
2505.29	913.79
2508.439	1009.08
2511.589	1028.66
2514.738	1010.5
2517.887	998.78
2521.035	937.06
2524.183	919.56
2527.331	912.82
2530.479	897.87
2533.627	912.66
