Data from N_3_hir_il_4n_Splice17_06.txt Node
Date: Sat Feb 29 15:12:58 EST 2020
User: sa697716
Spectrometer: FLMS03696
Trigger mode: 0
Integration Time (sec): 3.180400E-1
Scans to average: 20
Electric dark correction enabled: true
Nonlinearity correction enabled: true
Boxcar width: 5
XAxis mode: Wavelengths
Number of Pixels in Spectrum: 2048
>>>>>Begin Spectral Data<<<<<
187.83	40.32
188.298	25.01
188.766	33.62
189.233	29.75
189.701	50.03
190.169	59.4
190.636	49.08
191.104	51.78
191.571	168.3
192.039	104.08
192.506	80.02
192.974	2194.3
193.441	82.79
193.908	35.43
194.375	-37.85
194.842	147.04
195.31	98.06
195.777	45.58
196.244	56.68
196.711	61.17
197.177	58.41
197.644	57.25
198.111	57.21
198.578	57.48
199.045	59.05
199.511	59.62
199.978	59.92
200.445	60.25
200.911	60.67
201.378	60.68
201.844	61.5
202.31	62.34
202.777	62.5
203.243	63.01
203.709	63.17
204.176	62.64
204.642	62.36
205.108	62.15
205.574	62.34
206.04	61.89
206.506	61.55
206.972	60.82
207.438	60.24
207.903	59.75
208.369	59.01
208.835	58.36
209.301	57.73
209.766	57.05
210.232	55.99
210.697	54.91
211.163	53.98
211.628	53.07
212.094	51.71
212.559	50.87
213.024	50
213.49	48.87
213.955	47.97
214.42	46.66
214.885	44.99
215.35	43.35
215.815	41.02
216.28	38.67
216.745	36.02
217.21	33.36
217.675	30.59
218.14	28.25
218.604	26.06
219.069	24.13
219.534	22.59
219.998	21.18
220.463	20.04
220.927	19.08
221.392	18.25
221.856	17.53
222.32	16.95
222.785	16.45
223.249	15.92
223.713	15.51
224.177	15.1
224.642	14.7
225.106	14.42
225.57	14.08
226.034	13.8
226.497	13.49
226.961	13.2
227.425	12.89
227.889	12.62
228.353	12.38
228.816	12.15
229.28	11.92
229.744	11.74
230.207	11.54
230.671	11.35
231.134	11.17
231.597	10.99
232.061	10.84
232.524	10.7
232.987	10.52
233.45	10.37
233.914	10.22
234.377	10.1
234.84	9.94
235.303	9.82
235.766	9.71
236.229	9.59
236.691	9.5
237.154	9.39
237.617	9.29
238.08	9.2
238.542	9.1
239.005	9
239.468	8.89
239.93	8.81
240.393	8.74
240.855	8.65
241.317	8.57
241.78	8.48
242.242	8.38
242.704	8.3
243.166	8.23
243.629	8.17
244.091	8.1
244.553	8.05
245.015	7.97
245.477	7.87
245.939	7.78
246.4	7.7
246.862	7.64
247.324	7.59
247.786	7.52
248.247	7.45
248.709	7.38
249.17	7.32
249.632	7.25
250.093	7.18
250.555	7.13
251.016	7.09
251.477	7.03
251.939	6.97
252.4	6.92
252.861	6.87
253.322	6.8
253.783	6.76
254.244	6.71
254.705	6.68
255.166	6.65
255.627	6.59
256.088	6.53
256.549	6.48
257.009	6.44
257.47	6.39
257.931	6.33
258.391	6.28
258.852	6.22
259.312	6.18
259.773	6.12
260.233	6.06
260.694	6.01
261.154	5.97
261.614	5.93
262.074	5.89
262.534	5.83
262.994	5.79
263.455	5.75
263.915	5.71
264.374	5.67
264.834	5.63
265.294	5.6
265.754	5.56
266.214	5.53
266.673	5.5
267.133	5.46
267.593	5.44
268.052	5.41
268.512	5.38
268.971	5.35
269.431	5.33
269.89	5.3
270.349	5.27
270.809	5.25
271.268	5.23
271.727	5.21
272.186	5.19
272.645	5.17
273.104	5.14
273.563	5.13
274.022	5.11
274.481	5.09
274.94	5.07
275.399	5.05
275.857	5.03
276.316	5
276.775	4.98
277.233	4.95
277.692	4.93
278.15	4.92
278.609	4.89
279.067	4.87
279.525	4.85
279.984	4.83
280.442	4.82
280.9	4.81
281.358	4.8
281.816	4.79
282.274	4.77
282.732	4.77
283.19	4.76
283.648	4.75
284.106	4.74
284.564	4.73
285.021	4.73
285.479	4.72
285.937	4.71
286.394	4.69
286.852	4.68
287.309	4.67
287.767	4.66
288.224	4.65
288.682	4.63
289.139	4.62
289.596	4.58
290.053	4.55
290.511	4.52
290.968	4.5
291.425	4.48
291.882	4.47
292.339	4.44
292.796	4.42
293.252	4.39
293.709	4.36
294.166	4.34
294.623	4.33
295.079	4.31
295.536	4.3
295.992	4.28
296.449	4.27
296.905	4.24
297.362	4.22
297.818	4.21
298.274	4.19
298.731	4.18
299.187	4.16
299.643	4.15
300.099	4.15
300.555	4.13
301.011	4.11
301.467	4.1
301.923	4.1
302.379	4.1
302.835	4.09
303.291	4.08
303.746	4.07
304.202	4.07
304.658	4.06
305.113	4.04
305.569	4.04
306.024	4.03
306.479	4.02
306.935	4.02
307.39	4.01
307.845	4
308.301	4
308.756	4.01
309.211	4
309.666	3.99
310.121	3.99
310.576	4
311.031	4
311.486	4
311.94	4
312.395	4
312.85	4
313.305	3.99
313.759	3.98
314.214	3.97
314.668	3.97
315.123	3.97
315.577	3.96
316.032	3.95
316.486	3.94
316.94	3.93
317.394	3.92
317.849	3.91
318.303	3.9
318.757	3.89
319.211	3.88
319.665	3.86
320.119	3.84
320.572	3.84
321.026	3.83
321.48	3.82
321.934	3.81
322.387	3.79
322.841	3.77
323.295	3.77
323.748	3.76
324.202	3.75
324.655	3.75
325.108	3.74
325.562	3.73
326.015	3.71
326.468	3.7
326.921	3.69
327.374	3.69
327.827	3.68
328.28	3.67
328.733	3.66
329.186	3.66
329.639	3.66
330.092	3.65
330.545	3.65
330.997	3.66
331.45	3.66
331.903	3.65
332.355	3.65
332.808	3.65
333.26	3.65
333.713	3.65
334.165	3.65
334.617	3.65
335.069	3.65
335.522	3.66
335.974	3.65
336.426	3.65
336.878	3.65
337.33	3.66
337.782	3.66
338.234	3.66
338.686	3.66
339.137	3.66
339.589	3.65
340.041	3.65
340.493	3.63
340.944	3.61
341.396	3.61
341.847	3.59
342.299	3.58
342.75	3.55
343.201	3.54
343.653	3.53
344.104	3.51
344.555	3.5
345.006	3.48
345.457	3.46
345.908	3.46
346.359	3.46
346.81	3.45
347.261	3.43
347.712	3.43
348.163	3.42
348.613	3.42
349.064	3.4
349.515	3.38
349.965	3.38
350.416	3.38
350.866	3.38
351.317	3.36
351.767	3.35
352.217	3.35
352.668	3.35
353.118	3.35
353.568	3.36
354.018	3.37
354.468	3.37
354.918	3.37
355.368	3.37
355.818	3.37
356.268	3.38
356.718	3.38
357.168	3.37
357.617	3.36
358.067	3.36
358.517	3.34
358.966	3.34
359.416	3.35
359.865	3.33
360.315	3.32
360.764	3.32
361.213	3.3
361.663	3.31
362.112	3.32
362.561	3.31
363.01	3.32
363.459	3.31
363.908	3.3
364.357	3.3
364.806	3.3
365.255	3.31
365.703	3.31
366.152	3.31
366.601	3.3
367.05	3.3
367.498	3.31
367.947	3.29
368.395	3.3
368.844	3.31
369.292	3.3
369.74	3.31
370.189	3.3
370.637	3.3
371.085	3.31
371.533	3.3
371.981	3.3
372.429	3.29
372.877	3.3
373.325	3.3
373.773	3.29
374.221	3.29
374.669	3.28
375.116	3.28
375.564	3.26
376.012	3.26
376.459	3.27
376.907	3.27
377.354	3.27
377.801	3.28
378.249	3.28
378.696	3.3
379.143	3.3
379.591	3.31
380.038	3.33
380.485	3.35
380.932	3.35
381.379	3.35
381.826	3.37
382.273	3.38
382.72	3.39
383.166	3.4
383.613	3.41
384.06	3.43
384.506	3.44
384.953	3.45
385.4	3.46
385.846	3.48
386.292	3.49
386.739	3.5
387.185	3.52
387.631	3.54
388.078	3.55
388.524	3.55
388.97	3.56
389.416	3.58
389.862	3.59
390.308	3.62
390.754	3.64
391.2	3.67
391.645	3.7
392.091	3.72
392.537	3.75
392.983	3.79
393.428	3.84
393.874	3.87
394.319	3.9
394.765	3.94
395.21	3.97
395.655	4.02
396.101	4.06
396.546	4.08
396.991	4.12
397.436	4.14
397.881	4.18
398.326	4.22
398.771	4.27
399.216	4.32
399.661	4.36
400.106	4.41
400.551	4.43
400.995	4.45
401.44	4.48
401.885	4.51
402.329	4.54
402.774	4.56
403.218	4.58
403.663	4.58
404.107	4.62
404.551	4.65
404.995	4.67
405.44	4.7
405.884	4.74
406.328	4.76
406.772	4.79
407.216	4.85
407.66	4.88
408.104	4.92
408.547	4.95
408.991	4.97
409.435	4.99
409.879	5.03
410.322	5.05
410.766	5.09
411.209	5.13
411.653	5.15
412.096	5.16
412.54	5.18
412.983	5.21
413.426	5.25
413.869	5.28
414.312	5.32
414.756	5.36
415.199	5.41
415.642	5.45
416.085	5.49
416.527	5.53
416.97	5.57
417.413	5.59
417.856	5.61
418.298	5.62
418.741	5.64
419.184	5.65
419.626	5.67
420.069	5.68
420.511	5.67
420.953	5.66
421.396	5.67
421.838	5.69
422.28	5.73
422.722	5.76
423.164	5.78
423.606	5.8
424.048	5.8
424.49	5.81
424.932	5.82
425.374	5.84
425.816	5.84
426.258	5.84
426.699	5.82
427.141	5.78
427.582	5.77
428.024	5.77
428.465	5.78
428.907	5.81
429.348	5.81
429.789	5.8
430.231	5.78
430.672	5.81
431.113	5.83
431.554	5.85
431.995	5.88
432.436	5.88
432.877	5.88
433.318	5.87
433.759	5.87
434.2	5.88
434.64	5.9
435.081	5.93
435.522	5.94
435.962	5.97
436.403	6
436.843	6.01
437.284	6.04
437.724	6.09
438.164	6.1
438.604	6.15
439.045	6.18
439.485	6.19
439.925	6.19
440.365	6.17
440.805	6.16
441.245	6.15
441.685	6.19
442.125	6.21
442.564	6.22
443.004	6.24
443.444	6.23
443.883	6.24
444.323	6.25
444.762	6.3
445.202	6.37
445.641	6.41
446.081	6.46
446.52	6.47
446.959	6.48
447.398	6.53
447.837	6.57
448.276	6.59
448.716	6.63
449.154	6.68
449.593	6.72
450.032	6.72
450.471	6.73
450.91	6.74
451.349	6.75
451.787	6.78
452.226	6.78
452.664	6.76
453.103	6.76
453.541	6.75
453.98	6.73
454.418	6.71
454.856	6.68
455.295	6.66
455.733	6.65
456.171	6.64
456.609	6.62
457.047	6.58
457.485	6.59
457.923	6.58
458.361	6.57
458.798	6.58
459.236	6.56
459.674	6.56
460.111	6.55
460.549	6.53
460.987	6.53
461.424	6.5
461.862	6.5
462.299	6.49
462.736	6.48
463.173	6.48
463.611	6.45
464.048	6.47
464.485	6.47
464.922	6.46
465.359	6.49
465.796	6.48
466.233	6.5
466.67	6.51
467.106	6.51
467.543	6.52
467.98	6.53
468.416	6.54
468.853	6.54
469.29	6.54
469.726	6.56
470.162	6.54
470.599	6.54
471.035	6.53
471.471	6.54
471.907	6.54
472.344	6.55
472.78	6.55
473.216	6.55
473.652	6.54
474.088	6.55
474.523	6.55
474.959	6.54
475.395	6.53
475.831	6.55
476.266	6.54
476.702	6.54
477.138	6.52
477.573	6.51
478.008	6.51
478.444	6.51
478.879	6.5
479.314	6.5
479.75	6.5
480.185	6.5
480.62	6.49
481.055	6.49
481.49	6.48
481.925	6.46
482.36	6.46
482.795	6.44
483.229	6.43
483.664	6.42
484.099	6.41
484.534	6.41
484.968	6.41
485.403	6.41
485.837	6.4
486.271	6.41
486.706	6.41
487.14	6.44
487.574	6.45
488.009	6.47
488.443	6.49
488.877	6.51
489.311	6.53
489.745	6.55
490.179	6.57
490.613	6.6
491.046	6.65
491.48	6.69
491.914	6.71
492.348	6.75
492.781	6.8
493.215	6.84
493.648	6.89
494.082	6.96
494.515	7.01
494.948	7.06
495.382	7.12
495.815	7.17
496.248	7.23
496.681	7.29
497.114	7.35
497.547	7.42
497.98	7.51
498.413	7.59
498.846	7.67
499.279	7.78
499.711	7.87
500.144	7.97
500.577	8.07
501.009	8.18
501.442	8.31
501.874	8.42
502.306	8.56
502.739	8.67
503.171	8.8
503.603	8.95
504.036	9.08
504.468	9.24
504.9	9.41
505.332	9.58
505.764	9.76
506.196	9.93
506.627	10.11
507.059	10.3
507.491	10.5
507.923	10.71
508.354	10.91
508.786	11.14
509.217	11.34
509.649	11.56
510.08	11.79
510.512	12.02
510.943	12.26
511.374	12.51
511.805	12.75
512.237	13.02
512.668	13.25
513.099	13.52
513.53	13.79
513.961	14.08
514.391	14.35
514.822	14.63
515.253	14.92
515.684	15.2
516.114	15.5
516.545	15.79
516.975	16.08
517.406	16.4
517.836	16.69
518.267	16.98
518.697	17.28
519.127	17.58
519.558	17.87
519.988	18.14
520.418	18.44
520.848	18.73
521.278	19.03
521.708	19.15
522.138	19.39
522.567	19.64
522.997	19.9
523.427	20.14
523.857	20.38
524.286	20.62
524.716	20.87
525.145	21.09
525.575	21.29
526.004	21.49
526.433	21.85
526.863	22.08
527.292	22.28
527.721	22.47
528.15	22.66
528.579	22.83
529.008	23
529.437	23.17
529.866	23.32
530.295	23.47
530.724	23.63
531.152	23.75
531.581	23.86
532.01	23.99
532.438	24.11
532.867	24.2
533.295	24.32
533.723	24.43
534.152	24.53
534.58	24.6
535.008	24.67
535.436	24.73
535.865	24.79
536.293	24.88
536.721	24.94
537.149	24.96
537.576	25
538.004	25.04
538.432	25.05
538.86	25.08
539.287	25.14
539.715	25.17
540.143	25.19
540.57	25.21
540.998	25.24
541.425	25.25
541.852	25.3
542.28	25.34
542.707	25.37
543.134	25.42
543.561	25.43
543.988	25.46
544.415	25.5
544.842	25.56
545.269	25.6
545.696	25.63
546.123	25.67
546.549	25.69
546.976	25.72
547.403	25.75
547.829	25.79
548.256	25.83
548.682	25.84
549.108	25.87
549.535	25.88
549.961	25.9
550.387	25.91
550.813	25.91
551.24	25.93
551.666	25.95
552.092	25.95
552.518	25.95
552.943	25.94
553.369	25.93
553.795	25.91
554.221	25.88
554.646	25.87
555.072	25.87
555.498	25.85
555.923	25.83
556.349	25.77
556.774	25.72
557.199	25.69
557.625	25.63
558.05	25.56
558.475	25.48
558.9	25.41
559.325	25.33
559.75	25.25
560.175	25.14
560.6	25.03
561.025	24.93
561.449	24.81
561.874	24.69
562.299	24.58
562.723	24.49
563.148	24.37
563.572	24.26
563.997	24.12
564.421	23.98
564.846	23.85
565.27	23.71
565.694	23.57
566.118	23.43
566.542	23.27
566.966	23.11
567.39	22.93
567.814	22.77
568.238	22.6
568.662	22.43
569.086	22.26
569.509	22.08
569.933	21.92
570.357	21.76
570.78	21.58
571.204	21.41
571.627	21.25
572.05	21.1
572.474	20.96
572.897	20.8
573.32	20.67
573.743	20.53
574.166	20.4
574.589	20.25
575.012	20.14
575.435	20.04
575.858	19.94
576.281	19.84
576.704	19.73
577.126	19.63
577.549	19.53
577.972	19.44
578.394	19.33
578.817	19.25
579.239	19.18
579.661	19.1
580.084	19.01
580.506	18.91
580.928	18.84
581.35	18.75
581.772	18.68
582.194	18.6
582.616	18.54
583.038	18.48
583.46	18.42
583.882	18.34
584.303	18.25
584.725	18.19
585.147	18.13
585.568	18.03
585.99	17.96
586.411	17.91
586.833	17.85
587.254	17.78
587.675	17.72
588.096	17.67
588.518	17.62
588.939	17.6
589.36	17.55
589.781	17.5
590.202	17.48
590.623	17.45
591.043	17.4
591.464	17.37
591.885	17.36
592.305	17.33
592.726	17.29
593.147	17.28
593.567	17.23
593.987	17.21
594.408	17.18
594.828	17.15
595.248	17.12
595.669	17.1
596.089	17.07
596.509	17.01
596.929	16.97
597.349	16.92
597.769	16.87
598.189	16.84
598.608	16.81
599.028	16.77
599.448	16.73
599.867	16.68
600.287	16.63
600.706	16.57
601.126	16.52
601.545	16.47
601.965	16.41
602.384	16.36
602.803	16.29
603.222	16.22
603.641	16.16
604.061	16.09
604.48	16.03
604.898	15.95
605.317	15.89
605.736	15.82
606.155	15.73
606.574	15.66
606.992	15.57
607.411	15.5
607.829	15.38
608.248	15.3
608.666	15.21
609.085	15.12
609.503	15.03
609.921	14.95
610.339	14.87
610.758	14.79
611.176	14.71
611.594	14.63
612.012	14.53
612.43	14.49
612.847	14.4
613.265	14.33
613.683	14.25
614.101	14.17
614.518	14.09
614.936	14.01
615.353	13.93
615.771	13.87
616.188	13.81
616.606	13.75
617.023	13.69
617.44	13.61
617.857	13.55
618.274	13.49
618.691	13.46
619.108	13.4
619.525	13.36
619.942	13.32
620.359	13.27
620.776	13.23
621.192	13.19
621.609	13.16
622.026	13.14
622.442	13.11
622.859	13.07
623.275	13.05
623.691	13.02
624.108	13
624.524	12.98
624.94	12.96
625.356	12.96
625.772	12.95
626.188	12.95
626.604	12.92
627.02	12.91
627.436	12.91
627.852	12.89
628.268	12.88
628.683	12.87
629.099	12.86
629.514	12.84
629.93	12.8
630.345	12.77
630.761	12.72
631.176	12.71
631.591	12.67
632.007	12.62
632.422	12.57
632.837	12.53
633.252	12.48
633.667	12.41
634.082	12.35
634.497	12.29
634.911	12.21
635.326	12.14
635.741	12.05
636.155	11.97
636.57	11.89
636.984	11.8
637.399	11.69
637.813	11.59
638.228	11.49
638.642	11.41
639.056	11.3
639.47	11.2
639.884	11.09
640.298	11
640.712	10.88
641.126	10.77
641.54	10.66
641.954	10.57
642.368	10.46
642.781	10.36
643.195	10.22
643.609	10.12
644.022	10.02
644.436	9.93
644.849	9.83
645.262	9.74
645.676	9.64
646.089	9.56
646.502	9.46
646.915	9.38
647.328	9.32
647.741	9.26
648.154	9.2
648.567	9.14
648.98	9.09
649.393	9.04
649.805	8.99
650.218	8.93
650.631	8.88
651.043	8.84
651.456	8.82
651.868	8.76
652.28	8.71
652.693	8.65
653.105	8.58
653.517	8.51
653.929	8.46
654.341	8.4
654.753	8.35
655.165	8.28
655.577	8.2
655.989	8.11
656.401	8.03
656.813	7.94
657.224	7.87
657.636	7.8
658.047	7.71
658.459	7.61
658.87	7.51
659.282	7.42
659.693	7.32
660.104	7.24
660.515	7.16
660.926	7.09
661.338	7.01
661.749	6.92
662.159	6.82
662.57	6.76
662.981	6.7
663.392	6.64
663.803	6.57
664.213	6.52
664.624	6.47
665.035	6.41
665.445	6.35
665.855	6.3
666.266	6.26
666.676	6.23
667.086	6.18
667.497	6.15
667.907	6.11
668.317	6.07
668.727	6.05
669.137	6.04
669.547	6.03
669.956	6.01
670.366	6
670.776	5.99
671.186	5.99
671.595	5.99
672.005	5.99
672.414	6.01
672.824	6.01
673.233	6.01
673.642	6
674.052	6.01
674.461	6.01
674.87	6.03
675.279	6.05
675.688	6.05
676.097	6.08
676.506	6.1
676.915	6.12
677.323	6.15
677.732	6.2
678.141	6.25
678.549	6.29
678.958	6.36
679.366	6.41
679.775	6.47
680.183	6.55
680.592	6.61
681	6.69
681.408	6.78
681.816	6.87
682.224	6.96
682.632	7.08
683.04	7.22
683.448	7.35
683.856	7.52
684.264	7.71
684.671	7.9
685.079	8.12
685.487	8.36
685.894	8.61
686.302	8.89
686.709	9.19
687.116	9.51
687.524	9.86
687.931	10.22
688.338	10.59
688.745	11
689.152	11.44
689.559	11.9
689.966	12.37
690.373	12.87
690.78	13.36
691.187	13.88
691.593	14.4
692	14.93
692.407	15.5
692.813	16.07
693.22	16.62
693.626	17.17
694.032	17.74
694.439	18.32
694.845	18.91
695.251	19.5
695.657	20.07
696.063	20.66
696.469	21.24
696.875	21.8
697.281	22.35
697.687	22.92
698.093	23.48
698.498	24.05
698.904	24.6
699.31	25.12
699.715	25.66
700.12	26.18
700.526	26.71
700.931	27.21
701.337	27.72
701.742	28.2
702.147	28.69
702.552	29.17
702.957	29.62
703.362	30.1
703.767	30.55
704.172	30.98
704.577	31.42
704.981	31.86
705.386	32.29
705.791	32.69
706.195	33.1
706.6	33.5
707.004	33.86
707.408	34.25
707.813	34.61
708.217	34.96
708.621	35.32
709.025	35.67
709.43	35.98
709.834	36.33
710.237	36.66
710.641	37.03
711.045	37.35
711.449	37.68
711.853	38
712.256	38.3
712.66	38.64
713.064	38.97
713.467	39.27
713.87	39.58
714.274	39.86
714.677	40.16
715.08	40.42
715.484	40.7
715.887	40.99
716.29	41.26
716.693	41.51
717.096	41.75
717.499	41.98
717.901	42.21
718.304	42.47
718.707	42.7
719.109	42.95
719.512	43.19
719.915	43.4
720.317	43.61
720.719	43.81
721.122	44.02
721.524	44.24
721.926	44.47
722.328	44.69
722.731	44.86
723.133	45.03
723.535	45.21
723.937	45.37
724.338	45.52
724.74	45.67
725.142	45.81
725.544	45.95
725.945	46.09
726.347	46.23
726.748	46.34
727.15	46.47
727.551	46.62
727.952	46.71
728.354	46.86
728.755	46.98
729.156	47.11
729.557	47.27
729.958	47.4
730.359	47.51
730.76	47.57
731.161	47.68
731.562	47.77
731.962	47.87
732.363	47.98
732.763	48.05
733.164	48.13
733.564	48.21
733.965	48.26
734.365	48.32
734.766	48.36
735.166	48.42
735.566	48.47
735.966	48.5
736.366	48.53
736.766	48.58
737.166	48.62
737.566	48.67
737.966	48.7
738.365	48.73
738.765	48.77
739.165	48.8
739.564	48.84
739.964	48.86
740.363	48.93
740.763	48.98
741.162	48.98
741.561	49.02
741.96	49.08
742.36	49.12
742.759	49.15
743.158	49.15
743.557	49.18
743.955	49.25
744.354	49.31
744.753	49.34
745.152	49.35
745.55	49.41
745.949	49.45
746.348	49.47
746.746	49.5
747.144	49.56
747.543	49.6
747.941	49.66
748.339	49.68
748.737	49.74
749.136	49.73
749.534	49.8
749.932	49.8
750.33	49.81
750.727	49.8
751.125	49.83
751.523	49.8
751.921	49.86
752.318	49.86
752.716	49.82
753.113	49.82
753.511	49.8
753.908	49.73
754.305	49.72
754.703	49.71
755.1	49.72
755.497	49.7
755.894	49.69
756.291	49.63
756.688	49.62
757.085	49.59
757.482	49.56
757.878	49.6
758.275	49.61
758.672	49.64
759.068	49.61
759.465	49.61
759.861	49.57
760.258	49.55
760.654	49.53
761.05	49.51
761.447	49.52
761.843	49.5
762.239	49.45
762.635	49.45
763.031	49.45
763.427	49.43
763.822	49.4
764.218	49.42
764.614	49.44
765.01	49.42
765.405	49.42
765.801	49.4
766.196	49.42
766.592	49.44
766.987	49.45
767.382	49.44
767.778	49.46
768.173	49.46
768.568	49.43
768.963	49.44
769.358	49.47
769.753	49.5
770.148	49.53
770.542	49.52
770.937	49.51
771.332	49.49
771.726	49.5
772.121	49.48
772.515	49.5
772.91	49.52
773.304	49.51
773.699	49.51
774.093	49.49
774.487	49.51
774.881	49.54
775.275	49.55
775.669	49.58
776.063	49.55
776.457	49.57
776.851	49.56
777.245	49.57
777.638	49.58
778.032	49.61
778.425	49.64
778.819	49.64
779.212	49.59
779.606	49.6
779.999	49.58
780.392	49.6
780.786	49.61
781.179	49.64
781.572	49.61
781.965	49.59
782.358	49.56
782.751	49.57
783.143	49.56
783.536	49.62
783.929	49.66
784.322	49.7
784.714	49.71
785.107	49.72
785.499	49.71
785.891	49.74
786.284	49.76
786.676	49.8
787.068	49.77
787.46	49.77
787.852	49.79
788.245	49.73
788.636	49.72
789.028	49.71
789.42	49.68
789.812	49.72
790.204	49.71
790.595	49.71
790.987	49.69
791.378	49.68
791.77	49.76
792.161	49.73
792.553	49.81
792.944	49.85
793.335	49.87
793.726	49.86
794.117	49.85
794.508	49.87
794.899	49.86
795.29	49.86
795.681	49.88
796.072	49.85
796.463	49.84
796.853	49.82
797.244	49.77
797.634	49.75
798.025	49.79
798.415	49.79
798.806	49.82
799.196	49.89
799.586	49.91
799.976	49.94
800.366	49.93
800.756	49.91
801.146	49.93
801.536	49.98
801.926	50.01
802.316	50.04
802.706	50.07
803.095	50.06
803.485	50.03
803.874	50.04
804.264	50.05
804.653	50.03
805.043	50.1
805.432	50.09
805.821	50.08
806.21	50.12
806.599	50.15
806.988	50.18
807.377	50.2
807.766	50.22
808.155	50.26
808.544	50.26
808.933	50.31
809.321	50.31
809.71	50.34
810.098	50.33
810.487	50.32
810.875	50.26
811.264	50.28
811.652	50.29
812.04	50.32
812.428	50.32
812.816	50.36
813.204	50.38
813.592	50.4
813.98	50.4
814.368	50.42
814.756	50.44
815.144	50.52
815.531	50.51
815.919	50.52
816.306	50.51
816.694	50.55
817.081	50.53
817.469	50.53
817.856	50.54
818.243	50.57
818.63	50.59
819.017	50.63
819.404	50.6
819.791	50.59
820.178	50.58
820.565	50.58
820.952	50.54
821.339	50.56
821.725	50.56
822.112	50.57
822.498	50.59
822.885	50.6
823.271	50.58
823.657	50.57
824.044	50.6
824.43	50.62
824.816	50.63
825.202	50.64
825.588	50.64
825.974	50.62
826.36	50.6
826.746	50.6
827.132	50.55
827.517	50.55
827.903	50.55
828.289	50.54
828.674	50.53
829.06	50.52
829.445	50.51
829.83	50.52
830.216	50.54
830.601	50.54
830.986	50.52
831.371	50.53
831.756	50.49
832.141	50.49
832.526	50.46
832.911	50.48
833.295	50.47
833.68	50.47
834.065	50.44
834.449	50.4
834.834	50.39
835.218	50.37
835.603	50.34
835.987	50.35
836.371	50.33
836.755	50.32
837.139	50.28
837.524	50.26
837.908	50.22
838.291	50.19
838.675	50.19
839.059	50.17
839.443	50.17
839.827	50.19
840.21	50.18
840.594	50.15
840.977	50.13
841.361	50.12
841.744	50.13
842.127	50.13
842.511	50.15
842.894	50.13
843.277	50.12
843.66	50.1
844.043	50.08
844.426	50.07
844.809	50.07
845.191	50.06
845.574	50.04
845.957	49.99
846.339	49.99
846.722	49.97
847.104	49.96
847.487	49.97
847.869	49.97
848.252	49.96
848.634	49.98
849.016	49.99
849.398	49.98
849.78	49.98
850.162	50.01
850.544	50.01
850.926	49.99
851.307	49.99
851.689	49.98
852.071	49.96
852.452	49.97
852.834	49.95
853.215	49.96
853.597	49.99
853.978	49.98
854.359	49.99
854.741	49.99
855.122	50.03
855.503	50.04
855.884	50.04
856.265	50.05
856.646	50.05
857.026	50.07
857.407	50.04
857.788	50.04
858.169	50.05
858.549	50.07
858.93	50.1
859.31	50.08
859.69	50.07
860.071	50.07
860.451	50.09
860.831	50.12
861.211	50.09
861.591	50.14
861.971	50.09
862.351	50.11
862.731	50.12
863.111	50.11
863.491	50.11
863.87	50.1
864.25	50.14
864.629	50.11
865.009	50.08
865.388	50.11
865.768	50.07
866.147	50.1
866.526	50.05
866.905	50.03
867.284	50.03
867.663	50.05
868.042	50.05
868.421	50.01
868.8	49.99
869.179	50.02
869.558	50
869.936	50.01
870.315	50
870.693	50.06
871.072	50.04
871.45	50.03
871.828	49.99
872.207	49.99
872.585	50.02
872.963	50
873.341	49.97
873.719	49.97
874.097	49.96
874.475	49.94
874.853	49.9
875.23	49.9
875.608	49.88
875.986	49.9
876.363	49.9
876.741	49.86
877.118	49.87
877.495	49.88
877.873	49.84
878.25	49.85
878.627	49.88
879.004	49.89
879.381	49.9
879.758	49.92
880.135	49.91
880.512	49.93
880.889	49.96
881.265	49.99
881.642	50
882.019	50.03
882.395	50.02
882.772	49.97
883.148	49.97
883.524	49.99
883.901	49.95
884.277	49.92
884.653	49.91
885.029	49.9
885.405	49.89
885.781	49.85
886.157	49.84
886.532	49.85
886.908	49.86
887.284	49.86
887.659	49.81
888.035	49.82
888.411	49.8
888.786	49.79
889.161	49.77
889.537	49.76
889.912	49.75
890.287	49.71
890.662	49.68
891.037	49.64
891.412	49.59
891.787	49.58
892.162	49.55
892.536	49.54
892.911	49.51
893.286	49.47
893.66	49.42
894.035	49.39
894.409	49.38
894.784	49.37
895.158	49.35
895.532	49.33
895.906	49.32
896.281	49.3
896.655	49.29
897.029	49.29
897.402	49.29
897.776	49.3
898.15	49.28
898.524	49.29
898.898	49.27
899.271	49.27
899.645	49.28
900.018	49.29
900.392	49.31
900.765	49.33
901.138	49.32
901.511	49.31
901.884	49.3
902.258	49.31
902.631	49.32
903.003	49.32
903.376	49.33
903.749	49.34
904.122	49.33
904.495	49.35
904.867	49.33
905.24	49.33
905.612	49.34
905.985	49.34
906.357	49.34
906.729	49.34
907.102	49.34
907.474	49.33
907.846	49.34
908.218	49.33
908.59	49.29
908.962	49.29
909.334	49.31
909.705	49.33
910.077	49.35
910.449	49.36
910.82	49.34
911.192	49.35
911.563	49.38
911.935	49.38
912.306	49.41
912.677	49.45
913.048	49.46
913.419	49.44
913.79	49.43
914.161	49.42
914.532	49.41
914.903	49.44
915.274	49.43
915.645	49.46
916.015	49.45
916.386	49.41
916.756	49.4
917.127	49.4
917.497	49.45
917.868	49.42
918.238	49.42
918.608	49.47
918.978	49.45
919.348	49.43
919.718	49.41
920.088	49.44
920.458	49.47
920.828	49.49
921.198	49.51
921.567	49.47
921.937	49.49
922.306	49.47
922.676	49.46
923.045	49.43
923.415	49.45
923.784	49.44
924.153	49.42
924.522	49.4
924.891	49.4
925.26	49.37
925.629	49.38
925.998	49.41
926.367	49.44
926.736	49.42
927.104	49.49
927.473	49.48
927.842	49.48
928.21	49.52
928.578	49.49
928.947	49.46
929.315	49.47
929.683	49.51
930.051	49.5
930.42	49.47
930.788	49.45
931.156	49.37
931.523	49.34
931.891	49.28
932.259	49.22
932.627	49.14
932.994	49.1
933.362	49.03
933.729	48.9
934.097	48.81
934.464	48.77
934.831	48.69
935.199	48.67
935.566	48.62
935.933	48.61
936.3	48.52
936.667	48.57
937.034	48.57
937.401	48.58
937.767	48.6
938.134	48.6
938.501	48.59
938.867	48.68
939.234	48.72
939.6	48.83
939.967	48.91
940.333	49.1
940.699	49.19
941.065	49.25
941.431	49.39
941.798	49.54
942.163	49.7
942.529	49.81
942.895	49.84
943.261	49.95
943.627	50.03
943.992	50.03
944.358	49.95
944.723	49.91
945.089	49.92
945.454	49.9
945.82	49.81
946.185	49.83
946.55	49.87
946.915	49.96
947.28	49.94
947.645	49.94
948.01	49.99
948.375	50.11
948.74	50.15
949.104	50.17
949.469	50.12
949.834	50.09
950.198	49.93
950.562	49.9
950.927	49.81
951.291	49.76
951.655	49.7
952.02	49.62
952.384	49.57
952.748	49.5
953.112	49.47
953.476	49.43
953.839	49.44
954.203	49.41
954.567	49.38
954.931	49.32
955.294	49.28
955.658	49.17
956.021	49.15
956.385	49.16
956.748	49.16
957.111	49.11
957.474	49.18
957.837	49.21
958.2	49.2
958.563	49.14
958.926	49.14
959.289	49.2
959.652	49.21
960.015	49.2
960.377	49.17
960.74	49.08
961.102	49.05
961.465	49
961.827	48.91
962.189	48.87
962.552	48.83
962.914	48.77
963.276	48.68
963.638	48.65
964	48.58
964.362	48.54
964.724	48.61
965.085	48.67
965.447	48.61
965.809	48.51
966.17	48.56
966.532	48.59
966.893	48.61
967.255	48.56
967.616	48.61
967.977	48.65
968.338	48.63
968.699	48.54
969.061	48.48
969.421	48.48
969.782	48.51
970.143	48.56
970.504	48.52
970.865	48.54
971.225	48.53
971.586	48.5
971.946	48.49
972.307	48.47
972.667	48.58
973.027	48.63
973.388	48.61
973.748	48.64
974.108	48.55
974.468	48.55
974.828	48.57
975.188	48.65
975.548	48.63
975.907	48.61
976.267	48.67
976.627	48.58
976.986	48.49
977.346	48.48
977.705	48.56
978.064	48.63
978.424	48.63
978.783	48.63
979.142	48.63
979.501	48.59
979.86	48.57
980.219	48.51
980.578	48.52
980.937	48.64
981.296	48.72
981.654	48.8
982.013	48.74
982.371	48.78
982.73	48.74
983.088	48.66
983.447	48.76
983.805	48.86
984.163	48.86
984.521	48.82
984.879	48.83
985.237	48.86
985.595	48.79
985.953	48.87
986.311	48.9
986.669	48.96
987.026	49.09
987.384	49.03
987.741	49.07
988.099	49.12
988.456	49.19
988.814	49.17
989.171	49.06
989.528	49.06
989.885	48.96
990.242	48.99
990.599	48.98
990.956	48.93
991.313	49
991.67	48.94
992.027	48.97
992.383	49.09
992.74	49.11
993.096	49.1
993.453	49.05
993.809	49.16
994.165	49.16
994.522	49.21
994.878	49.24
995.234	49.23
995.59	49.06
995.946	49.03
996.302	48.83
996.658	48.85
997.013	48.94
997.369	48.98
997.725	49.09
998.08	49.07
998.436	49.08
998.791	49.04
999.147	48.99
999.502	49.15
999.857	49.25
1000.212	49.39
1000.567	49.51
1000.922	49.61
1001.277	49.67
1001.632	49.56
1001.987	49.52
1002.342	49.61
1002.696	49.73
1003.051	49.72
1003.406	49.75
1003.76	49.69
1004.114	49.83
1004.469	49.56
1004.823	49.55
1005.177	49.66
1005.531	49.74
1005.885	49.86
1006.239	49.7
1006.593	49.65
1006.947	49.7
1007.301	49.75
1007.655	49.78
1008.008	49.59
1008.362	49.69
1008.715	49.71
1009.069	49.71
1009.422	49.72
1009.776	49.65
1010.129	49.72
1010.482	49.76
1010.835	49.98
1011.188	49.84
1011.541	49.8
1011.894	50.05
1012.247	50.11
1012.6	49.99
1012.952	49.92
1013.305	49.95
1013.657	50.38
1014.01	50.68
1014.362	50.77
1014.715	50.69
1015.067	50.83
1015.419	50.94
1015.771	51.07
1016.123	51.2
1016.475	51.59
1016.827	51.85
1017.179	51.68
1017.531	51.55
1017.883	51.42
1018.234	51.57
1018.586	51.63
1018.938	51.53
1019.289	51.41
1019.64	51.43
1019.992	51.39
1020.343	51.17
1020.694	51.24
1021.045	51.52
1021.396	51.46
1021.747	51.53
1022.098	51.51
1022.449	51.7
1022.8	51.94
1023.151	52.27
1023.501	52.37
1023.852	52.82
1024.202	53.08
1024.553	52.89
1024.903	52.87
1025.253	52.64
1025.604	52.59
1025.954	52.62
1026.304	52.9
1026.654	53.34
1027.004	53.57
1027.354	53.28
1027.703	52.77
1028.053	52.54
1028.403	52.19
1028.753	52.38
1029.102	52.78
1029.452	53.02
1029.801	53.31
1030.15	53.03
1030.499	52.78
897.758	694.23
901.051	708.87
904.343	706.84
907.636	701.48
910.928	692.34
914.22	699.25
917.511	687.87
920.803	659.63
924.094	631.24
927.384	636.41
930.675	617.84
933.965	611.18
937.255	605.2
940.544	583.85
943.834	556.48
947.123	545.09
950.411	518.83
953.7	509.04
956.988	491.13
960.276	469.22
963.563	463.15
966.851	436.5
970.138	428.28
973.424	399.61
976.711	393.36
979.997	375.52
983.283	368.13
986.568	355.64
989.853	345.15
993.138	332.64
996.423	327.53
999.708	316.74
1002.992	319.35
1006.275	305.87
1009.559	302.24
1012.842	294.76
1016.125	286.47
1019.408	281.81
1022.69	277.15
1025.972	275.51
1029.254	268.46
1032.536	262.71
1035.817	255.36
1039.098	249.45
1042.379	245.54
1045.659	243.49
1048.939	240.67
1052.219	234.56
1055.498	229.17
1058.778	227.05
1062.057	221.4
1065.335	220.24
1068.614	217.41
1071.892	214.5
1075.17	210.35
1078.447	207.37
1081.724	204.92
1085.001	199.78
1088.278	201.37
1091.554	201.09
1094.83	198.85
1098.106	196.17
1101.382	194.73
1104.657	193.12
1107.932	192.24
1111.206	189.93
1114.481	188.9
1117.755	187.98
1121.029	187.44
1124.302	184.72
1127.575	180.3
1130.848	180.05
1134.121	178.48
1137.393	177.93
1140.665	177.26
1143.937	174.86
1147.208	174.03
1150.48	171.57
1153.75	170.53
1157.021	168.46
1160.291	167.46
1163.561	167.18
1166.831	165.38
1170.101	164.43
1173.37	163.19
1176.639	160.99
1179.907	162.14
1183.176	161.18
1186.444	162.1
1189.711	160.34
1192.979	162.43
1196.246	162.63
1199.513	162.19
1202.78	162.59
1206.046	162.54
1209.312	163.33
1212.578	164.97
1215.843	165.63
1219.108	167.63
1222.373	170.01
1225.638	173.01
1228.902	176.34
1232.166	182.27
1235.43	185.67
1238.693	190.86
1241.956	195.63
1245.219	200.68
1248.482	202.3
1251.744	202.24
1255.006	201.93
1258.268	197.44
1261.529	195.89
1264.79	190.13
1268.051	186.64
1271.312	183.78
1274.572	180.35
1277.832	175.07
1281.092	172.68
1284.351	168.54
1287.61	168.2
1290.869	168.08
1294.128	166.89
1297.386	166.42
1300.644	165.75
1303.902	164.12
1307.159	163.92
1310.416	164.56
1313.673	167.89
1316.93	168.99
1320.186	171.98
1323.442	174.3
1326.697	176.9
1329.953	179.49
1333.208	185.74
1336.463	193.95
1339.717	198.26
1342.972	207.87
1346.226	213.37
1349.479	214.71
1352.733	224.83
1355.986	230.62
1359.238	234.96
1362.491	238.19
1365.743	246.28
1368.995	247.18
1372.247	246.96
1375.498	245.37
1378.749	254.63
1382	255.63
1385.251	255.09
1388.501	254.35
1391.751	256.44
1395	255.87
1398.25	259.3
1401.499	258.2
1404.748	258.83
1407.996	253
1411.244	254.17
1414.492	248.9
1417.74	242.72
1420.987	236.67
1424.234	233.68
1427.481	225.65
1430.728	219.8
1433.974	211.5
1437.22	204.1
1440.465	197.41
1443.711	191.83
1446.956	186.71
1450.201	179.71
1453.445	170.48
1456.689	166.06
1459.933	160.28
1463.177	152.95
1466.42	150.34
1469.663	145.8
1472.906	142.36
1476.148	138.3
1479.391	134.99
1482.633	131.74
1485.874	129.88
1489.115	129.24
1492.356	126.62
1495.597	124.16
1498.838	123.48
1502.078	121.94
1505.318	121.29
1508.557	120.3
1511.797	118.86
1515.036	118.73
1518.274	118.09
1521.513	115.36
1524.751	114.97
1527.989	115.61
1531.227	115.78
1534.464	115.4
1537.701	113.68
1540.938	112.93
1544.174	113
1547.41	112.29
1550.646	112.09
1553.882	112.35
1557.117	112.4
1560.352	112.1
1563.587	110.46
1566.821	109.92
1570.055	109.17
1573.289	109.79
1576.523	109.71
1579.756	109.09
1582.989	109.63
1586.222	109.05
1589.454	109.12
1592.686	108.91
1595.918	108.42
1599.15	108.91
1602.381	109.01
1605.612	109.27
1608.843	108.88
1612.073	109.33
1615.303	109.41
1618.533	108.91
1621.762	109.14
1624.992	108.36
1628.221	108.26
1631.449	108.57
1634.678	108.37
1637.906	108.36
1641.134	108.33
1644.361	108.24
1647.588	108.29
1650.815	108.44
1654.042	108.64
1657.269	108.22
1660.495	108.67
1663.72	109.45
1666.946	109.5
1670.171	110.09
1673.396	110
1676.621	110.37
1679.845	110.6
1683.069	110.62
1686.293	110.52
1689.517	110.59
1692.74	111.18
1695.963	111.39
1699.185	111.47
1702.408	111.29
1705.63	111.61
1708.852	112.49
1712.073	112.22
1715.294	112.34
1718.515	113.22
1721.736	113.46
1724.956	113.46
1728.176	113.22
1731.396	113.95
1734.616	114.22
1737.835	114.97
1741.054	114.72
1744.272	114.8
1747.491	115.23
1750.709	116.2
1753.927	115.83
1757.144	116.13
1760.361	117.08
1763.578	117.73
1766.795	118.04
1770.011	117.87
1773.227	118.5
1776.443	119.9
1779.658	120.08
1782.874	120.51
1786.089	120.32
1789.303	120.67
1792.518	122.32
1795.732	122.94
1798.945	123.87
1802.159	123.82
1805.372	125.88
1808.585	126.52
1811.797	127.01
1815.01	128.25
1818.222	129.98
1821.434	130.59
1824.645	132.07
1827.856	133.88
1831.067	135
1834.278	136.15
1837.488	137.4
1840.698	138.8
1843.908	139.32
1847.117	140.85
1850.326	142.24
1853.535	142.25
1856.744	145.07
1859.952	146.18
1863.16	145.54
1866.368	145.44
1869.575	146.84
1872.782	146.69
1875.989	145.3
1879.196	145.23
1882.402	144.14
1885.608	144.46
1888.814	145
1892.019	146.17
1895.224	144.02
1898.429	144.99
1901.634	145.16
1904.838	145.98
1908.042	147.72
1911.246	147.53
1914.449	148.4
1917.652	147.92
1920.855	148.54
1924.058	147.35
1927.26	146.45
1930.462	148.1
1933.664	147.34
1936.865	148.77
1940.066	145.38
1943.267	144.8
1946.467	145.97
1949.668	146.3
1952.868	147.61
1956.067	146.81
1959.267	146.9
1962.466	147.07
1965.665	148.29
1968.863	150.3
1972.061	150.98
1975.259	155.65
1978.457	157.14
1981.654	157.57
1984.852	158.84
1988.048	160.69
1991.245	162.78
1994.441	166.42
1997.637	171.28
2000.833	172.43
2004.028	173.64
2007.223	178.36
2010.418	181.57
2013.613	187.02
2016.807	192.96
2020.001	197.4
2023.194	202.76
2026.388	210.49
2029.581	222.66
2032.774	226.81
2035.966	235.32
2039.158	241.57
2042.35	246.5
2045.542	250.61
2048.733	263.1
2051.924	266.16
2055.115	269.22
2058.306	272.11
2061.496	278.26
2064.686	275.73
2067.875	274.44
2071.065	275.79
2074.254	276.26
2077.442	284.23
2080.631	287.67
2083.819	286.97
2087.007	293.42
2090.195	298.5
2093.382	299.46
2096.569	298.16
2099.756	304.54
2102.942	312.22
2106.128	321.26
2109.314	323.26
2112.5	322.97
2115.685	320.17
2118.87	320.88
2122.055	321.94
2125.239	327.37
2128.424	336.68
2131.608	334.77
2134.791	334.92
2137.974	334.42
2141.157	337.52
2144.34	341.86
2147.523	345.01
2150.705	354
2153.887	351.55
2157.068	353.87
2160.25	356.58
2163.431	354.01
2166.611	360.41
2169.792	367.28
2172.972	373.24
2176.152	370.7
2179.331	378.59
2182.511	380.37
2185.69	385.78
2188.868	401.95
2192.047	412.86
2195.225	418.6
2198.403	423.94
2201.58	419.57
2204.758	434.89
2207.935	439.47
2211.111	452.71
2214.288	452.59
2217.464	457.47
2220.64	457.57
2223.815	458.75
2226.991	449.05
2230.166	456.43
2233.34	467.08
2236.515	486.77
2239.689	475.98
2242.863	482.23
2246.036	474.1
2249.209	493.14
2252.382	492.5
2255.555	511.7
2258.727	513.19
2261.9	532.92
2265.071	537.54
2268.243	534.74
2271.414	541.9
2274.585	555.83
2277.756	556.74
2280.926	583.42
2284.096	577.87
2287.266	581.11
2290.436	570.63
2293.605	582.23
2296.774	604.57
2299.942	604.58
2303.111	622.07
2306.279	636.78
2309.447	637.41
2312.614	641.38
2315.781	654.18
2318.948	660.33
2322.115	674.56
2325.281	712.81
2328.447	705.69
2331.613	704.92
2334.779	716.73
2337.944	730.84
2341.109	743.27
2344.274	755.47
2347.438	770.73
2350.602	783.52
2353.766	829.65
2356.929	832.4
2360.092	838.25
2363.255	849.58
2366.418	861.64
2369.58	879.07
2372.742	880.22
2375.904	876.02
2379.066	898.93
2382.227	951.24
2385.388	946.16
2388.548	905.15
2391.709	895.59
2394.869	928.11
2398.029	922.78
2401.188	924.01
2404.347	955.88
2407.506	987.96
2410.665	950.72
2413.823	957.43
2416.981	960.05
2420.139	910.33
2423.296	987.45
2426.453	1052.35
2429.61	996.13
2432.767	1070.57
2435.923	1101.14
2439.079	1060.07
2442.235	1080.31
2445.391	1107.9
2448.546	1096.13
2451.701	1157.67
2454.855	1242.27
2458.009	1091.34
2461.163	1105.32
2464.317	1128.27
2467.471	1096.59
2470.624	1143.81
2473.777	1121.34
2476.929	1082.74
2480.082	1161.46
2483.234	1216.85
2486.385	1236.54
2489.537	1267.27
2492.688	1403.02
2495.839	1376.12
2498.989	1414.94
2502.14	1434.71
2505.29	1365.22
2508.439	1508.63
2511.589	1553.99
2514.738	1493.89
2517.887	1483.08
2521.035	1390.27
2524.183	1367.78
2527.331	1348.6
2530.479	1325.52
2533.627	1351.26
