Data from N_3_div_pa_2n_Splice17_08.txt Node
Date: Sat Feb 29 14:56:03 EST 2020
User: sa697716
Spectrometer: FLMS03696
Trigger mode: 0
Integration Time (sec): 3.180400E-1
Scans to average: 20
Electric dark correction enabled: true
Nonlinearity correction enabled: true
Boxcar width: 5
XAxis mode: Wavelengths
Number of Pixels in Spectrum: 2048
>>>>>Begin Spectral Data<<<<<
187.83	59.49
188.298	55.41
188.766	53.76
189.233	53.17
189.701	59.16
190.169	62.97
190.636	67.96
191.104	56.99
191.571	215.03
192.039	245.3
192.506	-345.62
192.974	2245.55
193.441	31.16
193.908	65.45
194.375	106.04
194.842	133.32
195.31	99.14
195.777	135.03
196.244	85.67
196.711	76.15
197.177	72.41
197.644	72.07
198.111	71.61
198.578	72.6
199.045	73
199.511	72.99
199.978	73.33
200.445	72.86
200.911	72.83
201.378	72.89
201.844	73.47
202.31	74.32
202.777	74.22
203.243	74.43
203.709	74.22
204.176	73.55
204.642	73.87
205.108	73.4
205.574	73.63
206.04	73.65
206.506	73.39
206.972	72.74
207.438	71.64
207.903	71.08
208.369	69.84
208.835	69.15
209.301	68.36
209.766	66.6
210.232	65.53
210.697	64.18
211.163	62.56
211.628	61.08
212.094	59.69
212.559	58.56
213.024	57.51
213.49	56.09
213.955	54.49
214.42	52.83
214.885	50.98
215.35	49.05
215.815	46.22
216.28	43.43
216.745	40.22
217.21	36.88
217.675	33.48
218.14	30.31
218.604	27.69
219.069	25.44
219.534	23.47
219.998	21.82
220.463	20.42
220.927	19.33
221.392	18.23
221.856	17.31
222.32	16.62
222.785	16
223.249	15.47
223.713	15
224.177	14.5
224.642	14.15
225.106	13.84
225.57	13.49
226.034	13.15
226.497	12.88
226.961	12.59
227.425	12.31
227.889	12.05
228.353	11.77
228.816	11.55
229.28	11.33
229.744	11.14
230.207	10.91
230.671	10.69
231.134	10.51
231.597	10.32
232.061	10.16
232.524	10.01
232.987	9.86
233.45	9.72
233.914	9.59
234.377	9.46
234.84	9.31
235.303	9.2
235.766	9.08
236.229	8.97
236.691	8.87
237.154	8.78
237.617	8.67
238.08	8.59
238.542	8.49
239.005	8.4
239.468	8.3
239.93	8.25
240.393	8.17
240.855	8.08
241.317	8.01
241.78	7.94
242.242	7.83
242.704	7.74
243.166	7.65
243.629	7.57
244.091	7.49
244.553	7.43
245.015	7.35
245.477	7.26
245.939	7.2
246.4	7.12
246.862	7.05
247.324	7.02
247.786	6.96
248.247	6.91
248.709	6.85
249.17	6.81
249.632	6.74
250.093	6.66
250.555	6.62
251.016	6.56
251.477	6.51
251.939	6.46
252.4	6.4
252.861	6.36
253.322	6.31
253.783	6.27
254.244	6.22
254.705	6.17
255.166	6.15
255.627	6.1
256.088	6.06
256.549	6.02
257.009	5.98
257.47	5.93
257.931	5.88
258.391	5.82
258.852	5.77
259.312	5.73
259.773	5.69
260.233	5.63
260.694	5.58
261.154	5.54
261.614	5.49
262.074	5.44
262.534	5.38
262.994	5.35
263.455	5.31
263.915	5.27
264.374	5.22
264.834	5.18
265.294	5.14
265.754	5.1
266.214	5.07
266.673	5.04
267.133	5.01
267.593	4.99
268.052	4.96
268.512	4.93
268.971	4.9
269.431	4.89
269.89	4.86
270.349	4.85
270.809	4.83
271.268	4.82
271.727	4.8
272.186	4.78
272.645	4.76
273.104	4.74
273.563	4.73
274.022	4.71
274.481	4.69
274.94	4.68
275.399	4.66
275.857	4.64
276.316	4.62
276.775	4.6
277.233	4.59
277.692	4.57
278.15	4.56
278.609	4.54
279.067	4.52
279.525	4.52
279.984	4.51
280.442	4.5
280.9	4.5
281.358	4.48
281.816	4.47
282.274	4.47
282.732	4.47
283.19	4.46
283.648	4.46
284.106	4.45
284.564	4.45
285.021	4.44
285.479	4.44
285.937	4.44
286.394	4.43
286.852	4.44
287.309	4.43
287.767	4.42
288.224	4.41
288.682	4.4
289.139	4.39
289.596	4.37
290.053	4.35
290.511	4.32
290.968	4.29
291.425	4.27
291.882	4.25
292.339	4.22
292.796	4.2
293.252	4.18
293.709	4.16
294.166	4.14
294.623	4.12
295.079	4.11
295.536	4.11
295.992	4.09
296.449	4.08
296.905	4.05
297.362	4.04
297.818	4.03
298.274	4.02
298.731	4
299.187	3.99
299.643	3.99
300.099	3.98
300.555	3.96
301.011	3.96
301.467	3.94
301.923	3.95
302.379	3.95
302.835	3.94
303.291	3.94
303.746	3.93
304.202	3.91
304.658	3.9
305.113	3.89
305.569	3.9
306.024	3.89
306.479	3.89
306.935	3.89
307.39	3.88
307.845	3.88
308.301	3.88
308.756	3.89
309.211	3.9
309.666	3.91
310.121	3.92
310.576	3.92
311.031	3.92
311.486	3.93
311.94	3.93
312.395	3.94
312.85	3.93
313.305	3.94
313.759	3.93
314.214	3.92
314.668	3.92
315.123	3.92
315.577	3.91
316.032	3.91
316.486	3.9
316.94	3.9
317.394	3.89
317.849	3.88
318.303	3.87
318.757	3.85
319.211	3.84
319.665	3.84
320.119	3.83
320.572	3.82
321.026	3.81
321.48	3.81
321.934	3.81
322.387	3.81
322.841	3.79
323.295	3.79
323.748	3.79
324.202	3.78
324.655	3.77
325.108	3.76
325.562	3.74
326.015	3.73
326.468	3.72
326.921	3.7
327.374	3.7
327.827	3.7
328.28	3.69
328.733	3.69
329.186	3.69
329.639	3.68
330.092	3.68
330.545	3.68
330.997	3.69
331.45	3.69
331.903	3.69
332.355	3.69
332.808	3.7
333.26	3.7
333.713	3.71
334.165	3.72
334.617	3.73
335.069	3.73
335.522	3.74
335.974	3.75
336.426	3.75
336.878	3.75
337.33	3.75
337.782	3.75
338.234	3.76
338.686	3.75
339.137	3.75
339.589	3.74
340.041	3.74
340.493	3.71
340.944	3.7
341.396	3.7
341.847	3.7
342.299	3.68
342.75	3.66
343.201	3.64
343.653	3.62
344.104	3.59
344.555	3.59
345.006	3.57
345.457	3.56
345.908	3.55
346.359	3.54
346.81	3.53
347.261	3.53
347.712	3.53
348.163	3.53
348.613	3.53
349.064	3.52
349.515	3.51
349.965	3.51
350.416	3.5
350.866	3.5
351.317	3.5
351.767	3.49
352.217	3.48
352.668	3.48
353.118	3.48
353.568	3.48
354.018	3.49
354.468	3.5
354.918	3.51
355.368	3.52
355.818	3.52
356.268	3.53
356.718	3.54
357.168	3.54
357.617	3.55
358.067	3.55
358.517	3.55
358.966	3.57
359.416	3.58
359.865	3.58
360.315	3.59
360.764	3.6
361.213	3.61
361.663	3.62
362.112	3.65
362.561	3.67
363.01	3.69
363.459	3.69
363.908	3.69
364.357	3.7
364.806	3.7
365.255	3.72
365.703	3.74
366.152	3.75
366.601	3.76
367.05	3.77
367.498	3.78
367.947	3.79
368.395	3.83
368.844	3.85
369.292	3.87
369.74	3.9
370.189	3.9
370.637	3.94
371.085	3.96
371.533	3.99
371.981	4.01
372.429	4.02
372.877	4.04
373.325	4.05
373.773	4.08
374.221	4.11
374.669	4.13
375.116	4.16
375.564	4.18
376.012	4.22
376.459	4.24
376.907	4.28
377.354	4.32
377.801	4.36
378.249	4.41
378.696	4.45
379.143	4.49
379.591	4.54
380.038	4.6
380.485	4.64
380.932	4.68
381.379	4.72
381.826	4.77
382.273	4.82
382.72	4.88
383.166	4.92
383.613	4.97
384.06	5
384.506	5.05
384.953	5.09
385.4	5.14
385.846	5.19
386.292	5.26
386.739	5.31
387.185	5.37
387.631	5.42
388.078	5.48
388.524	5.52
388.97	5.6
389.416	5.65
389.862	5.72
390.308	5.77
390.754	5.83
391.2	5.9
391.645	5.97
392.091	6.03
392.537	6.1
392.983	6.19
393.428	6.28
393.874	6.36
394.319	6.43
394.765	6.51
395.21	6.58
395.655	6.66
396.101	6.71
396.546	6.77
396.991	6.84
397.436	6.88
397.881	6.93
398.326	7.01
398.771	7.07
399.216	7.15
399.661	7.23
400.106	7.31
400.551	7.37
400.995	7.4
401.44	7.45
401.885	7.5
402.329	7.54
402.774	7.57
403.218	7.6
403.663	7.63
404.107	7.65
404.551	7.67
404.995	7.69
405.44	7.72
405.884	7.75
406.328	7.78
406.772	7.8
407.216	7.83
407.66	7.87
408.104	7.89
408.547	7.91
408.991	7.92
409.435	7.93
409.879	7.95
410.322	7.97
410.766	8.01
411.209	8.03
411.653	8.05
412.096	8.06
412.54	8.08
412.983	8.11
413.426	8.14
413.869	8.18
414.312	8.23
414.756	8.27
415.199	8.29
415.642	8.32
416.085	8.35
416.527	8.4
416.97	8.44
417.413	8.48
417.856	8.48
418.298	8.47
418.741	8.5
419.184	8.47
419.626	8.48
420.069	8.49
420.511	8.49
420.953	8.48
421.396	8.48
421.838	8.48
422.28	8.5
422.722	8.52
423.164	8.54
423.606	8.54
424.048	8.54
424.49	8.55
424.932	8.55
425.374	8.55
425.816	8.51
426.258	8.47
426.699	8.43
427.141	8.35
427.582	8.31
428.024	8.3
428.465	8.3
428.907	8.31
429.348	8.29
429.789	8.26
430.231	8.23
430.672	8.23
431.113	8.26
431.554	8.29
431.995	8.33
432.436	8.34
432.877	8.33
433.318	8.32
433.759	8.33
434.2	8.35
434.64	8.38
435.081	8.42
435.522	8.47
435.962	8.47
436.403	8.52
436.843	8.55
437.284	8.61
437.724	8.68
438.164	8.7
438.604	8.74
439.045	8.77
439.485	8.81
439.925	8.86
440.365	8.91
440.805	8.94
441.245	8.97
441.685	9.02
442.125	9.06
442.564	9.14
443.004	9.21
443.444	9.29
443.883	9.37
444.323	9.44
444.762	9.55
445.202	9.66
445.641	9.75
446.081	9.85
446.52	9.92
446.959	10.02
447.398	10.11
447.837	10.22
448.276	10.29
448.716	10.38
449.154	10.49
449.593	10.54
450.032	10.59
450.471	10.69
450.91	10.73
451.349	10.8
451.787	10.84
452.226	10.86
452.664	10.88
453.103	10.9
453.541	10.92
453.98	10.92
454.418	10.92
454.856	10.92
455.295	10.88
455.733	10.89
456.171	10.88
456.609	10.89
457.047	10.87
457.485	10.87
457.923	10.85
458.361	10.84
458.798	10.83
459.236	10.83
459.674	10.82
460.111	10.84
460.549	10.84
460.987	10.84
461.424	10.82
461.862	10.84
462.299	10.83
462.736	10.86
463.173	10.88
463.611	10.88
464.048	10.92
464.485	10.92
464.922	10.93
465.359	10.95
465.796	10.95
466.233	10.98
466.67	10.98
467.106	10.99
467.543	11
467.98	11.01
468.416	11.04
468.853	11.05
469.29	11.08
469.726	11.08
470.162	11.08
470.599	11.12
471.035	11.16
471.471	11.18
471.907	11.21
472.344	11.25
472.78	11.26
473.216	11.28
473.652	11.3
474.088	11.35
474.523	11.37
474.959	11.39
475.395	11.41
475.831	11.42
476.266	11.43
476.702	11.45
477.138	11.45
477.573	11.47
478.008	11.47
478.444	11.46
478.879	11.47
479.314	11.49
479.75	11.5
480.185	11.51
480.62	11.5
481.055	11.51
481.49	11.51
481.925	11.53
482.36	11.53
482.795	11.54
483.229	11.56
483.664	11.56
484.099	11.56
484.534	11.57
484.968	11.59
485.403	11.62
485.837	11.63
486.271	11.66
486.706	11.69
487.14	11.74
487.574	11.77
488.009	11.82
488.443	11.87
488.877	11.94
489.311	12.01
489.745	12.08
490.179	12.15
490.613	12.24
491.046	12.34
491.48	12.42
491.914	12.51
492.348	12.63
492.781	12.73
493.215	12.83
493.648	12.96
494.082	13.1
494.515	13.23
494.948	13.38
495.382	13.54
495.815	13.71
496.248	13.88
496.681	14.06
497.114	14.23
497.547	14.43
497.98	14.64
498.413	14.84
498.846	15.04
499.279	15.26
499.711	15.47
500.144	15.69
500.577	15.91
501.009	16.15
501.442	16.41
501.874	16.67
502.306	16.94
502.739	17.21
503.171	17.49
503.603	17.79
504.036	18.1
504.468	18.44
504.9	18.75
505.332	19.09
505.764	19.42
506.196	19.77
506.627	20.11
507.059	20.47
507.491	20.83
507.923	21.21
508.354	21.6
508.786	21.97
509.217	22.34
509.649	22.75
510.08	23.16
510.512	23.55
510.943	23.95
511.374	24.36
511.805	24.77
512.237	25.2
512.668	25.61
513.099	26.03
513.53	26.47
513.961	26.92
514.391	27.33
514.822	27.75
515.253	28.19
515.684	28.61
516.114	29.03
516.545	29.44
516.975	29.86
517.406	30.3
517.836	30.69
518.267	31.08
518.697	31.47
519.127	31.85
519.558	32.21
519.988	32.61
520.418	32.96
520.848	33.33
521.278	33.71
521.708	33.9
522.138	34.2
522.567	34.54
522.997	34.85
523.427	35.18
523.857	35.46
524.286	35.76
524.716	36.03
525.145	36.31
525.575	36.57
526.004	36.82
526.433	37.23
526.863	37.49
527.292	37.73
527.721	37.94
528.15	38.11
528.579	38.35
529.008	38.54
529.437	38.73
529.866	38.89
530.295	39.05
530.724	39.21
531.152	39.34
531.581	39.49
532.01	39.62
532.438	39.75
532.867	39.91
533.295	40.02
533.723	40.15
534.152	40.25
534.58	40.37
535.008	40.44
535.436	40.52
535.865	40.6
536.293	40.67
536.721	40.74
537.149	40.8
537.576	40.83
538.004	40.88
538.432	40.9
538.86	40.96
539.287	40.99
539.715	41.04
540.143	41.09
540.57	41.11
540.998	41.15
541.425	41.18
541.852	41.2
542.28	41.25
542.707	41.29
543.134	41.36
543.561	41.36
543.988	41.42
544.415	41.48
544.842	41.51
545.269	41.57
545.696	41.61
546.123	41.66
546.549	41.73
546.976	41.77
547.403	41.81
547.829	41.86
548.256	41.91
548.682	41.95
549.108	42
549.535	42.03
549.961	42.07
550.387	42.09
550.813	42.1
551.24	42.09
551.666	42.13
552.092	42.15
552.518	42.13
552.943	42.17
553.369	42.17
553.795	42.14
554.221	42.15
554.646	42.12
555.072	42.11
555.498	42.1
555.923	42.1
556.349	42.05
556.774	42.03
557.199	41.98
557.625	41.93
558.05	41.84
558.475	41.78
558.9	41.69
559.325	41.63
559.75	41.55
560.175	41.46
560.6	41.37
561.025	41.31
561.449	41.21
561.874	41.14
562.299	41.04
562.723	40.97
563.148	40.88
563.572	40.8
563.997	40.72
564.421	40.59
564.846	40.47
565.27	40.35
565.694	40.19
566.118	40.05
566.542	39.89
566.966	39.73
567.39	39.56
567.814	39.38
568.238	39.18
568.662	38.98
569.086	38.81
569.509	38.63
569.933	38.43
570.357	38.24
570.78	38.05
571.204	37.86
571.627	37.67
572.05	37.52
572.474	37.34
572.897	37.19
573.32	37
573.743	36.84
574.166	36.66
574.589	36.5
575.012	36.38
575.435	36.23
575.858	36.11
576.281	35.99
576.704	35.85
577.126	35.73
577.549	35.62
577.972	35.54
578.394	35.42
578.817	35.33
579.239	35.25
579.661	35.14
580.084	35.06
580.506	34.96
580.928	34.87
581.35	34.8
581.772	34.74
582.194	34.66
582.616	34.58
583.038	34.5
583.46	34.43
583.882	34.34
584.303	34.29
584.725	34.22
585.147	34.15
585.568	34.06
585.99	33.98
586.411	33.91
586.833	33.82
587.254	33.76
587.675	33.71
588.096	33.66
588.518	33.63
588.939	33.58
589.36	33.51
589.781	33.45
590.202	33.42
590.623	33.38
591.043	33.36
591.464	33.32
591.885	33.29
592.305	33.26
592.726	33.21
593.147	33.21
593.567	33.16
593.987	33.19
594.408	33.18
594.828	33.15
595.248	33.14
595.669	33.11
596.089	33.1
596.509	33.05
596.929	33.01
597.349	32.95
597.769	32.89
598.189	32.85
598.608	32.76
599.028	32.71
599.448	32.66
599.867	32.59
600.287	32.53
600.706	32.45
601.126	32.39
601.545	32.33
601.965	32.27
602.384	32.19
602.803	32.1
603.222	32.02
603.641	31.93
604.061	31.82
604.48	31.7
604.898	31.59
605.317	31.48
605.736	31.36
606.155	31.23
606.574	31.11
606.992	30.97
607.411	30.85
607.829	30.67
608.248	30.53
608.666	30.4
609.085	30.28
609.503	30.13
609.921	29.99
610.339	29.88
610.758	29.75
611.176	29.63
611.594	29.5
612.012	29.36
612.43	29.29
612.847	29.17
613.265	29.06
613.683	28.93
614.101	28.81
614.518	28.71
614.936	28.59
615.353	28.48
615.771	28.36
616.188	28.25
616.606	28.16
617.023	28.05
617.44	27.96
617.857	27.88
618.274	27.8
618.691	27.73
619.108	27.65
619.525	27.59
619.942	27.51
620.359	27.47
620.776	27.43
621.192	27.39
621.609	27.33
622.026	27.28
622.442	27.24
622.859	27.19
623.275	27.16
623.691	27.13
624.108	27.11
624.524	27.08
624.94	27.05
625.356	27.01
625.772	26.99
626.188	27
626.604	26.97
627.02	26.95
627.436	26.93
627.852	26.9
628.268	26.86
628.683	26.83
629.099	26.83
629.514	26.81
629.93	26.79
630.345	26.73
630.761	26.7
631.176	26.7
631.591	26.65
632.007	26.6
632.422	26.59
632.837	26.54
633.252	26.48
633.667	26.4
634.082	26.34
634.497	26.26
634.911	26.18
635.326	26.05
635.741	25.94
636.155	25.84
636.57	25.74
636.984	25.58
637.399	25.44
637.813	25.31
638.228	25.16
638.642	25.01
639.056	24.86
639.47	24.7
639.884	24.53
640.298	24.35
640.712	24.17
641.126	23.98
641.54	23.81
641.954	23.65
642.368	23.46
642.781	23.26
643.195	23.05
643.609	22.87
644.022	22.69
644.436	22.5
644.849	22.32
645.262	22.15
645.676	21.97
646.089	21.79
646.502	21.59
646.915	21.42
647.328	21.29
647.741	21.13
648.154	20.98
648.567	20.84
648.98	20.71
649.393	20.58
649.805	20.44
650.218	20.32
650.631	20.19
651.043	20.09
651.456	19.97
651.868	19.83
652.28	19.72
652.693	19.55
653.105	19.41
653.517	19.26
653.929	19.12
654.341	18.97
654.753	18.78
655.165	18.61
655.577	18.38
655.989	18.17
656.401	17.94
656.813	17.7
657.224	17.49
657.636	17.25
658.047	17.01
658.459	16.74
658.87	16.46
659.282	16.22
659.693	15.95
660.104	15.7
660.515	15.44
660.926	15.19
661.338	14.94
661.749	14.67
662.159	14.42
662.57	14.18
662.981	13.94
663.392	13.71
663.803	13.47
664.213	13.25
664.624	13.05
665.035	12.85
665.445	12.66
665.855	12.48
666.266	12.34
666.676	12.17
667.086	12.01
667.497	11.88
667.907	11.75
668.317	11.62
668.727	11.51
669.137	11.41
669.547	11.33
669.956	11.25
670.366	11.17
670.776	11.09
671.186	11.04
671.595	10.98
672.005	10.94
672.414	10.91
672.824	10.87
673.233	10.86
673.642	10.83
674.052	10.79
674.461	10.77
674.87	10.76
675.279	10.76
675.688	10.76
676.097	10.78
676.506	10.79
676.915	10.82
677.323	10.88
677.732	10.95
678.141	11.03
678.549	11.15
678.958	11.3
679.366	11.42
679.775	11.6
680.183	11.79
680.592	12.01
681	12.25
681.408	12.54
681.816	12.83
682.224	13.17
682.632	13.54
683.04	13.95
683.448	14.38
683.856	14.88
684.264	15.4
684.671	15.98
685.079	16.57
685.487	17.23
685.894	17.92
686.302	18.64
686.709	19.35
687.116	20.12
687.524	20.9
687.931	21.7
688.338	22.53
688.745	23.37
689.152	24.22
689.559	25.08
689.966	25.93
690.373	26.79
690.78	27.63
691.187	28.5
691.593	29.33
692	30.17
692.407	30.98
692.813	31.79
693.22	32.58
693.626	33.34
694.032	34.1
694.439	34.87
694.845	35.57
695.251	36.28
695.657	36.95
696.063	37.64
696.469	38.27
696.875	38.89
697.281	39.46
697.687	40.08
698.093	40.64
698.498	41.2
698.904	41.73
699.31	42.23
699.715	42.75
700.12	43.23
700.526	43.71
700.931	44.16
701.337	44.61
701.742	45.03
702.147	45.43
702.552	45.85
702.957	46.24
703.362	46.62
703.767	46.99
704.172	47.34
704.577	47.68
704.981	48.01
705.386	48.32
705.791	48.65
706.195	48.96
706.6	49.22
707.004	49.5
707.408	49.75
707.813	50
708.217	50.25
708.621	50.46
709.025	50.71
709.43	50.91
709.834	51.17
710.237	51.36
710.641	51.61
711.045	51.82
711.449	51.98
711.853	52.18
712.256	52.38
712.66	52.57
713.064	52.79
713.467	52.98
713.87	53.18
714.274	53.33
714.677	53.51
715.08	53.62
715.484	53.83
715.887	54.02
716.29	54.18
716.693	54.31
717.096	54.46
717.499	54.6
717.901	54.69
718.304	54.83
718.707	54.96
719.109	55.11
719.512	55.29
719.915	55.39
720.317	55.54
720.719	55.66
721.122	55.77
721.524	55.9
721.926	56.02
722.328	56.18
722.731	56.3
723.133	56.41
723.535	56.5
723.937	56.56
724.338	56.64
724.74	56.69
725.142	56.66
725.544	56.75
725.945	56.77
726.347	56.85
726.748	56.86
727.15	56.9
727.551	56.99
727.952	57.02
728.354	57.11
728.755	57.15
729.156	57.25
729.557	57.42
729.958	57.49
730.359	57.55
730.76	57.56
731.161	57.6
731.562	57.65
731.962	57.63
732.363	57.68
732.763	57.71
733.164	57.77
733.564	57.79
733.965	57.77
734.365	57.78
734.766	57.83
735.166	57.84
735.566	57.87
735.966	57.9
736.366	57.94
736.766	57.96
737.166	57.97
737.566	57.97
737.966	57.98
738.365	58.02
738.765	58.04
739.165	58.04
739.564	58.11
739.964	58.15
740.363	58.18
740.763	58.16
741.162	58.15
741.561	58.17
741.96	58.21
742.36	58.25
742.759	58.22
743.158	58.24
743.557	58.26
743.955	58.26
744.354	58.28
744.753	58.3
745.152	58.34
745.55	58.36
745.949	58.39
746.348	58.41
746.746	58.39
747.144	58.48
747.543	58.52
747.941	58.56
748.339	58.58
748.737	58.64
749.136	58.68
749.534	58.7
749.932	58.72
750.33	58.73
750.727	58.72
751.125	58.74
751.523	58.69
751.921	58.68
752.318	58.66
752.716	58.63
753.113	58.61
753.511	58.54
753.908	58.51
754.305	58.45
754.703	58.41
755.1	58.36
755.497	58.37
755.894	58.38
756.291	58.36
756.688	58.34
757.085	58.35
757.482	58.31
757.878	58.32
758.275	58.32
758.672	58.38
759.068	58.4
759.465	58.43
759.861	58.41
760.258	58.4
760.654	58.39
761.05	58.38
761.447	58.36
761.843	58.34
762.239	58.32
762.635	58.32
763.031	58.29
763.427	58.26
763.822	58.21
764.218	58.18
764.614	58.15
765.01	58.13
765.405	58.11
765.801	58.1
766.196	58.1
766.592	58.09
766.987	58.07
767.382	58.05
767.778	58.07
768.173	58.1
768.568	58.08
768.963	58.09
769.358	58.13
769.753	58.15
770.148	58.18
770.542	58.17
770.937	58.16
771.332	58.19
771.726	58.18
772.121	58.13
772.515	58.12
772.91	58.15
773.304	58.14
773.699	58.08
774.093	58.07
774.487	58.03
774.881	58.04
775.275	58.07
775.669	58.08
776.063	58.09
776.457	58.09
776.851	58.04
777.245	58.02
777.638	58.04
778.032	58.09
778.425	58.11
778.819	58.13
779.212	58.09
779.606	58.06
779.999	58.03
780.392	58.03
780.786	58.05
781.179	58.12
781.572	58.09
781.965	58.06
782.358	58.04
782.751	58.03
783.143	58.02
783.536	58.09
783.929	58.11
784.322	58.13
784.714	58.14
785.107	58.16
785.499	58.14
785.891	58.21
786.284	58.22
786.676	58.25
787.068	58.23
787.46	58.22
787.852	58.21
788.245	58.19
788.636	58.2
789.028	58.2
789.42	58.19
789.812	58.22
790.204	58.17
790.595	58.2
790.987	58.2
791.378	58.22
791.77	58.26
792.161	58.28
792.553	58.29
792.944	58.31
793.335	58.36
793.726	58.35
794.117	58.33
794.508	58.36
794.899	58.36
795.29	58.33
795.681	58.35
796.072	58.36
796.463	58.31
796.853	58.32
797.244	58.31
797.634	58.29
798.025	58.34
798.415	58.36
798.806	58.37
799.196	58.41
799.586	58.45
799.976	58.45
800.366	58.45
800.756	58.5
801.146	58.53
801.536	58.53
801.926	58.51
802.316	58.51
802.706	58.54
803.095	58.59
803.485	58.59
803.874	58.59
804.264	58.63
804.653	58.63
805.043	58.63
805.432	58.61
805.821	58.63
806.21	58.7
806.599	58.74
806.988	58.71
807.377	58.72
807.766	58.73
808.155	58.76
808.544	58.74
808.933	58.77
809.321	58.81
809.71	58.9
810.098	58.96
810.487	58.97
810.875	58.97
811.264	58.99
811.652	58.99
812.04	59.03
812.428	59.06
812.816	59.08
813.204	59.13
813.592	59.12
813.98	59.09
814.368	59.06
814.756	59.06
815.144	59.12
815.531	59.14
815.919	59.12
816.306	59.1
816.694	59.12
817.081	59.12
817.469	59.12
817.856	59.19
818.243	59.19
818.63	59.24
819.017	59.24
819.404	59.21
819.791	59.23
820.178	59.26
820.565	59.27
820.952	59.28
821.339	59.32
821.725	59.33
822.112	59.31
822.498	59.32
822.885	59.33
823.271	59.33
823.657	59.35
824.044	59.37
824.43	59.37
824.816	59.37
825.202	59.32
825.588	59.29
825.974	59.26
826.36	59.24
826.746	59.25
827.132	59.19
827.517	59.18
827.903	59.15
828.289	59.09
828.674	59.08
829.06	59.11
829.445	59.12
829.83	59.14
830.216	59.16
830.601	59.15
830.986	59.13
831.371	59.17
831.756	59.14
832.141	59.16
832.526	59.15
832.911	59.14
833.295	59.1
833.68	59.1
834.065	59.08
834.449	59.03
834.834	58.99
835.218	58.96
835.603	58.94
835.987	58.92
836.371	58.89
836.755	58.87
837.139	58.85
837.524	58.83
837.908	58.77
838.291	58.75
838.675	58.75
839.059	58.72
839.443	58.7
839.827	58.65
840.21	58.67
840.594	58.66
840.977	58.65
841.361	58.66
841.744	58.63
842.127	58.65
842.511	58.61
842.894	58.57
843.277	58.63
843.66	58.63
844.043	58.66
844.426	58.62
844.809	58.59
845.191	58.59
845.574	58.57
845.957	58.55
846.339	58.52
846.722	58.54
847.104	58.56
847.487	58.53
847.869	58.5
848.252	58.46
848.634	58.49
849.016	58.49
849.398	58.47
849.78	58.48
850.162	58.47
850.544	58.49
850.926	58.44
851.307	58.41
851.689	58.4
852.071	58.42
852.452	58.41
852.834	58.38
853.215	58.39
853.597	58.41
853.978	58.4
854.359	58.4
854.741	58.41
855.122	58.45
855.503	58.49
855.884	58.47
856.265	58.46
856.646	58.48
857.026	58.48
857.407	58.42
857.788	58.41
858.169	58.4
858.549	58.43
858.93	58.4
859.31	58.38
859.69	58.35
860.071	58.37
860.451	58.37
860.831	58.37
861.211	58.37
861.591	58.43
861.971	58.42
862.351	58.46
862.731	58.45
863.111	58.46
863.491	58.47
863.87	58.48
864.25	58.51
864.629	58.49
865.009	58.47
865.388	58.51
865.768	58.49
866.147	58.5
866.526	58.47
866.905	58.46
867.284	58.46
867.663	58.47
868.042	58.46
868.421	58.42
868.8	58.42
869.179	58.45
869.558	58.43
869.936	58.41
870.315	58.4
870.693	58.4
871.072	58.42
871.45	58.41
871.828	58.39
872.207	58.39
872.585	58.41
872.963	58.4
873.341	58.4
873.719	58.36
874.097	58.36
874.475	58.4
874.853	58.37
875.23	58.35
875.608	58.34
875.986	58.36
876.363	58.36
876.741	58.35
877.118	58.32
877.495	58.33
877.873	58.37
878.25	58.39
878.627	58.36
879.004	58.38
879.381	58.4
879.758	58.39
880.135	58.36
880.512	58.38
880.889	58.39
881.265	58.47
881.642	58.43
882.019	58.4
882.395	58.38
882.772	58.37
883.148	58.37
883.524	58.37
883.901	58.37
884.277	58.38
884.653	58.35
885.029	58.33
885.405	58.3
885.781	58.28
886.157	58.29
886.532	58.28
886.908	58.29
887.284	58.27
887.659	58.23
888.035	58.21
888.411	58.17
888.786	58.14
889.161	58.15
889.537	58.13
889.912	58.1
890.287	58.06
890.662	58.04
891.037	57.98
891.412	57.97
891.787	57.95
892.162	57.92
892.536	57.91
892.911	57.89
893.286	57.83
893.66	57.8
894.035	57.79
894.409	57.76
894.784	57.74
895.158	57.74
895.532	57.71
895.906	57.7
896.281	57.67
896.655	57.66
897.029	57.62
897.402	57.62
897.776	57.6
898.15	57.61
898.524	57.62
898.898	57.63
899.271	57.62
899.645	57.62
900.018	57.59
900.392	57.62
900.765	57.64
901.138	57.67
901.511	57.68
901.884	57.71
902.258	57.7
902.631	57.72
903.003	57.71
903.376	57.71
903.749	57.74
904.122	57.75
904.495	57.78
904.867	57.75
905.24	57.78
905.612	57.81
905.985	57.79
906.357	57.8
906.729	57.77
907.102	57.76
907.474	57.77
907.846	57.73
908.218	57.72
908.59	57.71
908.962	57.74
909.334	57.7
909.705	57.68
910.077	57.66
910.449	57.67
910.82	57.67
911.192	57.68
911.563	57.68
911.935	57.68
912.306	57.71
912.677	57.72
913.048	57.69
913.419	57.71
913.79	57.68
914.161	57.7
914.532	57.71
914.903	57.72
915.274	57.72
915.645	57.73
916.015	57.78
916.386	57.73
916.756	57.7
917.127	57.72
917.497	57.7
917.868	57.69
918.238	57.72
918.608	57.71
918.978	57.69
919.348	57.67
919.718	57.65
920.088	57.64
920.458	57.68
920.828	57.69
921.198	57.71
921.567	57.71
921.937	57.74
922.306	57.71
922.676	57.72
923.045	57.72
923.415	57.77
923.784	57.79
924.153	57.76
924.522	57.78
924.891	57.78
925.26	57.77
925.629	57.76
925.998	57.76
926.367	57.76
926.736	57.72
927.104	57.71
927.473	57.68
927.842	57.62
928.21	57.63
928.578	57.58
928.947	57.56
929.315	57.54
929.683	57.57
930.051	57.57
930.42	57.57
930.788	57.53
931.156	57.5
931.523	57.45
931.891	57.44
932.259	57.35
932.627	57.29
932.994	57.27
933.362	57.21
933.729	57.09
934.097	56.96
934.464	56.92
934.831	56.91
935.199	56.85
935.566	56.78
935.933	56.81
936.3	56.8
936.667	56.81
937.034	56.71
937.401	56.66
937.767	56.64
938.134	56.71
938.501	56.64
938.867	56.66
939.234	56.83
939.6	56.95
939.967	56.93
940.333	56.99
940.699	57.06
941.065	57.25
941.431	57.46
941.798	57.64
942.163	57.81
942.529	57.99
942.895	58.12
943.261	58.18
943.627	58.32
943.992	58.36
944.358	58.41
944.723	58.51
945.089	58.57
945.454	58.64
945.82	58.61
946.185	58.61
946.55	58.73
946.915	58.71
947.28	58.63
947.645	58.67
948.01	58.76
948.375	58.81
948.74	58.8
949.104	58.78
949.469	58.62
949.834	58.62
950.198	58.53
950.562	58.4
950.927	58.4
951.291	58.35
951.655	58.27
952.02	58.2
952.384	58.16
952.748	58.09
953.112	58.05
953.476	58.07
953.839	58.03
954.203	57.96
954.567	57.93
954.931	57.88
955.294	57.82
955.658	57.72
956.021	57.68
956.385	57.67
956.748	57.65
957.111	57.57
957.474	57.56
957.837	57.61
958.2	57.58
958.563	57.52
958.926	57.5
959.289	57.54
959.652	57.54
960.015	57.45
960.377	57.41
960.74	57.35
961.102	57.32
961.465	57.26
961.827	57.11
962.189	57.11
962.552	57.05
962.914	56.98
963.276	56.87
963.638	56.8
964	56.82
964.362	56.79
964.724	56.79
965.085	56.8
965.447	56.8
965.809	56.79
966.17	56.82
966.532	56.87
966.893	56.88
967.255	56.87
967.616	56.91
967.977	56.96
968.338	56.96
968.699	56.95
969.061	56.99
969.421	56.95
969.782	56.99
970.143	56.95
970.504	56.94
970.865	56.89
971.225	56.89
971.586	56.96
971.946	56.89
972.307	56.91
972.667	56.94
973.027	56.9
973.388	56.96
973.748	57
974.108	56.99
974.468	57.01
974.828	57.09
975.188	57.16
975.548	57.12
975.907	57.2
976.267	57.15
976.627	57.11
976.986	57.12
977.346	57.12
977.705	57.14
978.064	57.24
978.424	57.27
978.783	57.31
979.142	57.41
979.501	57.36
979.86	57.33
980.219	57.31
980.578	57.24
980.937	57.22
981.296	57.2
981.654	57.23
982.013	57.17
982.371	57.05
982.73	57.03
983.088	56.93
983.447	57.01
983.805	56.97
984.163	57.1
984.521	57.19
984.879	57.25
985.237	57.24
985.595	57.15
985.953	57.16
986.311	57.28
986.669	57.23
987.026	57.27
987.384	57.21
987.741	57.31
988.099	57.22
988.456	57.27
988.814	57.36
989.171	57.38
989.528	57.38
989.885	57.45
990.242	57.49
990.599	57.52
990.956	57.57
991.313	57.71
991.67	57.77
992.027	57.69
992.383	57.73
992.74	57.69
993.096	57.78
993.453	57.8
993.809	57.84
994.165	57.78
994.522	57.78
994.878	57.69
995.234	57.69
995.59	57.59
995.946	57.8
996.302	57.75
996.658	57.81
997.013	57.86
997.369	57.93
997.725	57.95
998.08	57.99
998.436	58.06
998.791	58.01
999.147	57.97
999.502	57.97
999.857	57.98
1000.212	58.09
1000.567	58.16
1000.922	58.26
1001.277	58.19
1001.632	58.23
1001.987	58.27
1002.342	58.54
1002.696	58.69
1003.051	58.64
1003.406	58.71
1003.76	58.83
1004.114	58.83
1004.469	58.6
1004.823	58.52
1005.177	58.77
1005.531	58.73
1005.885	58.77
1006.239	58.61
1006.593	58.77
1006.947	58.98
1007.301	59.06
1007.655	58.99
1008.008	58.92
1008.362	58.99
1008.715	58.88
1009.069	58.66
1009.422	58.63
1009.776	58.62
1010.129	58.63
1010.482	58.7
1010.835	58.86
1011.188	58.86
1011.541	58.73
1011.894	58.85
1012.247	59.06
1012.6	59.42
1012.952	59.68
1013.305	59.74
1013.657	59.95
1014.01	60.04
1014.362	60.15
1014.715	60.01
1015.067	60.01
1015.419	60.38
1015.771	60.61
1016.123	60.52
1016.475	60.63
1016.827	60.64
1017.179	60.65
1017.531	60.71
1017.883	60.8
1018.234	60.58
1018.586	60.65
1018.938	60.85
1019.289	60.67
1019.64	60.91
1019.992	61.13
1020.343	60.87
1020.694	60.91
1021.045	61.25
1021.396	61.33
1021.747	61.22
1022.098	61.48
1022.449	61.54
1022.8	61.34
1023.151	61.46
1023.501	61.29
1023.852	61.56
1024.202	61.71
1024.553	62.02
1024.903	61.78
1025.253	61.81
1025.604	62.02
1025.954	61.9
1026.304	62.19
1026.654	62.62
1027.004	63.02
1027.354	63.03
1027.703	62.74
1028.053	62.79
1028.403	62.47
1028.753	62.85
1029.102	62.97
1029.452	63.22
1029.801	63.59
1030.15	63.57
1030.499	63.4
897.758	451.95
901.051	460.72
904.343	465.27
907.636	456.88
910.928	450.2
914.22	453.67
917.511	441.08
920.803	421.95
924.094	406.06
927.384	409.84
930.675	399.35
933.965	395.91
937.255	391.6
940.544	374.06
943.834	360.69
947.123	356.02
950.411	338.93
953.7	332.74
956.988	324.02
960.276	312.37
963.563	309.07
966.851	292.71
970.138	288.52
973.424	271.98
976.711	265.61
979.997	257.31
983.283	250.62
986.568	243.79
989.853	238.73
993.138	231.32
996.423	226.65
999.708	220.83
1002.992	220.49
1006.275	213.46
1009.559	211.99
1012.842	208.58
1016.125	201.34
1019.408	197.18
1022.69	196.67
1025.972	193.84
1029.254	190.72
1032.536	187.07
1035.817	181.2
1039.098	179.46
1042.379	174.86
1045.659	173.82
1048.939	172.1
1052.219	170.05
1055.498	168.58
1058.778	165.02
1062.057	162.64
1065.335	160.93
1068.614	158.15
1071.892	155.93
1075.17	154.07
1078.447	152.96
1081.724	150.02
1085.001	146.68
1088.278	146.39
1091.554	144.39
1094.83	144.25
1098.106	142.63
1101.382	141.66
1104.657	142.03
1107.932	141.87
1111.206	141.04
1114.481	141.03
1117.755	139.9
1121.029	139.89
1124.302	138.26
1127.575	137.26
1130.848	136.35
1134.121	134.95
1137.393	134.89
1140.665	133.95
1143.937	132.53
1147.208	130.36
1150.48	128.23
1153.75	128.6
1157.021	127.61
1160.291	126.89
1163.561	126.6
1166.831	125.3
1170.101	124.82
1173.37	123.53
1176.639	122.24
1179.907	122.12
1183.176	122.22
1186.444	122.35
1189.711	121.45
1192.979	122.21
1196.246	122.62
1199.513	121.84
1202.78	122.28
1206.046	121.88
1209.312	123.9
1212.578	124.39
1215.843	126.23
1219.108	126.81
1222.373	128.41
1225.638	129.86
1228.902	132.62
1232.166	135.56
1235.43	136.91
1238.693	142.05
1241.956	144.8
1245.219	146.39
1248.482	147.56
1251.744	146.98
1255.006	147.47
1258.268	143.29
1261.529	142.61
1264.79	140.14
1268.051	137.64
1271.312	137.52
1274.572	133.33
1277.832	131.12
1281.092	129.26
1284.351	127.18
1287.61	127.07
1290.869	125.39
1294.128	125.85
1297.386	125.51
1300.644	123.81
1303.902	123.66
1307.159	122.41
1310.416	123.31
1313.673	124.71
1316.93	126.38
1320.186	128.57
1323.442	129.46
1326.697	132.03
1329.953	133.67
1333.208	138.11
1336.463	142.24
1339.717	144.98
1342.972	151.65
1346.226	154.57
1349.479	155.32
1352.733	160.33
1355.986	163.15
1359.238	166.83
1362.491	169.25
1365.743	173.17
1368.995	174.04
1372.247	176.9
1375.498	175.49
1378.749	179.36
1382	179.86
1385.251	178.73
1388.501	179.05
1391.751	179.83
1395	178.52
1398.25	178.6
1401.499	178.58
1404.748	176.56
1407.996	169.63
1411.244	169.62
1414.492	167.92
1417.74	162.49
1420.987	158.31
1424.234	156.24
1427.481	149.41
1430.728	145.56
1433.974	141.6
1437.22	137.01
1440.465	131.48
1443.711	128.61
1446.956	124.63
1450.201	119.97
1453.445	115.23
1456.689	112.45
1459.933	108.7
1463.177	104.46
1466.42	102.82
1469.663	99.77
1472.906	97.33
1476.148	95.39
1479.391	93.46
1482.633	92.04
1485.874	90.98
1489.115	90.46
1492.356	89.69
1495.597	87.79
1498.838	88.77
1502.078	87.82
1505.318	87.63
1508.557	87.23
1511.797	87.1
1515.036	86.66
1518.274	86.64
1521.513	86.02
1524.751	85.19
1527.989	86.08
1531.227	86.22
1534.464	86.01
1537.701	85.57
1540.938	85.16
1544.174	85.12
1547.41	85.49
1550.646	85.65
1553.882	85.78
1557.117	85.53
1560.352	85.83
1563.587	84.85
1566.821	84.81
1570.055	84.17
1573.289	84.66
1576.523	84.9
1579.756	84.84
1582.989	84.41
1586.222	84.77
1589.454	84.12
1592.686	84.55
1595.918	84.37
1599.15	84.36
1602.381	84.62
1605.612	84.86
1608.843	84.27
1612.073	84.57
1615.303	84.68
1618.533	84.92
1621.762	84.81
1624.992	85.22
1628.221	84.52
1631.449	85.14
1634.678	84.87
1637.906	85.29
1641.134	85.6
1644.361	85.62
1647.588	85.79
1650.815	85.71
1654.042	86.05
1657.269	85.52
1660.495	86.08
1663.72	86
1666.946	85.91
1670.171	86.66
1673.396	86.78
1676.621	86.78
1679.845	87.29
1683.069	86.61
1686.293	87.08
1689.517	86.95
1692.74	87.5
1695.963	87.39
1699.185	88.1
1702.408	87.42
1705.63	87.86
1708.852	88.29
1712.073	87.84
1715.294	87.61
1718.515	88.71
1721.736	88.33
1724.956	88.41
1728.176	88.21
1731.396	88.85
1734.616	88.63
1737.835	89.63
1741.054	88.72
1744.272	88.33
1747.491	88.61
1750.709	89
1753.927	88.46
1757.144	89.54
1760.361	89.26
1763.578	89.74
1766.795	89.44
1770.011	89.37
1773.227	89.87
1776.443	90.7
1779.658	89.87
1782.874	90.8
1786.089	90.42
1789.303	90.89
1792.518	90.41
1795.732	91.1
1798.945	92
1802.159	92.12
1805.372	93.53
1808.585	93.82
1811.797	94.33
1815.01	95.15
1818.222	95.55
1821.434	97.09
1824.645	97.16
1827.856	98.63
1831.067	98.94
1834.278	99.3
1837.488	100.21
1840.698	101.24
1843.908	100.76
1847.117	101.69
1850.326	102.83
1853.535	103.33
1856.744	103.44
1859.952	104.49
1863.16	103.47
1866.368	103.18
1869.575	102.82
1872.782	102.38
1875.989	99.54
1879.196	100.11
1882.402	98.08
1885.608	98.07
1888.814	96.41
1892.019	96.92
1895.224	94.86
1898.429	94.26
1901.634	94.07
1904.838	94.38
1908.042	94.2
1911.246	94.34
1914.449	93.61
1917.652	93.87
1920.855	93.83
1924.058	92.84
1927.26	91.18
1930.462	92.1
1933.664	93.22
1936.865	93.88
1940.066	92.09
1943.267	90.87
1946.467	92.03
1949.668	91.92
1952.868	92.03
1956.067	91.9
1959.267	93.12
1962.466	93.78
1965.665	95.28
1968.863	94.62
1972.061	95.74
1975.259	97.92
1978.457	99.92
1981.654	100.8
1984.852	101.82
1988.048	103.48
1991.245	105.23
1994.441	107.77
1997.637	110.34
2000.833	111.33
2004.028	112.75
2007.223	114.94
2010.418	117.16
2013.613	121.82
2016.807	124.8
2020.001	127.5
2023.194	130.23
2026.388	135.03
2029.581	141.76
2032.774	145.52
2035.966	149.56
2039.158	155.1
2042.35	157.14
2045.542	161.25
2048.733	168.81
2051.924	169.04
2055.115	171.9
2058.306	175.25
2061.496	176.13
2064.686	175.36
2067.875	173.07
2071.065	177.08
2074.254	176.55
2077.442	182.86
2080.631	183.98
2083.819	181.04
2087.007	189.34
2090.195	191.5
2093.382	189.27
2096.569	190.93
2099.756	194.63
2102.942	199.82
2106.128	202.73
2109.314	205.65
2112.5	205.22
2115.685	203.85
2118.87	205.51
2122.055	204.42
2125.239	208.42
2128.424	215.45
2131.608	215.46
2134.791	214.65
2137.974	216.16
2141.157	217.2
2144.34	218.88
2147.523	223.57
2150.705	229.4
2153.887	227.61
2157.068	229.15
2160.25	232.22
2163.431	232.85
2166.611	233.76
2169.792	240.22
2172.972	242.1
2176.152	242.32
2179.331	245.51
2182.511	245.16
2185.69	249.12
2188.868	256.48
2192.047	264.03
2195.225	268.27
2198.403	268.06
2201.58	266.62
2204.758	274.64
2207.935	276.33
2211.111	283.78
2214.288	287.69
2217.464	291.45
2220.64	290.02
2223.815	292.65
2226.991	288.59
2230.166	289.19
2233.34	300.24
2236.515	307.54
2239.689	302.59
2242.863	308.43
2246.036	304.4
2249.209	310.13
2252.382	305.11
2255.555	318.81
2258.727	320.76
2261.9	330.61
2265.071	336.45
2268.243	335.39
2271.414	345.62
2274.585	352.24
2277.756	350.91
2280.926	363.36
2284.096	368.79
2287.266	374.28
2290.436	364.71
2293.605	372.05
2296.774	383.33
2299.942	384.1
2303.111	394.14
2306.279	404.06
2309.447	403.23
2312.614	405.36
2315.781	412.29
2318.948	416.8
2322.115	424.25
2325.281	451.75
2328.447	444.85
2331.613	447.08
2334.779	449.56
2337.944	453.84
2341.109	458.43
2344.274	466.2
2347.438	476.69
2350.602	490.34
2353.766	512.6
2356.929	515.91
2360.092	517.16
2363.255	523.57
2366.418	528.96
2369.58	542.25
2372.742	551.39
2375.904	547.39
2379.066	564.07
2382.227	600.72
2385.388	598.07
2388.548	569.62
2391.709	565.67
2394.869	580.42
2398.029	587.78
2401.188	589.48
2404.347	604.91
2407.506	619.58
2410.665	596.59
2413.823	598.9
2416.981	596.85
2420.139	563.24
2423.296	613.09
2426.453	653.89
2429.61	621.37
2432.767	660.46
2435.923	677.42
2439.079	656.77
2442.235	673.04
2445.391	693.52
2448.546	686.5
2451.701	720.54
2454.855	776.06
2458.009	683.2
2461.163	691.09
2464.317	703.2
2467.471	687.2
2470.624	710.48
2473.777	697.86
2476.929	676.89
2480.082	716.54
2483.234	751.79
2486.385	772.84
2489.537	787.57
2492.688	870.19
2495.839	855.73
2498.989	885.06
2502.14	887.51
2505.29	851.38
2508.439	929.91
2511.589	945.61
2514.738	929.93
2517.887	918.13
2521.035	854.54
2524.183	842.3
2527.331	832.38
2530.479	811.26
2533.627	826.82
