Data from N_3_dec_on_6n_Splice17_08.txt Node
Date: Sat Feb 29 15:09:32 EST 2020
User: sa697716
Spectrometer: FLMS03696
Trigger mode: 0
Integration Time (sec): 3.180400E-1
Scans to average: 20
Electric dark correction enabled: true
Nonlinearity correction enabled: true
Boxcar width: 5
XAxis mode: Wavelengths
Number of Pixels in Spectrum: 2048
>>>>>Begin Spectral Data<<<<<
187.83	18.2
188.298	-7.13
188.766	0.26
189.233	-5.3
189.701	11.2
190.169	22.54
190.636	17.27
191.104	3.31
191.571	-53.69
192.039	51.62
192.506	179.35
192.974	3305.03
193.441	186.46
193.908	-0.03
194.375	-96.33
194.842	-32.16
195.31	50.17
195.777	109.3
196.244	87.59
196.711	72.5
197.177	68.27
197.644	68.25
198.111	68.21
198.578	68.42
199.045	69.48
199.511	69.85
199.978	69.83
200.445	69.85
200.911	69.31
201.378	69.29
201.844	70.43
202.31	71.26
202.777	71.36
203.243	71.6
203.709	71.69
204.176	71.03
204.642	70.59
205.108	70.02
205.574	69.63
206.04	69.31
206.506	68.74
206.972	67.46
207.438	66.54
207.903	65.81
208.369	64.38
208.835	63.5
209.301	62.64
209.766	61.17
210.232	60.48
210.697	59.49
211.163	58.42
211.628	57.05
212.094	56.09
212.559	54.99
213.024	53.88
213.49	52.84
213.955	51.39
214.42	49.84
214.885	48.46
215.35	46.28
215.815	43.5
216.28	40.78
216.745	37.77
217.21	34.41
217.675	31.25
218.14	28.36
218.604	25.84
219.069	23.78
219.534	22.02
219.998	20.46
220.463	19.19
220.927	18.12
221.392	17.13
221.856	16.31
222.32	15.65
222.785	15.08
223.249	14.57
223.713	14.12
224.177	13.67
224.642	13.29
225.106	12.95
225.57	12.62
226.034	12.32
226.497	12.02
226.961	11.72
227.425	11.45
227.889	11.2
228.353	10.95
228.816	10.74
229.28	10.52
229.744	10.33
230.207	10.16
230.671	9.97
231.134	9.8
231.597	9.65
232.061	9.52
232.524	9.39
232.987	9.26
233.45	9.14
233.914	9.03
234.377	8.9
234.84	8.79
235.303	8.68
235.766	8.58
236.229	8.49
236.691	8.4
237.154	8.32
237.617	8.24
238.08	8.15
238.542	8.07
239.005	7.98
239.468	7.91
239.93	7.83
240.393	7.74
240.855	7.67
241.317	7.61
241.78	7.56
242.242	7.47
242.704	7.39
243.166	7.35
243.629	7.29
244.091	7.23
244.553	7.18
245.015	7.13
245.477	7.07
245.939	7.01
246.4	6.93
246.862	6.86
247.324	6.82
247.786	6.77
248.247	6.7
248.709	6.64
249.17	6.59
249.632	6.54
250.093	6.47
250.555	6.43
251.016	6.38
251.477	6.35
251.939	6.3
252.4	6.26
252.861	6.22
253.322	6.18
253.783	6.16
254.244	6.11
254.705	6.07
255.166	6.05
255.627	6.01
256.088	5.96
256.549	5.92
257.009	5.88
257.47	5.85
257.931	5.81
258.391	5.75
258.852	5.71
259.312	5.67
259.773	5.62
260.233	5.58
260.694	5.54
261.154	5.5
261.614	5.46
262.074	5.42
262.534	5.37
262.994	5.33
263.455	5.3
263.915	5.26
264.374	5.22
264.834	5.2
265.294	5.17
265.754	5.13
266.214	5.11
266.673	5.09
267.133	5.06
267.593	5.04
268.052	5.01
268.512	4.99
268.971	4.98
269.431	4.96
269.89	4.95
270.349	4.94
270.809	4.92
271.268	4.91
271.727	4.89
272.186	4.88
272.645	4.87
273.104	4.86
273.563	4.85
274.022	4.83
274.481	4.82
274.94	4.8
275.399	4.79
275.857	4.78
276.316	4.77
276.775	4.75
277.233	4.74
277.692	4.73
278.15	4.72
278.609	4.71
279.067	4.7
279.525	4.68
279.984	4.68
280.442	4.68
280.9	4.67
281.358	4.66
281.816	4.65
282.274	4.65
282.732	4.65
283.19	4.65
283.648	4.65
284.106	4.65
284.564	4.65
285.021	4.65
285.479	4.63
285.937	4.62
286.394	4.62
286.852	4.63
287.309	4.62
287.767	4.6
288.224	4.58
288.682	4.57
289.139	4.56
289.596	4.55
290.053	4.53
290.511	4.52
290.968	4.5
291.425	4.48
291.882	4.46
292.339	4.44
292.796	4.42
293.252	4.41
293.709	4.39
294.166	4.38
294.623	4.36
295.079	4.35
295.536	4.34
295.992	4.33
296.449	4.32
296.905	4.31
297.362	4.3
297.818	4.29
298.274	4.29
298.731	4.28
299.187	4.27
299.643	4.26
300.099	4.26
300.555	4.25
301.011	4.25
301.467	4.25
301.923	4.25
302.379	4.25
302.835	4.25
303.291	4.24
303.746	4.24
304.202	4.23
304.658	4.24
305.113	4.24
305.569	4.24
306.024	4.24
306.479	4.24
306.935	4.23
307.39	4.24
307.845	4.23
308.301	4.25
308.756	4.26
309.211	4.27
309.666	4.27
310.121	4.27
310.576	4.27
311.031	4.27
311.486	4.28
311.94	4.27
312.395	4.27
312.85	4.27
313.305	4.27
313.759	4.27
314.214	4.27
314.668	4.27
315.123	4.28
315.577	4.28
316.032	4.27
316.486	4.27
316.94	4.26
317.394	4.26
317.849	4.26
318.303	4.25
318.757	4.23
319.211	4.22
319.665	4.21
320.119	4.2
320.572	4.19
321.026	4.18
321.48	4.17
321.934	4.17
322.387	4.16
322.841	4.15
323.295	4.15
323.748	4.15
324.202	4.14
324.655	4.14
325.108	4.14
325.562	4.13
326.015	4.12
326.468	4.11
326.921	4.11
327.374	4.11
327.827	4.11
328.28	4.09
328.733	4.09
329.186	4.09
329.639	4.08
330.092	4.08
330.545	4.08
330.997	4.09
331.45	4.09
331.903	4.09
332.355	4.08
332.808	4.08
333.26	4.1
333.713	4.12
334.165	4.12
334.617	4.13
335.069	4.14
335.522	4.15
335.974	4.15
336.426	4.15
336.878	4.16
337.33	4.17
337.782	4.18
338.234	4.18
338.686	4.17
339.137	4.17
339.589	4.16
340.041	4.15
340.493	4.13
340.944	4.12
341.396	4.12
341.847	4.1
342.299	4.09
342.75	4.07
343.201	4.05
343.653	4.03
344.104	4.01
344.555	4
345.006	3.98
345.457	3.98
345.908	3.96
346.359	3.96
346.81	3.96
347.261	3.94
347.712	3.95
348.163	3.95
348.613	3.95
349.064	3.93
349.515	3.93
349.965	3.93
350.416	3.92
350.866	3.93
351.317	3.91
351.767	3.91
352.217	3.91
352.668	3.9
353.118	3.91
353.568	3.91
354.018	3.92
354.468	3.92
354.918	3.93
355.368	3.94
355.818	3.93
356.268	3.94
356.718	3.94
357.168	3.94
357.617	3.94
358.067	3.93
358.517	3.93
358.966	3.94
359.416	3.94
359.865	3.94
360.315	3.94
360.764	3.95
361.213	3.95
361.663	3.96
362.112	3.97
362.561	3.97
363.01	3.98
363.459	3.99
363.908	4
364.357	4
364.806	4.01
365.255	4.03
365.703	4.03
366.152	4.04
366.601	4.04
367.05	4.06
367.498	4.08
367.947	4.1
368.395	4.12
368.844	4.14
369.292	4.15
369.74	4.18
370.189	4.19
370.637	4.22
371.085	4.24
371.533	4.26
371.981	4.28
372.429	4.3
372.877	4.32
373.325	4.35
373.773	4.36
374.221	4.39
374.669	4.43
375.116	4.45
375.564	4.48
376.012	4.53
376.459	4.56
376.907	4.61
377.354	4.64
377.801	4.68
378.249	4.73
378.696	4.78
379.143	4.82
379.591	4.85
380.038	4.9
380.485	4.93
380.932	4.96
381.379	4.99
381.826	5.03
382.273	5.07
382.72	5.11
383.166	5.14
383.613	5.18
384.06	5.21
384.506	5.25
384.953	5.28
385.4	5.31
385.846	5.35
386.292	5.39
386.739	5.4
387.185	5.45
387.631	5.48
388.078	5.51
388.524	5.53
388.97	5.56
389.416	5.58
389.862	5.61
390.308	5.63
390.754	5.67
391.2	5.7
391.645	5.73
392.091	5.75
392.537	5.77
392.983	5.8
393.428	5.83
393.874	5.86
394.319	5.88
394.765	5.89
395.21	5.89
395.655	5.9
396.101	5.91
396.546	5.92
396.991	5.92
397.436	5.9
397.881	5.91
398.326	5.91
398.771	5.92
399.216	5.93
399.661	5.95
400.106	5.97
400.551	5.97
400.995	5.95
401.44	5.94
401.885	5.94
402.329	5.94
402.774	5.93
403.218	5.91
403.663	5.89
404.107	5.88
404.551	5.88
404.995	5.87
405.44	5.86
405.884	5.86
406.328	5.86
406.772	5.86
407.216	5.86
407.66	5.87
408.104	5.88
408.547	5.88
408.991	5.87
409.435	5.85
409.879	5.84
410.322	5.85
410.766	5.84
411.209	5.84
411.653	5.82
412.096	5.81
412.54	5.81
412.983	5.8
413.426	5.82
413.869	5.83
414.312	5.85
414.756	5.87
415.199	5.88
415.642	5.91
416.085	5.92
416.527	5.93
416.97	5.95
417.413	5.92
417.856	5.92
418.298	5.88
418.741	5.87
419.184	5.85
419.626	5.82
420.069	5.8
420.511	5.78
420.953	5.77
421.396	5.77
421.838	5.76
422.28	5.78
422.722	5.79
423.164	5.8
423.606	5.81
424.048	5.81
424.49	5.82
424.932	5.83
425.374	5.82
425.816	5.81
426.258	5.79
426.699	5.77
427.141	5.73
427.582	5.72
428.024	5.71
428.465	5.72
428.907	5.74
429.348	5.72
429.789	5.71
430.231	5.71
430.672	5.73
431.113	5.75
431.554	5.77
431.995	5.81
432.436	5.82
432.877	5.81
433.318	5.8
433.759	5.79
434.2	5.82
434.64	5.84
435.081	5.84
435.522	5.85
435.962	5.85
436.403	5.87
436.843	5.87
437.284	5.89
437.724	5.93
438.164	5.96
438.604	5.98
439.045	5.99
439.485	5.99
439.925	6
440.365	6.01
440.805	6.02
441.245	6.03
441.685	6.05
442.125	6.05
442.564	6.05
443.004	6.06
443.444	6.08
443.883	6.11
444.323	6.13
444.762	6.18
445.202	6.22
445.641	6.24
446.081	6.29
446.52	6.29
446.959	6.33
447.398	6.38
447.837	6.43
448.276	6.45
448.716	6.48
449.154	6.51
449.593	6.53
450.032	6.55
450.471	6.56
450.91	6.57
451.349	6.6
451.787	6.61
452.226	6.57
452.664	6.55
453.103	6.55
453.541	6.54
453.98	6.54
454.418	6.51
454.856	6.47
455.295	6.45
455.733	6.44
456.171	6.43
456.609	6.42
457.047	6.43
457.485	6.42
457.923	6.39
458.361	6.37
458.798	6.36
459.236	6.38
459.674	6.39
460.111	6.4
460.549	6.38
460.987	6.37
461.424	6.34
461.862	6.35
462.299	6.36
462.736	6.36
463.173	6.38
463.611	6.37
464.048	6.37
464.485	6.37
464.922	6.35
465.359	6.37
465.796	6.37
466.233	6.39
466.67	6.4
467.106	6.38
467.543	6.38
467.98	6.38
468.416	6.39
468.853	6.38
469.29	6.38
469.726	6.4
470.162	6.39
470.599	6.4
471.035	6.41
471.471	6.41
471.907	6.42
472.344	6.45
472.78	6.44
473.216	6.44
473.652	6.45
474.088	6.46
474.523	6.45
474.959	6.45
475.395	6.45
475.831	6.46
476.266	6.46
476.702	6.46
477.138	6.44
477.573	6.43
478.008	6.42
478.444	6.4
478.879	6.4
479.314	6.38
479.75	6.38
480.185	6.37
480.62	6.34
481.055	6.33
481.49	6.31
481.925	6.3
482.36	6.3
482.795	6.29
483.229	6.3
483.664	6.28
484.099	6.28
484.534	6.27
484.968	6.27
485.403	6.27
485.837	6.27
486.271	6.27
486.706	6.28
487.14	6.3
487.574	6.32
488.009	6.33
488.443	6.35
488.877	6.38
489.311	6.41
489.745	6.43
490.179	6.47
490.613	6.51
491.046	6.56
491.48	6.61
491.914	6.63
492.348	6.68
492.781	6.72
493.215	6.78
493.648	6.83
494.082	6.88
494.515	6.95
494.948	7.01
495.382	7.07
495.815	7.15
496.248	7.22
496.681	7.3
497.114	7.38
497.547	7.48
497.98	7.57
498.413	7.67
498.846	7.77
499.279	7.88
499.711	7.99
500.144	8.09
500.577	8.2
501.009	8.31
501.442	8.43
501.874	8.56
502.306	8.7
502.739	8.83
503.171	8.99
503.603	9.14
504.036	9.3
504.468	9.48
504.9	9.67
505.332	9.84
505.764	10.04
506.196	10.23
506.627	10.43
507.059	10.63
507.491	10.84
507.923	11.06
508.354	11.28
508.786	11.5
509.217	11.72
509.649	11.95
510.08	12.21
510.512	12.45
510.943	12.7
511.374	12.96
511.805	13.22
512.237	13.49
512.668	13.76
513.099	14.04
513.53	14.33
513.961	14.62
514.391	14.9
514.822	15.18
515.253	15.47
515.684	15.76
516.114	16.05
516.545	16.32
516.975	16.61
517.406	16.91
517.836	17.18
518.267	17.46
518.697	17.74
519.127	18.01
519.558	18.29
519.988	18.57
520.418	18.85
520.848	19.13
521.278	19.41
521.708	19.54
522.138	19.79
522.567	20.04
522.997	20.28
523.427	20.52
523.857	20.77
524.286	20.99
524.716	21.22
525.145	21.44
525.575	21.63
526.004	21.84
526.433	22.16
526.863	22.37
527.292	22.55
527.721	22.74
528.15	22.9
528.579	23.07
529.008	23.24
529.437	23.39
529.866	23.52
530.295	23.67
530.724	23.81
531.152	23.94
531.581	24.05
532.01	24.15
532.438	24.25
532.867	24.34
533.295	24.43
533.723	24.52
534.152	24.62
534.58	24.69
535.008	24.73
535.436	24.78
535.865	24.83
536.293	24.9
536.721	24.96
537.149	25.02
537.576	25.07
538.004	25.11
538.432	25.12
538.86	25.14
539.287	25.18
539.715	25.24
540.143	25.27
540.57	25.3
540.998	25.34
541.425	25.36
541.852	25.38
542.28	25.4
542.707	25.43
543.134	25.47
543.561	25.5
543.988	25.53
544.415	25.55
544.842	25.59
545.269	25.63
545.696	25.66
546.123	25.7
546.549	25.75
546.976	25.79
547.403	25.85
547.829	25.88
548.256	25.88
548.682	25.88
549.108	25.92
549.535	25.93
549.961	25.93
550.387	25.92
550.813	25.91
551.24	25.93
551.666	25.93
552.092	25.92
552.518	25.92
552.943	25.95
553.369	25.97
553.795	25.95
554.221	25.93
554.646	25.93
555.072	25.93
555.498	25.9
555.923	25.87
556.349	25.83
556.774	25.78
557.199	25.74
557.625	25.67
558.05	25.61
558.475	25.54
558.9	25.5
559.325	25.43
559.75	25.34
560.175	25.26
560.6	25.16
561.025	25.07
561.449	24.97
561.874	24.88
562.299	24.79
562.723	24.69
563.148	24.59
563.572	24.47
563.997	24.34
564.421	24.22
564.846	24.09
565.27	23.94
565.694	23.8
566.118	23.68
566.542	23.55
566.966	23.4
567.39	23.23
567.814	23.08
568.238	22.92
568.662	22.77
569.086	22.62
569.509	22.49
569.933	22.34
570.357	22.19
570.78	22.02
571.204	21.86
571.627	21.72
572.05	21.58
572.474	21.43
572.897	21.31
573.32	21.18
573.743	21.06
574.166	20.92
574.589	20.81
575.012	20.7
575.435	20.59
575.858	20.46
576.281	20.36
576.704	20.27
577.126	20.18
577.549	20.09
577.972	20
578.394	19.88
578.817	19.78
579.239	19.7
579.661	19.62
580.084	19.56
580.506	19.48
580.928	19.4
581.35	19.31
581.772	19.25
582.194	19.17
582.616	19.1
583.038	19.07
583.46	19.01
583.882	18.95
584.303	18.89
584.725	18.82
585.147	18.76
585.568	18.7
585.99	18.65
586.411	18.58
586.833	18.53
587.254	18.47
587.675	18.39
588.096	18.34
588.518	18.29
588.939	18.23
589.36	18.17
589.781	18.13
590.202	18.09
590.623	18.04
591.043	18.01
591.464	17.95
591.885	17.91
592.305	17.88
592.726	17.84
593.147	17.81
593.567	17.78
593.987	17.75
594.408	17.71
594.828	17.68
595.248	17.65
595.669	17.62
596.089	17.58
596.509	17.53
596.929	17.49
597.349	17.46
597.769	17.41
598.189	17.38
598.608	17.33
599.028	17.29
599.448	17.25
599.867	17.21
600.287	17.16
600.706	17.12
601.126	17.08
601.545	17.04
601.965	16.99
602.384	16.96
602.803	16.88
603.222	16.83
603.641	16.78
604.061	16.72
604.48	16.66
604.898	16.59
605.317	16.54
605.736	16.49
606.155	16.42
606.574	16.35
606.992	16.26
607.411	16.2
607.829	16.09
608.248	16.01
608.666	15.94
609.085	15.85
609.503	15.78
609.921	15.71
610.339	15.63
610.758	15.54
611.176	15.47
611.594	15.41
612.012	15.34
612.43	15.31
612.847	15.23
613.265	15.17
613.683	15.1
614.101	15.02
614.518	14.94
614.936	14.87
615.353	14.8
615.771	14.72
616.188	14.66
616.606	14.6
617.023	14.53
617.44	14.48
617.857	14.42
618.274	14.37
618.691	14.33
619.108	14.29
619.525	14.25
619.942	14.21
620.359	14.19
620.776	14.15
621.192	14.12
621.609	14.08
622.026	14.06
622.442	14.03
622.859	14.01
623.275	13.99
623.691	13.98
624.108	13.98
624.524	13.97
624.94	13.95
625.356	13.94
625.772	13.93
626.188	13.93
626.604	13.91
627.02	13.89
627.436	13.87
627.852	13.84
628.268	13.83
628.683	13.8
629.099	13.78
629.514	13.75
629.93	13.72
630.345	13.68
630.761	13.63
631.176	13.61
631.591	13.57
632.007	13.53
632.422	13.49
632.837	13.43
633.252	13.37
633.667	13.3
634.082	13.24
634.497	13.15
634.911	13.06
635.326	12.95
635.741	12.84
636.155	12.74
636.57	12.63
636.984	12.5
637.399	12.36
637.813	12.23
638.228	12.1
638.642	11.97
639.056	11.85
639.47	11.74
639.884	11.62
640.298	11.48
640.712	11.34
641.126	11.2
641.54	11.08
641.954	10.97
642.368	10.84
642.781	10.72
643.195	10.58
643.609	10.46
644.022	10.33
644.436	10.23
644.849	10.12
645.262	10.03
645.676	9.92
646.089	9.81
646.502	9.72
646.915	9.62
647.328	9.54
647.741	9.46
648.154	9.39
648.567	9.33
648.98	9.28
649.393	9.23
649.805	9.17
650.218	9.13
650.631	9.1
651.043	9.06
651.456	9.03
651.868	8.99
652.28	8.97
652.693	8.92
653.105	8.89
653.517	8.84
653.929	8.79
654.341	8.75
654.753	8.69
655.165	8.63
655.577	8.57
655.989	8.51
656.401	8.42
656.813	8.35
657.224	8.28
657.636	8.2
658.047	8.11
658.459	8.01
658.87	7.92
659.282	7.86
659.693	7.76
660.104	7.67
660.515	7.58
660.926	7.51
661.338	7.43
661.749	7.34
662.159	7.25
662.57	7.16
662.981	7.09
663.392	7.02
663.803	6.95
664.213	6.88
664.624	6.82
665.035	6.74
665.445	6.69
665.855	6.63
666.266	6.59
666.676	6.54
667.086	6.51
667.497	6.47
667.907	6.44
668.317	6.4
668.727	6.39
669.137	6.36
669.547	6.36
669.956	6.34
670.366	6.34
670.776	6.33
671.186	6.34
671.595	6.34
672.005	6.35
672.414	6.37
672.824	6.39
673.233	6.4
673.642	6.42
674.052	6.44
674.461	6.45
674.87	6.48
675.279	6.51
675.688	6.53
676.097	6.55
676.506	6.58
676.915	6.61
677.323	6.66
677.732	6.71
678.141	6.77
678.549	6.83
678.958	6.91
679.366	6.97
679.775	7.06
680.183	7.15
680.592	7.25
681	7.36
681.408	7.5
681.816	7.63
682.224	7.78
682.632	7.95
683.04	8.11
683.448	8.29
683.856	8.51
684.264	8.75
684.671	8.99
685.079	9.27
685.487	9.56
685.894	9.86
686.302	10.18
686.709	10.53
687.116	10.9
687.524	11.31
687.931	11.74
688.338	12.19
688.745	12.65
689.152	13.14
689.559	13.63
689.966	14.15
690.373	14.69
690.78	15.24
691.187	15.81
691.593	16.38
692	16.97
692.407	17.55
692.813	18.13
693.22	18.71
693.626	19.28
694.032	19.9
694.439	20.49
694.845	21.05
695.251	21.65
695.657	22.21
696.063	22.78
696.469	23.33
696.875	23.87
697.281	24.4
697.687	24.95
698.093	25.5
698.498	26
698.904	26.51
699.31	27.02
699.715	27.5
700.12	27.95
700.526	28.42
700.931	28.87
701.337	29.32
701.742	29.76
702.147	30.18
702.552	30.61
702.957	31.02
703.362	31.43
703.767	31.82
704.172	32.2
704.577	32.59
704.981	32.97
705.386	33.33
705.791	33.72
706.195	34.06
706.6	34.4
707.004	34.72
707.408	35.05
707.813	35.35
708.217	35.68
708.621	36.01
709.025	36.34
709.43	36.61
709.834	36.92
710.237	37.16
710.641	37.46
711.045	37.72
711.449	38.02
711.853	38.29
712.256	38.56
712.66	38.82
713.064	39.05
713.467	39.28
713.87	39.54
714.274	39.8
714.677	40.05
715.08	40.27
715.484	40.52
715.887	40.74
716.29	40.95
716.693	41.17
717.096	41.37
717.499	41.6
717.901	41.81
718.304	42.01
718.707	42.16
719.109	42.37
719.512	42.58
719.915	42.78
720.317	42.97
720.719	43.12
721.122	43.28
721.524	43.46
721.926	43.61
722.328	43.79
722.731	43.94
723.133	44.11
723.535	44.26
723.937	44.36
724.338	44.46
724.74	44.58
725.142	44.69
725.544	44.8
725.945	44.91
726.347	45.02
726.748	45.11
727.15	45.19
727.551	45.29
727.952	45.36
728.354	45.49
728.755	45.59
729.156	45.68
729.557	45.8
729.958	45.91
730.359	45.98
730.76	46.04
731.161	46.11
731.562	46.21
731.962	46.26
732.363	46.32
732.763	46.38
733.164	46.42
733.564	46.46
733.965	46.51
734.365	46.53
734.766	46.59
735.166	46.62
735.566	46.65
735.966	46.64
736.366	46.67
736.766	46.74
737.166	46.77
737.566	46.8
737.966	46.85
738.365	46.88
738.765	46.91
739.165	46.94
739.564	47.01
739.964	47.04
740.363	47.11
740.763	47.14
741.162	47.15
741.561	47.18
741.96	47.21
742.36	47.25
742.759	47.28
743.158	47.28
743.557	47.32
743.955	47.33
744.354	47.38
744.753	47.41
745.152	47.42
745.55	47.47
745.949	47.47
746.348	47.52
746.746	47.51
747.144	47.56
747.543	47.62
747.941	47.65
748.339	47.67
748.737	47.71
749.136	47.71
749.534	47.76
749.932	47.76
750.33	47.8
750.727	47.81
751.125	47.81
751.523	47.79
751.921	47.77
752.318	47.77
752.716	47.73
753.113	47.69
753.511	47.66
753.908	47.64
754.305	47.62
754.703	47.57
755.1	47.55
755.497	47.55
755.894	47.52
756.291	47.5
756.688	47.46
757.085	47.45
757.482	47.47
757.878	47.52
758.275	47.5
758.672	47.52
759.068	47.53
759.465	47.51
759.861	47.48
760.258	47.48
760.654	47.49
761.05	47.5
761.447	47.52
761.843	47.48
762.239	47.46
762.635	47.47
763.031	47.47
763.427	47.45
763.822	47.43
764.218	47.46
764.614	47.47
765.01	47.43
765.405	47.43
765.801	47.41
766.196	47.42
766.592	47.4
766.987	47.39
767.382	47.38
767.778	47.4
768.173	47.43
768.568	47.37
768.963	47.38
769.358	47.4
769.753	47.41
770.148	47.4
770.542	47.4
770.937	47.43
771.332	47.41
771.726	47.39
772.121	47.39
772.515	47.37
772.91	47.42
773.304	47.41
773.699	47.4
774.093	47.37
774.487	47.42
774.881	47.41
775.275	47.41
775.669	47.43
776.063	47.43
776.457	47.4
776.851	47.39
777.245	47.4
777.638	47.42
778.032	47.44
778.425	47.46
778.819	47.46
779.212	47.46
779.606	47.42
779.999	47.42
780.392	47.42
780.786	47.42
781.179	47.47
781.572	47.47
781.965	47.46
782.358	47.43
782.751	47.46
783.143	47.47
783.536	47.53
783.929	47.58
784.322	47.61
784.714	47.62
785.107	47.66
785.499	47.66
785.891	47.68
786.284	47.68
786.676	47.72
787.068	47.71
787.46	47.69
787.852	47.68
788.245	47.67
788.636	47.67
789.028	47.68
789.42	47.66
789.812	47.7
790.204	47.66
790.595	47.65
790.987	47.65
791.378	47.67
791.77	47.71
792.161	47.69
792.553	47.71
792.944	47.72
793.335	47.72
793.726	47.73
794.117	47.72
794.508	47.79
794.899	47.81
795.29	47.82
795.681	47.81
796.072	47.82
796.463	47.82
796.853	47.81
797.244	47.78
797.634	47.79
798.025	47.83
798.415	47.83
798.806	47.83
799.196	47.87
799.586	47.86
799.976	47.86
800.366	47.82
800.756	47.86
801.146	47.86
801.536	47.89
801.926	47.91
802.316	47.93
802.706	47.93
803.095	47.94
803.485	47.97
803.874	47.99
804.264	48.04
804.653	48.04
805.043	48.08
805.432	48.08
805.821	48.08
806.21	48.13
806.599	48.14
806.988	48.15
807.377	48.18
807.766	48.16
808.155	48.17
808.544	48.16
808.933	48.21
809.321	48.21
809.71	48.27
810.098	48.28
810.487	48.28
810.875	48.27
811.264	48.3
811.652	48.31
812.04	48.32
812.428	48.35
812.816	48.36
813.204	48.36
813.592	48.35
813.98	48.33
814.368	48.31
814.756	48.31
815.144	48.32
815.531	48.32
815.919	48.3
816.306	48.28
816.694	48.28
817.081	48.29
817.469	48.31
817.856	48.34
818.243	48.36
818.63	48.44
819.017	48.49
819.404	48.48
819.791	48.46
820.178	48.48
820.565	48.52
820.952	48.51
821.339	48.52
821.725	48.55
822.112	48.55
822.498	48.54
822.885	48.5
823.271	48.51
823.657	48.52
824.044	48.5
824.43	48.52
824.816	48.48
825.202	48.47
825.588	48.47
825.974	48.45
826.36	48.43
826.746	48.44
827.132	48.41
827.517	48.37
827.903	48.35
828.289	48.39
828.674	48.34
829.06	48.38
829.445	48.4
829.83	48.37
830.216	48.38
830.601	48.39
830.986	48.39
831.371	48.43
831.756	48.39
832.141	48.4
832.526	48.37
832.911	48.4
833.295	48.38
833.68	48.38
834.065	48.38
834.449	48.33
834.834	48.32
835.218	48.29
835.603	48.28
835.987	48.3
836.371	48.28
836.755	48.26
837.139	48.24
837.524	48.21
837.908	48.17
838.291	48.16
838.675	48.16
839.059	48.14
839.443	48.14
839.827	48.1
840.21	48.13
840.594	48.11
840.977	48.11
841.361	48.09
841.744	48.1
842.127	48.09
842.511	48.08
842.894	48.06
843.277	48.06
843.66	48.06
844.043	48.06
844.426	48
844.809	48.02
845.191	48
845.574	47.99
845.957	47.97
846.339	47.96
846.722	47.98
847.104	48.01
847.487	48.01
847.869	47.99
848.252	48.01
848.634	48.02
849.016	48.03
849.398	48.04
849.78	48.04
850.162	48.07
850.544	48.08
850.926	48.05
851.307	48.05
851.689	48.01
852.071	48.01
852.452	48.01
852.834	48
853.215	48.01
853.597	48
853.978	47.99
854.359	47.97
854.741	47.97
855.122	47.96
855.503	47.95
855.884	47.96
856.265	47.96
856.646	47.94
857.026	47.96
857.407	47.92
857.788	47.94
858.169	47.97
858.549	47.98
858.93	47.96
859.31	47.96
859.69	47.98
860.071	48.01
860.451	48.01
860.831	48.03
861.211	48.03
861.591	48.05
861.971	48.03
862.351	48.01
862.731	48.02
863.111	48.06
863.491	48.11
863.87	48.08
864.25	48.08
864.629	48.07
865.009	48.05
865.388	48.03
865.768	48.01
866.147	48.03
866.526	48.04
866.905	48.03
867.284	48
867.663	47.97
868.042	47.98
868.421	47.99
868.8	48.01
869.179	48.02
869.558	48
869.936	48.03
870.315	48.01
870.693	48.02
871.072	48
871.45	47.99
871.828	47.98
872.207	47.98
872.585	47.98
872.963	47.92
873.341	47.91
873.719	47.91
874.097	47.86
874.475	47.83
874.853	47.82
875.23	47.85
875.608	47.83
875.986	47.84
876.363	47.83
876.741	47.8
877.118	47.84
877.495	47.83
877.873	47.82
878.25	47.84
878.627	47.85
879.004	47.84
879.381	47.84
879.758	47.84
880.135	47.83
880.512	47.85
880.889	47.87
881.265	47.88
881.642	47.89
882.019	47.9
882.395	47.9
882.772	47.86
883.148	47.87
883.524	47.88
883.901	47.9
884.277	47.88
884.653	47.87
885.029	47.83
885.405	47.81
885.781	47.82
886.157	47.83
886.532	47.83
886.908	47.88
887.284	47.88
887.659	47.87
888.035	47.84
888.411	47.85
888.786	47.81
889.161	47.82
889.537	47.82
889.912	47.78
890.287	47.75
890.662	47.71
891.037	47.63
891.412	47.6
891.787	47.55
892.162	47.55
892.536	47.5
892.911	47.49
893.286	47.45
893.66	47.42
894.035	47.4
894.409	47.39
894.784	47.4
895.158	47.42
895.532	47.41
895.906	47.4
896.281	47.37
896.655	47.33
897.029	47.32
897.402	47.33
897.776	47.33
898.15	47.36
898.524	47.33
898.898	47.29
899.271	47.27
899.645	47.27
900.018	47.24
900.392	47.27
900.765	47.33
901.138	47.35
901.511	47.32
901.884	47.32
902.258	47.29
902.631	47.32
903.003	47.35
903.376	47.36
903.749	47.36
904.122	47.4
904.495	47.4
904.867	47.39
905.24	47.36
905.612	47.37
905.985	47.36
906.357	47.38
906.729	47.36
907.102	47.37
907.474	47.41
907.846	47.4
908.218	47.4
908.59	47.41
908.962	47.39
909.334	47.38
909.705	47.42
910.077	47.43
910.449	47.43
910.82	47.45
911.192	47.43
911.563	47.42
911.935	47.42
912.306	47.4
912.677	47.41
913.048	47.43
913.419	47.47
913.79	47.46
914.161	47.45
914.532	47.43
914.903	47.43
915.274	47.45
915.645	47.48
916.015	47.52
916.386	47.53
916.756	47.52
917.127	47.54
917.497	47.53
917.868	47.54
918.238	47.55
918.608	47.58
918.978	47.56
919.348	47.53
919.718	47.52
920.088	47.51
920.458	47.54
920.828	47.57
921.198	47.54
921.567	47.55
921.937	47.55
922.306	47.53
922.676	47.56
923.045	47.58
923.415	47.6
923.784	47.59
924.153	47.61
924.522	47.62
924.891	47.57
925.26	47.58
925.629	47.6
925.998	47.57
926.367	47.56
926.736	47.52
927.104	47.53
927.473	47.53
927.842	47.5
928.21	47.48
928.578	47.45
928.947	47.44
929.315	47.46
929.683	47.46
930.051	47.5
930.42	47.48
930.788	47.49
931.156	47.46
931.523	47.44
931.891	47.39
932.259	47.33
932.627	47.28
932.994	47.24
933.362	47.15
933.729	47.06
934.097	46.99
934.464	46.96
934.831	46.88
935.199	46.85
935.566	46.79
935.933	46.81
936.3	46.8
936.667	46.83
937.034	46.81
937.401	46.77
937.767	46.79
938.134	46.86
938.501	46.88
938.867	46.93
939.234	46.98
939.6	47.05
939.967	47.13
940.333	47.21
940.699	47.32
941.065	47.43
941.431	47.58
941.798	47.7
942.163	47.78
942.529	47.93
942.895	48.06
943.261	48.15
943.627	48.33
943.992	48.39
944.358	48.46
944.723	48.51
945.089	48.58
945.454	48.7
945.82	48.67
946.185	48.7
946.55	48.75
946.915	48.7
947.28	48.69
947.645	48.65
948.01	48.66
948.375	48.65
948.74	48.55
949.104	48.51
949.469	48.38
949.834	48.37
950.198	48.23
950.562	48.12
950.927	48.08
951.291	48.03
951.655	47.93
952.02	47.83
952.384	47.75
952.748	47.68
953.112	47.64
953.476	47.58
953.839	47.54
954.203	47.49
954.567	47.47
954.931	47.46
955.294	47.37
955.658	47.35
956.021	47.28
956.385	47.29
956.748	47.31
957.111	47.23
957.474	47.24
957.837	47.25
958.2	47.22
958.563	47.17
958.926	47.13
959.289	47.15
959.652	47.12
960.015	47.13
960.377	47.07
960.74	46.97
961.102	46.93
961.465	46.91
961.827	46.82
962.189	46.79
962.552	46.73
962.914	46.66
963.276	46.57
963.638	46.52
964	46.45
964.362	46.45
964.724	46.53
965.085	46.57
965.447	46.49
965.809	46.43
966.17	46.4
966.532	46.41
966.893	46.45
967.255	46.46
967.616	46.58
967.977	46.62
968.338	46.61
968.699	46.59
969.061	46.51
969.421	46.58
969.782	46.63
970.143	46.72
970.504	46.73
970.865	46.75
971.225	46.79
971.586	46.73
971.946	46.71
972.307	46.67
972.667	46.61
973.027	46.7
973.388	46.65
973.748	46.65
974.108	46.55
974.468	46.52
974.828	46.52
975.188	46.54
975.548	46.5
975.907	46.55
976.267	46.55
976.627	46.61
976.986	46.57
977.346	46.6
977.705	46.61
978.064	46.73
978.424	46.74
978.783	46.75
979.142	46.7
979.501	46.72
979.86	46.73
980.219	46.7
980.578	46.69
980.937	46.74
981.296	46.78
981.654	46.77
982.013	46.82
982.371	46.78
982.73	46.75
983.088	46.72
983.447	46.74
983.805	46.72
984.163	46.79
984.521	46.73
984.879	46.69
985.237	46.69
985.595	46.81
985.953	46.7
986.311	46.82
986.669	46.93
987.026	46.98
987.384	46.97
987.741	47.01
988.099	47.03
988.456	47.14
988.814	47.14
989.171	47.19
989.528	47.06
989.885	47.02
990.242	46.99
990.599	46.93
990.956	47.1
991.313	47.12
991.67	47.08
992.027	47.07
992.383	47.09
992.74	47.23
993.096	47.21
993.453	47.31
993.809	47.46
994.165	47.52
994.522	47.49
994.878	47.33
995.234	47.35
995.59	47.32
995.946	47.4
996.302	47.35
996.658	47.25
997.013	47.35
997.369	47.49
997.725	47.64
998.08	47.66
998.436	47.88
998.791	47.81
999.147	47.82
999.502	48.03
999.857	48.2
1000.212	48.29
1000.567	48.36
1000.922	48.38
1001.277	48.4
1001.632	48.31
1001.987	48.36
1002.342	48.31
1002.696	48.58
1003.051	48.72
1003.406	48.58
1003.76	48.4
1004.114	48.56
1004.469	48.5
1004.823	48.61
1005.177	48.53
1005.531	48.5
1005.885	48.48
1006.239	48.51
1006.593	48.56
1006.947	48.48
1007.301	48.71
1007.655	48.78
1008.008	48.64
1008.362	48.81
1008.715	48.68
1009.069	48.62
1009.422	48.71
1009.776	48.98
1010.129	48.79
1010.482	48.76
1010.835	48.89
1011.188	48.8
1011.541	48.77
1011.894	48.91
1012.247	48.94
1012.6	49.1
1012.952	49.27
1013.305	49.21
1013.657	49.09
1014.01	49.57
1014.362	49.69
1014.715	49.6
1015.067	49.66
1015.419	49.82
1015.771	49.98
1016.123	50.03
1016.475	50.15
1016.827	50.4
1017.179	50.74
1017.531	50.69
1017.883	50.53
1018.234	50.84
1018.586	51.15
1018.938	51.13
1019.289	51.2
1019.64	51.57
1019.992	51.9
1020.343	51.75
1020.694	51.65
1021.045	51.61
1021.396	51.87
1021.747	52.13
1022.098	52.19
1022.449	52.34
1022.8	52.66
1023.151	52.64
1023.501	52.37
1023.852	52.32
1024.202	52.7
1024.553	52.88
1024.903	52.95
1025.253	52.78
1025.604	52.91
1025.954	52.58
1026.304	52.96
1026.654	53.17
1027.004	53.62
1027.354	53.63
1027.703	53.81
1028.053	53.73
1028.403	53.71
1028.753	53.98
1029.102	54.59
1029.452	54.81
1029.801	55.46
1030.15	55.21
1030.499	55.32
897.758	634.21
901.051	655.95
904.343	656.19
907.636	643.84
910.928	636.95
914.22	644.67
917.511	630.09
920.803	598.85
924.094	575.64
927.384	579.97
930.675	564.44
933.965	561.22
937.255	554.08
940.544	531.74
943.834	513.26
947.123	502.16
950.411	477.14
953.7	469.4
956.988	456.41
960.276	435.8
963.563	429.83
966.851	404.96
970.138	397.7
973.424	371.52
976.711	366.51
979.997	349.24
983.283	342.07
986.568	330.17
989.853	320.67
993.138	310.81
996.423	304.55
999.708	294.96
1002.992	296.5
1006.275	286.91
1009.559	283.32
1012.842	275.48
1016.125	269.1
1019.408	263.61
1022.69	260.55
1025.972	258.45
1029.254	250.57
1032.536	246.57
1035.817	239.24
1039.098	234.24
1042.379	230.01
1045.659	225.81
1048.939	223.83
1052.219	219.29
1055.498	215.26
1058.778	212.33
1062.057	207.76
1065.335	207.04
1068.614	203.72
1071.892	201.34
1075.17	197.32
1078.447	193.53
1081.724	193.99
1085.001	188.8
1088.278	189.32
1091.554	187.66
1094.83	186.25
1098.106	183.85
1101.382	182.47
1104.657	180.9
1107.932	179.14
1111.206	178.87
1114.481	177.66
1117.755	175.61
1121.029	175.2
1124.302	172.08
1127.575	169.23
1130.848	168.76
1134.121	166.81
1137.393	166.33
1140.665	165.59
1143.937	164.71
1147.208	161.96
1150.48	160.24
1153.75	159.31
1157.021	158.05
1160.291	156.54
1163.561	157.04
1166.831	155.1
1170.101	154.28
1173.37	153.11
1176.639	151.62
1179.907	151.99
1183.176	151.88
1186.444	151.98
1189.711	150.65
1192.979	152.13
1196.246	152.5
1199.513	151.71
1202.78	152.55
1206.046	153.02
1209.312	153.66
1212.578	155.12
1215.843	156.15
1219.108	156.89
1222.373	159.75
1225.638	162.93
1228.902	165.54
1232.166	172.01
1235.43	174.75
1238.693	178.5
1241.956	182.97
1245.219	187.53
1248.482	188.09
1251.744	187.64
1255.006	188.87
1258.268	183.93
1261.529	181.78
1264.79	177.05
1268.051	172.72
1271.312	171.07
1274.572	168.37
1277.832	163.02
1281.092	161.57
1284.351	158.76
1287.61	158.73
1290.869	157.69
1294.128	157.18
1297.386	156.11
1300.644	156.18
1303.902	154.63
1307.159	154.61
1310.416	155.29
1313.673	158.18
1316.93	158.49
1320.186	161.01
1323.442	162.76
1326.697	165.72
1329.953	167.55
1333.208	173.63
1336.463	180.58
1339.717	184.67
1342.972	192.72
1346.226	197.2
1349.479	198.68
1352.733	207.8
1355.986	213.73
1359.238	218.47
1362.491	220.66
1365.743	228.69
1368.995	230.73
1372.247	233.7
1375.498	232.04
1378.749	240.62
1382	241.62
1385.251	240.55
1388.501	239.94
1391.751	241.68
1395	240.66
1398.25	244.13
1401.499	243.99
1404.748	243.92
1407.996	234.47
1411.244	236.15
1414.492	231.4
1417.74	226.76
1420.987	221.47
1424.234	216.95
1427.481	208.98
1430.728	203.59
1433.974	194.8
1437.22	187.88
1440.465	180.58
1443.711	175.82
1446.956	170.96
1450.201	163.92
1453.445	155.81
1456.689	151.46
1459.933	146.68
1463.177	140.66
1466.42	137.59
1469.663	133.96
1472.906	130.39
1476.148	127.42
1479.391	124.27
1482.633	121.19
1485.874	119.52
1489.115	118.37
1492.356	116.61
1495.597	114.87
1498.838	114.31
1502.078	113.15
1505.318	112.89
1508.557	111.79
1511.797	110.25
1515.036	109.79
1518.274	108.93
1521.513	107.4
1524.751	106.57
1527.989	107.4
1531.227	107.22
1534.464	106.29
1537.701	105.69
1540.938	104.65
1544.174	104.73
1547.41	104.54
1550.646	104.96
1553.882	105.16
1557.117	104.89
1560.352	104.31
1563.587	102.96
1566.821	102.66
1570.055	102.11
1573.289	101.73
1576.523	101.99
1579.756	101.21
1582.989	101.9
1586.222	100.72
1589.454	100.52
1592.686	100.58
1595.918	100.69
1599.15	100.31
1602.381	100.55
1605.612	100.84
1608.843	100.96
1612.073	100.99
1615.303	101.38
1618.533	100.6
1621.762	101.24
1624.992	101.25
1628.221	100.55
1631.449	101.25
1634.678	101.55
1637.906	101.39
1641.134	101.39
1644.361	101.09
1647.588	101.49
1650.815	101.48
1654.042	101.79
1657.269	101.47
1660.495	102.23
1663.72	102.58
1666.946	102.42
1670.171	102.73
1673.396	103.01
1676.621	103.29
1679.845	103.66
1683.069	103.58
1686.293	103.4
1689.517	103.71
1692.74	104.01
1695.963	103.84
1699.185	104.29
1702.408	104.11
1705.63	104.28
1708.852	105.11
1712.073	104.94
1715.294	104.92
1718.515	105.55
1721.736	105.82
1724.956	105.79
1728.176	105.78
1731.396	106.29
1734.616	106.18
1737.835	106.76
1741.054	106.09
1744.272	106.23
1747.491	106.43
1750.709	107.76
1753.927	107.74
1757.144	108.31
1760.361	108.87
1763.578	109.73
1766.795	110.02
1770.011	110.15
1773.227	110.25
1776.443	112.38
1779.658	112.02
1782.874	112.61
1786.089	111.69
1789.303	112.09
1792.518	113.56
1795.732	113.78
1798.945	114.51
1802.159	114.84
1805.372	117
1808.585	118.09
1811.797	117.88
1815.01	119.36
1818.222	120.67
1821.434	121.92
1824.645	122.29
1827.856	124.07
1831.067	125.19
1834.278	126.19
1837.488	127.22
1840.698	127.94
1843.908	128.29
1847.117	130.16
1850.326	131.34
1853.535	131.41
1856.744	133.5
1859.952	135.59
1863.16	134.72
1866.368	134.92
1869.575	136.07
1872.782	135.8
1875.989	135.05
1879.196	135.2
1882.402	134.11
1885.608	133.4
1888.814	133.76
1892.019	134.27
1895.224	132.1
1898.429	132.99
1901.634	133.25
1904.838	132.96
1908.042	134.38
1911.246	134.99
1914.449	135.18
1917.652	135.02
1920.855	136.1
1924.058	135.11
1927.26	134.88
1930.462	136.26
1933.664	135.59
1936.865	136.47
1940.066	134.41
1943.267	133.27
1946.467	134.3
1949.668	134.22
1952.868	134.68
1956.067	134.36
1959.267	136.22
1962.466	136.11
1965.665	137.55
1968.863	138.84
1972.061	137.84
1975.259	141.74
1978.457	143.14
1981.654	143.69
1984.852	145.49
1988.048	147.7
1991.245	148.97
1994.441	150.22
1997.637	154.52
2000.833	156.35
2004.028	157.05
2007.223	163.33
2010.418	165.73
2013.613	172.35
2016.807	176.41
2020.001	179.99
2023.194	185.12
2026.388	193.21
2029.581	203.65
2032.774	209.02
2035.966	215.75
2039.158	221.91
2042.35	225.64
2045.542	230.67
2048.733	241.81
2051.924	243.92
2055.115	247.29
2058.306	249.44
2061.496	253.75
2064.686	253.11
2067.875	251.88
2071.065	253.71
2074.254	254.8
2077.442	261.32
2080.631	264.5
2083.819	262.68
2087.007	268.88
2090.195	272.43
2093.382	272.99
2096.569	272.53
2099.756	278.52
2102.942	284.33
2106.128	290.16
2109.314	293.66
2112.5	293.76
2115.685	290.91
2118.87	292.11
2122.055	292.51
2125.239	299.06
2128.424	305.65
2131.608	305.08
2134.791	303.92
2137.974	304.36
2141.157	306.66
2144.34	308.19
2147.523	315.05
2150.705	323.11
2153.887	319.46
2157.068	322.58
2160.25	324.92
2163.431	325.58
2166.611	331.06
2169.792	337.52
2172.972	342.12
2176.152	341.09
2179.331	348.84
2182.511	348.62
2185.69	352.24
2188.868	367.33
2192.047	376.49
2195.225	382.72
2198.403	385.54
2201.58	380.8
2204.758	393.01
2207.935	394.96
2211.111	407.81
2214.288	409.09
2217.464	413.3
2220.64	416.6
2223.815	418.34
2226.991	410.79
2230.166	414.66
2233.34	428.79
2236.515	441.75
2239.689	435.88
2242.863	444.28
2246.036	435.71
2249.209	448.96
2252.382	447.18
2255.555	461.38
2258.727	461.73
2261.9	481.95
2265.071	488.42
2268.243	482.77
2271.414	495.14
2274.585	505.26
2277.756	504.44
2280.926	527.41
2284.096	529.13
2287.266	532
2290.436	524.6
2293.605	539.01
2296.774	552.41
2299.942	553.43
2303.111	570.43
2306.279	582.76
2309.447	582.01
2312.614	585.28
2315.781	598.41
2318.948	598.3
2322.115	610.43
2325.281	641.29
2328.447	637.68
2331.613	640.6
2334.779	647.87
2337.944	661.28
2341.109	669.18
2344.274	676.22
2347.438	697.09
2350.602	705.91
2353.766	756.87
2356.929	759.88
2360.092	772.34
2363.255	775.45
2366.418	785.89
2369.58	798.6
2372.742	801.01
2375.904	801.56
2379.066	828.73
2382.227	872.93
2385.388	875.45
2388.548	823.67
2391.709	815.61
2394.869	837.51
2398.029	845.39
2401.188	845.37
2404.347	873.92
2407.506	898.88
2410.665	863.23
2413.823	868.87
2416.981	871.11
2420.139	824.91
2423.296	897.82
2426.453	959.15
2429.61	912.76
2432.767	970.55
2435.923	1001.39
2439.079	973.57
2442.235	995.86
2445.391	1026.43
2448.546	1018.4
2451.701	1072.77
2454.855	1150.1
2458.009	1017.45
2461.163	1029.19
2464.317	1052.03
2467.471	1025.48
2470.624	1062.13
2473.777	1040.2
2476.929	1001.11
2480.082	1068
2483.234	1118.93
2486.385	1140.04
2489.537	1166.71
2492.688	1289.58
2495.839	1272.28
2498.989	1298.68
2502.14	1310.64
2505.29	1249.25
2508.439	1380.25
2511.589	1423.13
2514.738	1367.94
2517.887	1357.6
2521.035	1263.01
2524.183	1248.79
2527.331	1232.16
2530.479	1199.49
2533.627	1229.36
