Data from N_3_dec_on_6n_Splice17_04.txt Node
Date: Sat Feb 29 15:09:25 EST 2020
User: sa697716
Spectrometer: FLMS03696
Trigger mode: 0
Integration Time (sec): 3.180400E-1
Scans to average: 20
Electric dark correction enabled: true
Nonlinearity correction enabled: true
Boxcar width: 5
XAxis mode: Wavelengths
Number of Pixels in Spectrum: 2048
>>>>>Begin Spectral Data<<<<<
187.83	101.16
188.298	109.32
188.766	111.18
189.233	106.26
189.701	102.38
190.169	98.38
190.636	108.26
191.104	106.43
191.571	244.75
192.039	142.16
192.506	-239.77
192.974	83.64
193.441	28.07
193.908	116.37
194.375	268.52
194.842	201.69
195.31	59.68
195.777	73.21
196.244	69.72
196.711	70.44
197.177	68.09
197.644	69.51
198.111	71.03
198.578	71.3
199.045	72.54
199.511	72.14
199.978	73.09
200.445	73.59
200.911	73.86
201.378	73.68
201.844	74.14
202.31	74.76
202.777	75.11
203.243	75.05
203.709	74.56
204.176	73.76
204.642	73.37
205.108	72.56
205.574	72.35
206.04	71.73
206.506	70.81
206.972	70.23
207.438	69.86
207.903	68.95
208.369	67.94
208.835	67.75
209.301	66.98
209.766	65.78
210.232	65.12
210.697	64.07
211.163	62.89
211.628	61.87
212.094	61.06
212.559	59.92
213.024	58.78
213.49	57.63
213.955	56.27
214.42	54.52
214.885	52.95
215.35	50.73
215.815	48.21
216.28	45.84
216.745	43.06
217.21	39.77
217.675	36.75
218.14	34.08
218.604	31.61
219.069	29.62
219.534	27.92
219.998	26.41
220.463	25.31
220.927	24.26
221.392	23.25
221.856	22.52
222.32	21.86
222.785	21.25
223.249	20.76
223.713	20.35
224.177	19.91
224.642	19.51
225.106	19.17
225.57	18.78
226.034	18.44
226.497	18.12
226.961	17.76
227.425	17.43
227.889	17.14
228.353	16.83
228.816	16.55
229.28	16.23
229.744	16.01
230.207	15.76
230.671	15.53
231.134	15.31
231.597	15.1
232.061	14.91
232.524	14.73
232.987	14.53
233.45	14.34
233.914	14.15
234.377	14
234.84	13.83
235.303	13.66
235.766	13.5
236.229	13.34
236.691	13.22
237.154	13.08
237.617	12.94
238.08	12.83
238.542	12.7
239.005	12.57
239.468	12.44
239.93	12.34
240.393	12.24
240.855	12.12
241.317	12.02
241.78	11.92
242.242	11.81
242.704	11.71
243.166	11.61
243.629	11.51
244.091	11.43
244.553	11.35
245.015	11.24
245.477	11.16
245.939	11.06
246.4	10.98
246.862	10.89
247.324	10.83
247.786	10.74
248.247	10.67
248.709	10.6
249.17	10.54
249.632	10.47
250.093	10.41
250.555	10.34
251.016	10.31
251.477	10.24
251.939	10.18
252.4	10.11
252.861	10.05
253.322	10.01
253.783	9.96
254.244	9.9
254.705	9.85
255.166	9.8
255.627	9.74
256.088	9.69
256.549	9.64
257.009	9.59
257.47	9.55
257.931	9.49
258.391	9.42
258.852	9.36
259.312	9.3
259.773	9.25
260.233	9.2
260.694	9.15
261.154	9.08
261.614	9.03
262.074	8.99
262.534	8.93
262.994	8.9
263.455	8.86
263.915	8.82
264.374	8.79
264.834	8.76
265.294	8.72
265.754	8.67
266.214	8.64
266.673	8.62
267.133	8.58
267.593	8.56
268.052	8.52
268.512	8.49
268.971	8.46
269.431	8.43
269.89	8.4
270.349	8.38
270.809	8.37
271.268	8.36
271.727	8.34
272.186	8.32
272.645	8.28
273.104	8.26
273.563	8.24
274.022	8.23
274.481	8.21
274.94	8.2
275.399	8.17
275.857	8.15
276.316	8.12
276.775	8.09
277.233	8.07
277.692	8.05
278.15	8.03
278.609	8.01
279.067	7.97
279.525	7.95
279.984	7.92
280.442	7.9
280.9	7.89
281.358	7.87
281.816	7.85
282.274	7.84
282.732	7.82
283.19	7.81
283.648	7.81
284.106	7.8
284.564	7.79
285.021	7.78
285.479	7.77
285.937	7.75
286.394	7.73
286.852	7.73
287.309	7.72
287.767	7.72
288.224	7.71
288.682	7.7
289.139	7.69
289.596	7.67
290.053	7.65
290.511	7.62
290.968	7.61
291.425	7.59
291.882	7.57
292.339	7.55
292.796	7.52
293.252	7.5
293.709	7.47
294.166	7.45
294.623	7.44
295.079	7.42
295.536	7.41
295.992	7.39
296.449	7.38
296.905	7.37
297.362	7.36
297.818	7.35
298.274	7.34
298.731	7.33
299.187	7.32
299.643	7.32
300.099	7.32
300.555	7.32
301.011	7.31
301.467	7.31
301.923	7.3
302.379	7.3
302.835	7.29
303.291	7.29
303.746	7.29
304.202	7.27
304.658	7.26
305.113	7.25
305.569	7.24
306.024	7.23
306.479	7.22
306.935	7.22
307.39	7.21
307.845	7.22
308.301	7.21
308.756	7.21
309.211	7.21
309.666	7.22
310.121	7.22
310.576	7.23
311.031	7.24
311.486	7.24
311.94	7.24
312.395	7.25
312.85	7.24
313.305	7.24
313.759	7.25
314.214	7.25
314.668	7.25
315.123	7.25
315.577	7.24
316.032	7.22
316.486	7.22
316.94	7.22
317.394	7.21
317.849	7.2
318.303	7.19
318.757	7.17
319.211	7.15
319.665	7.15
320.119	7.13
320.572	7.12
321.026	7.12
321.48	7.1
321.934	7.1
322.387	7.08
322.841	7.08
323.295	7.07
323.748	7.05
324.202	7.05
324.655	7.03
325.108	7.02
325.562	7.01
326.015	7
326.468	6.99
326.921	6.97
327.374	6.96
327.827	6.95
328.28	6.95
328.733	6.95
329.186	6.95
329.639	6.94
330.092	6.93
330.545	6.93
330.997	6.94
331.45	6.94
331.903	6.93
332.355	6.94
332.808	6.94
333.26	6.93
333.713	6.93
334.165	6.93
334.617	6.95
335.069	6.94
335.522	6.96
335.974	6.96
336.426	6.97
336.878	6.97
337.33	6.96
337.782	6.97
338.234	6.97
338.686	6.97
339.137	6.98
339.589	6.96
340.041	6.97
340.493	6.94
340.944	6.94
341.396	6.93
341.847	6.93
342.299	6.91
342.75	6.89
343.201	6.88
343.653	6.87
344.104	6.86
344.555	6.85
345.006	6.84
345.457	6.83
345.908	6.81
346.359	6.81
346.81	6.81
347.261	6.81
347.712	6.82
348.163	6.81
348.613	6.79
349.064	6.78
349.515	6.77
349.965	6.77
350.416	6.77
350.866	6.77
351.317	6.76
351.767	6.76
352.217	6.76
352.668	6.75
353.118	6.75
353.568	6.77
354.018	6.78
354.468	6.79
354.918	6.8
355.368	6.79
355.818	6.79
356.268	6.79
356.718	6.79
357.168	6.79
357.617	6.8
358.067	6.8
358.517	6.8
358.966	6.81
359.416	6.84
359.865	6.83
360.315	6.85
360.764	6.87
361.213	6.87
361.663	6.87
362.112	6.88
362.561	6.88
363.01	6.89
363.459	6.9
363.908	6.89
364.357	6.89
364.806	6.9
365.255	6.9
365.703	6.9
366.152	6.91
366.601	6.92
367.05	6.93
367.498	6.94
367.947	6.95
368.395	6.97
368.844	6.97
369.292	6.98
369.74	7
370.189	7.01
370.637	7.02
371.085	7.04
371.533	7.06
371.981	7.07
372.429	7.07
372.877	7.09
373.325	7.09
373.773	7.1
374.221	7.12
374.669	7.12
375.116	7.12
375.564	7.15
376.012	7.17
376.459	7.19
376.907	7.21
377.354	7.23
377.801	7.25
378.249	7.27
378.696	7.29
379.143	7.32
379.591	7.33
380.038	7.37
380.485	7.39
380.932	7.4
381.379	7.42
381.826	7.44
382.273	7.47
382.72	7.49
383.166	7.52
383.613	7.54
384.06	7.57
384.506	7.61
384.953	7.61
385.4	7.64
385.846	7.66
386.292	7.69
386.739	7.7
387.185	7.74
387.631	7.76
388.078	7.79
388.524	7.8
388.97	7.81
389.416	7.82
389.862	7.85
390.308	7.88
390.754	7.9
391.2	7.92
391.645	7.95
392.091	7.96
392.537	7.99
392.983	8.02
393.428	8.05
393.874	8.08
394.319	8.1
394.765	8.13
395.21	8.13
395.655	8.16
396.101	8.18
396.546	8.2
396.991	8.24
397.436	8.23
397.881	8.24
398.326	8.28
398.771	8.32
399.216	8.36
399.661	8.38
400.106	8.42
400.551	8.44
400.995	8.45
401.44	8.44
401.885	8.44
402.329	8.44
402.774	8.44
403.218	8.44
403.663	8.44
404.107	8.44
404.551	8.45
404.995	8.45
405.44	8.44
405.884	8.44
406.328	8.45
406.772	8.47
407.216	8.5
407.66	8.52
408.104	8.53
408.547	8.53
408.991	8.52
409.435	8.52
409.879	8.51
410.322	8.54
410.766	8.54
411.209	8.55
411.653	8.54
412.096	8.54
412.54	8.54
412.983	8.54
413.426	8.55
413.869	8.56
414.312	8.59
414.756	8.61
415.199	8.63
415.642	8.67
416.085	8.69
416.527	8.74
416.97	8.75
417.413	8.75
417.856	8.75
418.298	8.73
418.741	8.73
419.184	8.72
419.626	8.71
420.069	8.7
420.511	8.69
420.953	8.67
421.396	8.64
421.838	8.65
422.28	8.69
422.722	8.71
423.164	8.75
423.606	8.77
424.048	8.77
424.49	8.78
424.932	8.79
425.374	8.79
425.816	8.77
426.258	8.76
426.699	8.72
427.141	8.66
427.582	8.63
428.024	8.62
428.465	8.61
428.907	8.62
429.348	8.6
429.789	8.59
430.231	8.58
430.672	8.58
431.113	8.61
431.554	8.64
431.995	8.66
432.436	8.65
432.877	8.64
433.318	8.62
433.759	8.6
434.2	8.61
434.64	8.6
435.081	8.61
435.522	8.61
435.962	8.61
436.403	8.63
436.843	8.66
437.284	8.69
437.724	8.72
438.164	8.73
438.604	8.76
439.045	8.75
439.485	8.75
439.925	8.75
440.365	8.74
440.805	8.74
441.245	8.72
441.685	8.74
442.125	8.71
442.564	8.72
443.004	8.74
443.444	8.74
443.883	8.76
444.323	8.78
444.762	8.82
445.202	8.88
445.641	8.91
446.081	8.93
446.52	8.91
446.959	8.94
447.398	8.98
447.837	9.03
448.276	9.03
448.716	9.05
449.154	9.08
449.593	9.1
450.032	9.07
450.471	9.09
450.91	9.1
451.349	9.12
451.787	9.12
452.226	9.09
452.664	9.07
453.103	9.08
453.541	9.09
453.98	9.06
454.418	9.02
454.856	9.01
455.295	8.96
455.733	8.95
456.171	8.93
456.609	8.91
457.047	8.9
457.485	8.87
457.923	8.84
458.361	8.82
458.798	8.81
459.236	8.8
459.674	8.79
460.111	8.8
460.549	8.78
460.987	8.77
461.424	8.77
461.862	8.77
462.299	8.78
462.736	8.77
463.173	8.76
463.611	8.75
464.048	8.76
464.485	8.75
464.922	8.74
465.359	8.75
465.796	8.75
466.233	8.74
466.67	8.76
467.106	8.75
467.543	8.75
467.98	8.74
468.416	8.75
468.853	8.75
469.29	8.77
469.726	8.78
470.162	8.77
470.599	8.76
471.035	8.78
471.471	8.77
471.907	8.77
472.344	8.77
472.78	8.79
473.216	8.78
473.652	8.77
474.088	8.77
474.523	8.75
474.959	8.76
475.395	8.76
475.831	8.76
476.266	8.76
476.702	8.76
477.138	8.75
477.573	8.74
478.008	8.74
478.444	8.73
478.879	8.72
479.314	8.73
479.75	8.72
480.185	8.71
480.62	8.7
481.055	8.69
481.49	8.67
481.925	8.67
482.36	8.66
482.795	8.66
483.229	8.64
483.664	8.63
484.099	8.62
484.534	8.6
484.968	8.59
485.403	8.59
485.837	8.58
486.271	8.58
486.706	8.57
487.14	8.58
487.574	8.58
488.009	8.59
488.443	8.6
488.877	8.61
489.311	8.62
489.745	8.63
490.179	8.65
490.613	8.67
491.046	8.7
491.48	8.73
491.914	8.76
492.348	8.79
492.781	8.82
493.215	8.85
493.648	8.9
494.082	8.95
494.515	9
494.948	9.03
495.382	9.07
495.815	9.12
496.248	9.17
496.681	9.22
497.114	9.27
497.547	9.33
497.98	9.39
498.413	9.45
498.846	9.52
499.279	9.58
499.711	9.65
500.144	9.73
500.577	9.8
501.009	9.88
501.442	9.97
501.874	10.06
502.306	10.15
502.739	10.24
503.171	10.34
503.603	10.46
504.036	10.56
504.468	10.69
504.9	10.81
505.332	10.92
505.764	11.06
506.196	11.18
506.627	11.32
507.059	11.45
507.491	11.61
507.923	11.75
508.354	11.9
508.786	12.06
509.217	12.22
509.649	12.41
510.08	12.59
510.512	12.76
510.943	12.95
511.374	13.14
511.805	13.32
512.237	13.52
512.668	13.72
513.099	13.92
513.53	14.14
513.961	14.38
514.391	14.56
514.822	14.77
515.253	14.99
515.684	15.21
516.114	15.43
516.545	15.64
516.975	15.86
517.406	16.09
517.836	16.3
518.267	16.51
518.697	16.71
519.127	16.95
519.558	17.17
519.988	17.38
520.418	17.58
520.848	17.8
521.278	18.02
521.708	18.11
522.138	18.29
522.567	18.52
522.997	18.71
523.427	18.9
523.857	19.06
524.286	19.24
524.716	19.41
525.145	19.59
525.575	19.77
526.004	19.92
526.433	20.2
526.863	20.37
527.292	20.49
527.721	20.64
528.15	20.77
528.579	20.91
529.008	21.05
529.437	21.17
529.866	21.27
530.295	21.38
530.724	21.49
531.152	21.6
531.581	21.71
532.01	21.8
532.438	21.88
532.867	21.97
533.295	22.04
533.723	22.13
534.152	22.21
534.58	22.29
535.008	22.31
535.436	22.37
535.865	22.41
536.293	22.44
536.721	22.49
537.149	22.52
537.576	22.55
538.004	22.59
538.432	22.61
538.86	22.63
539.287	22.65
539.715	22.69
540.143	22.7
540.57	22.72
540.998	22.76
541.425	22.78
541.852	22.82
542.28	22.84
542.707	22.88
543.134	22.91
543.561	22.92
543.988	22.94
544.415	22.96
544.842	22.99
545.269	23.02
545.696	23.04
546.123	23.06
546.549	23.08
546.976	23.11
547.403	23.12
547.829	23.15
548.256	23.17
548.682	23.18
549.108	23.2
549.535	23.23
549.961	23.24
550.387	23.22
550.813	23.23
551.24	23.24
551.666	23.25
552.092	23.25
552.518	23.24
552.943	23.25
553.369	23.26
553.795	23.25
554.221	23.23
554.646	23.23
555.072	23.23
555.498	23.2
555.923	23.18
556.349	23.13
556.774	23.09
557.199	23.07
557.625	23.03
558.05	22.97
558.475	22.91
558.9	22.85
559.325	22.78
559.75	22.73
560.175	22.67
560.6	22.59
561.025	22.52
561.449	22.44
561.874	22.35
562.299	22.27
562.723	22.19
563.148	22.11
563.572	22.02
563.997	21.93
564.421	21.81
564.846	21.69
565.27	21.61
565.694	21.5
566.118	21.39
566.542	21.27
566.966	21.15
567.39	21.03
567.814	20.9
568.238	20.75
568.662	20.62
569.086	20.5
569.509	20.37
569.933	20.22
570.357	20.08
570.78	19.96
571.204	19.83
571.627	19.72
572.05	19.6
572.474	19.5
572.897	19.38
573.32	19.27
573.743	19.16
574.166	19.05
574.589	18.95
575.012	18.87
575.435	18.77
575.858	18.69
576.281	18.59
576.704	18.51
577.126	18.44
577.549	18.39
577.972	18.32
578.394	18.27
578.817	18.22
579.239	18.15
579.661	18.09
580.084	18.04
580.506	17.99
580.928	17.93
581.35	17.88
581.772	17.82
582.194	17.76
582.616	17.71
583.038	17.66
583.46	17.62
583.882	17.59
584.303	17.53
584.725	17.48
585.147	17.4
585.568	17.35
585.99	17.3
586.411	17.26
586.833	17.22
587.254	17.18
587.675	17.12
588.096	17.07
588.518	17.01
588.939	16.98
589.36	16.93
589.781	16.92
590.202	16.9
590.623	16.86
591.043	16.82
591.464	16.78
591.885	16.74
592.305	16.73
592.726	16.7
593.147	16.67
593.567	16.65
593.987	16.63
594.408	16.58
594.828	16.56
595.248	16.52
595.669	16.5
596.089	16.47
596.509	16.44
596.929	16.4
597.349	16.36
597.769	16.32
598.189	16.3
598.608	16.27
599.028	16.24
599.448	16.21
599.867	16.17
600.287	16.14
600.706	16.1
601.126	16.07
601.545	16.03
601.965	15.99
602.384	15.95
602.803	15.89
603.222	15.83
603.641	15.8
604.061	15.75
604.48	15.69
604.898	15.63
605.317	15.59
605.736	15.54
606.155	15.49
606.574	15.44
606.992	15.38
607.411	15.33
607.829	15.22
608.248	15.16
608.666	15.1
609.085	15.06
609.503	15
609.921	14.94
610.339	14.89
610.758	14.83
611.176	14.78
611.594	14.71
612.012	14.65
612.43	14.66
612.847	14.59
613.265	14.55
613.683	14.49
614.101	14.42
614.518	14.37
614.936	14.31
615.353	14.26
615.771	14.2
616.188	14.16
616.606	14.12
617.023	14.05
617.44	14.01
617.857	13.96
618.274	13.93
618.691	13.89
619.108	13.85
619.525	13.82
619.942	13.79
620.359	13.77
620.776	13.74
621.192	13.72
621.609	13.72
622.026	13.7
622.442	13.67
622.859	13.65
623.275	13.65
623.691	13.65
624.108	13.63
624.524	13.62
624.94	13.6
625.356	13.59
625.772	13.58
626.188	13.57
626.604	13.56
627.02	13.56
627.436	13.54
627.852	13.52
628.268	13.51
628.683	13.5
629.099	13.48
629.514	13.47
629.93	13.45
630.345	13.41
630.761	13.37
631.176	13.34
631.591	13.3
632.007	13.27
632.422	13.24
632.837	13.19
633.252	13.14
633.667	13.1
634.082	13.05
634.497	12.97
634.911	12.91
635.326	12.84
635.741	12.77
636.155	12.7
636.57	12.63
636.984	12.53
637.399	12.44
637.813	12.35
638.228	12.25
638.642	12.17
639.056	12.09
639.47	12
639.884	11.92
640.298	11.83
640.712	11.73
641.126	11.64
641.54	11.55
641.954	11.49
642.368	11.39
642.781	11.29
643.195	11.18
643.609	11.1
644.022	11.01
644.436	10.92
644.849	10.85
645.262	10.78
645.676	10.7
646.089	10.64
646.502	10.56
646.915	10.52
647.328	10.47
647.741	10.43
648.154	10.39
648.567	10.36
648.98	10.33
649.393	10.3
649.805	10.25
650.218	10.23
650.631	10.21
651.043	10.2
651.456	10.17
651.868	10.14
652.28	10.12
652.693	10.08
653.105	10.05
653.517	10.01
653.929	9.97
654.341	9.96
654.753	9.91
655.165	9.87
655.577	9.8
655.989	9.74
656.401	9.67
656.813	9.61
657.224	9.56
657.636	9.51
658.047	9.45
658.459	9.38
658.87	9.3
659.282	9.24
659.693	9.16
660.104	9.12
660.515	9.07
660.926	9.01
661.338	8.96
661.749	8.91
662.159	8.85
662.57	8.8
662.981	8.74
663.392	8.69
663.803	8.64
664.213	8.6
664.624	8.56
665.035	8.51
665.445	8.48
665.855	8.45
666.266	8.41
666.676	8.38
667.086	8.35
667.497	8.32
667.907	8.3
668.317	8.27
668.727	8.27
669.137	8.26
669.547	8.25
669.956	8.23
670.366	8.23
670.776	8.22
671.186	8.23
671.595	8.22
672.005	8.24
672.414	8.25
672.824	8.25
673.233	8.24
673.642	8.24
674.052	8.27
674.461	8.28
674.87	8.29
675.279	8.3
675.688	8.3
676.097	8.33
676.506	8.35
676.915	8.38
677.323	8.4
677.732	8.43
678.141	8.47
678.549	8.51
678.958	8.57
679.366	8.61
679.775	8.66
680.183	8.73
680.592	8.8
681	8.86
681.408	8.94
681.816	9.03
682.224	9.13
682.632	9.25
683.04	9.35
683.448	9.48
683.856	9.62
684.264	9.77
684.671	9.95
685.079	10.12
685.487	10.32
685.894	10.53
686.302	10.74
686.709	10.96
687.116	11.22
687.524	11.5
687.931	11.79
688.338	12.11
688.745	12.42
689.152	12.76
689.559	13.12
689.966	13.48
690.373	13.86
690.78	14.28
691.187	14.71
691.593	15.12
692	15.54
692.407	15.99
692.813	16.44
693.22	16.91
693.626	17.36
694.032	17.83
694.439	18.31
694.845	18.77
695.251	19.24
695.657	19.69
696.063	20.16
696.469	20.63
696.875	21.05
697.281	21.5
697.687	21.94
698.093	22.35
698.498	22.78
698.904	23.19
699.31	23.6
699.715	24
700.12	24.4
700.526	24.81
700.931	25.18
701.337	25.59
701.742	25.92
702.147	26.28
702.552	26.66
702.957	27
703.362	27.36
703.767	27.7
704.172	28.05
704.577	28.38
704.981	28.71
705.386	29.02
705.791	29.33
706.195	29.65
706.6	29.94
707.004	30.26
707.408	30.56
707.813	30.83
708.217	31.1
708.621	31.34
709.025	31.6
709.43	31.84
709.834	32.11
710.237	32.34
710.641	32.62
711.045	32.86
711.449	33.09
711.853	33.35
712.256	33.61
712.66	33.87
713.064	34.11
713.467	34.35
713.87	34.58
714.274	34.79
714.677	35.01
715.08	35.2
715.484	35.44
715.887	35.66
716.29	35.84
716.693	36.02
717.096	36.21
717.499	36.39
717.901	36.56
718.304	36.74
718.707	36.94
719.109	37.15
719.512	37.34
719.915	37.5
720.317	37.68
720.719	37.84
721.122	38.03
721.524	38.19
721.926	38.37
722.328	38.52
722.731	38.67
723.133	38.78
723.535	38.92
723.937	39.06
724.338	39.16
724.74	39.26
725.142	39.35
725.544	39.44
725.945	39.55
726.347	39.64
726.748	39.74
727.15	39.84
727.551	39.94
727.952	40.02
728.354	40.1
728.755	40.21
729.156	40.3
729.557	40.4
729.958	40.48
730.359	40.53
730.76	40.6
731.161	40.68
731.562	40.76
731.962	40.81
732.363	40.87
732.763	40.96
733.164	41
733.564	41.04
733.965	41.1
734.365	41.16
734.766	41.24
735.166	41.27
735.566	41.31
735.966	41.32
736.366	41.35
736.766	41.37
737.166	41.38
737.566	41.42
737.966	41.47
738.365	41.49
738.765	41.53
739.165	41.53
739.564	41.56
739.964	41.59
740.363	41.63
740.763	41.66
741.162	41.7
741.561	41.74
741.96	41.76
742.36	41.78
742.759	41.82
743.158	41.8
743.557	41.83
743.955	41.88
744.354	41.89
744.753	41.93
745.152	41.95
745.55	41.99
745.949	42.01
746.348	42.04
746.746	42.08
747.144	42.12
747.543	42.18
747.941	42.22
748.339	42.23
748.737	42.29
749.136	42.27
749.534	42.32
749.932	42.32
750.33	42.32
750.727	42.34
751.125	42.3
751.523	42.25
751.921	42.25
752.318	42.23
752.716	42.2
753.113	42.2
753.511	42.17
753.908	42.13
754.305	42.09
754.703	42.05
755.1	42
755.497	42.01
755.894	42.01
756.291	41.98
756.688	41.95
757.085	41.93
757.482	41.91
757.878	41.96
758.275	41.97
758.672	41.98
759.068	42.01
759.465	42.02
759.861	42.02
760.258	41.98
760.654	42
761.05	42.02
761.447	42.01
761.843	42.02
762.239	42.01
762.635	41.98
763.031	41.98
763.427	41.98
763.822	41.97
764.218	41.96
764.614	41.99
765.01	41.97
765.405	41.95
765.801	41.96
766.196	41.93
766.592	41.92
766.987	41.93
767.382	41.93
767.778	41.92
768.173	41.95
768.568	41.94
768.963	41.95
769.358	41.95
769.753	41.98
770.148	42
770.542	42.01
770.937	41.99
771.332	42
771.726	41.97
772.121	41.96
772.515	41.96
772.91	41.94
773.304	41.94
773.699	41.93
774.093	41.91
774.487	41.91
774.881	41.94
775.275	41.98
775.669	41.97
776.063	41.97
776.457	41.97
776.851	41.92
777.245	41.94
777.638	41.95
778.032	41.97
778.425	42
778.819	42
779.212	41.98
779.606	41.96
779.999	41.95
780.392	41.96
780.786	41.97
781.179	42.01
781.572	42.01
781.965	41.98
782.358	41.96
782.751	41.94
783.143	41.92
783.536	41.95
783.929	41.97
784.322	42.02
784.714	42.02
785.107	42.03
785.499	42.04
785.891	42.06
786.284	42.05
786.676	42.1
787.068	42.07
787.46	42.08
787.852	42.05
788.245	42.01
788.636	41.99
789.028	42.01
789.42	42.01
789.812	42.01
790.204	41.99
790.595	42
790.987	42
791.378	42
791.77	42.04
792.161	42.04
792.553	42.08
792.944	42.1
793.335	42.07
793.726	42.07
794.117	42.06
794.508	42.07
794.899	42.08
795.29	42.06
795.681	42.09
796.072	42.09
796.463	42.11
796.853	42.08
797.244	42.06
797.634	42.11
798.025	42.13
798.415	42.18
798.806	42.21
799.196	42.24
799.586	42.3
799.976	42.33
800.366	42.32
800.756	42.32
801.146	42.34
801.536	42.33
801.926	42.32
802.316	42.35
802.706	42.38
803.095	42.39
803.485	42.4
803.874	42.38
804.264	42.38
804.653	42.38
805.043	42.39
805.432	42.38
805.821	42.39
806.21	42.41
806.599	42.45
806.988	42.4
807.377	42.39
807.766	42.43
808.155	42.43
808.544	42.4
808.933	42.41
809.321	42.43
809.71	42.46
810.098	42.48
810.487	42.47
810.875	42.43
811.264	42.43
811.652	42.46
812.04	42.43
812.428	42.44
812.816	42.48
813.204	42.5
813.592	42.5
813.98	42.51
814.368	42.54
814.756	42.55
815.144	42.58
815.531	42.57
815.919	42.57
816.306	42.55
816.694	42.58
817.081	42.56
817.469	42.54
817.856	42.56
818.243	42.55
818.63	42.55
819.017	42.56
819.404	42.52
819.791	42.51
820.178	42.48
820.565	42.51
820.952	42.49
821.339	42.5
821.725	42.52
822.112	42.5
822.498	42.5
822.885	42.49
823.271	42.49
823.657	42.51
824.044	42.55
824.43	42.56
824.816	42.53
825.202	42.51
825.588	42.52
825.974	42.51
826.36	42.46
826.746	42.48
827.132	42.44
827.517	42.43
827.903	42.41
828.289	42.36
828.674	42.33
829.06	42.36
829.445	42.32
829.83	42.28
830.216	42.27
830.601	42.27
830.986	42.24
831.371	42.25
831.756	42.2
832.141	42.18
832.526	42.18
832.911	42.23
833.295	42.2
833.68	42.21
834.065	42.22
834.449	42.18
834.834	42.14
835.218	42.13
835.603	42.11
835.987	42.12
836.371	42.11
836.755	42.08
837.139	42.01
837.524	41.99
837.908	41.96
838.291	41.92
838.675	41.93
839.059	41.93
839.443	41.94
839.827	41.9
840.21	41.9
840.594	41.88
840.977	41.86
841.361	41.87
841.744	41.87
842.127	41.86
842.511	41.87
842.894	41.85
843.277	41.86
843.66	41.83
844.043	41.84
844.426	41.81
844.809	41.81
845.191	41.83
845.574	41.83
845.957	41.79
846.339	41.79
846.722	41.78
847.104	41.81
847.487	41.79
847.869	41.79
848.252	41.8
848.634	41.81
849.016	41.8
849.398	41.8
849.78	41.78
850.162	41.79
850.544	41.81
850.926	41.8
851.307	41.79
851.689	41.79
852.071	41.8
852.452	41.79
852.834	41.77
853.215	41.78
853.597	41.76
853.978	41.75
854.359	41.77
854.741	41.75
855.122	41.76
855.503	41.77
855.884	41.76
856.265	41.75
856.646	41.75
857.026	41.78
857.407	41.74
857.788	41.77
858.169	41.78
858.549	41.78
858.93	41.78
859.31	41.78
859.69	41.76
860.071	41.76
860.451	41.78
860.831	41.79
861.211	41.8
861.591	41.84
861.971	41.81
862.351	41.83
862.731	41.84
863.111	41.84
863.491	41.86
863.87	41.85
864.25	41.87
864.629	41.85
865.009	41.87
865.388	41.84
865.768	41.85
866.147	41.86
866.526	41.84
866.905	41.83
867.284	41.82
867.663	41.81
868.042	41.81
868.421	41.78
868.8	41.78
869.179	41.77
869.558	41.77
869.936	41.75
870.315	41.74
870.693	41.75
871.072	41.74
871.45	41.74
871.828	41.73
872.207	41.75
872.585	41.77
872.963	41.78
873.341	41.79
873.719	41.78
874.097	41.78
874.475	41.8
874.853	41.78
875.23	41.8
875.608	41.81
875.986	41.79
876.363	41.77
876.741	41.78
877.118	41.75
877.495	41.72
877.873	41.73
878.25	41.72
878.627	41.7
879.004	41.69
879.381	41.69
879.758	41.65
880.135	41.66
880.512	41.68
880.889	41.68
881.265	41.7
881.642	41.71
882.019	41.71
882.395	41.73
882.772	41.72
883.148	41.74
883.524	41.73
883.901	41.73
884.277	41.73
884.653	41.73
885.029	41.71
885.405	41.7
885.781	41.68
886.157	41.7
886.532	41.68
886.908	41.7
887.284	41.69
887.659	41.69
888.035	41.7
888.411	41.69
888.786	41.68
889.161	41.68
889.537	41.65
889.912	41.61
890.287	41.59
890.662	41.57
891.037	41.51
891.412	41.47
891.787	41.45
892.162	41.4
892.536	41.37
892.911	41.34
893.286	41.28
893.66	41.28
894.035	41.3
894.409	41.28
894.784	41.25
895.158	41.25
895.532	41.22
895.906	41.21
896.281	41.22
896.655	41.21
897.029	41.18
897.402	41.2
897.776	41.17
898.15	41.15
898.524	41.14
898.898	41.12
899.271	41.12
899.645	41.15
900.018	41.14
900.392	41.14
900.765	41.17
901.138	41.22
901.511	41.22
901.884	41.25
902.258	41.26
902.631	41.27
903.003	41.31
903.376	41.31
903.749	41.32
904.122	41.37
904.495	41.4
904.867	41.38
905.24	41.35
905.612	41.36
905.985	41.34
906.357	41.37
906.729	41.36
907.102	41.38
907.474	41.43
907.846	41.44
908.218	41.41
908.59	41.42
908.962	41.43
909.334	41.48
909.705	41.51
910.077	41.54
910.449	41.54
910.82	41.55
911.192	41.55
911.563	41.53
911.935	41.5
912.306	41.47
912.677	41.45
913.048	41.45
913.419	41.44
913.79	41.43
914.161	41.43
914.532	41.44
914.903	41.43
915.274	41.41
915.645	41.42
916.015	41.45
916.386	41.49
916.756	41.49
917.127	41.5
917.497	41.53
917.868	41.56
918.238	41.6
918.608	41.61
918.978	41.62
919.348	41.63
919.718	41.64
920.088	41.64
920.458	41.67
920.828	41.7
921.198	41.69
921.567	41.67
921.937	41.66
922.306	41.62
922.676	41.68
923.045	41.65
923.415	41.67
923.784	41.66
924.153	41.67
924.522	41.69
924.891	41.68
925.26	41.72
925.629	41.68
925.998	41.66
926.367	41.67
926.736	41.65
927.104	41.69
927.473	41.7
927.842	41.72
928.21	41.71
928.578	41.67
928.947	41.69
929.315	41.7
929.683	41.71
930.051	41.68
930.42	41.66
930.788	41.61
931.156	41.61
931.523	41.56
931.891	41.51
932.259	41.49
932.627	41.45
932.994	41.41
933.362	41.37
933.729	41.35
934.097	41.37
934.464	41.38
934.831	41.4
935.199	41.38
935.566	41.39
935.933	41.42
936.3	41.41
936.667	41.46
937.034	41.47
937.401	41.51
937.767	41.56
938.134	41.6
938.501	41.63
938.867	41.66
939.234	41.75
939.6	41.81
939.967	41.91
940.333	42.03
940.699	42.17
941.065	42.3
941.431	42.33
941.798	42.5
942.163	42.59
942.529	42.68
942.895	42.8
943.261	42.8
943.627	42.89
943.992	42.92
944.358	42.93
944.723	42.91
945.089	42.96
945.454	43.03
945.82	42.91
946.185	42.92
946.55	42.95
946.915	42.94
947.28	42.89
947.645	42.84
948.01	42.82
948.375	42.81
948.74	42.66
949.104	42.67
949.469	42.62
949.834	42.61
950.198	42.54
950.562	42.45
950.927	42.33
951.291	42.3
951.655	42.29
952.02	42.19
952.384	42.19
952.748	42.28
953.112	42.15
953.476	42.11
953.839	42.07
954.203	41.98
954.567	41.91
954.931	41.93
955.294	41.97
955.658	41.9
956.021	41.94
956.385	41.93
956.748	41.89
957.111	41.87
957.474	41.91
957.837	41.93
958.2	41.94
958.563	41.97
958.926	41.91
959.289	41.86
959.652	41.91
960.015	41.85
960.377	41.76
960.74	41.77
961.102	41.76
961.465	41.73
961.827	41.65
962.189	41.61
962.552	41.53
962.914	41.56
963.276	41.53
963.638	41.42
964	41.42
964.362	41.45
964.724	41.45
965.085	41.42
965.447	41.34
965.809	41.3
966.17	41.36
966.532	41.41
966.893	41.42
967.255	41.44
967.616	41.54
967.977	41.59
968.338	41.5
968.699	41.5
969.061	41.48
969.421	41.49
969.782	41.57
970.143	41.53
970.504	41.54
970.865	41.53
971.225	41.53
971.586	41.54
971.946	41.47
972.307	41.5
972.667	41.51
973.027	41.56
973.388	41.53
973.748	41.56
974.108	41.59
974.468	41.62
974.828	41.62
975.188	41.64
975.548	41.69
975.907	41.79
976.267	41.8
976.627	41.81
976.986	41.84
977.346	41.91
977.705	41.96
978.064	41.94
978.424	41.93
978.783	41.96
979.142	41.97
979.501	41.94
979.86	41.9
980.219	41.91
980.578	41.9
980.937	41.92
981.296	41.94
981.654	41.92
982.013	42.03
982.371	42.08
982.73	42.11
983.088	42.08
983.447	42.1
983.805	42.15
984.163	42.25
984.521	42.19
984.879	42.19
985.237	42.28
985.595	42.31
985.953	42.28
986.311	42.3
986.669	42.36
987.026	42.39
987.384	42.46
987.741	42.49
988.099	42.48
988.456	42.62
988.814	42.7
989.171	42.64
989.528	42.68
989.885	42.64
990.242	42.67
990.599	42.79
990.956	42.87
991.313	42.8
991.67	42.79
992.027	42.84
992.383	42.88
992.74	42.8
993.096	42.89
993.453	42.91
993.809	42.96
994.165	43.03
994.522	42.93
994.878	42.95
995.234	43
995.59	43
995.946	43.02
996.302	42.99
996.658	43.08
997.013	43.11
997.369	43.21
997.725	43.29
998.08	43.18
998.436	43.26
998.791	43.33
999.147	43.4
999.502	43.56
999.857	43.55
1000.212	43.55
1000.567	43.61
1000.922	43.59
1001.277	43.38
1001.632	43.48
1001.987	43.57
1002.342	43.52
1002.696	43.64
1003.051	43.65
1003.406	43.68
1003.76	43.68
1004.114	43.84
1004.469	43.76
1004.823	43.83
1005.177	44.2
1005.531	44.2
1005.885	44.35
1006.239	44.49
1006.593	44.37
1006.947	44.37
1007.301	44.48
1007.655	44.6
1008.008	44.56
1008.362	44.87
1008.715	44.98
1009.069	44.9
1009.422	44.81
1009.776	44.99
1010.129	44.87
1010.482	45.04
1010.835	45.3
1011.188	45.11
1011.541	45.16
1011.894	45.26
1012.247	45.03
1012.6	45.08
1012.952	45.11
1013.305	45.35
1013.657	45.28
1014.01	45.45
1014.362	45.51
1014.715	45.37
1015.067	45.73
1015.419	46
1015.771	46.35
1016.123	46.6
1016.475	46.79
1016.827	47.03
1017.179	47.05
1017.531	47.06
1017.883	47.43
1018.234	47.58
1018.586	47.78
1018.938	47.51
1019.289	47.1
1019.64	47.22
1019.992	47.48
1020.343	47.52
1020.694	47.64
1021.045	47.73
1021.396	47.9
1021.747	47.74
1022.098	47.95
1022.449	48.06
1022.8	48.43
1023.151	48.98
1023.501	49.02
1023.852	49.05
1024.202	49.39
1024.553	49.41
1024.903	49.89
1025.253	50.13
1025.604	50.24
1025.954	50.12
1026.304	50.61
1026.654	50.7
1027.004	50.95
1027.354	50.96
1027.703	51.18
1028.053	51.02
1028.403	50.65
1028.753	50.68
1029.102	50.89
1029.452	51.22
1029.801	51.53
1030.15	51.31
1030.499	51.49
897.758	632.42
901.051	649.68
904.343	650.71
907.636	639.97
910.928	631.29
914.22	640.97
917.511	626.12
920.803	597.25
924.094	574.19
927.384	579.86
930.675	562.93
933.965	558.61
937.255	553.13
940.544	532.08
943.834	509.34
947.123	500.52
950.411	472
953.7	465.3
956.988	451.81
960.276	430.29
963.563	423.78
966.851	401.84
970.138	393.75
973.424	367.42
976.711	362.31
979.997	346.76
983.283	339.2
986.568	328.94
989.853	320.63
993.138	308.41
996.423	303.69
999.708	294.42
1002.992	294.31
1006.275	284.89
1009.559	281.8
1012.842	273.82
1016.125	267.24
1019.408	262.23
1022.69	259.52
1025.972	255.53
1029.254	250.24
1032.536	244.95
1035.817	237.29
1039.098	233.12
1042.379	228.79
1045.659	225.42
1048.939	222.64
1052.219	219.45
1055.498	213.65
1058.778	210.96
1062.057	207.06
1065.335	205.34
1068.614	201.98
1071.892	199.76
1075.17	195.28
1078.447	192.06
1081.724	191.34
1085.001	187
1088.278	186.99
1091.554	186.41
1094.83	184.9
1098.106	181.8
1101.382	180.64
1104.657	179.44
1107.932	178.16
1111.206	177.88
1114.481	176.63
1117.755	175.09
1121.029	174.84
1124.302	170.59
1127.575	167.87
1130.848	167.04
1134.121	166.05
1137.393	165
1140.665	164.42
1143.937	162.94
1147.208	160.71
1150.48	158.91
1153.75	157.64
1157.021	156.47
1160.291	156.21
1163.561	157.1
1166.831	154.5
1170.101	153.5
1173.37	152.82
1176.639	151.16
1179.907	151.61
1183.176	151.42
1186.444	151.77
1189.711	150.92
1192.979	151.92
1196.246	152.31
1199.513	150.96
1202.78	152.35
1206.046	152.51
1209.312	153.24
1212.578	154.57
1215.843	156.07
1219.108	156.29
1222.373	159.27
1225.638	162.12
1228.902	165.07
1232.166	170.75
1235.43	174.05
1238.693	177.91
1241.956	182.63
1245.219	186.68
1248.482	187.36
1251.744	187.03
1255.006	187.93
1258.268	182.11
1261.529	180.33
1264.79	176.46
1268.051	172.31
1271.312	170.58
1274.572	167.71
1277.832	162.11
1281.092	160.94
1284.351	158.06
1287.61	157.99
1290.869	157.13
1294.128	157.08
1297.386	155.95
1300.644	154.93
1303.902	153.99
1307.159	152.93
1310.416	153.59
1313.673	156.82
1316.93	157.59
1320.186	159.89
1323.442	161.92
1326.697	165.2
1329.953	166.93
1333.208	172.57
1336.463	179.52
1339.717	183.23
1342.972	193.14
1346.226	197.64
1349.479	198.92
1352.733	207.07
1355.986	212.99
1359.238	216.97
1362.491	220.26
1365.743	227.35
1368.995	229.73
1372.247	232.84
1375.498	231.25
1378.749	238.52
1382	240.03
1385.251	238.47
1388.501	238.48
1391.751	241.05
1395	239.09
1398.25	241.43
1401.499	241.9
1404.748	242
1407.996	232.59
1411.244	234.14
1414.492	229.61
1417.74	224.78
1420.987	220.25
1424.234	215.9
1427.481	207.7
1430.728	202.56
1433.974	194.43
1437.22	187.89
1440.465	180.03
1443.711	175.82
1446.956	170.15
1450.201	163.75
1453.445	155.08
1456.689	150.58
1459.933	145.98
1463.177	139.55
1466.42	136.9
1469.663	132.61
1472.906	128.86
1476.148	126.24
1479.391	123.08
1482.633	120.26
1485.874	117.93
1489.115	117.28
1492.356	115.49
1495.597	113.37
1498.838	113.44
1502.078	112.1
1505.318	111.98
1508.557	111.2
1511.797	109.74
1515.036	109.14
1518.274	108.45
1521.513	106.55
1524.751	105.67
1527.989	106.17
1531.227	105.95
1534.464	104.78
1537.701	104.14
1540.938	103.24
1544.174	103.58
1547.41	103
1550.646	103.1
1553.882	103.21
1557.117	103.08
1560.352	102.69
1563.587	101.57
1566.821	101.44
1570.055	100.85
1573.289	100.62
1576.523	101.01
1579.756	99.77
1582.989	100.53
1586.222	100.06
1589.454	99.98
1592.686	100.31
1595.918	100.03
1599.15	99.73
1602.381	99.58
1605.612	99.73
1608.843	99.86
1612.073	99.62
1615.303	100.22
1618.533	99.5
1621.762	99.59
1624.992	99.81
1628.221	99.09
1631.449	99.68
1634.678	100.09
1637.906	100.5
1641.134	100.53
1644.361	100.26
1647.588	100.64
1650.815	100.43
1654.042	100.6
1657.269	100.52
1660.495	100.81
1663.72	101.42
1666.946	101.55
1670.171	101.87
1673.396	101.96
1676.621	102.2
1679.845	102.49
1683.069	102.59
1686.293	102.64
1689.517	103.1
1692.74	103.42
1695.963	103.49
1699.185	103.7
1702.408	103.16
1705.63	103.37
1708.852	104.23
1712.073	104.16
1715.294	103.97
1718.515	104.76
1721.736	105.01
1724.956	104.71
1728.176	104.63
1731.396	105.02
1734.616	104.97
1737.835	105.87
1741.054	105.35
1744.272	105.39
1747.491	105.56
1750.709	106.59
1753.927	106.28
1757.144	106.94
1760.361	107.72
1763.578	108.35
1766.795	108.74
1770.011	108.8
1773.227	108.68
1776.443	110.57
1779.658	110.07
1782.874	110.74
1786.089	110.32
1789.303	110.72
1792.518	111.82
1795.732	112.36
1798.945	113.41
1802.159	113.64
1805.372	115.99
1808.585	117.21
1811.797	117.19
1815.01	118.71
1818.222	120.02
1821.434	121.32
1824.645	122.09
1827.856	123.82
1831.067	124.55
1834.278	125.65
1837.488	126.62
1840.698	127.08
1843.908	127.77
1847.117	129.32
1850.326	130.59
1853.535	130.18
1856.744	132.52
1859.952	134.07
1863.16	133.41
1866.368	133.24
1869.575	134.52
1872.782	134.24
1875.989	133.39
1879.196	133.61
1882.402	132.75
1885.608	131.77
1888.814	132.86
1892.019	132.89
1895.224	130.95
1898.429	131.85
1901.634	132.56
1904.838	132.69
1908.042	133.87
1911.246	134.55
1914.449	135.06
1917.652	134.31
1920.855	135.55
1924.058	134.44
1927.26	134.59
1930.462	135.94
1933.664	135.21
1936.865	136.63
1940.066	133.99
1943.267	132.37
1946.467	133.67
1949.668	133.57
1952.868	134.55
1956.067	134
1959.267	135.55
1962.466	135.08
1965.665	136.66
1968.863	137.5
1972.061	137.2
1975.259	140.15
1978.457	142.79
1981.654	143.17
1984.852	144.62
1988.048	146.5
1991.245	148.84
1994.441	150.57
1997.637	154.93
2000.833	156.18
2004.028	157.66
2007.223	162.6
2010.418	165.53
2013.613	173.21
2016.807	177.31
2020.001	181.17
2023.194	185.5
2026.388	193.81
2029.581	204.47
2032.774	209.96
2035.966	216.39
2039.158	223.18
2042.35	226.24
2045.542	232.34
2048.733	242.46
2051.924	243.45
2055.115	246.43
2058.306	250.15
2061.496	252.11
2064.686	249.87
2067.875	248.47
2071.065	252.29
2074.254	252.22
2077.442	259.19
2080.631	262.46
2083.819	259.17
2087.007	266.62
2090.195	270.36
2093.382	271.01
2096.569	271.23
2099.756	277.23
2102.942	283.79
2106.128	288.22
2109.314	292.46
2112.5	293.2
2115.685	289.49
2118.87	290.27
2122.055	290.9
2125.239	297.94
2128.424	303.68
2131.608	303.35
2134.791	303.79
2137.974	303.34
2141.157	305.91
2144.34	307.08
2147.523	313.27
2150.705	321.24
2153.887	318.86
2157.068	322.56
2160.25	324.76
2163.431	325.11
2166.611	330.3
2169.792	336.52
2172.972	342.12
2176.152	341.09
2179.331	348.3
2182.511	349.34
2185.69	352.41
2188.868	366.69
2192.047	375.33
2195.225	380.09
2198.403	385.93
2201.58	379.94
2204.758	391.6
2207.935	393.99
2211.111	406.45
2214.288	408.7
2217.464	411.43
2220.64	415.81
2223.815	416.84
2226.991	410.84
2230.166	414.3
2233.34	425.86
2236.515	442.19
2239.689	435.71
2242.863	442.03
2246.036	434.88
2249.209	447.59
2252.382	444.73
2255.555	460.54
2258.727	462.23
2261.9	482.8
2265.071	490.45
2268.243	485.05
2271.414	495.38
2274.585	507.14
2277.756	506.57
2280.926	528.14
2284.096	526.68
2287.266	533.82
2290.436	526.37
2293.605	538.47
2296.774	550.77
2299.942	549.99
2303.111	567.65
2306.279	579.6
2309.447	578.02
2312.614	583.94
2315.781	598.98
2318.948	601.66
2322.115	611.78
2325.281	638.05
2328.447	637.18
2331.613	638.12
2334.779	647.49
2337.944	659.17
2341.109	669.28
2344.274	678.32
2347.438	696.04
2350.602	703.23
2353.766	756.88
2356.929	759.31
2360.092	769.13
2363.255	771.74
2366.418	783.96
2369.58	795.95
2372.742	798.27
2375.904	795.64
2379.066	820.93
2382.227	868.06
2385.388	864.38
2388.548	812.14
2391.709	806.39
2394.869	830.33
2398.029	838.88
2401.188	836.92
2404.347	864.04
2407.506	887.88
2410.665	857.19
2413.823	860.66
2416.981	861.69
2420.139	820.06
2423.296	889.37
2426.453	954.53
2429.61	908.04
2432.767	962.95
2435.923	995.33
2439.079	965.38
2442.235	991.17
2445.391	1017.11
2448.546	1009.88
2451.701	1063.92
2454.855	1140.26
2458.009	1007.41
2461.163	1013.69
2464.317	1035.13
2467.471	1010.86
2470.624	1049.59
2473.777	1034.83
2476.929	994.22
2480.082	1058.25
2483.234	1112.05
2486.385	1130.37
2489.537	1157.89
2492.688	1286.89
2495.839	1257.32
2498.989	1287.53
2502.14	1300.03
2505.29	1240.75
2508.439	1367.29
2511.589	1407.91
2514.738	1360.86
2517.887	1347.37
2521.035	1253.35
2524.183	1238.81
2527.331	1219.99
2530.479	1199.57
2533.627	1229.36
