Data from N_3_div_oh_2n_Splice17_08.txt Node
Date: Sat Feb 29 14:40:34 EST 2020
User: sa697716
Spectrometer: FLMS03696
Trigger mode: 0
Integration Time (sec): 3.180400E-1
Scans to average: 20
Electric dark correction enabled: true
Nonlinearity correction enabled: true
Boxcar width: 5
XAxis mode: Wavelengths
Number of Pixels in Spectrum: 2048
>>>>>Begin Spectral Data<<<<<
187.83	71.42
188.298	50.19
188.766	51.89
189.233	49.36
189.701	57.35
190.169	59.83
190.636	59.24
191.104	31.62
191.571	80.39
192.039	216.47
192.506	28.24
192.974	3436.78
193.441	769.54
193.908	-15.59
194.375	-15.5
194.842	27.23
195.31	-4.22
195.777	-16.31
196.244	-0.11
196.711	23.51
197.177	25.75
197.644	25.21
198.111	25.41
198.578	26.04
199.045	25.94
199.511	25.68
199.978	26.38
200.445	27.01
200.911	27.23
201.378	27.44
201.844	27.64
202.31	28.38
202.777	28.92
203.243	29.44
203.709	29.67
204.176	29.61
204.642	30
205.108	30.35
205.574	30.4
206.04	30.72
206.506	30.51
206.972	30.46
207.438	30
207.903	30.31
208.369	29.9
208.835	30.25
209.301	30.44
209.766	30.43
210.232	29.97
210.697	29.88
211.163	29.5
211.628	29.5
212.094	29.39
212.559	29.1
213.024	28.55
213.49	28.24
213.955	28.15
214.42	28.03
214.885	27.56
215.35	27.18
215.815	26.5
216.28	25.99
216.745	25.17
217.21	24.46
217.675	23.8
218.14	23.14
218.604	22.59
219.069	21.96
219.534	21.33
219.998	20.89
220.463	20.47
220.927	20.2
221.392	19.81
221.856	19.54
222.32	19.23
222.785	18.98
223.249	18.7
223.713	18.48
224.177	18.22
224.642	18.03
225.106	17.78
225.57	17.55
226.034	17.33
226.497	17.12
226.961	16.91
227.425	16.66
227.889	16.47
228.353	16.26
228.816	16.06
229.28	15.86
229.744	15.66
230.207	15.48
230.671	15.31
231.134	15.1
231.597	14.95
232.061	14.77
232.524	14.66
232.987	14.48
233.45	14.32
233.914	14.17
234.377	14.02
234.84	13.88
235.303	13.75
235.766	13.61
236.229	13.49
236.691	13.36
237.154	13.23
237.617	13.1
238.08	12.98
238.542	12.87
239.005	12.75
239.468	12.61
239.93	12.52
240.393	12.4
240.855	12.3
241.317	12.18
241.78	12.08
242.242	11.98
242.704	11.89
243.166	11.79
243.629	11.69
244.091	11.59
244.553	11.53
245.015	11.44
245.477	11.35
245.939	11.26
246.4	11.18
246.862	11.11
247.324	11.03
247.786	10.96
248.247	10.89
248.709	10.83
249.17	10.76
249.632	10.68
250.093	10.6
250.555	10.53
251.016	10.48
251.477	10.42
251.939	10.36
252.4	10.3
252.861	10.24
253.322	10.19
253.783	10.15
254.244	10.1
254.705	10.06
255.166	10.03
255.627	9.99
256.088	9.93
256.549	9.89
257.009	9.84
257.47	9.8
257.931	9.75
258.391	9.69
258.852	9.63
259.312	9.58
259.773	9.53
260.233	9.48
260.694	9.43
261.154	9.39
261.614	9.34
262.074	9.29
262.534	9.23
262.994	9.2
263.455	9.15
263.915	9.11
264.374	9.06
264.834	9.01
265.294	8.98
265.754	8.93
266.214	8.9
266.673	8.88
267.133	8.85
267.593	8.82
268.052	8.79
268.512	8.77
268.971	8.74
269.431	8.73
269.89	8.7
270.349	8.68
270.809	8.65
271.268	8.63
271.727	8.59
272.186	8.56
272.645	8.54
273.104	8.5
273.563	8.47
274.022	8.44
274.481	8.4
274.94	8.37
275.399	8.34
275.857	8.31
276.316	8.28
276.775	8.24
277.233	8.21
277.692	8.17
278.15	8.13
278.609	8.1
279.067	8.06
279.525	8.04
279.984	8.01
280.442	7.98
280.9	7.94
281.358	7.91
281.816	7.88
282.274	7.86
282.732	7.84
283.19	7.82
283.648	7.8
284.106	7.78
284.564	7.76
285.021	7.74
285.479	7.73
285.937	7.7
286.394	7.69
286.852	7.67
287.309	7.65
287.767	7.63
288.224	7.6
288.682	7.58
289.139	7.56
289.596	7.51
290.053	7.48
290.511	7.43
290.968	7.4
291.425	7.37
291.882	7.33
292.339	7.3
292.796	7.27
293.252	7.25
293.709	7.21
294.166	7.18
294.623	7.16
295.079	7.14
295.536	7.12
295.992	7.1
296.449	7.09
296.905	7.07
297.362	7.05
297.818	7.03
298.274	7
298.731	6.98
299.187	6.97
299.643	6.94
300.099	6.92
300.555	6.9
301.011	6.89
301.467	6.85
301.923	6.84
302.379	6.82
302.835	6.81
303.291	6.79
303.746	6.77
304.202	6.74
304.658	6.72
305.113	6.7
305.569	6.69
306.024	6.67
306.479	6.65
306.935	6.63
307.39	6.61
307.845	6.6
308.301	6.59
308.756	6.58
309.211	6.58
309.666	6.57
310.121	6.55
310.576	6.54
311.031	6.53
311.486	6.52
311.94	6.51
312.395	6.5
312.85	6.48
313.305	6.47
313.759	6.47
314.214	6.46
314.668	6.45
315.123	6.44
315.577	6.43
316.032	6.42
316.486	6.41
316.94	6.39
317.394	6.38
317.849	6.37
318.303	6.35
318.757	6.32
319.211	6.31
319.665	6.3
320.119	6.28
320.572	6.27
321.026	6.25
321.48	6.23
321.934	6.22
322.387	6.21
322.841	6.19
323.295	6.17
323.748	6.16
324.202	6.13
324.655	6.11
325.108	6.09
325.562	6.07
326.015	6.06
326.468	6.04
326.921	6.01
327.374	5.99
327.827	5.97
328.28	5.96
328.733	5.95
329.186	5.95
329.639	5.93
330.092	5.93
330.545	5.92
330.997	5.91
331.45	5.91
331.903	5.91
332.355	5.91
332.808	5.9
333.26	5.89
333.713	5.89
334.165	5.88
334.617	5.88
335.069	5.88
335.522	5.88
335.974	5.88
336.426	5.88
336.878	5.87
337.33	5.86
337.782	5.86
338.234	5.86
338.686	5.86
339.137	5.85
339.589	5.84
340.041	5.82
340.493	5.81
340.944	5.8
341.396	5.78
341.847	5.77
342.299	5.76
342.75	5.74
343.201	5.7
343.653	5.7
344.104	5.68
344.555	5.67
345.006	5.65
345.457	5.64
345.908	5.63
346.359	5.63
346.81	5.62
347.261	5.61
347.712	5.6
348.163	5.6
348.613	5.58
349.064	5.57
349.515	5.55
349.965	5.54
350.416	5.52
350.866	5.51
351.317	5.5
351.767	5.49
352.217	5.48
352.668	5.48
353.118	5.49
353.568	5.5
354.018	5.5
354.468	5.51
354.918	5.52
355.368	5.54
355.818	5.53
356.268	5.54
356.718	5.52
357.168	5.51
357.617	5.51
358.067	5.5
358.517	5.49
358.966	5.49
359.416	5.49
359.865	5.48
360.315	5.48
360.764	5.49
361.213	5.48
361.663	5.49
362.112	5.52
362.561	5.53
363.01	5.55
363.459	5.55
363.908	5.57
364.357	5.58
364.806	5.58
365.255	5.59
365.703	5.59
366.152	5.6
366.601	5.61
367.05	5.61
367.498	5.62
367.947	5.62
368.395	5.64
368.844	5.64
369.292	5.65
369.74	5.68
370.189	5.69
370.637	5.72
371.085	5.75
371.533	5.76
371.981	5.79
372.429	5.8
372.877	5.83
373.325	5.86
373.773	5.88
374.221	5.9
374.669	5.94
375.116	5.95
375.564	5.97
376.012	6.01
376.459	6.05
376.907	6.08
377.354	6.12
377.801	6.16
378.249	6.19
378.696	6.24
379.143	6.28
379.591	6.31
380.038	6.36
380.485	6.41
380.932	6.45
381.379	6.48
381.826	6.51
382.273	6.56
382.72	6.59
383.166	6.64
383.613	6.67
384.06	6.7
384.506	6.73
384.953	6.76
385.4	6.8
385.846	6.82
386.292	6.87
386.739	6.91
387.185	6.94
387.631	6.97
388.078	7.01
388.524	7.03
388.97	7.07
389.416	7.09
389.862	7.13
390.308	7.14
390.754	7.18
391.2	7.21
391.645	7.24
392.091	7.26
392.537	7.29
392.983	7.31
393.428	7.34
393.874	7.38
394.319	7.39
394.765	7.41
395.21	7.43
395.655	7.44
396.101	7.45
396.546	7.45
396.991	7.46
397.436	7.47
397.881	7.48
398.326	7.5
398.771	7.5
399.216	7.54
399.661	7.56
400.106	7.59
400.551	7.59
400.995	7.59
401.44	7.59
401.885	7.58
402.329	7.58
402.774	7.58
403.218	7.56
403.663	7.54
404.107	7.51
404.551	7.51
404.995	7.49
405.44	7.49
405.884	7.48
406.328	7.48
406.772	7.49
407.216	7.49
407.66	7.49
408.104	7.49
408.547	7.49
408.991	7.49
409.435	7.47
409.879	7.47
410.322	7.47
410.766	7.47
411.209	7.47
411.653	7.45
412.096	7.45
412.54	7.44
412.983	7.43
413.426	7.44
413.869	7.45
414.312	7.47
414.756	7.49
415.199	7.49
415.642	7.52
416.085	7.52
416.527	7.54
416.97	7.55
417.413	7.54
417.856	7.54
418.298	7.52
418.741	7.5
419.184	7.48
419.626	7.45
420.069	7.45
420.511	7.43
420.953	7.42
421.396	7.4
421.838	7.41
422.28	7.43
422.722	7.45
423.164	7.46
423.606	7.48
424.048	7.48
424.49	7.48
424.932	7.46
425.374	7.47
425.816	7.45
426.258	7.45
426.699	7.41
427.141	7.39
427.582	7.36
428.024	7.36
428.465	7.35
428.907	7.37
429.348	7.37
429.789	7.37
430.231	7.36
430.672	7.36
431.113	7.37
431.554	7.38
431.995	7.4
432.436	7.41
432.877	7.38
433.318	7.36
433.759	7.34
434.2	7.35
434.64	7.36
435.081	7.35
435.522	7.38
435.962	7.36
436.403	7.37
436.843	7.38
437.284	7.39
437.724	7.41
438.164	7.42
438.604	7.44
439.045	7.43
439.485	7.44
439.925	7.44
440.365	7.43
440.805	7.44
441.245	7.45
441.685	7.45
442.125	7.49
442.564	7.51
443.004	7.52
443.444	7.53
443.883	7.55
444.323	7.54
444.762	7.59
445.202	7.63
445.641	7.67
446.081	7.68
446.52	7.69
446.959	7.69
447.398	7.74
447.837	7.78
448.276	7.81
448.716	7.82
449.154	7.86
449.593	7.87
450.032	7.88
450.471	7.87
450.91	7.88
451.349	7.89
451.787	7.88
452.226	7.84
452.664	7.83
453.103	7.83
453.541	7.83
453.98	7.83
454.418	7.82
454.856	7.8
455.295	7.8
455.733	7.8
456.171	7.79
456.609	7.79
457.047	7.77
457.485	7.77
457.923	7.75
458.361	7.74
458.798	7.73
459.236	7.73
459.674	7.72
460.111	7.71
460.549	7.7
460.987	7.7
461.424	7.68
461.862	7.69
462.299	7.68
462.736	7.69
463.173	7.67
463.611	7.66
464.048	7.67
464.485	7.67
464.922	7.68
465.359	7.66
465.796	7.65
466.233	7.68
466.67	7.68
467.106	7.67
467.543	7.69
467.98	7.71
468.416	7.72
468.853	7.71
469.29	7.72
469.726	7.71
470.162	7.71
470.599	7.72
471.035	7.71
471.471	7.71
471.907	7.7
472.344	7.69
472.78	7.68
473.216	7.68
473.652	7.69
474.088	7.69
474.523	7.69
474.959	7.69
475.395	7.69
475.831	7.7
476.266	7.7
476.702	7.71
477.138	7.7
477.573	7.69
478.008	7.69
478.444	7.68
478.879	7.67
479.314	7.67
479.75	7.68
480.185	7.67
480.62	7.65
481.055	7.65
481.49	7.65
481.925	7.65
482.36	7.64
482.795	7.63
483.229	7.63
483.664	7.63
484.099	7.63
484.534	7.63
484.968	7.63
485.403	7.63
485.837	7.63
486.271	7.64
486.706	7.64
487.14	7.66
487.574	7.67
488.009	7.7
488.443	7.71
488.877	7.73
489.311	7.74
489.745	7.76
490.179	7.8
490.613	7.82
491.046	7.85
491.48	7.89
491.914	7.92
492.348	7.96
492.781	7.99
493.215	8.03
493.648	8.07
494.082	8.13
494.515	8.18
494.948	8.22
495.382	8.28
495.815	8.34
496.248	8.4
496.681	8.47
497.114	8.54
497.547	8.61
497.98	8.69
498.413	8.78
498.846	8.86
499.279	8.96
499.711	9.05
500.144	9.15
500.577	9.26
501.009	9.37
501.442	9.49
501.874	9.62
502.306	9.75
502.739	9.86
503.171	10.01
503.603	10.17
504.036	10.33
504.468	10.5
504.9	10.68
505.332	10.87
505.764	11.07
506.196	11.28
506.627	11.48
507.059	11.69
507.491	11.93
507.923	12.17
508.354	12.4
508.786	12.66
509.217	12.92
509.649	13.18
510.08	13.47
510.512	13.75
510.943	14.03
511.374	14.32
511.805	14.63
512.237	14.95
512.668	15.25
513.099	15.59
513.53	15.9
513.961	16.24
514.391	16.56
514.822	16.89
515.253	17.25
515.684	17.59
516.114	17.97
516.545	18.34
516.975	18.7
517.406	19.07
517.836	19.43
518.267	19.81
518.697	20.19
519.127	20.57
519.558	20.94
519.988	21.3
520.418	21.66
520.848	22
521.278	22.36
521.708	22.67
522.138	23.01
522.567	23.37
522.997	23.72
523.427	24.05
523.857	24.36
524.286	24.68
524.716	24.97
525.145	25.28
525.575	25.58
526.004	25.87
526.433	26.16
526.863	26.44
527.292	26.68
527.721	26.91
528.15	27.13
528.579	27.37
529.008	27.57
529.437	27.78
529.866	27.96
530.295	28.16
530.724	28.36
531.152	28.53
531.581	28.69
532.01	28.84
532.438	29
532.867	29.14
533.295	29.28
533.723	29.43
534.152	29.55
534.58	29.66
535.008	29.74
535.436	29.81
535.865	29.9
536.293	30.01
536.721	30.09
537.149	30.15
537.576	30.2
538.004	30.25
538.432	30.29
538.86	30.34
539.287	30.39
539.715	30.46
540.143	30.5
540.57	30.52
540.998	30.55
541.425	30.6
541.852	30.65
542.28	30.67
542.707	30.71
543.134	30.75
543.561	30.77
543.988	30.82
544.415	30.85
544.842	30.9
545.269	30.96
545.696	30.97
546.123	31
546.549	31.03
546.976	31.08
547.403	31.11
547.829	31.15
548.256	31.19
548.682	31.23
549.108	31.26
549.535	31.3
549.961	31.31
550.387	31.34
550.813	31.34
551.24	31.36
551.666	31.37
552.092	31.36
552.518	31.34
552.943	31.34
553.369	31.31
553.795	31.28
554.221	31.22
554.646	31.17
555.072	31.13
555.498	31.06
555.923	31.01
556.349	30.91
556.774	30.86
557.199	30.8
557.625	30.71
558.05	30.62
558.475	30.5
558.9	30.41
559.325	30.31
559.75	30.19
560.175	30.07
560.6	29.94
561.025	29.83
561.449	29.68
561.874	29.51
562.299	29.35
562.723	29.2
563.148	29.04
563.572	28.88
563.997	28.71
564.421	28.52
564.846	28.34
565.27	28.15
565.694	27.93
566.118	27.75
566.542	27.56
566.966	27.37
567.39	27.16
567.814	26.95
568.238	26.73
568.662	26.51
569.086	26.31
569.509	26.1
569.933	25.87
570.357	25.66
570.78	25.44
571.204	25.22
571.627	24.99
572.05	24.8
572.474	24.6
572.897	24.4
573.32	24.21
573.743	24.03
574.166	23.87
574.589	23.71
575.012	23.56
575.435	23.41
575.858	23.27
576.281	23.13
576.704	22.97
577.126	22.84
577.549	22.73
577.972	22.6
578.394	22.46
578.817	22.32
579.239	22.22
579.661	22.09
580.084	21.96
580.506	21.85
580.928	21.75
581.35	21.67
581.772	21.58
582.194	21.47
582.616	21.37
583.038	21.29
583.46	21.22
583.882	21.11
584.303	21.03
584.725	20.93
585.147	20.85
585.568	20.75
585.99	20.68
586.411	20.59
586.833	20.52
587.254	20.44
587.675	20.38
588.096	20.3
588.518	20.25
588.939	20.2
589.36	20.16
589.781	20.09
590.202	20.03
590.623	19.95
591.043	19.91
591.464	19.84
591.885	19.79
592.305	19.74
592.726	19.69
593.147	19.65
593.567	19.6
593.987	19.57
594.408	19.53
594.828	19.49
595.248	19.45
595.669	19.42
596.089	19.37
596.509	19.32
596.929	19.27
597.349	19.22
597.769	19.17
598.189	19.12
598.608	19.04
599.028	18.99
599.448	18.95
599.867	18.9
600.287	18.84
600.706	18.79
601.126	18.72
601.545	18.66
601.965	18.59
602.384	18.52
602.803	18.46
603.222	18.41
603.641	18.34
604.061	18.27
604.48	18.2
604.898	18.1
605.317	18.03
605.736	17.94
606.155	17.87
606.574	17.79
606.992	17.7
607.411	17.61
607.829	17.47
608.248	17.38
608.666	17.28
609.085	17.2
609.503	17.1
609.921	17
610.339	16.92
610.758	16.83
611.176	16.73
611.594	16.63
612.012	16.54
612.43	16.49
612.847	16.4
613.265	16.3
613.683	16.22
614.101	16.14
614.518	16.05
614.936	15.97
615.353	15.89
615.771	15.81
616.188	15.75
616.606	15.67
617.023	15.61
617.44	15.54
617.857	15.48
618.274	15.41
618.691	15.36
619.108	15.31
619.525	15.26
619.942	15.2
620.359	15.16
620.776	15.11
621.192	15.08
621.609	15.04
622.026	15.01
622.442	14.99
622.859	14.95
623.275	14.94
623.691	14.91
624.108	14.89
624.524	14.87
624.94	14.84
625.356	14.83
625.772	14.81
626.188	14.81
626.604	14.79
627.02	14.77
627.436	14.75
627.852	14.73
628.268	14.72
628.683	14.69
629.099	14.67
629.514	14.64
629.93	14.6
630.345	14.57
630.761	14.51
631.176	14.46
631.591	14.4
632.007	14.34
632.422	14.29
632.837	14.21
633.252	14.14
633.667	14.06
634.082	13.98
634.497	13.88
634.911	13.76
635.326	13.66
635.741	13.55
636.155	13.44
636.57	13.32
636.984	13.18
637.399	13.03
637.813	12.89
638.228	12.76
638.642	12.63
639.056	12.48
639.47	12.35
639.884	12.19
640.298	12.06
640.712	11.9
641.126	11.76
641.54	11.62
641.954	11.51
642.368	11.38
642.781	11.25
643.195	11.11
643.609	10.99
644.022	10.87
644.436	10.76
644.849	10.66
645.262	10.57
645.676	10.46
646.089	10.37
646.502	10.27
646.915	10.2
647.328	10.12
647.741	10.05
648.154	10
648.567	9.96
648.98	9.92
649.393	9.87
649.805	9.82
650.218	9.8
650.631	9.76
651.043	9.72
651.456	9.68
651.868	9.66
652.28	9.64
652.693	9.59
653.105	9.54
653.517	9.48
653.929	9.44
654.341	9.39
654.753	9.33
655.165	9.29
655.577	9.23
655.989	9.16
656.401	9.09
656.813	8.99
657.224	8.93
657.636	8.85
658.047	8.79
658.459	8.71
658.87	8.64
659.282	8.57
659.693	8.49
660.104	8.42
660.515	8.36
660.926	8.3
661.338	8.24
661.749	8.18
662.159	8.13
662.57	8.07
662.981	8.01
663.392	7.95
663.803	7.89
664.213	7.84
664.624	7.82
665.035	7.78
665.445	7.75
665.855	7.72
666.266	7.7
666.676	7.66
667.086	7.65
667.497	7.63
667.907	7.61
668.317	7.6
668.727	7.59
669.137	7.59
669.547	7.59
669.956	7.58
670.366	7.6
670.776	7.6
671.186	7.62
671.595	7.63
672.005	7.66
672.414	7.69
672.824	7.73
673.233	7.77
673.642	7.79
674.052	7.82
674.461	7.86
674.87	7.91
675.279	7.95
675.688	7.99
676.097	8.04
676.506	8.09
676.915	8.14
677.323	8.18
677.732	8.24
678.141	8.29
678.549	8.36
678.958	8.42
679.366	8.46
679.775	8.53
680.183	8.62
680.592	8.7
681	8.79
681.408	8.89
681.816	8.99
682.224	9.1
682.632	9.25
683.04	9.38
683.448	9.54
683.856	9.72
684.264	9.92
684.671	10.13
685.079	10.35
685.487	10.61
685.894	10.89
686.302	11.2
686.709	11.53
687.116	11.89
687.524	12.3
687.931	12.71
688.338	13.16
688.745	13.65
689.152	14.17
689.559	14.72
689.966	15.29
690.373	15.91
690.78	16.55
691.187	17.23
691.593	17.9
692	18.62
692.407	19.37
692.813	20.12
693.22	20.9
693.626	21.67
694.032	22.46
694.439	23.3
694.845	24.09
695.251	24.89
695.657	25.72
696.063	26.56
696.469	27.36
696.875	28.16
697.281	28.96
697.687	29.77
698.093	30.59
698.498	31.42
698.904	32.2
699.31	33.01
699.715	33.8
700.12	34.54
700.526	35.32
700.931	36.08
701.337	36.85
701.742	37.59
702.147	38.29
702.552	39.02
702.957	39.7
703.362	40.41
703.767	41.09
704.172	41.76
704.577	42.45
704.981	43.1
705.386	43.75
705.791	44.41
706.195	45
706.6	45.63
707.004	46.24
707.408	46.84
707.813	47.41
708.217	48
708.621	48.58
709.025	49.16
709.43	49.7
709.834	50.23
710.237	50.75
710.641	51.34
711.045	51.86
711.449	52.39
711.853	52.91
712.256	53.43
712.66	53.92
713.064	54.41
713.467	54.86
713.87	55.36
714.274	55.84
714.677	56.3
715.08	56.72
715.484	57.18
715.887	57.62
716.29	58.04
716.693	58.44
717.096	58.84
717.499	59.22
717.901	59.6
718.304	59.97
718.707	60.34
719.109	60.72
719.512	61.09
719.915	61.47
720.317	61.84
720.719	62.18
721.122	62.5
721.524	62.85
721.926	63.18
722.328	63.52
722.731	63.85
723.133	64.15
723.535	64.47
723.937	64.77
724.338	64.99
724.74	65.25
725.142	65.44
725.544	65.7
725.945	65.93
726.347	66.21
726.748	66.36
727.15	66.53
727.551	66.73
727.952	66.9
728.354	67.08
728.755	67.27
729.156	67.44
729.557	67.66
729.958	67.83
730.359	68
730.76	68.1
731.161	68.28
731.562	68.46
731.962	68.61
732.363	68.74
732.763	68.9
733.164	69.03
733.564	69.14
733.965	69.27
734.365	69.4
734.766	69.51
735.166	69.6
735.566	69.68
735.966	69.76
736.366	69.82
736.766	69.92
737.166	69.97
737.566	70.07
737.966	70.15
738.365	70.24
738.765	70.28
739.165	70.33
739.564	70.43
739.964	70.5
740.363	70.6
740.763	70.65
741.162	70.7
741.561	70.77
741.96	70.84
742.36	70.92
742.759	70.93
743.158	71.02
743.557	71.09
743.955	71.11
744.354	71.19
744.753	71.24
745.152	71.33
745.55	71.39
745.949	71.43
746.348	71.47
746.746	71.5
747.144	71.6
747.543	71.64
747.941	71.7
748.339	71.8
748.737	71.86
749.136	71.89
749.534	71.95
749.932	71.95
750.33	71.97
750.727	71.97
751.125	72
751.523	71.98
751.921	71.98
752.318	71.97
752.716	71.93
753.113	71.88
753.511	71.85
753.908	71.76
754.305	71.73
754.703	71.67
755.1	71.66
755.497	71.65
755.894	71.63
756.291	71.58
756.688	71.54
757.085	71.53
757.482	71.5
757.878	71.46
758.275	71.49
758.672	71.49
759.068	71.5
759.465	71.49
759.861	71.41
760.258	71.37
760.654	71.38
761.05	71.38
761.447	71.35
761.843	71.31
762.239	71.33
762.635	71.31
763.031	71.3
763.427	71.28
763.822	71.26
764.218	71.3
764.614	71.32
765.01	71.33
765.405	71.32
765.801	71.36
766.196	71.4
766.592	71.41
766.987	71.43
767.382	71.41
767.778	71.46
768.173	71.47
768.568	71.46
768.963	71.42
769.358	71.41
769.753	71.44
770.148	71.43
770.542	71.41
770.937	71.39
771.332	71.41
771.726	71.43
772.121	71.37
772.515	71.36
772.91	71.36
773.304	71.41
773.699	71.42
774.093	71.37
774.487	71.35
774.881	71.39
775.275	71.41
775.669	71.38
776.063	71.35
776.457	71.34
776.851	71.34
777.245	71.36
777.638	71.36
778.032	71.36
778.425	71.38
778.819	71.39
779.212	71.35
779.606	71.35
779.999	71.34
780.392	71.37
780.786	71.39
781.179	71.39
781.572	71.35
781.965	71.36
782.358	71.28
782.751	71.26
783.143	71.27
783.536	71.3
783.929	71.34
784.322	71.33
784.714	71.32
785.107	71.35
785.499	71.39
785.891	71.4
786.284	71.36
786.676	71.43
787.068	71.44
787.46	71.4
787.852	71.4
788.245	71.34
788.636	71.35
789.028	71.36
789.42	71.31
789.812	71.29
790.204	71.26
790.595	71.29
790.987	71.27
791.378	71.29
791.77	71.34
792.161	71.35
792.553	71.37
792.944	71.4
793.335	71.39
793.726	71.37
794.117	71.35
794.508	71.39
794.899	71.36
795.29	71.4
795.681	71.44
796.072	71.44
796.463	71.41
796.853	71.39
797.244	71.38
797.634	71.39
798.025	71.44
798.415	71.49
798.806	71.53
799.196	71.56
799.586	71.54
799.976	71.53
800.366	71.56
800.756	71.59
801.146	71.63
801.536	71.68
801.926	71.68
802.316	71.69
802.706	71.72
803.095	71.74
803.485	71.81
803.874	71.88
804.264	71.94
804.653	71.93
805.043	71.97
805.432	71.95
805.821	71.94
806.21	72.03
806.599	72.09
806.988	72.11
807.377	72.12
807.766	72.11
808.155	72.12
808.544	72.07
808.933	72.1
809.321	72.12
809.71	72.22
810.098	72.25
810.487	72.24
810.875	72.23
811.264	72.25
811.652	72.23
812.04	72.24
812.428	72.25
812.816	72.3
813.204	72.26
813.592	72.26
813.98	72.25
814.368	72.22
814.756	72.23
815.144	72.24
815.531	72.23
815.919	72.24
816.306	72.22
816.694	72.22
817.081	72.19
817.469	72.24
817.856	72.29
818.243	72.3
818.63	72.36
819.017	72.4
819.404	72.38
819.791	72.37
820.178	72.39
820.565	72.45
820.952	72.46
821.339	72.49
821.725	72.5
822.112	72.48
822.498	72.5
822.885	72.49
823.271	72.47
823.657	72.47
824.044	72.48
824.43	72.53
824.816	72.47
825.202	72.47
825.588	72.48
825.974	72.46
826.36	72.44
826.746	72.47
827.132	72.42
827.517	72.41
827.903	72.4
828.289	72.4
828.674	72.34
829.06	72.37
829.445	72.4
829.83	72.42
830.216	72.43
830.601	72.43
830.986	72.38
831.371	72.42
831.756	72.38
832.141	72.41
832.526	72.42
832.911	72.46
833.295	72.45
833.68	72.41
834.065	72.38
834.449	72.35
834.834	72.32
835.218	72.33
835.603	72.3
835.987	72.3
836.371	72.28
836.755	72.25
837.139	72.22
837.524	72.2
837.908	72.19
838.291	72.19
838.675	72.21
839.059	72.23
839.443	72.21
839.827	72.23
840.21	72.28
840.594	72.28
840.977	72.28
841.361	72.31
841.744	72.31
842.127	72.34
842.511	72.33
842.894	72.3
843.277	72.3
843.66	72.3
844.043	72.29
844.426	72.24
844.809	72.23
845.191	72.22
845.574	72.19
845.957	72.15
846.339	72.15
846.722	72.14
847.104	72.15
847.487	72.13
847.869	72.15
848.252	72.17
848.634	72.2
849.016	72.24
849.398	72.26
849.78	72.28
850.162	72.29
850.544	72.29
850.926	72.29
851.307	72.28
851.689	72.28
852.071	72.24
852.452	72.24
852.834	72.18
853.215	72.14
853.597	72.14
853.978	72.11
854.359	72.1
854.741	72.1
855.122	72.1
855.503	72.07
855.884	72.06
856.265	72.05
856.646	72.02
857.026	72.07
857.407	72.02
857.788	72.01
858.169	72.02
858.549	72.05
858.93	72.05
859.31	72.02
859.69	72.03
860.071	72.03
860.451	72.04
860.831	72.06
861.211	72.06
861.591	72.08
861.971	72.07
862.351	72.08
862.731	72.05
863.111	72.01
863.491	72.05
863.87	72.06
864.25	72.08
864.629	72.06
865.009	72.05
865.388	72.05
865.768	72.05
866.147	72.07
866.526	72.02
866.905	72.01
867.284	72.03
867.663	72.03
868.042	72.02
868.421	72
868.8	72.01
869.179	71.99
869.558	71.96
869.936	71.98
870.315	71.92
870.693	71.92
871.072	71.94
871.45	71.92
871.828	71.89
872.207	71.9
872.585	71.92
872.963	71.89
873.341	71.89
873.719	71.9
874.097	71.88
874.475	71.89
874.853	71.9
875.23	71.9
875.608	71.93
875.986	71.93
876.363	71.86
876.741	71.86
877.118	71.85
877.495	71.84
877.873	71.79
878.25	71.77
878.627	71.78
879.004	71.8
879.381	71.77
879.758	71.74
880.135	71.79
880.512	71.85
880.889	71.86
881.265	71.9
881.642	71.96
882.019	72.01
882.395	72.06
882.772	72.04
883.148	72.03
883.524	72.05
883.901	72.04
884.277	72.01
884.653	72.05
885.029	72.04
885.405	72.03
885.781	71.95
886.157	71.95
886.532	71.91
886.908	71.95
887.284	71.98
887.659	71.97
888.035	71.95
888.411	71.92
888.786	71.88
889.161	71.88
889.537	71.87
889.912	71.88
890.287	71.88
890.662	71.84
891.037	71.78
891.412	71.73
891.787	71.69
892.162	71.66
892.536	71.65
892.911	71.61
893.286	71.54
893.66	71.5
894.035	71.47
894.409	71.43
894.784	71.42
895.158	71.42
895.532	71.38
895.906	71.37
896.281	71.36
896.655	71.34
897.029	71.33
897.402	71.34
897.776	71.32
898.15	71.31
898.524	71.3
898.898	71.26
899.271	71.26
899.645	71.23
900.018	71.24
900.392	71.25
900.765	71.27
901.138	71.28
901.511	71.24
901.884	71.25
902.258	71.24
902.631	71.25
903.003	71.28
903.376	71.27
903.749	71.3
904.122	71.28
904.495	71.27
904.867	71.21
905.24	71.18
905.612	71.2
905.985	71.18
906.357	71.15
906.729	71.11
907.102	71.13
907.474	71.12
907.846	71.09
908.218	71.09
908.59	71.06
908.962	71.07
909.334	71.06
909.705	71.04
910.077	71
910.449	71.02
910.82	70.99
911.192	70.93
911.563	70.93
911.935	70.91
912.306	70.91
912.677	70.93
913.048	70.89
913.419	70.93
913.79	70.92
914.161	70.96
914.532	70.97
914.903	70.99
915.274	70.98
915.645	70.98
916.015	70.97
916.386	70.95
916.756	70.89
917.127	70.89
917.497	70.82
917.868	70.79
918.238	70.77
918.608	70.78
918.978	70.74
919.348	70.74
919.718	70.73
920.088	70.77
920.458	70.8
920.828	70.82
921.198	70.85
921.567	70.85
921.937	70.9
922.306	70.87
922.676	70.84
923.045	70.83
923.415	70.83
923.784	70.82
924.153	70.76
924.522	70.69
924.891	70.67
925.26	70.62
925.629	70.61
925.998	70.59
926.367	70.6
926.736	70.55
927.104	70.54
927.473	70.52
927.842	70.46
928.21	70.52
928.578	70.5
928.947	70.48
929.315	70.48
929.683	70.51
930.051	70.41
930.42	70.37
930.788	70.37
931.156	70.33
931.523	70.25
931.891	70.17
932.259	70.02
932.627	69.87
932.994	69.77
933.362	69.65
933.729	69.5
934.097	69.42
934.464	69.31
934.831	69.19
935.199	69.06
935.566	68.97
935.933	68.92
936.3	68.83
936.667	68.84
937.034	68.77
937.401	68.72
937.767	68.62
938.134	68.54
938.501	68.47
938.867	68.49
939.234	68.47
939.6	68.48
939.967	68.45
940.333	68.5
940.699	68.5
941.065	68.58
941.431	68.68
941.798	68.83
942.163	68.99
942.529	69.04
942.895	69.12
943.261	69.13
943.627	69.18
943.992	69.34
944.358	69.43
944.723	69.52
945.089	69.59
945.454	69.7
945.82	69.76
946.185	69.84
946.55	69.96
946.915	69.95
947.28	70.03
947.645	69.98
948.01	69.95
948.375	69.92
948.74	69.84
949.104	69.84
949.469	69.66
949.834	69.58
950.198	69.4
950.562	69.28
950.927	69.24
951.291	69.19
951.655	69.25
952.02	69.24
952.384	69.27
952.748	69.34
953.112	69.28
953.476	69.3
953.839	69.28
954.203	69.22
954.567	69.17
954.931	69.18
955.294	69.13
955.658	69.05
956.021	68.99
956.385	68.95
956.748	68.92
957.111	68.8
957.474	68.8
957.837	68.79
958.2	68.78
958.563	68.72
958.926	68.58
959.289	68.65
959.652	68.64
960.015	68.64
960.377	68.55
960.74	68.37
961.102	68.39
961.465	68.35
961.827	68.25
962.189	68.26
962.552	68.22
962.914	68.24
963.276	68.16
963.638	68.05
964	67.96
964.362	67.93
964.724	68.02
965.085	68.07
965.447	67.97
965.809	67.94
966.17	67.97
966.532	68.05
966.893	68.01
967.255	67.97
967.616	68.02
967.977	68
968.338	68
968.699	67.92
969.061	67.81
969.421	67.8
969.782	67.77
970.143	67.71
970.504	67.55
970.865	67.53
971.225	67.5
971.586	67.54
971.946	67.53
972.307	67.54
972.667	67.67
973.027	67.73
973.388	67.77
973.748	67.86
974.108	67.82
974.468	67.9
974.828	67.96
975.188	68.01
975.548	67.94
975.907	67.99
976.267	67.88
976.627	67.81
976.986	67.82
977.346	67.85
977.705	67.82
978.064	67.79
978.424	67.82
978.783	67.85
979.142	67.77
979.501	67.67
979.86	67.6
980.219	67.63
980.578	67.52
980.937	67.49
981.296	67.38
981.654	67.35
982.013	67.47
982.371	67.45
982.73	67.35
983.088	67.33
983.447	67.41
983.805	67.33
984.163	67.32
984.521	67.36
984.879	67.25
985.237	67.35
985.595	67.34
985.953	67.28
986.311	67.32
986.669	67.26
987.026	67.27
987.384	67.2
987.741	67.24
988.099	67.21
988.456	67.14
988.814	67.12
989.171	67.05
989.528	66.99
989.885	66.82
990.242	66.74
990.599	66.79
990.956	66.8
991.313	66.92
991.67	66.86
992.027	66.83
992.383	66.95
992.74	66.99
993.096	66.93
993.453	66.94
993.809	67.1
994.165	67.07
994.522	67.04
994.878	66.97
995.234	66.78
995.59	66.78
995.946	66.77
996.302	66.56
996.658	66.51
997.013	66.54
997.369	66.49
997.725	66.53
998.08	66.55
998.436	66.54
998.791	66.48
999.147	66.57
999.502	66.5
999.857	66.54
1000.212	66.58
1000.567	66.6
1000.922	66.48
1001.277	66.39
1001.632	66.21
1001.987	66.02
1002.342	65.91
1002.696	65.99
1003.051	65.91
1003.406	65.87
1003.76	65.75
1004.114	65.82
1004.469	65.74
1004.823	65.81
1005.177	66.01
1005.531	65.89
1005.885	66
1006.239	66.07
1006.593	65.84
1006.947	65.75
1007.301	65.8
1007.655	65.92
1008.008	65.71
1008.362	65.53
1008.715	65.46
1009.069	65.25
1009.422	65.06
1009.776	64.72
1010.129	64.57
1010.482	64.65
1010.835	64.84
1011.188	64.82
1011.541	64.52
1011.894	64.48
1012.247	64.52
1012.6	64.72
1012.952	64.56
1013.305	64.58
1013.657	64.94
1014.01	65.07
1014.362	65.2
1014.715	64.87
1015.067	64.69
1015.419	64.78
1015.771	64.9
1016.123	64.77
1016.475	64.48
1016.827	64.69
1017.179	64.85
1017.531	64.62
1017.883	64.62
1018.234	64.32
1018.586	64.21
1018.938	64.04
1019.289	63.95
1019.64	64.17
1019.992	64.27
1020.343	63.93
1020.694	63.39
1021.045	63.24
1021.396	63.02
1021.747	62.62
1022.098	62.73
1022.449	62.76
1022.8	62.83
1023.151	62.41
1023.501	62.3
1023.852	62.16
1024.202	62.26
1024.553	62.5
1024.903	62.56
1025.253	62.62
1025.604	62.74
1025.954	62.52
1026.304	62.78
1026.654	63.03
1027.004	63.63
1027.354	63.14
1027.703	63
1028.053	62.9
1028.403	62.57
1028.753	62.43
1029.102	62.42
1029.452	62.36
1029.801	62.33
1030.15	61.99
1030.499	61.59
897.758	574.13
901.051	588.53
904.343	594.47
907.636	583.59
910.928	574.21
914.22	582.4
917.511	569.82
920.803	547.95
924.094	525.19
927.384	530.83
930.675	514.7
933.965	513.25
937.255	513.27
940.544	489.98
943.834	470.29
947.123	463.73
950.411	441.81
953.7	432.94
956.988	419.16
960.276	405.54
963.563	398.11
966.851	377.37
970.138	371.39
973.424	346.24
976.711	343.24
979.997	332.97
983.283	325.7
986.568	315.22
989.853	307.69
993.138	296.65
996.423	291.9
999.708	284.14
1002.992	285.6
1006.275	276.06
1009.559	274.24
1012.842	265.7
1016.125	256.78
1019.408	252.71
1022.69	250.78
1025.972	248.08
1029.254	243.67
1032.536	238.55
1035.817	231.74
1039.098	228.73
1042.379	225.69
1045.659	221.66
1048.939	220.26
1052.219	216.96
1055.498	212.85
1058.778	209.92
1062.057	207.95
1065.335	206.74
1068.614	203.74
1071.892	201.42
1075.17	197.84
1078.447	194.67
1081.724	193.54
1085.001	189.61
1088.278	191.23
1091.554	189.82
1094.83	187.77
1098.106	183.82
1101.382	183.16
1104.657	182.82
1107.932	181.87
1111.206	181.17
1114.481	178.97
1117.755	178.22
1121.029	178.49
1124.302	174.48
1127.575	171.46
1130.848	171.35
1134.121	169.96
1137.393	169.04
1140.665	167.57
1143.937	166.18
1147.208	163.39
1150.48	162.59
1153.75	161.68
1157.021	159.55
1160.291	159.02
1163.561	159.35
1166.831	158.65
1170.101	157.54
1173.37	157.05
1176.639	155.5
1179.907	155.17
1183.176	154.63
1186.444	155.49
1189.711	153.86
1192.979	155.59
1196.246	155.83
1199.513	155.72
1202.78	155.19
1206.046	155.44
1209.312	155.99
1212.578	156.75
1215.843	159.4
1219.108	160.46
1222.373	162.63
1225.638	165.07
1228.902	167.63
1232.166	172.43
1235.43	174.27
1238.693	178.15
1241.956	182.53
1245.219	185.89
1248.482	186.54
1251.744	185.52
1255.006	187.29
1258.268	182.05
1261.529	181.01
1264.79	176.76
1268.051	172.71
1271.312	171.9
1274.572	168.79
1277.832	164.95
1281.092	162.75
1284.351	160.53
1287.61	160.38
1290.869	158.92
1294.128	158.51
1297.386	158.4
1300.644	158.29
1303.902	157.9
1307.159	156.2
1310.416	157.78
1313.673	159.41
1316.93	160.98
1320.186	163.23
1323.442	165.25
1326.697	167.9
1329.953	168.71
1333.208	173.2
1336.463	178.91
1339.717	182.63
1342.972	190.89
1346.226	194.84
1349.479	196.49
1352.733	203.84
1355.986	208.12
1359.238	211.43
1362.491	213.04
1365.743	221.41
1368.995	222.51
1372.247	221.62
1375.498	220.13
1378.749	228.29
1382	226.29
1385.251	224.91
1388.501	224.9
1391.751	226.3
1395	223.39
1398.25	225.26
1401.499	222.41
1404.748	220.53
1407.996	215.65
1411.244	215.9
1414.492	210.86
1417.74	205.9
1420.987	200.33
1424.234	195.42
1427.481	189.77
1430.728	184.93
1433.974	178.16
1437.22	172.75
1440.465	166.98
1443.711	162.47
1446.956	157
1450.201	151.45
1453.445	145.15
1456.689	141.82
1459.933	137.7
1463.177	130.76
1466.42	129.68
1469.663	126.43
1472.906	123.13
1476.148	119.69
1479.391	117.51
1482.633	115.88
1485.874	113.48
1489.115	112.85
1492.356	110.97
1495.597	109.53
1498.838	110.19
1502.078	108.6
1505.318	108.19
1508.557	107.63
1511.797	107.5
1515.036	106.85
1518.274	106.78
1521.513	106.02
1524.751	105.12
1527.989	106.71
1531.227	106.73
1534.464	106.37
1537.701	105.54
1540.938	105.25
1544.174	105.86
1547.41	105.81
1550.646	105.79
1553.882	106.05
1557.117	105.58
1560.352	105.91
1563.587	104.7
1566.821	104.54
1570.055	103.86
1573.289	103.54
1576.523	103.92
1579.756	103.36
1582.989	103.29
1586.222	103.28
1589.454	103.3
1592.686	104.28
1595.918	103.99
1599.15	103.95
1602.381	103.84
1605.612	104.16
1608.843	104.78
1612.073	105.22
1615.303	105.05
1618.533	105.35
1621.762	105.53
1624.992	105.27
1628.221	104.31
1631.449	105.16
1634.678	105.19
1637.906	105.34
1641.134	105.98
1644.361	106.36
1647.588	105.66
1650.815	106.23
1654.042	106.42
1657.269	105.96
1660.495	106.72
1663.72	107.31
1666.946	107.12
1670.171	107.9
1673.396	108.09
1676.621	107.96
1679.845	107.65
1683.069	107.59
1686.293	107.48
1689.517	107.81
1692.74	108.53
1695.963	107.85
1699.185	108.4
1702.408	108.07
1705.63	107.86
1708.852	108.52
1712.073	108.21
1715.294	108.3
1718.515	109.31
1721.736	109.27
1724.956	109.35
1728.176	109.01
1731.396	110.01
1734.616	109.77
1737.835	110.21
1741.054	109.89
1744.272	109.82
1747.491	109.53
1750.709	110.7
1753.927	110.43
1757.144	110.69
1760.361	110.5
1763.578	111.12
1766.795	111.18
1770.011	111.17
1773.227	111.33
1776.443	112.35
1779.658	112.11
1782.874	113.67
1786.089	112.38
1789.303	112.6
1792.518	113.23
1795.732	114.07
1798.945	114.9
1802.159	114.88
1805.372	116.15
1808.585	117.32
1811.797	117.92
1815.01	118.92
1818.222	118.98
1821.434	120.8
1824.645	121.73
1827.856	124
1831.067	124.29
1834.278	125.14
1837.488	126.12
1840.698	127.22
1843.908	127.06
1847.117	127.72
1850.326	128.69
1853.535	129.56
1856.744	130.24
1859.952	131.42
1863.16	130.43
1866.368	129.52
1869.575	129.31
1872.782	128.59
1875.989	126.88
1879.196	126.96
1882.402	125.82
1885.608	125.48
1888.814	124.12
1892.019	124.38
1895.224	121.83
1898.429	121.93
1901.634	122.25
1904.838	122.89
1908.042	123.6
1911.246	122.06
1914.449	121.94
1917.652	120.96
1920.855	121.21
1924.058	120.28
1927.26	119.57
1930.462	120.92
1933.664	120.77
1936.865	122.19
1940.066	119.87
1943.267	118.25
1946.467	121.21
1949.668	120.83
1952.868	122.33
1956.067	122.56
1959.267	123.02
1962.466	123.17
1965.665	123.99
1968.863	124.9
1972.061	123.86
1975.259	126.84
1978.457	129.42
1981.654	128.79
1984.852	130.41
1988.048	131.87
1991.245	134.03
1994.441	137.89
1997.637	140.18
2000.833	142.78
2004.028	143.63
2007.223	149.07
2010.418	152.64
2013.613	157.66
2016.807	162.92
2020.001	166.24
2023.194	170.87
2026.388	176.55
2029.581	185.45
2032.774	191.22
2035.966	196.77
2039.158	202.72
2042.35	206.44
2045.542	208.48
2048.733	218.2
2051.924	220.57
2055.115	224.34
2058.306	226.51
2061.496	229.28
2064.686	228.86
2067.875	226.54
2071.065	230.13
2074.254	231.01
2077.442	235.46
2080.631	238.42
2083.819	238.18
2087.007	243.02
2090.195	245.63
2093.382	246.82
2096.569	248.27
2099.756	250.56
2102.942	258.77
2106.128	262.28
2109.314	262.07
2112.5	263.61
2115.685	262.81
2118.87	262.7
2122.055	263.92
2125.239	268.53
2128.424	272.91
2131.608	273.35
2134.791	275.88
2137.974	274.24
2141.157	277.31
2144.34	281.84
2147.523	285.35
2150.705	292.05
2153.887	290.64
2157.068	293.08
2160.25	297.15
2163.431	297.52
2166.611	299.49
2169.792	304.15
2172.972	308.51
2176.152	309.04
2179.331	316.09
2182.511	318.26
2185.69	323.21
2188.868	336.43
2192.047	344.64
2195.225	349.87
2198.403	352.21
2201.58	351.89
2204.758	362.45
2207.935	367.52
2211.111	373.82
2214.288	375.04
2217.464	377.57
2220.64	378.55
2223.815	376.22
2226.991	371.81
2230.166	374.39
2233.34	386.58
2236.515	395.16
2239.689	390.21
2242.863	396.4
2246.036	393.96
2249.209	400.35
2252.382	402.19
2255.555	414.1
2258.727	417.88
2261.9	430.47
2265.071	435.4
2268.243	433.9
2271.414	445.02
2274.585	454.61
2277.756	456.89
2280.926	471.56
2284.096	473.13
2287.266	473.23
2290.436	467.98
2293.605	477.6
2296.774	490.77
2299.942	491.64
2303.111	502.23
2306.279	514.89
2309.447	515.25
2312.614	511.57
2315.781	523.97
2318.948	535.86
2322.115	547.97
2325.281	568.87
2328.447	569.24
2331.613	575.56
2334.779	583.48
2337.944	593.17
2341.109	599.86
2344.274	608.05
2347.438	628.23
2350.602	634.9
2353.766	677.01
2356.929	676.96
2360.092	695.29
2363.255	694.42
2366.418	701.1
2369.58	714.67
2372.742	722.96
2375.904	718.14
2379.066	735.48
2382.227	777.59
2385.388	778.84
2388.548	731.13
2391.709	723.11
2394.869	741.98
2398.029	747.33
2401.188	747.89
2404.347	771.09
2407.506	789.87
2410.665	761.1
2413.823	769
2416.981	771.14
2420.139	730.97
2423.296	793.06
2426.453	848.87
2429.61	801.09
2432.767	850.41
2435.923	881.04
2439.079	854.62
2442.235	869.71
2445.391	895.39
2448.546	886.18
2451.701	927.3
2454.855	997.36
2458.009	880.02
2461.163	883.12
2464.317	910.16
2467.471	892.78
2470.624	924.04
2473.777	902.8
2476.929	879
2480.082	933.78
2483.234	977.89
2486.385	993.89
2489.537	1017.73
2492.688	1125.11
2495.839	1114.03
2498.989	1136.11
2502.14	1138.78
2505.29	1096.9
2508.439	1208.32
2511.589	1240.4
2514.738	1205.12
2517.887	1198.17
2521.035	1123.54
2524.183	1106.19
2527.331	1091.4
2530.479	1069.79
2533.627	1094.05
