Data from N_3_div_pa_2n_Splice17_05.txt Node
Date: Sat Feb 29 14:55:57 EST 2020
User: sa697716
Spectrometer: FLMS03696
Trigger mode: 0
Integration Time (sec): 3.180400E-1
Scans to average: 20
Electric dark correction enabled: true
Nonlinearity correction enabled: true
Boxcar width: 5
XAxis mode: Wavelengths
Number of Pixels in Spectrum: 2048
>>>>>Begin Spectral Data<<<<<
187.83	96.27
188.298	99.57
188.766	101.45
189.233	99.07
189.701	117.88
190.169	112.3
190.636	149.76
191.104	196.24
191.571	962.5
192.039	663.38
192.506	-1108.06
192.974	-5915.77
193.441	642.64
193.908	61.75
194.375	108.88
194.842	354.24
195.31	187.49
195.777	191.71
196.244	95.05
196.711	76.57
197.177	73.27
197.644	72.44
198.111	72.56
198.578	72.45
199.045	72.39
199.511	71.79
199.978	72
200.445	71.62
200.911	72.1
201.378	72.14
201.844	73.07
202.31	73.61
202.777	73.76
203.243	73.93
203.709	74.29
204.176	73.9
204.642	73.98
205.108	73.54
205.574	73.8
206.04	73.41
206.506	72.99
206.972	71.82
207.438	71.09
207.903	70.47
208.369	68.75
208.835	67.68
209.301	66.71
209.766	65.54
210.232	64.19
210.697	62.95
211.163	61.81
211.628	60.75
212.094	59.97
212.559	58.49
213.024	57.27
213.49	56.25
213.955	55
214.42	53.59
214.885	51.8
215.35	49.86
215.815	46.9
216.28	43.92
216.745	40.46
217.21	36.73
217.675	33.53
218.14	30.41
218.604	27.66
219.069	25.42
219.534	23.55
219.998	21.94
220.463	20.59
220.927	19.48
221.392	18.52
221.856	17.73
222.32	17.07
222.785	16.46
223.249	15.99
223.713	15.61
224.177	15.13
224.642	14.73
225.106	14.35
225.57	13.99
226.034	13.67
226.497	13.34
226.961	13
227.425	12.7
227.889	12.46
228.353	12.16
228.816	11.87
229.28	11.61
229.744	11.38
230.207	11.17
230.671	10.95
231.134	10.75
231.597	10.57
232.061	10.41
232.524	10.25
232.987	10.08
233.45	9.94
233.914	9.8
234.377	9.7
234.84	9.56
235.303	9.44
235.766	9.33
236.229	9.24
236.691	9.12
237.154	9.04
237.617	8.94
238.08	8.84
238.542	8.76
239.005	8.68
239.468	8.57
239.93	8.49
240.393	8.4
240.855	8.32
241.317	8.23
241.78	8.16
242.242	8.05
242.704	7.96
243.166	7.89
243.629	7.78
244.091	7.7
244.553	7.64
245.015	7.57
245.477	7.5
245.939	7.43
246.4	7.35
246.862	7.29
247.324	7.25
247.786	7.18
248.247	7.12
248.709	7.09
249.17	7.02
249.632	6.95
250.093	6.88
250.555	6.82
251.016	6.77
251.477	6.72
251.939	6.66
252.4	6.61
252.861	6.57
253.322	6.52
253.783	6.48
254.244	6.44
254.705	6.4
255.166	6.38
255.627	6.34
256.088	6.28
256.549	6.25
257.009	6.2
257.47	6.16
257.931	6.11
258.391	6.05
258.852	5.99
259.312	5.94
259.773	5.89
260.233	5.83
260.694	5.79
261.154	5.75
261.614	5.71
262.074	5.67
262.534	5.61
262.994	5.58
263.455	5.54
263.915	5.5
264.374	5.46
264.834	5.43
265.294	5.39
265.754	5.34
266.214	5.3
266.673	5.27
267.133	5.23
267.593	5.21
268.052	5.17
268.512	5.15
268.971	5.13
269.431	5.11
269.89	5.08
270.349	5.07
270.809	5.05
271.268	5.03
271.727	5.01
272.186	4.99
272.645	4.97
273.104	4.96
273.563	4.94
274.022	4.92
274.481	4.9
274.94	4.88
275.399	4.86
275.857	4.84
276.316	4.83
276.775	4.8
277.233	4.79
277.692	4.78
278.15	4.76
278.609	4.74
279.067	4.73
279.525	4.72
279.984	4.71
280.442	4.7
280.9	4.69
281.358	4.68
281.816	4.68
282.274	4.67
282.732	4.66
283.19	4.67
283.648	4.66
284.106	4.65
284.564	4.65
285.021	4.66
285.479	4.65
285.937	4.65
286.394	4.64
286.852	4.64
287.309	4.64
287.767	4.63
288.224	4.62
288.682	4.61
289.139	4.59
289.596	4.57
290.053	4.54
290.511	4.52
290.968	4.5
291.425	4.48
291.882	4.46
292.339	4.43
292.796	4.39
293.252	4.37
293.709	4.34
294.166	4.33
294.623	4.31
295.079	4.3
295.536	4.29
295.992	4.27
296.449	4.26
296.905	4.24
297.362	4.23
297.818	4.22
298.274	4.21
298.731	4.2
299.187	4.19
299.643	4.19
300.099	4.17
300.555	4.16
301.011	4.15
301.467	4.13
301.923	4.12
302.379	4.11
302.835	4.11
303.291	4.11
303.746	4.1
304.202	4.08
304.658	4.07
305.113	4.06
305.569	4.06
306.024	4.06
306.479	4.06
306.935	4.06
307.39	4.06
307.845	4.05
308.301	4.05
308.756	4.06
309.211	4.07
309.666	4.08
310.121	4.08
310.576	4.08
311.031	4.08
311.486	4.09
311.94	4.09
312.395	4.1
312.85	4.1
313.305	4.1
313.759	4.1
314.214	4.1
314.668	4.09
315.123	4.1
315.577	4.1
316.032	4.1
316.486	4.09
316.94	4.09
317.394	4.08
317.849	4.07
318.303	4.06
318.757	4.04
319.211	4.02
319.665	4.01
320.119	4
320.572	3.99
321.026	3.97
321.48	3.96
321.934	3.95
322.387	3.95
322.841	3.94
323.295	3.93
323.748	3.93
324.202	3.94
324.655	3.92
325.108	3.91
325.562	3.89
326.015	3.89
326.468	3.88
326.921	3.87
327.374	3.86
327.827	3.86
328.28	3.85
328.733	3.83
329.186	3.83
329.639	3.83
330.092	3.83
330.545	3.84
330.997	3.84
331.45	3.85
331.903	3.85
332.355	3.86
332.808	3.86
333.26	3.87
333.713	3.88
334.165	3.89
334.617	3.89
335.069	3.9
335.522	3.9
335.974	3.9
336.426	3.9
336.878	3.91
337.33	3.91
337.782	3.92
338.234	3.92
338.686	3.92
339.137	3.92
339.589	3.91
340.041	3.89
340.493	3.88
340.944	3.87
341.396	3.87
341.847	3.85
342.299	3.83
342.75	3.8
343.201	3.78
343.653	3.78
344.104	3.76
344.555	3.74
345.006	3.73
345.457	3.71
345.908	3.7
346.359	3.69
346.81	3.69
347.261	3.68
347.712	3.68
348.163	3.69
348.613	3.68
349.064	3.67
349.515	3.66
349.965	3.65
350.416	3.65
350.866	3.66
351.317	3.65
351.767	3.65
352.217	3.64
352.668	3.65
353.118	3.64
353.568	3.64
354.018	3.66
354.468	3.67
354.918	3.67
355.368	3.68
355.818	3.67
356.268	3.68
356.718	3.69
357.168	3.7
357.617	3.7
358.067	3.7
358.517	3.7
358.966	3.7
359.416	3.72
359.865	3.73
360.315	3.74
360.764	3.75
361.213	3.76
361.663	3.77
362.112	3.78
362.561	3.79
363.01	3.81
363.459	3.82
363.908	3.82
364.357	3.83
364.806	3.83
365.255	3.85
365.703	3.85
366.152	3.87
366.601	3.89
367.05	3.9
367.498	3.92
367.947	3.94
368.395	3.97
368.844	3.98
369.292	3.99
369.74	4.02
370.189	4.04
370.637	4.06
371.085	4.08
371.533	4.1
371.981	4.12
372.429	4.13
372.877	4.16
373.325	4.17
373.773	4.2
374.221	4.23
374.669	4.26
375.116	4.29
375.564	4.3
376.012	4.33
376.459	4.37
376.907	4.41
377.354	4.44
377.801	4.47
378.249	4.51
378.696	4.57
379.143	4.61
379.591	4.64
380.038	4.69
380.485	4.75
380.932	4.8
381.379	4.83
381.826	4.88
382.273	4.92
382.72	4.98
383.166	5.03
383.613	5.07
384.06	5.13
384.506	5.17
384.953	5.21
385.4	5.25
385.846	5.3
386.292	5.37
386.739	5.42
387.185	5.5
387.631	5.56
388.078	5.62
388.524	5.66
388.97	5.72
389.416	5.78
389.862	5.84
390.308	5.9
390.754	5.97
391.2	6.04
391.645	6.11
392.091	6.16
392.537	6.23
392.983	6.31
393.428	6.39
393.874	6.48
394.319	6.56
394.765	6.63
395.21	6.69
395.655	6.75
396.101	6.81
396.546	6.87
396.991	6.93
397.436	6.96
397.881	7.03
398.326	7.11
398.771	7.17
399.216	7.25
399.661	7.34
400.106	7.41
400.551	7.46
400.995	7.51
401.44	7.54
401.885	7.59
402.329	7.64
402.774	7.67
403.218	7.68
403.663	7.71
404.107	7.73
404.551	7.77
404.995	7.79
405.44	7.82
405.884	7.86
406.328	7.9
406.772	7.93
407.216	7.97
407.66	8
408.104	8.04
408.547	8.06
408.991	8.08
409.435	8.09
409.879	8.11
410.322	8.12
410.766	8.14
411.209	8.16
411.653	8.17
412.096	8.17
412.54	8.19
412.983	8.21
413.426	8.24
413.869	8.27
414.312	8.29
414.756	8.32
415.199	8.35
415.642	8.4
416.085	8.44
416.527	8.49
416.97	8.53
417.413	8.54
417.856	8.53
418.298	8.51
418.741	8.5
419.184	8.5
419.626	8.5
420.069	8.51
420.511	8.5
420.953	8.49
421.396	8.46
421.838	8.46
422.28	8.48
422.722	8.52
423.164	8.53
423.606	8.55
424.048	8.56
424.49	8.57
424.932	8.57
425.374	8.57
425.816	8.56
426.258	8.52
426.699	8.46
427.141	8.39
427.582	8.35
428.024	8.33
428.465	8.34
428.907	8.34
429.348	8.32
429.789	8.3
430.231	8.26
430.672	8.25
431.113	8.29
431.554	8.33
431.995	8.38
432.436	8.38
432.877	8.36
433.318	8.35
433.759	8.35
434.2	8.36
434.64	8.37
435.081	8.37
435.522	8.42
435.962	8.44
436.403	8.49
436.843	8.51
437.284	8.56
437.724	8.62
438.164	8.67
438.604	8.71
439.045	8.76
439.485	8.81
439.925	8.85
440.365	8.87
440.805	8.89
441.245	8.89
441.685	8.95
442.125	9.02
442.564	9.1
443.004	9.16
443.444	9.22
443.883	9.29
444.323	9.35
444.762	9.46
445.202	9.57
445.641	9.67
446.081	9.79
446.52	9.86
446.959	9.96
447.398	10.05
447.837	10.16
448.276	10.25
448.716	10.33
449.154	10.41
449.593	10.49
450.032	10.56
450.471	10.63
450.91	10.68
451.349	10.73
451.787	10.74
452.226	10.76
452.664	10.76
453.103	10.77
453.541	10.77
453.98	10.78
454.418	10.77
454.856	10.76
455.295	10.75
455.733	10.73
456.171	10.73
456.609	10.71
457.047	10.68
457.485	10.68
457.923	10.68
458.361	10.67
458.798	10.68
459.236	10.69
459.674	10.68
460.111	10.68
460.549	10.69
460.987	10.7
461.424	10.71
461.862	10.73
462.299	10.72
462.736	10.73
463.173	10.74
463.611	10.72
464.048	10.72
464.485	10.73
464.922	10.73
465.359	10.74
465.796	10.72
466.233	10.73
466.67	10.75
467.106	10.75
467.543	10.78
467.98	10.8
468.416	10.85
468.853	10.86
469.29	10.91
469.726	10.95
470.162	10.97
470.599	11.02
471.035	11.07
471.471	11.07
471.907	11.11
472.344	11.13
472.78	11.17
473.216	11.2
473.652	11.22
474.088	11.24
474.523	11.27
474.959	11.28
475.395	11.29
475.831	11.3
476.266	11.34
476.702	11.35
477.138	11.37
477.573	11.37
478.008	11.37
478.444	11.37
478.879	11.37
479.314	11.37
479.75	11.38
480.185	11.39
480.62	11.4
481.055	11.4
481.49	11.4
481.925	11.39
482.36	11.4
482.795	11.4
483.229	11.4
483.664	11.4
484.099	11.41
484.534	11.42
484.968	11.44
485.403	11.44
485.837	11.45
486.271	11.47
486.706	11.49
487.14	11.52
487.574	11.56
488.009	11.61
488.443	11.67
488.877	11.73
489.311	11.78
489.745	11.85
490.179	11.92
490.613	12.01
491.046	12.1
491.48	12.21
491.914	12.31
492.348	12.43
492.781	12.52
493.215	12.64
493.648	12.76
494.082	12.91
494.515	13.04
494.948	13.19
495.382	13.34
495.815	13.48
496.248	13.65
496.681	13.81
497.114	13.97
497.547	14.16
497.98	14.36
498.413	14.56
498.846	14.75
499.279	14.97
499.711	15.18
500.144	15.39
500.577	15.63
501.009	15.87
501.442	16.12
501.874	16.37
502.306	16.65
502.739	16.89
503.171	17.18
503.603	17.48
504.036	17.78
504.468	18.1
504.9	18.44
505.332	18.77
505.764	19.09
506.196	19.44
506.627	19.8
507.059	20.14
507.491	20.52
507.923	20.89
508.354	21.26
508.786	21.64
509.217	22.02
509.649	22.41
510.08	22.81
510.512	23.19
510.943	23.61
511.374	24.02
511.805	24.42
512.237	24.84
512.668	25.26
513.099	25.69
513.53	26.12
513.961	26.54
514.391	26.94
514.822	27.36
515.253	27.8
515.684	28.19
516.114	28.62
516.545	29.03
516.975	29.46
517.406	29.86
517.836	30.24
518.267	30.64
518.697	31.04
519.127	31.44
519.558	31.81
519.988	32.19
520.418	32.57
520.848	32.93
521.278	33.3
521.708	33.5
522.138	33.79
522.567	34.13
522.997	34.44
523.427	34.74
523.857	35.02
524.286	35.34
524.716	35.62
525.145	35.9
525.575	36.14
526.004	36.39
526.433	36.76
526.863	37.05
527.292	37.26
527.721	37.47
528.15	37.68
528.579	37.89
529.008	38.05
529.437	38.22
529.866	38.37
530.295	38.56
530.724	38.74
531.152	38.88
531.581	39
532.01	39.15
532.438	39.29
532.867	39.42
533.295	39.55
533.723	39.67
534.152	39.79
534.58	39.9
535.008	39.97
535.436	40.05
535.865	40.11
536.293	40.2
536.721	40.27
537.149	40.32
537.576	40.35
538.004	40.38
538.432	40.42
538.86	40.47
539.287	40.49
539.715	40.54
540.143	40.54
540.57	40.59
540.998	40.64
541.425	40.67
541.852	40.73
542.28	40.78
542.707	40.85
543.134	40.9
543.561	40.92
543.988	40.96
544.415	41.02
544.842	41.09
545.269	41.14
545.696	41.18
546.123	41.23
546.549	41.27
546.976	41.31
547.403	41.31
547.829	41.38
548.256	41.43
548.682	41.46
549.108	41.48
549.535	41.5
549.961	41.52
550.387	41.54
550.813	41.54
551.24	41.55
551.666	41.57
552.092	41.59
552.518	41.58
552.943	41.58
553.369	41.62
553.795	41.62
554.221	41.63
554.646	41.63
555.072	41.63
555.498	41.6
555.923	41.59
556.349	41.54
556.774	41.51
557.199	41.48
557.625	41.43
558.05	41.37
558.475	41.31
558.9	41.26
559.325	41.19
559.75	41.11
560.175	41.04
560.6	40.95
561.025	40.9
561.449	40.83
561.874	40.73
562.299	40.66
562.723	40.55
563.148	40.47
563.572	40.39
563.997	40.26
564.421	40.15
564.846	40.04
565.27	39.93
565.694	39.77
566.118	39.62
566.542	39.51
566.966	39.34
567.39	39.17
567.814	38.99
568.238	38.77
568.662	38.62
569.086	38.44
569.509	38.27
569.933	38.07
570.357	37.89
570.78	37.68
571.204	37.46
571.627	37.26
572.05	37.12
572.474	36.93
572.897	36.78
573.32	36.59
573.743	36.45
574.166	36.27
574.589	36.13
575.012	36.01
575.435	35.87
575.858	35.76
576.281	35.64
576.704	35.51
577.126	35.38
577.549	35.27
577.972	35.18
578.394	35.06
578.817	34.97
579.239	34.87
579.661	34.74
580.084	34.67
580.506	34.56
580.928	34.49
581.35	34.4
581.772	34.35
582.194	34.27
582.616	34.17
583.038	34.11
583.46	34.04
583.882	33.98
584.303	33.92
584.725	33.86
585.147	33.78
585.568	33.68
585.99	33.63
586.411	33.55
586.833	33.48
587.254	33.41
587.675	33.35
588.096	33.3
588.518	33.22
588.939	33.18
589.36	33.12
589.781	33.1
590.202	33.06
590.623	33.02
591.043	32.99
591.464	32.94
591.885	32.91
592.305	32.88
592.726	32.85
593.147	32.86
593.567	32.82
593.987	32.8
594.408	32.77
594.828	32.76
595.248	32.73
595.669	32.7
596.089	32.67
596.509	32.65
596.929	32.61
597.349	32.57
597.769	32.53
598.189	32.5
598.608	32.45
599.028	32.39
599.448	32.34
599.867	32.27
600.287	32.21
600.706	32.15
601.126	32.08
601.545	31.99
601.965	31.89
602.384	31.8
602.803	31.7
603.222	31.6
603.641	31.51
604.061	31.41
604.48	31.29
604.898	31.18
605.317	31.06
605.736	30.94
606.155	30.82
606.574	30.71
606.992	30.58
607.411	30.47
607.829	30.3
608.248	30.17
608.666	30.04
609.085	29.92
609.503	29.79
609.921	29.67
610.339	29.55
610.758	29.43
611.176	29.31
611.594	29.19
612.012	29.05
612.43	28.97
612.847	28.85
613.265	28.73
613.683	28.61
614.101	28.49
614.518	28.36
614.936	28.25
615.353	28.13
615.771	28.03
616.188	27.94
616.606	27.84
617.023	27.74
617.44	27.65
617.857	27.56
618.274	27.48
618.691	27.41
619.108	27.36
619.525	27.28
619.942	27.21
620.359	27.15
620.776	27.09
621.192	27.04
621.609	26.98
622.026	26.94
622.442	26.91
622.859	26.87
623.275	26.87
623.691	26.82
624.108	26.8
624.524	26.79
624.94	26.76
625.356	26.73
625.772	26.73
626.188	26.73
626.604	26.69
627.02	26.68
627.436	26.65
627.852	26.6
628.268	26.57
628.683	26.55
629.099	26.54
629.514	26.52
629.93	26.5
630.345	26.45
630.761	26.42
631.176	26.4
631.591	26.35
632.007	26.32
632.422	26.28
632.837	26.23
633.252	26.18
633.667	26.09
634.082	26.01
634.497	25.92
634.911	25.83
635.326	25.72
635.741	25.6
636.155	25.49
636.57	25.38
636.984	25.25
637.399	25.1
637.813	24.95
638.228	24.83
638.642	24.68
639.056	24.52
639.47	24.36
639.884	24.21
640.298	24.05
640.712	23.88
641.126	23.7
641.54	23.51
641.954	23.35
642.368	23.16
642.781	22.96
643.195	22.76
643.609	22.59
644.022	22.38
644.436	22.19
644.849	22.01
645.262	21.83
645.676	21.65
646.089	21.5
646.502	21.3
646.915	21.15
647.328	20.99
647.741	20.84
648.154	20.72
648.567	20.61
648.98	20.46
649.393	20.33
649.805	20.21
650.218	20.08
650.631	19.94
651.043	19.85
651.456	19.73
651.868	19.6
652.28	19.48
652.693	19.32
653.105	19.15
653.517	19.01
653.929	18.87
654.341	18.71
654.753	18.53
655.165	18.36
655.577	18.17
655.989	17.94
656.401	17.71
656.813	17.49
657.224	17.26
657.636	17.04
658.047	16.79
658.459	16.52
658.87	16.25
659.282	16.01
659.693	15.74
660.104	15.47
660.515	15.21
660.926	14.98
661.338	14.72
661.749	14.47
662.159	14.23
662.57	13.98
662.981	13.74
663.392	13.51
663.803	13.28
664.213	13.09
664.624	12.89
665.035	12.69
665.445	12.5
665.855	12.32
666.266	12.17
666.676	11.99
667.086	11.85
667.497	11.72
667.907	11.58
668.317	11.45
668.727	11.32
669.137	11.21
669.547	11.14
669.956	11.05
670.366	10.97
670.776	10.88
671.186	10.81
671.595	10.75
672.005	10.7
672.414	10.65
672.824	10.62
673.233	10.6
673.642	10.57
674.052	10.54
674.461	10.54
674.87	10.53
675.279	10.55
675.688	10.57
676.097	10.6
676.506	10.62
676.915	10.66
677.323	10.74
677.732	10.8
678.141	10.9
678.549	11.01
678.958	11.13
679.366	11.26
679.775	11.42
680.183	11.62
680.592	11.84
681	12.1
681.408	12.37
681.816	12.64
682.224	13
682.632	13.37
683.04	13.78
683.448	14.22
683.856	14.73
684.264	15.27
684.671	15.84
685.079	16.44
685.487	17.07
685.894	17.76
686.302	18.48
686.709	19.2
687.116	19.96
687.524	20.74
687.931	21.54
688.338	22.34
688.745	23.16
689.152	24.01
689.559	24.85
689.966	25.7
690.373	26.57
690.78	27.41
691.187	28.26
691.593	29.08
692	29.92
692.407	30.74
692.813	31.56
693.22	32.34
693.626	33.1
694.032	33.87
694.439	34.62
694.845	35.31
695.251	36.01
695.657	36.66
696.063	37.32
696.469	37.95
696.875	38.54
697.281	39.09
697.687	39.69
698.093	40.25
698.498	40.8
698.904	41.34
699.31	41.85
699.715	42.37
700.12	42.85
700.526	43.31
700.931	43.73
701.337	44.18
701.742	44.64
702.147	45.02
702.552	45.42
702.957	45.79
703.362	46.17
703.767	46.53
704.172	46.87
704.577	47.24
704.981	47.58
705.386	47.89
705.791	48.21
706.195	48.49
706.6	48.76
707.004	49.05
707.408	49.35
707.813	49.58
708.217	49.8
708.621	50.04
709.025	50.25
709.43	50.46
709.834	50.73
710.237	50.93
710.641	51.17
711.045	51.37
711.449	51.55
711.853	51.75
712.256	51.94
712.66	52.15
713.064	52.31
713.467	52.5
713.87	52.68
714.274	52.85
714.677	53.04
715.08	53.18
715.484	53.37
715.887	53.54
716.29	53.69
716.693	53.83
717.096	53.95
717.499	54.08
717.901	54.22
718.304	54.35
718.707	54.47
719.109	54.6
719.512	54.77
719.915	54.89
720.317	55.03
720.719	55.15
721.122	55.27
721.524	55.42
721.926	55.56
722.328	55.7
722.731	55.82
723.133	55.92
723.535	56.01
723.937	56.09
724.338	56.15
724.74	56.21
725.142	56.16
725.544	56.22
725.945	56.28
726.347	56.34
726.748	56.35
727.15	56.4
727.551	56.46
727.952	56.51
728.354	56.54
728.755	56.61
729.156	56.68
729.557	56.84
729.958	56.91
730.359	56.97
730.76	57.02
731.161	57.09
731.562	57.17
731.962	57.22
732.363	57.23
732.763	57.3
733.164	57.37
733.564	57.43
733.965	57.43
734.365	57.45
734.766	57.46
735.166	57.46
735.566	57.44
735.966	57.43
736.366	57.41
736.766	57.45
737.166	57.44
737.566	57.41
737.966	57.4
738.365	57.45
738.765	57.5
739.165	57.5
739.564	57.52
739.964	57.57
740.363	57.6
740.763	57.64
741.162	57.64
741.561	57.68
741.96	57.74
742.36	57.78
742.759	57.77
743.158	57.75
743.557	57.79
743.955	57.86
744.354	57.86
744.753	57.89
745.152	57.92
745.55	57.96
745.949	57.93
746.348	57.95
746.746	57.95
747.144	58.02
747.543	58.06
747.941	58.1
748.339	58.11
748.737	58.18
749.136	58.18
749.534	58.22
749.932	58.24
750.33	58.27
750.727	58.25
751.125	58.25
751.523	58.2
751.921	58.2
752.318	58.18
752.716	58.13
753.113	58.1
753.511	58.05
753.908	58.04
754.305	58
754.703	58
755.1	57.99
755.497	57.97
755.894	57.98
756.291	57.96
756.688	57.96
757.085	57.95
757.482	57.93
757.878	57.96
758.275	57.89
758.672	57.88
759.068	57.86
759.465	57.86
759.861	57.86
760.258	57.8
760.654	57.78
761.05	57.76
761.447	57.76
761.843	57.72
762.239	57.68
762.635	57.73
763.031	57.75
763.427	57.69
763.822	57.63
764.218	57.6
764.614	57.59
765.01	57.6
765.405	57.58
765.801	57.57
766.196	57.58
766.592	57.58
766.987	57.58
767.382	57.55
767.778	57.58
768.173	57.59
768.568	57.57
768.963	57.57
769.358	57.56
769.753	57.57
770.148	57.57
770.542	57.57
770.937	57.56
771.332	57.55
771.726	57.58
772.121	57.56
772.515	57.59
772.91	57.62
773.304	57.61
773.699	57.64
774.093	57.59
774.487	57.63
774.881	57.64
775.275	57.64
775.669	57.63
776.063	57.6
776.457	57.58
776.851	57.57
777.245	57.56
777.638	57.55
778.032	57.54
778.425	57.56
778.819	57.5
779.212	57.47
779.606	57.51
779.999	57.48
780.392	57.5
780.786	57.51
781.179	57.54
781.572	57.54
781.965	57.56
782.358	57.54
782.751	57.55
783.143	57.6
783.536	57.62
783.929	57.63
784.322	57.7
784.714	57.74
785.107	57.77
785.499	57.76
785.891	57.81
786.284	57.8
786.676	57.84
787.068	57.84
787.46	57.86
787.852	57.87
788.245	57.87
788.636	57.83
789.028	57.77
789.42	57.77
789.812	57.77
790.204	57.7
790.595	57.72
790.987	57.73
791.378	57.78
791.77	57.78
792.161	57.8
792.553	57.83
792.944	57.85
793.335	57.9
793.726	57.87
794.117	57.9
794.508	57.95
794.899	57.95
795.29	57.92
795.681	57.94
796.072	57.91
796.463	57.89
796.853	57.86
797.244	57.86
797.634	57.85
798.025	57.88
798.415	57.92
798.806	57.95
799.196	58
799.586	58.02
799.976	58
800.366	58.05
800.756	58.09
801.146	58.09
801.536	58.08
801.926	58.06
802.316	58.1
802.706	58.1
803.095	58.12
803.485	58.11
803.874	58.12
804.264	58.12
804.653	58.11
805.043	58.11
805.432	58.11
805.821	58.14
806.21	58.25
806.599	58.28
806.988	58.3
807.377	58.34
807.766	58.34
808.155	58.35
808.544	58.38
808.933	58.42
809.321	58.45
809.71	58.51
810.098	58.53
810.487	58.49
810.875	58.48
811.264	58.48
811.652	58.49
812.04	58.51
812.428	58.56
812.816	58.58
813.204	58.59
813.592	58.63
813.98	58.64
814.368	58.67
814.756	58.69
815.144	58.75
815.531	58.76
815.919	58.78
816.306	58.78
816.694	58.75
817.081	58.74
817.469	58.75
817.856	58.73
818.243	58.71
818.63	58.73
819.017	58.73
819.404	58.7
819.791	58.73
820.178	58.74
820.565	58.75
820.952	58.76
821.339	58.8
821.725	58.84
822.112	58.88
822.498	58.89
822.885	58.88
823.271	58.87
823.657	58.86
824.044	58.86
824.43	58.88
824.816	58.87
825.202	58.89
825.588	58.91
825.974	58.87
826.36	58.81
826.746	58.84
827.132	58.82
827.517	58.82
827.903	58.82
828.289	58.79
828.674	58.73
829.06	58.75
829.445	58.75
829.83	58.71
830.216	58.71
830.601	58.71
830.986	58.68
831.371	58.7
831.756	58.66
832.141	58.69
832.526	58.69
832.911	58.7
833.295	58.66
833.68	58.65
834.065	58.64
834.449	58.6
834.834	58.6
835.218	58.58
835.603	58.55
835.987	58.53
836.371	58.49
836.755	58.48
837.139	58.45
837.524	58.43
837.908	58.38
838.291	58.37
838.675	58.35
839.059	58.33
839.443	58.3
839.827	58.27
840.21	58.32
840.594	58.29
840.977	58.27
841.361	58.28
841.744	58.3
842.127	58.29
842.511	58.26
842.894	58.27
843.277	58.27
843.66	58.27
844.043	58.29
844.426	58.24
844.809	58.24
845.191	58.2
845.574	58.19
845.957	58.13
846.339	58.15
846.722	58.17
847.104	58.17
847.487	58.15
847.869	58.16
848.252	58.12
848.634	58.14
849.016	58.16
849.398	58.19
849.78	58.16
850.162	58.16
850.544	58.17
850.926	58.13
851.307	58.12
851.689	58.12
852.071	58.11
852.452	58.11
852.834	58.08
853.215	58.08
853.597	58.09
853.978	58.08
854.359	58.1
854.741	58.07
855.122	58.07
855.503	58.08
855.884	58.07
856.265	58.06
856.646	58.05
857.026	58.05
857.407	58
857.788	58
858.169	58.02
858.549	58.05
858.93	58.08
859.31	58.08
859.69	58.06
860.071	58.05
860.451	58.06
860.831	58.07
861.211	58.06
861.591	58.11
861.971	58.08
862.351	58.07
862.731	58.02
863.111	58.01
863.491	58.02
863.87	58.03
864.25	58.04
864.629	58.06
865.009	58.07
865.388	58.06
865.768	58.06
866.147	58.09
866.526	58.07
866.905	58.12
867.284	58.12
867.663	58.12
868.042	58.12
868.421	58.15
868.8	58.13
869.179	58.16
869.558	58.17
869.936	58.15
870.315	58.13
870.693	58.13
871.072	58.11
871.45	58.11
871.828	58.12
872.207	58.12
872.585	58.08
872.963	58.06
873.341	58.01
873.719	58.01
874.097	58.02
874.475	58.02
874.853	58.03
875.23	58.04
875.608	58.04
875.986	58
876.363	57.97
876.741	57.98
877.118	57.98
877.495	58
877.873	57.98
878.25	57.98
878.627	58
879.004	58
879.381	58
879.758	57.96
880.135	57.97
880.512	57.98
880.889	57.97
881.265	58.01
881.642	58.01
882.019	58.02
882.395	58
882.772	57.97
883.148	57.96
883.524	57.96
883.901	58
884.277	57.96
884.653	57.99
885.029	57.99
885.405	57.94
885.781	57.9
886.157	57.9
886.532	57.91
886.908	57.93
887.284	57.93
887.659	57.92
888.035	57.9
888.411	57.89
888.786	57.83
889.161	57.81
889.537	57.82
889.912	57.83
890.287	57.8
890.662	57.77
891.037	57.69
891.412	57.63
891.787	57.59
892.162	57.53
892.536	57.52
892.911	57.5
893.286	57.46
893.66	57.42
894.035	57.37
894.409	57.36
894.784	57.34
895.158	57.33
895.532	57.31
895.906	57.31
896.281	57.29
896.655	57.27
897.029	57.27
897.402	57.27
897.776	57.29
898.15	57.29
898.524	57.27
898.898	57.24
899.271	57.25
899.645	57.28
900.018	57.25
900.392	57.28
900.765	57.29
901.138	57.32
901.511	57.37
901.884	57.34
902.258	57.36
902.631	57.36
903.003	57.39
903.376	57.4
903.749	57.4
904.122	57.42
904.495	57.44
904.867	57.44
905.24	57.39
905.612	57.35
905.985	57.36
906.357	57.37
906.729	57.39
907.102	57.41
907.474	57.4
907.846	57.38
908.218	57.39
908.59	57.37
908.962	57.37
909.334	57.4
909.705	57.41
910.077	57.4
910.449	57.41
910.82	57.37
911.192	57.31
911.563	57.33
911.935	57.35
912.306	57.34
912.677	57.36
913.048	57.38
913.419	57.39
913.79	57.38
914.161	57.38
914.532	57.36
914.903	57.4
915.274	57.44
915.645	57.45
916.015	57.46
916.386	57.43
916.756	57.4
917.127	57.37
917.497	57.36
917.868	57.37
918.238	57.4
918.608	57.4
918.978	57.35
919.348	57.34
919.718	57.35
920.088	57.34
920.458	57.4
920.828	57.42
921.198	57.45
921.567	57.44
921.937	57.47
922.306	57.44
922.676	57.42
923.045	57.4
923.415	57.4
923.784	57.36
924.153	57.37
924.522	57.38
924.891	57.35
925.26	57.34
925.629	57.35
925.998	57.3
926.367	57.34
926.736	57.37
927.104	57.46
927.473	57.48
927.842	57.46
928.21	57.49
928.578	57.43
928.947	57.42
929.315	57.4
929.683	57.41
930.051	57.42
930.42	57.35
930.788	57.3
931.156	57.21
931.523	57.21
931.891	57.15
932.259	57.06
932.627	56.99
932.994	56.93
933.362	56.85
933.729	56.72
934.097	56.62
934.464	56.52
934.831	56.46
935.199	56.39
935.566	56.24
935.933	56.33
936.3	56.27
936.667	56.22
937.034	56.19
937.401	56.2
937.767	56.2
938.134	56.19
938.501	56.26
938.867	56.36
939.234	56.48
939.6	56.6
939.967	56.57
940.333	56.79
940.699	57.04
941.065	57.22
941.431	57.32
941.798	57.47
942.163	57.75
942.529	57.89
942.895	58.04
943.261	58.13
943.627	58.32
943.992	58.36
944.358	58.33
944.723	58.28
945.089	58.34
945.454	58.4
945.82	58.47
946.185	58.43
946.55	58.52
946.915	58.49
947.28	58.48
947.645	58.42
948.01	58.42
948.375	58.47
948.74	58.44
949.104	58.39
949.469	58.27
949.834	58.25
950.198	58.16
950.562	58.05
950.927	57.98
951.291	57.88
951.655	57.79
952.02	57.72
952.384	57.63
952.748	57.62
953.112	57.54
953.476	57.57
953.839	57.5
954.203	57.49
954.567	57.52
954.931	57.5
955.294	57.53
955.658	57.45
956.021	57.44
956.385	57.43
956.748	57.4
957.111	57.38
957.474	57.36
957.837	57.4
958.2	57.37
958.563	57.32
958.926	57.26
959.289	57.26
959.652	57.29
960.015	57.29
960.377	57.24
960.74	57.17
961.102	57.14
961.465	57.12
961.827	56.98
962.189	56.93
962.552	56.83
962.914	56.82
963.276	56.77
963.638	56.67
964	56.6
964.362	56.6
964.724	56.64
965.085	56.58
965.447	56.45
965.809	56.44
966.17	56.43
966.532	56.46
966.893	56.44
967.255	56.36
967.616	56.44
967.977	56.53
968.338	56.48
968.699	56.4
969.061	56.43
969.421	56.45
969.782	56.46
970.143	56.43
970.504	56.36
970.865	56.35
971.225	56.4
971.586	56.45
971.946	56.36
972.307	56.38
972.667	56.43
973.027	56.41
973.388	56.52
973.748	56.59
974.108	56.59
974.468	56.79
974.828	56.82
975.188	56.86
975.548	56.8
975.907	56.86
976.267	56.93
976.627	56.93
976.986	56.93
977.346	56.84
977.705	56.85
978.064	56.89
978.424	56.77
978.783	56.82
979.142	56.8
979.501	56.77
979.86	56.73
980.219	56.64
980.578	56.64
980.937	56.65
981.296	56.71
981.654	56.74
982.013	56.67
982.371	56.64
982.73	56.56
983.088	56.45
983.447	56.47
983.805	56.47
984.163	56.59
984.521	56.56
984.879	56.63
985.237	56.61
985.595	56.61
985.953	56.68
986.311	56.82
986.669	56.81
987.026	56.88
987.384	56.82
987.741	56.89
988.099	56.85
988.456	56.88
988.814	56.92
989.171	56.95
989.528	56.92
989.885	56.9
990.242	56.92
990.599	56.93
990.956	56.93
991.313	57.1
991.67	57.14
992.027	57.07
992.383	57.19
992.74	57.12
993.096	57.07
993.453	57.1
993.809	57.22
994.165	57.06
994.522	57.17
994.878	57.23
995.234	57.19
995.59	57.06
995.946	57.21
996.302	57.04
996.658	57.2
997.013	57.37
997.369	57.5
997.725	57.55
998.08	57.62
998.436	57.69
998.791	57.77
999.147	57.81
999.502	57.9
999.857	58.02
1000.212	58.27
1000.567	58.24
1000.922	58.27
1001.277	58.21
1001.632	58.28
1001.987	58.23
1002.342	58.25
1002.696	58.36
1003.051	58.17
1003.406	58.15
1003.76	58.01
1004.114	58
1004.469	57.88
1004.823	57.9
1005.177	58.08
1005.531	57.97
1005.885	58.35
1006.239	58.32
1006.593	58.18
1006.947	58.39
1007.301	58.6
1007.655	58.66
1008.008	58.61
1008.362	58.85
1008.715	59.02
1009.069	58.74
1009.422	58.66
1009.776	58.47
1010.129	58.38
1010.482	58.62
1010.835	58.85
1011.188	58.73
1011.541	58.72
1011.894	58.84
1012.247	58.85
1012.6	58.75
1012.952	58.91
1013.305	59.13
1013.657	59.28
1014.01	59.65
1014.362	59.71
1014.715	59.48
1015.067	59.8
1015.419	60.12
1015.771	60.23
1016.123	60.33
1016.475	60.52
1016.827	60.9
1017.179	60.98
1017.531	61.05
1017.883	61.02
1018.234	61.02
1018.586	61.19
1018.938	61
1019.289	60.79
1019.64	61.16
1019.992	61.22
1020.343	60.84
1020.694	60.69
1021.045	60.61
1021.396	60.52
1021.747	60.68
1022.098	60.67
1022.449	60.93
1022.8	61.15
1023.151	60.99
1023.501	60.55
1023.852	60.78
1024.202	61.24
1024.553	61.36
1024.903	61.51
1025.253	61.87
1025.604	62.08
1025.954	62.44
1026.304	62.68
1026.654	62.72
1027.004	63.15
1027.354	63.53
1027.703	63.19
1028.053	63.31
1028.403	63.21
1028.753	63.67
1029.102	63.5
1029.452	63.23
1029.801	62.88
1030.15	62.81
1030.499	62.8
897.758	445.9
901.051	460.98
904.343	465.41
907.636	457
910.928	450.24
914.22	455.05
917.511	446.96
920.803	428.25
924.094	411.16
927.384	414.96
930.675	403.66
933.965	400.92
937.255	393.04
940.544	375.33
943.834	365
947.123	359.97
950.411	341.9
953.7	334.56
956.988	327.33
960.276	318.41
963.563	314.92
966.851	296.56
970.138	293.11
973.424	277.36
976.711	272.4
979.997	261.17
983.283	254.75
986.568	248.1
989.853	243.7
993.138	235.03
996.423	228.9
999.708	223.35
1002.992	223.76
1006.275	217.45
1009.559	215.6
1012.842	210.39
1016.125	204.33
1019.408	200.75
1022.69	199.4
1025.972	195.12
1029.254	192.2
1032.536	188.79
1035.817	183.45
1039.098	182.07
1042.379	177.24
1045.659	175.43
1048.939	173.69
1052.219	172.28
1055.498	169.9
1058.778	167.13
1062.057	164.69
1065.335	163.17
1068.614	160.13
1071.892	157.06
1075.17	155.51
1078.447	153.67
1081.724	151.96
1085.001	148.63
1088.278	147.81
1091.554	146.53
1094.83	145.64
1098.106	144.61
1101.382	143.41
1104.657	143.71
1107.932	143.8
1111.206	142.67
1114.481	142.43
1117.755	140.76
1121.029	141.28
1124.302	138.7
1127.575	137.52
1130.848	137.14
1134.121	135.27
1137.393	135.03
1140.665	134.37
1143.937	132.46
1147.208	131.24
1150.48	128.81
1153.75	129.26
1157.021	127.9
1160.291	127.98
1163.561	127.4
1166.831	126.5
1170.101	125.97
1173.37	125.37
1176.639	124.06
1179.907	123.93
1183.176	123.17
1186.444	124.23
1189.711	123.23
1192.979	124.04
1196.246	124.19
1199.513	123.96
1202.78	123.79
1206.046	123.65
1209.312	125.12
1212.578	125.41
1215.843	127.4
1219.108	128.14
1222.373	129.18
1225.638	130.58
1228.902	133.38
1232.166	136.33
1235.43	137.88
1238.693	142.17
1241.956	144.87
1245.219	146.66
1248.482	148.14
1251.744	147.21
1255.006	148.04
1258.268	144.77
1261.529	144.13
1264.79	140.78
1268.051	138.76
1271.312	137.94
1274.572	134.71
1277.832	132.45
1281.092	130.83
1284.351	128.33
1287.61	128.37
1290.869	126.69
1294.128	126.49
1297.386	125.98
1300.644	125.46
1303.902	124.91
1307.159	123.46
1310.416	124.45
1313.673	125.43
1316.93	127.34
1320.186	129.44
1323.442	130.53
1326.697	133.31
1329.953	134.17
1333.208	138.51
1336.463	142.69
1339.717	144.98
1342.972	152.39
1346.226	155.3
1349.479	156.59
1352.733	160.77
1355.986	163.95
1359.238	167.88
1362.491	168.62
1365.743	175.25
1368.995	175.66
1372.247	179.29
1375.498	177.7
1378.749	181.46
1382	182.29
1385.251	180.47
1388.501	180.85
1391.751	181.98
1395	180.05
1398.25	181.99
1401.499	180.11
1404.748	179.14
1407.996	171.33
1411.244	172.18
1414.492	169.87
1417.74	163.39
1420.987	160.53
1424.234	157.59
1427.481	151.66
1430.728	147.49
1433.974	142.04
1437.22	138.31
1440.465	133.38
1443.711	129.37
1446.956	125.8
1450.201	121.22
1453.445	116.36
1456.689	113.18
1459.933	109.6
1463.177	105.56
1466.42	103.94
1469.663	101.03
1472.906	97.84
1476.148	96.31
1479.391	94.65
1482.633	92.82
1485.874	91.6
1489.115	91.42
1492.356	90.41
1495.597	88.95
1498.838	89.38
1502.078	88.47
1505.318	88.53
1508.557	88.35
1511.797	87.43
1515.036	87.21
1518.274	87.11
1521.513	86.23
1524.751	85.57
1527.989	86.77
1531.227	86.63
1534.464	86.23
1537.701	86.18
1540.938	85.53
1544.174	85.73
1547.41	86.36
1550.646	86.45
1553.882	86.55
1557.117	86.6
1560.352	86.45
1563.587	85.57
1566.821	85.52
1570.055	84.98
1573.289	85.09
1576.523	85.39
1579.756	85.08
1582.989	84.52
1586.222	84.72
1589.454	84.43
1592.686	84.96
1595.918	84.98
1599.15	84.53
1602.381	85.33
1605.612	85.53
1608.843	85.13
1612.073	85.25
1615.303	85.25
1618.533	85.4
1621.762	85.49
1624.992	86.17
1628.221	85.28
1631.449	85.44
1634.678	85.86
1637.906	85.28
1641.134	85.91
1644.361	85.79
1647.588	86.57
1650.815	86.77
1654.042	86.88
1657.269	86.2
1660.495	86.18
1663.72	86.43
1666.946	86.97
1670.171	87.12
1673.396	87.58
1676.621	87.63
1679.845	88.21
1683.069	87.95
1686.293	87.82
1689.517	88.08
1692.74	88.61
1695.963	88.27
1699.185	88.84
1702.408	88.02
1705.63	88.32
1708.852	89.03
1712.073	88.36
1715.294	88.16
1718.515	88.51
1721.736	88.6
1724.956	88.64
1728.176	88.55
1731.396	89.33
1734.616	89.23
1737.835	90.06
1741.054	89.31
1744.272	88.75
1747.491	89.19
1750.709	89.51
1753.927	88.99
1757.144	89.28
1760.361	89.09
1763.578	90.02
1766.795	89.82
1770.011	89.86
1773.227	90.24
1776.443	91.41
1779.658	90.78
1782.874	91.37
1786.089	90.96
1789.303	91.38
1792.518	91.83
1795.732	92.48
1798.945	93.16
1802.159	93.23
1805.372	94.2
1808.585	94.63
1811.797	95.04
1815.01	95.91
1818.222	96.27
1821.434	98.08
1824.645	98.24
1827.856	99.7
1831.067	99.93
1834.278	99.64
1837.488	100.76
1840.698	102.17
1843.908	101.84
1847.117	102.36
1850.326	103.27
1853.535	103.3
1856.744	103.69
1859.952	104.61
1863.16	103.36
1866.368	102.96
1869.575	103.51
1872.782	102.68
1875.989	99.43
1879.196	100.16
1882.402	98.79
1885.608	98.46
1888.814	97.43
1892.019	98.15
1895.224	96.05
1898.429	96.25
1901.634	95.89
1904.838	95.91
1908.042	95.81
1911.246	95.92
1914.449	95.43
1917.652	95.67
1920.855	96.15
1924.058	95.44
1927.26	93.3
1930.462	94.02
1933.664	94.25
1936.865	95.55
1940.066	93.51
1943.267	92.69
1946.467	94.81
1949.668	94.31
1952.868	93.8
1956.067	93.32
1959.267	95.14
1962.466	95.51
1965.665	97.1
1968.863	97.15
1972.061	97.79
1975.259	100.53
1978.457	101.79
1981.654	101.57
1984.852	103.04
1988.048	104.81
1991.245	107.13
1994.441	109.01
1997.637	111.8
2000.833	112.51
2004.028	114.23
2007.223	116.45
2010.418	118.01
2013.613	123.71
2016.807	127.5
2020.001	129.89
2023.194	133.19
2026.388	138.05
2029.581	144.13
2032.774	148.9
2035.966	153.4
2039.158	157.71
2042.35	159.66
2045.542	164.26
2048.733	171.84
2051.924	172.85
2055.115	175.49
2058.306	177.85
2061.496	178.74
2064.686	179.89
2067.875	177.87
2071.065	181.96
2074.254	181.68
2077.442	187.59
2080.631	188.91
2083.819	186.32
2087.007	193.13
2090.195	195.07
2093.382	194.56
2096.569	196.32
2099.756	199
2102.942	203.08
2106.128	206.85
2109.314	208.86
2112.5	209.56
2115.685	207.89
2118.87	209.28
2122.055	208.59
2125.239	213.06
2128.424	218.32
2131.608	217.59
2134.791	216.28
2137.974	218.5
2141.157	219.82
2144.34	222.23
2147.523	226.94
2150.705	232.72
2153.887	229.28
2157.068	231.52
2160.25	235.96
2163.431	236.59
2166.611	239.79
2169.792	244.29
2172.972	246.31
2176.152	246.02
2179.331	249.63
2182.511	248.6
2185.69	252.88
2188.868	263.69
2192.047	269.49
2195.225	271.68
2198.403	273.92
2201.58	268.94
2204.758	280.21
2207.935	280.26
2211.111	287.53
2214.288	290.52
2217.464	295.34
2220.64	293.4
2223.815	294.32
2226.991	291.05
2230.166	292.4
2233.34	300.09
2236.515	310.2
2239.689	303.64
2242.863	308.87
2246.036	306.24
2249.209	312.96
2252.382	311.12
2255.555	323.04
2258.727	325.04
2261.9	336.82
2265.071	341.93
2268.243	340.54
2271.414	349.39
2274.585	357.81
2277.756	357.43
2280.926	371.05
2284.096	376.86
2287.266	378.24
2290.436	369.57
2293.605	376.71
2296.774	386.07
2299.942	387.86
2303.111	399.59
2306.279	409.2
2309.447	406.43
2312.614	411.27
2315.781	414.13
2318.948	419.22
2322.115	426.38
2325.281	452.78
2328.447	449.72
2331.613	452.34
2334.779	455.22
2337.944	460.23
2341.109	465.57
2344.274	473.66
2347.438	480.96
2350.602	494.5
2353.766	517.14
2356.929	521.32
2360.092	524.79
2363.255	528.56
2366.418	534.7
2369.58	545.7
2372.742	558.75
2375.904	555.23
2379.066	572.56
2382.227	613.98
2385.388	613.03
2388.548	583.92
2391.709	574.32
2394.869	593.64
2398.029	601.18
2401.188	601.29
2404.347	618.84
2407.506	629.86
2410.665	604.81
2413.823	611.09
2416.981	605.32
2420.139	574.84
2423.296	621.49
2426.453	663.3
2429.61	630.05
2432.767	665.32
2435.923	684.25
2439.079	672.32
2442.235	681.48
2445.391	704.57
2448.546	693.09
2451.701	728.5
2454.855	778.94
2458.009	692.86
2461.163	703.99
2464.317	717
2467.471	704.94
2470.624	726.51
2473.777	706.31
2476.929	691.32
2480.082	731.22
2483.234	765.88
2486.385	785.25
2489.537	801.18
2492.688	879.98
2495.839	867.26
2498.989	896.6
2502.14	894.29
2505.29	855.36
2508.439	941.87
2511.589	960.18
2514.738	942.96
2517.887	933.03
2521.035	873.2
2524.183	866.51
2527.331	857.37
2530.479	838.2
2533.627	851.42
