Data from N_3_div_pa_2n_Splice17_16.txt Node
Date: Sat Feb 29 14:56:18 EST 2020
User: sa697716
Spectrometer: FLMS03696
Trigger mode: 0
Integration Time (sec): 3.180400E-1
Scans to average: 20
Electric dark correction enabled: true
Nonlinearity correction enabled: true
Boxcar width: 5
XAxis mode: Wavelengths
Number of Pixels in Spectrum: 2048
>>>>>Begin Spectral Data<<<<<
187.83	144.85
188.298	148.8
188.766	113.5
189.233	107.96
189.701	130.91
190.169	124.33
190.636	128.23
191.104	140.98
191.571	382.24
192.039	319.71
192.506	-509.68
192.974	-637.06
193.441	97.92
193.908	-18.34
194.375	-58.66
194.842	179.04
195.31	87.68
195.777	42.83
196.244	70.03
196.711	68.77
197.177	71.38
197.644	71.83
198.111	72.1
198.578	73.1
199.045	73.27
199.511	73.06
199.978	73.24
200.445	73.36
200.911	73.75
201.378	73.93
201.844	74.6
202.31	74.24
202.777	74.36
203.243	74.66
203.709	74.35
204.176	74.11
204.642	73.68
205.108	73.19
205.574	73.02
206.04	72.82
206.506	71.95
206.972	71.19
207.438	70.97
207.903	70.14
208.369	68.6
208.835	67.33
209.301	66.47
209.766	65.26
210.232	63.89
210.697	62.43
211.163	60.87
211.628	59.66
212.094	59.13
212.559	57.54
213.024	56.29
213.49	55.14
213.955	53.93
214.42	52.44
214.885	50.45
215.35	48.3
215.815	45.76
216.28	42.99
216.745	39.72
217.21	36.01
217.675	32.94
218.14	30.1
218.604	27.52
219.069	25.14
219.534	23.11
219.998	21.58
220.463	20.26
220.927	19.09
221.392	18.04
221.856	17.16
222.32	16.42
222.785	15.77
223.249	15.21
223.713	14.69
224.177	14.29
224.642	13.94
225.106	13.57
225.57	13.21
226.034	12.88
226.497	12.58
226.961	12.31
227.425	12.03
227.889	11.79
228.353	11.53
228.816	11.32
229.28	11.06
229.744	10.85
230.207	10.65
230.671	10.44
231.134	10.24
231.597	10.05
232.061	9.89
232.524	9.75
232.987	9.6
233.45	9.45
233.914	9.3
234.377	9.19
234.84	9.05
235.303	8.94
235.766	8.82
236.229	8.75
236.691	8.67
237.154	8.57
237.617	8.47
238.08	8.39
238.542	8.32
239.005	8.24
239.468	8.14
239.93	8.07
240.393	7.98
240.855	7.9
241.317	7.82
241.78	7.74
242.242	7.66
242.704	7.57
243.166	7.5
243.629	7.41
244.091	7.35
244.553	7.28
245.015	7.21
245.477	7.13
245.939	7.07
246.4	6.99
246.862	6.93
247.324	6.89
247.786	6.84
248.247	6.77
248.709	6.71
249.17	6.65
249.632	6.59
250.093	6.52
250.555	6.49
251.016	6.46
251.477	6.4
251.939	6.35
252.4	6.29
252.861	6.24
253.322	6.19
253.783	6.16
254.244	6.11
254.705	6.08
255.166	6.06
255.627	6
256.088	5.94
256.549	5.9
257.009	5.85
257.47	5.81
257.931	5.77
258.391	5.71
258.852	5.66
259.312	5.61
259.773	5.56
260.233	5.5
260.694	5.46
261.154	5.42
261.614	5.37
262.074	5.32
262.534	5.27
262.994	5.23
263.455	5.19
263.915	5.15
264.374	5.11
264.834	5.08
265.294	5.04
265.754	5
266.214	4.96
266.673	4.93
267.133	4.89
267.593	4.87
268.052	4.84
268.512	4.81
268.971	4.79
269.431	4.76
269.89	4.74
270.349	4.72
270.809	4.7
271.268	4.69
271.727	4.67
272.186	4.65
272.645	4.63
273.104	4.62
273.563	4.61
274.022	4.6
274.481	4.59
274.94	4.57
275.399	4.56
275.857	4.55
276.316	4.53
276.775	4.51
277.233	4.49
277.692	4.49
278.15	4.46
278.609	4.44
279.067	4.42
279.525	4.4
279.984	4.39
280.442	4.37
280.9	4.35
281.358	4.35
281.816	4.34
282.274	4.33
282.732	4.32
283.19	4.33
283.648	4.33
284.106	4.33
284.564	4.34
285.021	4.34
285.479	4.35
285.937	4.35
286.394	4.34
286.852	4.34
287.309	4.34
287.767	4.33
288.224	4.32
288.682	4.3
289.139	4.29
289.596	4.27
290.053	4.24
290.511	4.21
290.968	4.19
291.425	4.16
291.882	4.14
292.339	4.12
292.796	4.09
293.252	4.08
293.709	4.05
294.166	4.04
294.623	4.03
295.079	4.02
295.536	4.01
295.992	4
296.449	4
296.905	3.98
297.362	3.97
297.818	3.96
298.274	3.94
298.731	3.93
299.187	3.92
299.643	3.9
300.099	3.89
300.555	3.87
301.011	3.86
301.467	3.85
301.923	3.85
302.379	3.84
302.835	3.84
303.291	3.83
303.746	3.83
304.202	3.83
304.658	3.82
305.113	3.83
305.569	3.83
306.024	3.83
306.479	3.82
306.935	3.82
307.39	3.82
307.845	3.82
308.301	3.82
308.756	3.83
309.211	3.83
309.666	3.83
310.121	3.82
310.576	3.82
311.031	3.82
311.486	3.83
311.94	3.83
312.395	3.83
312.85	3.84
313.305	3.83
313.759	3.84
314.214	3.83
314.668	3.83
315.123	3.84
315.577	3.85
316.032	3.85
316.486	3.84
316.94	3.84
317.394	3.83
317.849	3.81
318.303	3.81
318.757	3.78
319.211	3.77
319.665	3.76
320.119	3.75
320.572	3.74
321.026	3.73
321.48	3.72
321.934	3.71
322.387	3.7
322.841	3.7
323.295	3.69
323.748	3.69
324.202	3.69
324.655	3.68
325.108	3.67
325.562	3.66
326.015	3.65
326.468	3.64
326.921	3.63
327.374	3.62
327.827	3.62
328.28	3.61
328.733	3.6
329.186	3.6
329.639	3.59
330.092	3.6
330.545	3.59
330.997	3.59
331.45	3.59
331.903	3.59
332.355	3.6
332.808	3.61
333.26	3.62
333.713	3.63
334.165	3.64
334.617	3.65
335.069	3.66
335.522	3.68
335.974	3.69
336.426	3.69
336.878	3.7
337.33	3.69
337.782	3.7
338.234	3.7
338.686	3.7
339.137	3.7
339.589	3.69
340.041	3.68
340.493	3.67
340.944	3.66
341.396	3.65
341.847	3.63
342.299	3.62
342.75	3.59
343.201	3.57
343.653	3.55
344.104	3.54
344.555	3.53
345.006	3.51
345.457	3.5
345.908	3.49
346.359	3.48
346.81	3.48
347.261	3.48
347.712	3.48
348.163	3.47
348.613	3.47
349.064	3.46
349.515	3.45
349.965	3.45
350.416	3.45
350.866	3.45
351.317	3.45
351.767	3.45
352.217	3.45
352.668	3.45
353.118	3.46
353.568	3.46
354.018	3.48
354.468	3.49
354.918	3.5
355.368	3.51
355.818	3.52
356.268	3.53
356.718	3.54
357.168	3.53
357.617	3.54
358.067	3.54
358.517	3.55
358.966	3.55
359.416	3.57
359.865	3.56
360.315	3.57
360.764	3.57
361.213	3.58
361.663	3.58
362.112	3.6
362.561	3.61
363.01	3.62
363.459	3.62
363.908	3.64
364.357	3.65
364.806	3.66
365.255	3.68
365.703	3.69
366.152	3.71
366.601	3.73
367.05	3.75
367.498	3.77
367.947	3.79
368.395	3.82
368.844	3.82
369.292	3.84
369.74	3.86
370.189	3.88
370.637	3.89
371.085	3.91
371.533	3.93
371.981	3.95
372.429	3.96
372.877	3.99
373.325	4.01
373.773	4.04
374.221	4.07
374.669	4.11
375.116	4.13
375.564	4.16
376.012	4.19
376.459	4.23
376.907	4.26
377.354	4.29
377.801	4.33
378.249	4.36
378.696	4.41
379.143	4.44
379.591	4.48
380.038	4.53
380.485	4.57
380.932	4.61
381.379	4.64
381.826	4.69
382.273	4.74
382.72	4.78
383.166	4.83
383.613	4.87
384.06	4.92
384.506	4.96
384.953	5.01
385.4	5.06
385.846	5.11
386.292	5.18
386.739	5.22
387.185	5.29
387.631	5.35
388.078	5.42
388.524	5.46
388.97	5.52
389.416	5.59
389.862	5.65
390.308	5.71
390.754	5.78
391.2	5.84
391.645	5.92
392.091	5.98
392.537	6.05
392.983	6.13
393.428	6.22
393.874	6.31
394.319	6.38
394.765	6.45
395.21	6.51
395.655	6.57
396.101	6.64
396.546	6.71
396.991	6.77
397.436	6.82
397.881	6.87
398.326	6.95
398.771	7.02
399.216	7.1
399.661	7.18
400.106	7.25
400.551	7.31
400.995	7.34
401.44	7.37
401.885	7.42
402.329	7.46
402.774	7.49
403.218	7.52
403.663	7.53
404.107	7.56
404.551	7.59
404.995	7.62
405.44	7.65
405.884	7.68
406.328	7.71
406.772	7.75
407.216	7.79
407.66	7.83
408.104	7.84
408.547	7.87
408.991	7.89
409.435	7.88
409.879	7.9
410.322	7.92
410.766	7.95
411.209	7.98
411.653	8
412.096	8.02
412.54	8.04
412.983	8.07
413.426	8.11
413.869	8.14
414.312	8.19
414.756	8.24
415.199	8.29
415.642	8.33
416.085	8.38
416.527	8.41
416.97	8.46
417.413	8.47
417.856	8.49
418.298	8.48
418.741	8.48
419.184	8.48
419.626	8.49
420.069	8.48
420.511	8.49
420.953	8.48
421.396	8.47
421.838	8.47
422.28	8.5
422.722	8.52
423.164	8.53
423.606	8.56
424.048	8.55
424.49	8.55
424.932	8.57
425.374	8.56
425.816	8.55
426.258	8.52
426.699	8.46
427.141	8.42
427.582	8.39
428.024	8.38
428.465	8.38
428.907	8.38
429.348	8.38
429.789	8.34
430.231	8.33
430.672	8.32
431.113	8.33
431.554	8.37
431.995	8.4
432.436	8.41
432.877	8.4
433.318	8.38
433.759	8.39
434.2	8.39
434.64	8.43
435.081	8.42
435.522	8.47
435.962	8.51
436.403	8.55
436.843	8.59
437.284	8.64
437.724	8.71
438.164	8.76
438.604	8.8
439.045	8.84
439.485	8.87
439.925	8.95
440.365	8.99
440.805	9.03
441.245	9.05
441.685	9.12
442.125	9.19
442.564	9.28
443.004	9.35
443.444	9.43
443.883	9.51
444.323	9.6
444.762	9.7
445.202	9.81
445.641	9.88
446.081	10.01
446.52	10.08
446.959	10.16
447.398	10.24
447.837	10.35
448.276	10.44
448.716	10.54
449.154	10.63
449.593	10.72
450.032	10.8
450.471	10.86
450.91	10.9
451.349	10.99
451.787	11.02
452.226	11.05
452.664	11.05
453.103	11.07
453.541	11.1
453.98	11.1
454.418	11.09
454.856	11.07
455.295	11.07
455.733	11.07
456.171	11.06
456.609	11.06
457.047	11.06
457.485	11.06
457.923	11.05
458.361	11.02
458.798	11.02
459.236	11.03
459.674	11.03
460.111	11.04
460.549	11.02
460.987	11.01
461.424	11.01
461.862	11
462.299	11.01
462.736	11
463.173	11.01
463.611	11.02
464.048	11.03
464.485	11.04
464.922	11.04
465.359	11.06
465.796	11.06
466.233	11.08
466.67	11.09
467.106	11.11
467.543	11.16
467.98	11.2
468.416	11.22
468.853	11.22
469.29	11.26
469.726	11.29
470.162	11.3
470.599	11.36
471.035	11.38
471.471	11.41
471.907	11.44
472.344	11.47
472.78	11.49
473.216	11.51
473.652	11.52
474.088	11.54
474.523	11.56
474.959	11.59
475.395	11.6
475.831	11.64
476.266	11.66
476.702	11.68
477.138	11.67
477.573	11.67
478.008	11.69
478.444	11.71
478.879	11.7
479.314	11.69
479.75	11.7
480.185	11.7
480.62	11.69
481.055	11.69
481.49	11.67
481.925	11.68
482.36	11.68
482.795	11.67
483.229	11.68
483.664	11.68
484.099	11.7
484.534	11.72
484.968	11.74
485.403	11.77
485.837	11.78
486.271	11.82
486.706	11.86
487.14	11.9
487.574	11.94
488.009	12
488.443	12.06
488.877	12.11
489.311	12.18
489.745	12.24
490.179	12.31
490.613	12.39
491.046	12.49
491.48	12.6
491.914	12.71
492.348	12.82
492.781	12.92
493.215	13.05
493.648	13.19
494.082	13.31
494.515	13.46
494.948	13.6
495.382	13.75
495.815	13.92
496.248	14.07
496.681	14.22
497.114	14.4
497.547	14.59
497.98	14.79
498.413	14.99
498.846	15.21
499.279	15.42
499.711	15.64
500.144	15.88
500.577	16.09
501.009	16.34
501.442	16.6
501.874	16.86
502.306	17.13
502.739	17.4
503.171	17.69
503.603	17.98
504.036	18.3
504.468	18.62
504.9	18.95
505.332	19.29
505.764	19.64
506.196	19.99
506.627	20.35
507.059	20.72
507.491	21.1
507.923	21.47
508.354	21.87
508.786	22.25
509.217	22.64
509.649	23.05
510.08	23.45
510.512	23.85
510.943	24.27
511.374	24.69
511.805	25.12
512.237	25.55
512.668	25.97
513.099	26.39
513.53	26.81
513.961	27.24
514.391	27.65
514.822	28.08
515.253	28.52
515.684	28.92
516.114	29.34
516.545	29.74
516.975	30.15
517.406	30.56
517.836	30.97
518.267	31.36
518.697	31.78
519.127	32.18
519.558	32.56
519.988	32.94
520.418	33.33
520.848	33.71
521.278	34.08
521.708	34.29
522.138	34.62
522.567	34.95
522.997	35.28
523.427	35.59
523.857	35.87
524.286	36.18
524.716	36.45
525.145	36.72
525.575	36.97
526.004	37.23
526.433	37.61
526.863	37.87
527.292	38.1
527.721	38.29
528.15	38.5
528.579	38.72
529.008	38.89
529.437	39.11
529.866	39.27
530.295	39.45
530.724	39.62
531.152	39.77
531.581	39.91
532.01	40.05
532.438	40.19
532.867	40.32
533.295	40.45
533.723	40.57
534.152	40.64
534.58	40.74
535.008	40.8
535.436	40.86
535.865	40.93
536.293	41
536.721	41.06
537.149	41.13
537.576	41.18
538.004	41.2
538.432	41.25
538.86	41.29
539.287	41.36
539.715	41.43
540.143	41.46
540.57	41.5
540.998	41.55
541.425	41.57
541.852	41.62
542.28	41.66
542.707	41.71
543.134	41.76
543.561	41.79
543.988	41.85
544.415	41.88
544.842	41.93
545.269	41.99
545.696	42.04
546.123	42.1
546.549	42.14
546.976	42.18
547.403	42.2
547.829	42.23
548.256	42.28
548.682	42.27
549.108	42.31
549.535	42.35
549.961	42.36
550.387	42.38
550.813	42.38
551.24	42.39
551.666	42.4
552.092	42.44
552.518	42.46
552.943	42.48
553.369	42.51
553.795	42.51
554.221	42.47
554.646	42.45
555.072	42.44
555.498	42.42
555.923	42.39
556.349	42.35
556.774	42.31
557.199	42.27
557.625	42.22
558.05	42.14
558.475	42.09
558.9	42.03
559.325	41.98
559.75	41.9
560.175	41.85
560.6	41.79
561.025	41.71
561.449	41.63
561.874	41.52
562.299	41.44
562.723	41.38
563.148	41.26
563.572	41.18
563.997	41.07
564.421	40.97
564.846	40.84
565.27	40.7
565.694	40.55
566.118	40.4
566.542	40.25
566.966	40.08
567.39	39.89
567.814	39.73
568.238	39.52
568.662	39.33
569.086	39.12
569.509	38.93
569.933	38.75
570.357	38.54
570.78	38.35
571.204	38.14
571.627	37.96
572.05	37.8
572.474	37.62
572.897	37.47
573.32	37.3
573.743	37.16
574.166	37.02
574.589	36.85
575.012	36.73
575.435	36.59
575.858	36.47
576.281	36.35
576.704	36.23
577.126	36.12
577.549	36.03
577.972	35.92
578.394	35.79
578.817	35.67
579.239	35.59
579.661	35.49
580.084	35.4
580.506	35.31
580.928	35.21
581.35	35.11
581.772	35.03
582.194	34.92
582.616	34.87
583.038	34.8
583.46	34.72
583.882	34.65
584.303	34.6
584.725	34.53
585.147	34.45
585.568	34.37
585.99	34.29
586.411	34.2
586.833	34.15
587.254	34.06
587.675	34
588.096	33.96
588.518	33.9
588.939	33.85
589.36	33.78
589.781	33.76
590.202	33.75
590.623	33.72
591.043	33.69
591.464	33.66
591.885	33.62
592.305	33.6
592.726	33.54
593.147	33.54
593.567	33.5
593.987	33.5
594.408	33.47
594.828	33.41
595.248	33.39
595.669	33.38
596.089	33.35
596.509	33.3
596.929	33.25
597.349	33.22
597.769	33.17
598.189	33.14
598.608	33.06
599.028	33
599.448	32.96
599.867	32.88
600.287	32.81
600.706	32.73
601.126	32.67
601.545	32.6
601.965	32.53
602.384	32.44
602.803	32.34
603.222	32.25
603.641	32.16
604.061	32.06
604.48	31.96
604.898	31.84
605.317	31.74
605.736	31.62
606.155	31.5
606.574	31.36
606.992	31.24
607.411	31.12
607.829	30.97
608.248	30.84
608.666	30.72
609.085	30.58
609.503	30.45
609.921	30.31
610.339	30.19
610.758	30.06
611.176	29.93
611.594	29.79
612.012	29.66
612.43	29.58
612.847	29.45
613.265	29.32
613.683	29.19
614.101	29.05
614.518	28.94
614.936	28.83
615.353	28.74
615.771	28.65
616.188	28.55
616.606	28.45
617.023	28.34
617.44	28.23
617.857	28.14
618.274	28.06
618.691	28
619.108	27.93
619.525	27.86
619.942	27.77
620.359	27.71
620.776	27.65
621.192	27.59
621.609	27.55
622.026	27.52
622.442	27.49
622.859	27.45
623.275	27.44
623.691	27.41
624.108	27.38
624.524	27.34
624.94	27.33
625.356	27.31
625.772	27.31
626.188	27.31
626.604	27.27
627.02	27.26
627.436	27.26
627.852	27.21
628.268	27.19
628.683	27.16
629.099	27.17
629.514	27.12
629.93	27.09
630.345	27.03
630.761	27
631.176	26.97
631.591	26.91
632.007	26.86
632.422	26.84
632.837	26.78
633.252	26.72
633.667	26.65
634.082	26.59
634.497	26.5
634.911	26.42
635.326	26.31
635.741	26.21
636.155	26.11
636.57	25.99
636.984	25.85
637.399	25.7
637.813	25.54
638.228	25.37
638.642	25.21
639.056	25.07
639.47	24.9
639.884	24.72
640.298	24.56
640.712	24.37
641.126	24.19
641.54	24.01
641.954	23.85
642.368	23.67
642.781	23.49
643.195	23.29
643.609	23.11
644.022	22.92
644.436	22.76
644.849	22.55
645.262	22.4
645.676	22.2
646.089	22.02
646.502	21.85
646.915	21.69
647.328	21.53
647.741	21.38
648.154	21.24
648.567	21.1
648.98	20.97
649.393	20.84
649.805	20.7
650.218	20.6
650.631	20.49
651.043	20.37
651.456	20.25
651.868	20.13
652.28	19.99
652.693	19.84
653.105	19.7
653.517	19.54
653.929	19.38
654.341	19.22
654.753	19.02
655.165	18.82
655.577	18.6
655.989	18.37
656.401	18.14
656.813	17.91
657.224	17.69
657.636	17.45
658.047	17.21
658.459	16.95
658.87	16.67
659.282	16.42
659.693	16.16
660.104	15.91
660.515	15.66
660.926	15.43
661.338	15.18
661.749	14.89
662.159	14.64
662.57	14.39
662.981	14.15
663.392	13.94
663.803	13.69
664.213	13.47
664.624	13.25
665.035	13.04
665.445	12.83
665.855	12.63
666.266	12.48
666.676	12.31
667.086	12.16
667.497	12.01
667.907	11.86
668.317	11.74
668.727	11.62
669.137	11.52
669.547	11.44
669.956	11.35
670.366	11.29
670.776	11.21
671.186	11.15
671.595	11.1
672.005	11.05
672.414	11.03
672.824	11
673.233	10.98
673.642	10.94
674.052	10.92
674.461	10.91
674.87	10.91
675.279	10.92
675.688	10.92
676.097	10.94
676.506	10.98
676.915	11.02
677.323	11.08
677.732	11.15
678.141	11.24
678.549	11.35
678.958	11.48
679.366	11.61
679.775	11.78
680.183	11.98
680.592	12.2
681	12.45
681.408	12.71
681.816	13.02
682.224	13.37
682.632	13.75
683.04	14.15
683.448	14.61
683.856	15.09
684.264	15.62
684.671	16.2
685.079	16.8
685.487	17.47
685.894	18.15
686.302	18.87
686.709	19.59
687.116	20.36
687.524	21.14
687.931	21.93
688.338	22.77
688.745	23.61
689.152	24.44
689.559	25.29
689.966	26.11
690.373	26.99
690.78	27.84
691.187	28.72
691.593	29.56
692	30.41
692.407	31.24
692.813	32.05
693.22	32.82
693.626	33.62
694.032	34.4
694.439	35.17
694.845	35.89
695.251	36.59
695.657	37.26
696.063	37.94
696.469	38.59
696.875	39.2
697.281	39.81
697.687	40.44
698.093	41.02
698.498	41.58
698.904	42.13
699.31	42.63
699.715	43.16
700.12	43.62
700.526	44.1
700.931	44.53
701.337	44.98
701.742	45.37
702.147	45.78
702.552	46.19
702.957	46.58
703.362	46.94
703.767	47.31
704.172	47.65
704.577	48.02
704.981	48.34
705.386	48.67
705.791	49.01
706.195	49.31
706.6	49.59
707.004	49.89
707.408	50.16
707.813	50.42
708.217	50.64
708.621	50.89
709.025	51.13
709.43	51.36
709.834	51.64
710.237	51.87
710.641	52.12
711.045	52.31
711.449	52.49
711.853	52.66
712.256	52.87
712.66	53.06
713.064	53.27
713.467	53.44
713.87	53.61
714.274	53.75
714.677	53.9
715.08	54.04
715.484	54.24
715.887	54.39
716.29	54.55
716.693	54.7
717.096	54.85
717.499	54.97
717.901	55.09
718.304	55.22
718.707	55.34
719.109	55.48
719.512	55.66
719.915	55.73
720.317	55.88
720.719	56.02
721.122	56.09
721.524	56.21
721.926	56.33
722.328	56.44
722.731	56.55
723.133	56.64
723.535	56.72
723.937	56.78
724.338	56.87
724.74	56.9
725.142	56.87
725.544	56.97
725.945	57.02
726.347	57.11
726.748	57.17
727.15	57.24
727.551	57.31
727.952	57.36
728.354	57.44
728.755	57.55
729.156	57.61
729.557	57.76
729.958	57.79
730.359	57.87
730.76	57.89
731.161	57.93
731.562	57.97
731.962	58.02
732.363	58.06
732.763	58.09
733.164	58.09
733.564	58.13
733.965	58.16
734.365	58.18
734.766	58.22
735.166	58.21
735.566	58.23
735.966	58.23
736.366	58.21
736.766	58.22
737.166	58.23
737.566	58.27
737.966	58.3
738.365	58.33
738.765	58.38
739.165	58.37
739.564	58.42
739.964	58.43
740.363	58.44
740.763	58.47
741.162	58.46
741.561	58.5
741.96	58.52
742.36	58.54
742.759	58.52
743.158	58.51
743.557	58.54
743.955	58.6
744.354	58.63
744.753	58.69
745.152	58.71
745.55	58.78
745.949	58.78
746.348	58.78
746.746	58.79
747.144	58.86
747.543	58.92
747.941	58.97
748.339	59
748.737	59.05
749.136	59.05
749.534	59.08
749.932	59.07
750.33	59.09
750.727	59.12
751.125	59.12
751.523	59.09
751.921	59.08
752.318	59.05
752.716	58.99
753.113	58.98
753.511	58.94
753.908	58.9
754.305	58.85
754.703	58.81
755.1	58.76
755.497	58.73
755.894	58.72
756.291	58.67
756.688	58.63
757.085	58.62
757.482	58.59
757.878	58.59
758.275	58.6
758.672	58.63
759.068	58.63
759.465	58.65
759.861	58.65
760.258	58.61
760.654	58.61
761.05	58.62
761.447	58.61
761.843	58.57
762.239	58.55
762.635	58.55
763.031	58.54
763.427	58.49
763.822	58.45
764.218	58.42
764.614	58.42
765.01	58.4
765.405	58.34
765.801	58.32
766.196	58.34
766.592	58.35
766.987	58.35
767.382	58.35
767.778	58.38
768.173	58.4
768.568	58.42
768.963	58.42
769.358	58.4
769.753	58.46
770.148	58.46
770.542	58.44
770.937	58.43
771.332	58.38
771.726	58.34
772.121	58.31
772.515	58.29
772.91	58.3
773.304	58.32
773.699	58.34
774.093	58.33
774.487	58.34
774.881	58.4
775.275	58.4
775.669	58.45
776.063	58.47
776.457	58.47
776.851	58.43
777.245	58.4
777.638	58.39
778.032	58.37
778.425	58.36
778.819	58.34
779.212	58.27
779.606	58.28
779.999	58.25
780.392	58.27
780.786	58.28
781.179	58.34
781.572	58.35
781.965	58.34
782.358	58.33
782.751	58.32
783.143	58.34
783.536	58.42
783.929	58.41
784.322	58.42
784.714	58.41
785.107	58.44
785.499	58.42
785.891	58.44
786.284	58.42
786.676	58.47
787.068	58.51
787.46	58.53
787.852	58.49
788.245	58.51
788.636	58.52
789.028	58.51
789.42	58.49
789.812	58.5
790.204	58.47
790.595	58.48
790.987	58.45
791.378	58.42
791.77	58.43
792.161	58.44
792.553	58.43
792.944	58.46
793.335	58.49
793.726	58.49
794.117	58.47
794.508	58.5
794.899	58.53
795.29	58.56
795.681	58.61
796.072	58.61
796.463	58.56
796.853	58.58
797.244	58.59
797.634	58.58
798.025	58.64
798.415	58.69
798.806	58.72
799.196	58.74
799.586	58.75
799.976	58.75
800.366	58.77
800.756	58.84
801.146	58.84
801.536	58.84
801.926	58.86
802.316	58.84
802.706	58.89
803.095	58.87
803.485	58.89
803.874	58.88
804.264	58.91
804.653	58.88
805.043	58.86
805.432	58.87
805.821	58.87
806.21	58.91
806.599	58.98
806.988	58.96
807.377	58.99
807.766	58.99
808.155	59.04
808.544	59.02
808.933	59.08
809.321	59.12
809.71	59.18
810.098	59.19
810.487	59.19
810.875	59.15
811.264	59.17
811.652	59.17
812.04	59.2
812.428	59.22
812.816	59.25
813.204	59.26
813.592	59.25
813.98	59.22
814.368	59.23
814.756	59.25
815.144	59.3
815.531	59.29
815.919	59.31
816.306	59.33
816.694	59.36
817.081	59.36
817.469	59.36
817.856	59.41
818.243	59.43
818.63	59.5
819.017	59.51
819.404	59.48
819.791	59.52
820.178	59.5
820.565	59.46
820.952	59.43
821.339	59.45
821.725	59.5
822.112	59.49
822.498	59.51
822.885	59.47
823.271	59.51
823.657	59.51
824.044	59.46
824.43	59.51
824.816	59.53
825.202	59.51
825.588	59.51
825.974	59.45
826.36	59.44
826.746	59.45
827.132	59.4
827.517	59.34
827.903	59.35
828.289	59.4
828.674	59.33
829.06	59.31
829.445	59.34
829.83	59.32
830.216	59.35
830.601	59.32
830.986	59.3
831.371	59.33
831.756	59.31
832.141	59.31
832.526	59.28
832.911	59.33
833.295	59.33
833.68	59.29
834.065	59.29
834.449	59.25
834.834	59.19
835.218	59.15
835.603	59.14
835.987	59.13
836.371	59.12
836.755	59.06
837.139	59.02
837.524	58.97
837.908	58.98
838.291	58.97
838.675	58.98
839.059	59.01
839.443	59.01
839.827	58.94
840.21	58.95
840.594	58.94
840.977	58.94
841.361	58.93
841.744	58.95
842.127	58.93
842.511	58.89
842.894	58.84
843.277	58.82
843.66	58.8
844.043	58.83
844.426	58.79
844.809	58.77
845.191	58.77
845.574	58.73
845.957	58.7
846.339	58.69
846.722	58.72
847.104	58.74
847.487	58.75
847.869	58.78
848.252	58.77
848.634	58.78
849.016	58.8
849.398	58.8
849.78	58.82
850.162	58.84
850.544	58.83
850.926	58.79
851.307	58.8
851.689	58.76
852.071	58.77
852.452	58.76
852.834	58.72
853.215	58.69
853.597	58.71
853.978	58.69
854.359	58.66
854.741	58.67
855.122	58.68
855.503	58.67
855.884	58.68
856.265	58.62
856.646	58.61
857.026	58.63
857.407	58.6
857.788	58.6
858.169	58.6
858.549	58.63
858.93	58.66
859.31	58.66
859.69	58.63
860.071	58.64
860.451	58.65
860.831	58.64
861.211	58.66
861.591	58.7
861.971	58.65
862.351	58.67
862.731	58.67
863.111	58.67
863.491	58.67
863.87	58.68
864.25	58.67
864.629	58.67
865.009	58.7
865.388	58.68
865.768	58.67
866.147	58.71
866.526	58.7
866.905	58.7
867.284	58.67
867.663	58.64
868.042	58.67
868.421	58.69
868.8	58.69
869.179	58.69
869.558	58.71
869.936	58.68
870.315	58.66
870.693	58.67
871.072	58.65
871.45	58.67
871.828	58.71
872.207	58.72
872.585	58.68
872.963	58.68
873.341	58.69
873.719	58.7
874.097	58.74
874.475	58.75
874.853	58.71
875.23	58.73
875.608	58.7
875.986	58.67
876.363	58.65
876.741	58.65
877.118	58.65
877.495	58.59
877.873	58.54
878.25	58.53
878.627	58.54
879.004	58.58
879.381	58.56
879.758	58.55
880.135	58.55
880.512	58.56
880.889	58.6
881.265	58.64
881.642	58.69
882.019	58.71
882.395	58.7
882.772	58.68
883.148	58.66
883.524	58.7
883.901	58.69
884.277	58.67
884.653	58.65
885.029	58.63
885.405	58.57
885.781	58.55
886.157	58.53
886.532	58.48
886.908	58.48
887.284	58.48
887.659	58.45
888.035	58.47
888.411	58.45
888.786	58.41
889.161	58.38
889.537	58.4
889.912	58.39
890.287	58.35
890.662	58.35
891.037	58.29
891.412	58.24
891.787	58.19
892.162	58.13
892.536	58.12
892.911	58.1
893.286	58.05
893.66	57.99
894.035	57.92
894.409	57.93
894.784	57.92
895.158	57.92
895.532	57.9
895.906	57.91
896.281	57.86
896.655	57.85
897.029	57.81
897.402	57.82
897.776	57.81
898.15	57.84
898.524	57.82
898.898	57.8
899.271	57.79
899.645	57.79
900.018	57.77
900.392	57.83
900.765	57.86
901.138	57.9
901.511	57.91
901.884	57.93
902.258	57.93
902.631	57.96
903.003	57.96
903.376	57.97
903.749	57.99
904.122	58.03
904.495	58.01
904.867	58
905.24	58.03
905.612	58.03
905.985	58.03
906.357	58.01
906.729	57.98
907.102	57.99
907.474	58.03
907.846	58.02
908.218	57.98
908.59	57.95
908.962	57.93
909.334	57.91
909.705	57.9
910.077	57.89
910.449	57.92
910.82	57.9
911.192	57.9
911.563	57.88
911.935	57.87
912.306	57.91
912.677	57.95
913.048	57.93
913.419	57.94
913.79	57.97
914.161	57.95
914.532	57.95
914.903	57.98
915.274	57.97
915.645	57.99
916.015	58.01
916.386	57.98
916.756	57.94
917.127	57.96
917.497	57.94
917.868	57.93
918.238	57.98
918.608	58
918.978	57.99
919.348	58.02
919.718	57.96
920.088	57.96
920.458	57.99
920.828	58.03
921.198	58.03
921.567	58.05
921.937	58.07
922.306	58.05
922.676	58.06
923.045	58.04
923.415	58
923.784	58.06
924.153	58.02
924.522	58.02
924.891	58.04
925.26	58.04
925.629	58.02
925.998	58
926.367	57.95
926.736	57.86
927.104	57.88
927.473	57.92
927.842	57.88
928.21	57.92
928.578	57.88
928.947	57.83
929.315	57.85
929.683	57.87
930.051	57.85
930.42	57.89
930.788	57.86
931.156	57.81
931.523	57.73
931.891	57.64
932.259	57.55
932.627	57.47
932.994	57.44
933.362	57.34
933.729	57.27
934.097	57.22
934.464	57.13
934.831	57.13
935.199	57.1
935.566	57.07
935.933	57.19
936.3	57.14
936.667	57.11
937.034	57.1
937.401	57.04
937.767	56.97
938.134	56.95
938.501	57
938.867	57.1
939.234	57.23
939.6	57.25
939.967	57.16
940.333	57.38
940.699	57.56
941.065	57.72
941.431	57.93
941.798	58.12
942.163	58.29
942.529	58.38
942.895	58.41
943.261	58.41
943.627	58.57
943.992	58.66
944.358	58.68
944.723	58.78
945.089	58.83
945.454	58.92
945.82	58.94
946.185	59
946.55	59.13
946.915	59.18
947.28	59.23
947.645	59.21
948.01	59.19
948.375	59.22
948.74	59.08
949.104	59.08
949.469	58.99
949.834	58.97
950.198	58.83
950.562	58.73
950.927	58.64
951.291	58.61
951.655	58.58
952.02	58.57
952.384	58.55
952.748	58.61
953.112	58.52
953.476	58.48
953.839	58.4
954.203	58.37
954.567	58.29
954.931	58.3
955.294	58.26
955.658	58.13
956.021	58.03
956.385	57.97
956.748	57.89
957.111	57.83
957.474	57.8
957.837	57.8
958.2	57.78
958.563	57.71
958.926	57.66
959.289	57.58
959.652	57.64
960.015	57.66
960.377	57.64
960.74	57.59
961.102	57.64
961.465	57.58
961.827	57.42
962.189	57.41
962.552	57.35
962.914	57.28
963.276	57.31
963.638	57.24
964	57.19
964.362	57.19
964.724	57.17
965.085	57.09
965.447	57.04
965.809	57.06
966.17	57.09
966.532	57.13
966.893	57.14
967.255	57.1
967.616	57.14
967.977	57.16
968.338	57.08
968.699	57.02
969.061	57.02
969.421	57.07
969.782	57.14
970.143	57.06
970.504	57.05
970.865	56.97
971.225	56.97
971.586	57
971.946	57
972.307	57.03
972.667	57.14
973.027	57.15
973.388	57.13
973.748	57.22
974.108	57.27
974.468	57.28
974.828	57.4
975.188	57.34
975.548	57.31
975.907	57.32
976.267	57.36
976.627	57.3
976.986	57.3
977.346	57.39
977.705	57.43
978.064	57.43
978.424	57.46
978.783	57.44
979.142	57.52
979.501	57.51
979.86	57.52
980.219	57.47
980.578	57.52
980.937	57.63
981.296	57.55
981.654	57.47
982.013	57.56
982.371	57.58
982.73	57.59
983.088	57.58
983.447	57.62
983.805	57.63
984.163	57.65
984.521	57.56
984.879	57.52
985.237	57.67
985.595	57.68
985.953	57.67
986.311	57.73
986.669	57.73
987.026	57.85
987.384	57.81
987.741	57.84
988.099	57.94
988.456	58.01
988.814	58.02
989.171	58
989.528	57.99
989.885	57.9
990.242	57.95
990.599	58.03
990.956	58.03
991.313	58.1
991.67	58.22
992.027	58.08
992.383	58.19
992.74	58.18
993.096	58.05
993.453	58.04
993.809	58.15
994.165	58.04
994.522	58.11
994.878	58.07
995.234	58.09
995.59	57.96
995.946	58.18
996.302	58.16
996.658	58.23
997.013	58.27
997.369	58.35
997.725	58.32
998.08	58.4
998.436	58.42
998.791	58.39
999.147	58.29
999.502	58.31
999.857	58.3
1000.212	58.33
1000.567	58.35
1000.922	58.6
1001.277	58.64
1001.632	58.78
1001.987	58.84
1002.342	58.92
1002.696	59.08
1003.051	59.18
1003.406	59.17
1003.76	59.29
1004.114	59.44
1004.469	59.47
1004.823	59.38
1005.177	59.44
1005.531	59.31
1005.885	59.41
1006.239	59.25
1006.593	59.19
1006.947	59.33
1007.301	59.39
1007.655	59.45
1008.008	59.17
1008.362	59.24
1008.715	59.27
1009.069	59.24
1009.422	59.4
1009.776	59.42
1010.129	59.51
1010.482	59.64
1010.835	59.8
1011.188	59.9
1011.541	59.58
1011.894	59.85
1012.247	59.93
1012.6	59.83
1012.952	59.86
1013.305	59.94
1013.657	59.93
1014.01	60.16
1014.362	60.31
1014.715	60.15
1015.067	60.31
1015.419	60.79
1015.771	60.9
1016.123	60.79
1016.475	61.22
1016.827	61.54
1017.179	61.6
1017.531	61.54
1017.883	61.43
1018.234	61.37
1018.586	61.59
1018.938	61.28
1019.289	60.99
1019.64	61.37
1019.992	61.65
1020.343	61.44
1020.694	61.4
1021.045	61.63
1021.396	61.82
1021.747	62.23
1022.098	62.39
1022.449	62.26
1022.8	62.45
1023.151	62.83
1023.501	62.49
1023.852	62.51
1024.202	62.64
1024.553	62.48
1024.903	62.2
1025.253	62.45
1025.604	62.26
1025.954	61.9
1026.304	62.5
1026.654	62.91
1027.004	63.06
1027.354	63.02
1027.703	62.85
1028.053	62.65
1028.403	62.63
1028.753	63.38
1029.102	63.1
1029.452	63.01
1029.801	63.23
1030.15	62.86
1030.499	62.55
897.758	446.27
901.051	459.36
904.343	462.55
907.636	456.56
910.928	447.41
914.22	451.96
917.511	442.37
920.803	421.78
924.094	401.33
927.384	404.53
930.675	397.23
933.965	394.62
937.255	388.34
940.544	371.26
943.834	359.65
947.123	355.65
950.411	337.14
953.7	330.03
956.988	320.35
960.276	315.7
963.563	313.25
966.851	293.34
970.138	288.45
973.424	272.22
976.711	267.3
979.997	255.64
983.283	251.15
986.568	244.98
989.853	239.89
993.138	232.88
996.423	227.49
999.708	219.72
1002.992	220.15
1006.275	214.48
1009.559	212.9
1012.842	208.42
1016.125	202.36
1019.408	198.28
1022.69	196.95
1025.972	194.21
1029.254	190.59
1032.536	187.23
1035.817	182.61
1039.098	179.68
1042.379	175.8
1045.659	173.72
1048.939	172.29
1052.219	169.42
1055.498	168.03
1058.778	165.23
1062.057	162.16
1065.335	160.71
1068.614	157.66
1071.892	155.55
1075.17	154.22
1078.447	152.07
1081.724	150.03
1085.001	146.71
1088.278	147.23
1091.554	144.58
1094.83	144.15
1098.106	142.82
1101.382	141.96
1104.657	141.86
1107.932	141.39
1111.206	140.33
1114.481	140.28
1117.755	139.55
1121.029	139.26
1124.302	138.07
1127.575	136.7
1130.848	135.68
1134.121	134.42
1137.393	134.31
1140.665	133.41
1143.937	132.47
1147.208	130.17
1150.48	128.32
1153.75	128.37
1157.021	127.51
1160.291	126.13
1163.561	125.62
1166.831	125.14
1170.101	124.31
1173.37	123.83
1176.639	122.72
1179.907	122.31
1183.176	122.44
1186.444	122.58
1189.711	121.75
1192.979	122.44
1196.246	123.01
1199.513	122.69
1202.78	122.75
1206.046	122.51
1209.312	123.4
1212.578	123.98
1215.843	125.83
1219.108	126.92
1222.373	128.43
1225.638	129.82
1228.902	132.48
1232.166	135.44
1235.43	137.57
1238.693	140.98
1241.956	143.83
1245.219	146.2
1248.482	148.01
1251.744	147.27
1255.006	147.12
1258.268	143.04
1261.529	142.51
1264.79	139.36
1268.051	136.99
1271.312	135.68
1274.572	132.93
1277.832	131.08
1281.092	129.07
1284.351	126.15
1287.61	126.15
1290.869	125.34
1294.128	125.98
1297.386	124.94
1300.644	124.62
1303.902	123.7
1307.159	123.04
1310.416	124.33
1313.673	125.19
1316.93	126.4
1320.186	128.63
1323.442	129.26
1326.697	131.47
1329.953	132.23
1333.208	137.03
1336.463	141.78
1339.717	144.67
1342.972	150.73
1346.226	152.48
1349.479	153.86
1352.733	159.01
1355.986	161.99
1359.238	165.64
1362.491	167.73
1365.743	172.58
1368.995	173.65
1372.247	174.73
1375.498	174.09
1378.749	178.3
1382	180.14
1385.251	178.21
1388.501	178.12
1391.751	179.13
1395	177.79
1398.25	179.3
1401.499	179.22
1404.748	176.82
1407.996	169.33
1411.244	169.69
1414.492	167.66
1417.74	162.56
1420.987	159.52
1424.234	157.53
1427.481	150.92
1430.728	146.85
1433.974	142.51
1437.22	138
1440.465	132.56
1443.711	129.73
1446.956	125.68
1450.201	120.69
1453.445	115.62
1456.689	112.51
1459.933	108.46
1463.177	104.54
1466.42	103.33
1469.663	99.94
1472.906	97.41
1476.148	95.7
1479.391	94.07
1482.633	92.3
1485.874	91.09
1489.115	90.44
1492.356	89.4
1495.597	88.4
1498.838	89.03
1502.078	87.81
1505.318	87.61
1508.557	86.79
1511.797	86.83
1515.036	86.35
1518.274	86.34
1521.513	86.22
1524.751	85.51
1527.989	86.26
1531.227	86.08
1534.464	85.81
1537.701	85.65
1540.938	85.07
1544.174	85.6
1547.41	85.94
1550.646	85.86
1553.882	86.11
1557.117	85.86
1560.352	85.81
1563.587	84.95
1566.821	84.92
1570.055	84.15
1573.289	84.66
1576.523	84.93
1579.756	84.81
1582.989	84.13
1586.222	84.37
1589.454	84.2
1592.686	84.13
1595.918	84.37
1599.15	84.48
1602.381	84.79
1605.612	85.23
1608.843	84.72
1612.073	84.86
1615.303	84.94
1618.533	85.2
1621.762	84.97
1624.992	85.03
1628.221	84.73
1631.449	84.9
1634.678	85.05
1637.906	84.56
1641.134	84.78
1644.361	84.69
1647.588	85.45
1650.815	85.32
1654.042	85.38
1657.269	85.33
1660.495	85.75
1663.72	86.04
1666.946	86.2
1670.171	86.5
1673.396	87.23
1676.621	87.6
1679.845	87.76
1683.069	86.92
1686.293	86.85
1689.517	87.21
1692.74	87.58
1695.963	87.75
1699.185	88.07
1702.408	87.34
1705.63	87.29
1708.852	88.07
1712.073	87.51
1715.294	87.41
1718.515	88.26
1721.736	88.28
1724.956	88.38
1728.176	88.34
1731.396	88.5
1734.616	88.6
1737.835	89.57
1741.054	89.12
1744.272	88.73
1747.491	89.09
1750.709	89.12
1753.927	88.62
1757.144	89.39
1760.361	89.22
1763.578	89.74
1766.795	89.78
1770.011	89.23
1773.227	89.57
1776.443	91.06
1779.658	90.04
1782.874	90.56
1786.089	90.56
1789.303	91.04
1792.518	91.64
1795.732	91.69
1798.945	92.74
1802.159	92.25
1805.372	93.86
1808.585	94.48
1811.797	94.2
1815.01	95.51
1818.222	96.1
1821.434	97.05
1824.645	96.99
1827.856	98
1831.067	98.6
1834.278	98.71
1837.488	100.13
1840.698	100.96
1843.908	100.5
1847.117	101.42
1850.326	101.85
1853.535	102.03
1856.744	103.02
1859.952	104.3
1863.16	102.97
1866.368	102.64
1869.575	102.58
1872.782	101.43
1875.989	99.1
1879.196	99.84
1882.402	98.22
1885.608	98.07
1888.814	97.08
1892.019	97.88
1895.224	95.51
1898.429	95.4
1901.634	95.17
1904.838	95.69
1908.042	96.53
1911.246	95.7
1914.449	94.64
1917.652	95.17
1920.855	94.74
1924.058	94.44
1927.26	92.22
1930.462	93.04
1933.664	93.69
1936.865	94.46
1940.066	92.5
1943.267	91.16
1946.467	93.08
1949.668	93.25
1952.868	93.21
1956.067	93.48
1959.267	93.71
1962.466	94.59
1965.665	96.21
1968.863	95.68
1972.061	96.51
1975.259	98
1978.457	99.97
1981.654	101.15
1984.852	101.82
1988.048	103.22
1991.245	105.58
1994.441	107.62
1997.637	109.68
2000.833	111.33
2004.028	113.01
2007.223	115.37
2010.418	118.09
2013.613	122.2
2016.807	124.59
2020.001	127.93
2023.194	131.3
2026.388	135.21
2029.581	142.54
2032.774	147.46
2035.966	150.24
2039.158	155.16
2042.35	158.01
2045.542	160.67
2048.733	169.3
2051.924	169.66
2055.115	171.66
2058.306	173.74
2061.496	175.44
2064.686	175.63
2067.875	174.08
2071.065	179.17
2074.254	177.62
2077.442	183.12
2080.631	185.98
2083.819	183.26
2087.007	190.93
2090.195	194.17
2093.382	191.86
2096.569	193.56
2099.756	196.49
2102.942	201.14
2106.128	203.11
2109.314	207.12
2112.5	207.85
2115.685	204.52
2118.87	205.81
2122.055	204.94
2125.239	208.12
2128.424	215.95
2131.608	216.15
2134.791	214.85
2137.974	214.55
2141.157	216.61
2144.34	217.75
2147.523	221.8
2150.705	229.12
2153.887	226.34
2157.068	228.37
2160.25	231.06
2163.431	230.57
2166.611	231.05
2169.792	237.62
2172.972	240.64
2176.152	241.83
2179.331	245.91
2182.511	244.21
2185.69	247.49
2188.868	256.99
2192.047	262.34
2195.225	266.08
2198.403	267.99
2201.58	265.9
2204.758	275.22
2207.935	276.02
2211.111	281.82
2214.288	285.32
2217.464	289.21
2220.64	291.59
2223.815	291.36
2226.991	290.29
2230.166	291.27
2233.34	300.66
2236.515	308.29
2239.689	301.57
2242.863	308.82
2246.036	306.69
2249.209	309.5
2252.382	307.99
2255.555	320.03
2258.727	323.4
2261.9	334.25
2265.071	340.16
2268.243	334.42
2271.414	345.8
2274.585	353.68
2277.756	350.01
2280.926	362.07
2284.096	369.13
2287.266	371.73
2290.436	359.19
2293.605	368
2296.774	376.52
2299.942	376.07
2303.111	392.57
2306.279	399.53
2309.447	398.32
2312.614	404.15
2315.781	408.99
2318.948	416.41
2322.115	424.2
2325.281	449.63
2328.447	440.86
2331.613	447.58
2334.779	452.61
2337.944	457.41
2341.109	464.47
2344.274	471.17
2347.438	480.91
2350.602	493.44
2353.766	514.75
2356.929	518.65
2360.092	525.64
2363.255	532.29
2366.418	530.64
2369.58	543.39
2372.742	548.96
2375.904	545.74
2379.066	563.35
2382.227	594.53
2385.388	594.35
2388.548	562.02
2391.709	554.87
2394.869	568.97
2398.029	571.67
2401.188	579.54
2404.347	597.09
2407.506	611.99
2410.665	591.88
2413.823	590.18
2416.981	590.62
2420.139	562.35
2423.296	609.39
2426.453	652.37
2429.61	617.35
2432.767	660.26
2435.923	676.2
2439.079	656.57
2442.235	664.86
2445.391	683.55
2448.546	678.16
2451.701	718.58
2454.855	762.42
2458.009	682.85
2461.163	689.46
2464.317	709.88
2467.471	695.59
2470.624	713.74
2473.777	697.74
2476.929	683.49
2480.082	725.67
2483.234	763.52
2486.385	774.62
2489.537	792.43
2492.688	870.1
2495.839	869.14
2498.989	888.52
2502.14	890.89
2505.29	855.75
2508.439	940.05
2511.589	957.88
2514.738	939.67
2517.887	925.55
2521.035	868.97
2524.183	846.4
2527.331	839.87
2530.479	807.79
2533.627	823.44
