Data from N_3_div_wi_4n_Splice17_09.txt Node
Date: Sat Feb 29 14:44:05 EST 2020
User: sa697716
Spectrometer: FLMS03696
Trigger mode: 0
Integration Time (sec): 3.180400E-1
Scans to average: 20
Electric dark correction enabled: true
Nonlinearity correction enabled: true
Boxcar width: 5
XAxis mode: Wavelengths
Number of Pixels in Spectrum: 2048
>>>>>Begin Spectral Data<<<<<
187.83	38.07
188.298	29.2
188.766	35.1
189.233	34.04
189.701	44.99
190.169	49.35
190.636	46.5
191.104	40.19
191.571	7
192.039	225.8
192.506	-235.39
192.974	396.08
193.441	154.42
193.908	77.2
194.375	101.19
194.842	131.01
195.31	99.68
195.777	106.3
196.244	44.83
196.711	31.13
197.177	29
197.644	29.28
198.111	29.52
198.578	29.2
199.045	28.56
199.511	28.78
199.978	29.15
200.445	29.2
200.911	29.31
201.378	29.59
201.844	30.11
202.31	30.88
202.777	31.13
203.243	31.38
203.709	31.87
204.176	32.12
204.642	32.4
205.108	32.65
205.574	33.06
206.04	33.49
206.506	33.66
206.972	34.12
207.438	34.36
207.903	34.76
208.369	34.68
208.835	34.67
209.301	35.21
209.766	35.73
210.232	36.31
210.697	36.76
211.163	36.73
211.628	36.81
212.094	36.65
212.559	36.53
213.024	36.47
213.49	36.55
213.955	36.71
214.42	36.62
214.885	36.49
215.35	36.43
215.815	36.41
216.28	36.65
216.745	36.9
217.21	37.11
217.675	37.29
218.14	37.3
218.604	37.35
219.069	37.43
219.534	37.23
219.998	37.09
220.463	37.02
220.927	36.83
221.392	36.61
221.856	36.38
222.32	36.1
222.785	35.76
223.249	35.55
223.713	35.21
224.177	34.85
224.642	34.53
225.106	34.17
225.57	33.79
226.034	33.41
226.497	33.03
226.961	32.61
227.425	32.21
227.889	31.85
228.353	31.4
228.816	31.04
229.28	30.58
229.744	30.23
230.207	29.83
230.671	29.44
231.134	29.06
231.597	28.67
232.061	28.32
232.524	27.98
232.987	27.61
233.45	27.26
233.914	26.86
234.377	26.57
234.84	26.21
235.303	25.89
235.766	25.55
236.229	25.22
236.691	24.93
237.154	24.6
237.617	24.29
238.08	24.02
238.542	23.74
239.005	23.48
239.468	23.2
239.93	22.93
240.393	22.67
240.855	22.4
241.317	22.16
241.78	21.93
242.242	21.69
242.704	21.46
243.166	21.2
243.629	20.97
244.091	20.76
244.553	20.55
245.015	20.34
245.477	20.15
245.939	19.96
246.4	19.75
246.862	19.56
247.324	19.4
247.786	19.22
248.247	19.04
248.709	18.87
249.17	18.69
249.632	18.52
250.093	18.36
250.555	18.2
251.016	18.05
251.477	17.91
251.939	17.75
252.4	17.61
252.861	17.49
253.322	17.36
253.783	17.25
254.244	17.13
254.705	17.04
255.166	16.93
255.627	16.84
256.088	16.74
256.549	16.67
257.009	16.59
257.47	16.52
257.931	16.41
258.391	16.31
258.852	16.22
259.312	16.16
259.773	16.06
260.233	15.98
260.694	15.9
261.154	15.81
261.614	15.71
262.074	15.63
262.534	15.53
262.994	15.46
263.455	15.4
263.915	15.33
264.374	15.23
264.834	15.16
265.294	15.07
265.754	15
266.214	14.93
266.673	14.87
267.133	14.79
267.593	14.72
268.052	14.65
268.512	14.57
268.971	14.51
269.431	14.45
269.89	14.39
270.349	14.34
270.809	14.28
271.268	14.23
271.727	14.17
272.186	14.12
272.645	14.07
273.104	14.01
273.563	13.97
274.022	13.92
274.481	13.86
274.94	13.8
275.399	13.74
275.857	13.68
276.316	13.61
276.775	13.55
277.233	13.49
277.692	13.41
278.15	13.34
278.609	13.26
279.067	13.18
279.525	13.12
279.984	13.06
280.442	12.98
280.9	12.92
281.358	12.86
281.816	12.79
282.274	12.73
282.732	12.68
283.19	12.64
283.648	12.59
284.106	12.55
284.564	12.5
285.021	12.47
285.479	12.44
285.937	12.4
286.394	12.37
286.852	12.35
287.309	12.31
287.767	12.29
288.224	12.24
288.682	12.2
289.139	12.16
289.596	12.1
290.053	12.02
290.511	11.94
290.968	11.88
291.425	11.81
291.882	11.75
292.339	11.68
292.796	11.6
293.252	11.54
293.709	11.48
294.166	11.43
294.623	11.39
295.079	11.35
295.536	11.3
295.992	11.25
296.449	11.21
296.905	11.16
297.362	11.12
297.818	11.08
298.274	11.03
298.731	10.99
299.187	10.95
299.643	10.9
300.099	10.87
300.555	10.83
301.011	10.79
301.467	10.75
301.923	10.71
302.379	10.67
302.835	10.63
303.291	10.59
303.746	10.55
304.202	10.51
304.658	10.47
305.113	10.44
305.569	10.39
306.024	10.36
306.479	10.34
306.935	10.3
307.39	10.27
307.845	10.25
308.301	10.23
308.756	10.22
309.211	10.2
309.666	10.18
310.121	10.16
310.576	10.15
311.031	10.12
311.486	10.1
311.94	10.07
312.395	10.06
312.85	10.03
313.305	10
313.759	9.97
314.214	9.94
314.668	9.92
315.123	9.91
315.577	9.88
316.032	9.85
316.486	9.83
316.94	9.81
317.394	9.77
317.849	9.74
318.303	9.72
318.757	9.68
319.211	9.64
319.665	9.61
320.119	9.58
320.572	9.55
321.026	9.53
321.48	9.49
321.934	9.46
322.387	9.44
322.841	9.4
323.295	9.37
323.748	9.34
324.202	9.32
324.655	9.29
325.108	9.25
325.562	9.22
326.015	9.19
326.468	9.15
326.921	9.12
327.374	9.09
327.827	9.07
328.28	9.03
328.733	9.01
329.186	8.98
329.639	8.94
330.092	8.93
330.545	8.9
330.997	8.89
331.45	8.88
331.903	8.86
332.355	8.84
332.808	8.83
333.26	8.82
333.713	8.81
334.165	8.8
334.617	8.8
335.069	8.79
335.522	8.8
335.974	8.78
336.426	8.78
336.878	8.78
337.33	8.77
337.782	8.77
338.234	8.76
338.686	8.74
339.137	8.73
339.589	8.72
340.041	8.71
340.493	8.67
340.944	8.65
341.396	8.62
341.847	8.59
342.299	8.55
342.75	8.51
343.201	8.48
343.653	8.45
344.104	8.41
344.555	8.39
345.006	8.35
345.457	8.32
345.908	8.3
346.359	8.29
346.81	8.26
347.261	8.24
347.712	8.22
348.163	8.21
348.613	8.19
349.064	8.16
349.515	8.13
349.965	8.11
350.416	8.1
350.866	8.08
351.317	8.06
351.767	8.04
352.217	8.04
352.668	8.03
353.118	8.02
353.568	8.02
354.018	8.02
354.468	8.01
354.918	8.02
355.368	8.02
355.818	8
356.268	7.99
356.718	7.98
357.168	7.98
357.617	7.97
358.067	7.97
358.517	7.95
358.966	7.96
359.416	7.96
359.865	7.95
360.315	7.96
360.764	7.97
361.213	7.98
361.663	7.99
362.112	7.99
362.561	8
363.01	8
363.459	8.01
363.908	8.02
364.357	8.02
364.806	8.03
365.255	8.04
365.703	8.05
366.152	8.06
366.601	8.08
367.05	8.09
367.498	8.1
367.947	8.12
368.395	8.13
368.844	8.15
369.292	8.16
369.74	8.18
370.189	8.2
370.637	8.22
371.085	8.23
371.533	8.25
371.981	8.27
372.429	8.29
372.877	8.31
373.325	8.34
373.773	8.37
374.221	8.4
374.669	8.42
375.116	8.44
375.564	8.47
376.012	8.5
376.459	8.53
376.907	8.57
377.354	8.61
377.801	8.65
378.249	8.69
378.696	8.71
379.143	8.75
379.591	8.79
380.038	8.84
380.485	8.88
380.932	8.92
381.379	8.96
381.826	8.99
382.273	9.03
382.72	9.06
383.166	9.1
383.613	9.15
384.06	9.18
384.506	9.21
384.953	9.24
385.4	9.26
385.846	9.3
386.292	9.33
386.739	9.35
387.185	9.4
387.631	9.44
388.078	9.49
388.524	9.5
388.97	9.53
389.416	9.55
389.862	9.57
390.308	9.59
390.754	9.62
391.2	9.66
391.645	9.7
392.091	9.71
392.537	9.74
392.983	9.76
393.428	9.82
393.874	9.85
394.319	9.87
394.765	9.89
395.21	9.9
395.655	9.91
396.101	9.91
396.546	9.91
396.991	9.91
397.436	9.9
397.881	9.91
398.326	9.92
398.771	9.93
399.216	9.95
399.661	9.96
400.106	9.97
400.551	9.97
400.995	9.96
401.44	9.95
401.885	9.94
402.329	9.92
402.774	9.88
403.218	9.86
403.663	9.85
404.107	9.84
404.551	9.83
404.995	9.82
405.44	9.78
405.884	9.77
406.328	9.75
406.772	9.75
407.216	9.76
407.66	9.76
408.104	9.73
408.547	9.71
408.991	9.67
409.435	9.66
409.879	9.65
410.322	9.67
410.766	9.67
411.209	9.68
411.653	9.67
412.096	9.64
412.54	9.63
412.983	9.64
413.426	9.65
413.869	9.66
414.312	9.68
414.756	9.68
415.199	9.68
415.642	9.69
416.085	9.71
416.527	9.72
416.97	9.74
417.413	9.73
417.856	9.72
418.298	9.69
418.741	9.68
419.184	9.66
419.626	9.64
420.069	9.62
420.511	9.6
420.953	9.58
421.396	9.56
421.838	9.55
422.28	9.56
422.722	9.6
423.164	9.61
423.606	9.62
424.048	9.6
424.49	9.62
424.932	9.62
425.374	9.6
425.816	9.59
426.258	9.57
426.699	9.54
427.141	9.49
427.582	9.44
428.024	9.42
428.465	9.42
428.907	9.44
429.348	9.42
429.789	9.41
430.231	9.42
430.672	9.42
431.113	9.44
431.554	9.47
431.995	9.5
432.436	9.53
432.877	9.54
433.318	9.54
433.759	9.54
434.2	9.56
434.64	9.57
435.081	9.57
435.522	9.6
435.962	9.61
436.403	9.64
436.843	9.66
437.284	9.69
437.724	9.72
438.164	9.74
438.604	9.75
439.045	9.76
439.485	9.77
439.925	9.78
440.365	9.78
440.805	9.81
441.245	9.79
441.685	9.81
442.125	9.81
442.564	9.84
443.004	9.86
443.444	9.88
443.883	9.9
444.323	9.93
444.762	9.97
445.202	10.04
445.641	10.07
446.081	10.13
446.52	10.15
446.959	10.19
447.398	10.25
447.837	10.3
448.276	10.33
448.716	10.4
449.154	10.45
449.593	10.49
450.032	10.52
450.471	10.55
450.91	10.54
451.349	10.55
451.787	10.57
452.226	10.55
452.664	10.54
453.103	10.53
453.541	10.53
453.98	10.51
454.418	10.5
454.856	10.45
455.295	10.45
455.733	10.45
456.171	10.44
456.609	10.42
457.047	10.41
457.485	10.41
457.923	10.4
458.361	10.38
458.798	10.4
459.236	10.38
459.674	10.39
460.111	10.37
460.549	10.36
460.987	10.37
461.424	10.35
461.862	10.35
462.299	10.34
462.736	10.31
463.173	10.29
463.611	10.26
464.048	10.25
464.485	10.22
464.922	10.2
465.359	10.19
465.796	10.17
466.233	10.18
466.67	10.17
467.106	10.15
467.543	10.14
467.98	10.15
468.416	10.16
468.853	10.16
469.29	10.18
469.726	10.19
470.162	10.19
470.599	10.17
471.035	10.16
471.471	10.17
471.907	10.17
472.344	10.19
472.78	10.19
473.216	10.19
473.652	10.19
474.088	10.2
474.523	10.19
474.959	10.19
475.395	10.19
475.831	10.19
476.266	10.19
476.702	10.18
477.138	10.17
477.573	10.14
478.008	10.13
478.444	10.13
478.879	10.12
479.314	10.13
479.75	10.12
480.185	10.11
480.62	10.11
481.055	10.11
481.49	10.1
481.925	10.1
482.36	10.1
482.795	10.08
483.229	10.07
483.664	10.06
484.099	10.06
484.534	10.06
484.968	10.07
485.403	10.07
485.837	10.06
486.271	10.06
486.706	10.07
487.14	10.08
487.574	10.09
488.009	10.11
488.443	10.13
488.877	10.13
489.311	10.14
489.745	10.17
490.179	10.21
490.613	10.24
491.046	10.28
491.48	10.32
491.914	10.36
492.348	10.42
492.781	10.47
493.215	10.5
493.648	10.57
494.082	10.63
494.515	10.67
494.948	10.72
495.382	10.79
495.815	10.86
496.248	10.93
496.681	11.01
497.114	11.09
497.547	11.17
497.98	11.27
498.413	11.35
498.846	11.46
499.279	11.57
499.711	11.68
500.144	11.8
500.577	11.92
501.009	12.05
501.442	12.19
501.874	12.33
502.306	12.48
502.739	12.63
503.171	12.81
503.603	12.99
504.036	13.16
504.468	13.36
504.9	13.56
505.332	13.75
505.764	13.96
506.196	14.17
506.627	14.4
507.059	14.64
507.491	14.9
507.923	15.14
508.354	15.39
508.786	15.68
509.217	15.94
509.649	16.24
510.08	16.55
510.512	16.85
510.943	17.17
511.374	17.48
511.805	17.79
512.237	18.12
512.668	18.45
513.099	18.82
513.53	19.15
513.961	19.53
514.391	19.87
514.822	20.22
515.253	20.59
515.684	20.93
516.114	21.31
516.545	21.66
516.975	22.05
517.406	22.44
517.836	22.8
518.267	23.17
518.697	23.54
519.127	23.93
519.558	24.31
519.988	24.7
520.418	25.08
520.848	25.45
521.278	25.84
521.708	26.19
522.138	26.51
522.567	26.87
522.997	27.2
523.427	27.54
523.857	27.87
524.286	28.19
524.716	28.5
525.145	28.81
525.575	29.12
526.004	29.39
526.433	29.68
526.863	29.99
527.292	30.26
527.721	30.52
528.15	30.76
528.579	31.01
529.008	31.23
529.437	31.43
529.866	31.65
530.295	31.84
530.724	32.06
531.152	32.26
531.581	32.44
532.01	32.6
532.438	32.77
532.867	32.93
533.295	33.06
533.723	33.22
534.152	33.34
534.58	33.44
535.008	33.55
535.436	33.65
535.865	33.73
536.293	33.82
536.721	33.89
537.149	33.97
537.576	34.04
538.004	34.1
538.432	34.15
538.86	34.21
539.287	34.27
539.715	34.35
540.143	34.39
540.57	34.43
540.998	34.5
541.425	34.56
541.852	34.6
542.28	34.63
542.707	34.69
543.134	34.72
543.561	34.76
543.988	34.81
544.415	34.84
544.842	34.89
545.269	34.94
545.696	34.97
546.123	35.03
546.549	35.08
546.976	35.13
547.403	35.16
547.829	35.22
548.256	35.27
548.682	35.31
549.108	35.36
549.535	35.37
549.961	35.4
550.387	35.41
550.813	35.41
551.24	35.44
551.666	35.47
552.092	35.49
552.518	35.48
552.943	35.48
553.369	35.47
553.795	35.45
554.221	35.44
554.646	35.41
555.072	35.39
555.498	35.35
555.923	35.3
556.349	35.22
556.774	35.16
557.199	35.11
557.625	35.03
558.05	34.95
558.475	34.88
558.9	34.8
559.325	34.72
559.75	34.61
560.175	34.49
560.6	34.36
561.025	34.24
561.449	34.11
561.874	33.96
562.299	33.8
562.723	33.66
563.148	33.49
563.572	33.32
563.997	33.15
564.421	32.98
564.846	32.81
565.27	32.63
565.694	32.45
566.118	32.26
566.542	32.08
566.966	31.9
567.39	31.69
567.814	31.47
568.238	31.25
568.662	31.03
569.086	30.8
569.509	30.59
569.933	30.36
570.357	30.16
570.78	29.95
571.204	29.76
571.627	29.56
572.05	29.36
572.474	29.19
572.897	29.01
573.32	28.84
573.743	28.69
574.166	28.52
574.589	28.38
575.012	28.24
575.435	28.08
575.858	27.93
576.281	27.79
576.704	27.67
577.126	27.52
577.549	27.4
577.972	27.28
578.394	27.15
578.817	27.02
579.239	26.9
579.661	26.78
580.084	26.68
580.506	26.57
580.928	26.46
581.35	26.35
581.772	26.27
582.194	26.16
582.616	26.06
583.038	25.95
583.46	25.88
583.882	25.79
584.303	25.71
584.725	25.61
585.147	25.51
585.568	25.42
585.99	25.31
586.411	25.22
586.833	25.13
587.254	25.06
587.675	24.99
588.096	24.89
588.518	24.8
588.939	24.72
589.36	24.63
589.781	24.56
590.202	24.49
590.623	24.43
591.043	24.36
591.464	24.28
591.885	24.2
592.305	24.15
592.726	24.11
593.147	24.05
593.567	23.98
593.987	23.93
594.408	23.88
594.828	23.82
595.248	23.77
595.669	23.72
596.089	23.67
596.509	23.61
596.929	23.55
597.349	23.48
597.769	23.43
598.189	23.38
598.608	23.33
599.028	23.26
599.448	23.22
599.867	23.15
600.287	23.11
600.706	23.04
601.126	22.98
601.545	22.9
601.965	22.86
602.384	22.79
602.803	22.71
603.222	22.63
603.641	22.57
604.061	22.49
604.48	22.42
604.898	22.33
605.317	22.27
605.736	22.19
606.155	22.11
606.574	22.03
606.992	21.94
607.411	21.85
607.829	21.72
608.248	21.63
608.666	21.54
609.085	21.45
609.503	21.35
609.921	21.25
610.339	21.16
610.758	21.06
611.176	20.95
611.594	20.87
612.012	20.78
612.43	20.73
612.847	20.65
613.265	20.54
613.683	20.42
614.101	20.33
614.518	20.24
614.936	20.14
615.353	20.05
615.771	19.97
616.188	19.9
616.606	19.8
617.023	19.72
617.44	19.66
617.857	19.59
618.274	19.56
618.691	19.5
619.108	19.44
619.525	19.39
619.942	19.34
620.359	19.3
620.776	19.25
621.192	19.22
621.609	19.19
622.026	19.13
622.442	19.09
622.859	19.05
623.275	19.03
623.691	19.01
624.108	18.98
624.524	18.97
624.94	18.94
625.356	18.92
625.772	18.9
626.188	18.88
626.604	18.86
627.02	18.83
627.436	18.8
627.852	18.77
628.268	18.75
628.683	18.71
629.099	18.68
629.514	18.64
629.93	18.59
630.345	18.53
630.761	18.45
631.176	18.41
631.591	18.36
632.007	18.29
632.422	18.2
632.837	18.1
633.252	17.99
633.667	17.87
634.082	17.76
634.497	17.64
634.911	17.52
635.326	17.38
635.741	17.2
636.155	17.04
636.57	16.87
636.984	16.7
637.399	16.51
637.813	16.34
638.228	16.16
638.642	15.98
639.056	15.77
639.47	15.57
639.884	15.38
640.298	15.18
640.712	14.97
641.126	14.77
641.54	14.58
641.954	14.4
642.368	14.21
642.781	14.02
643.195	13.83
643.609	13.66
644.022	13.5
644.436	13.34
644.849	13.2
645.262	13.07
645.676	12.94
646.089	12.83
646.502	12.71
646.915	12.62
647.328	12.52
647.741	12.43
648.154	12.37
648.567	12.3
648.98	12.24
649.393	12.18
649.805	12.13
650.218	12.08
650.631	12.03
651.043	11.99
651.456	11.95
651.868	11.91
652.28	11.87
652.693	11.81
653.105	11.77
653.517	11.73
653.929	11.68
654.341	11.64
654.753	11.59
655.165	11.53
655.577	11.46
655.989	11.38
656.401	11.3
656.813	11.22
657.224	11.15
657.636	11.06
658.047	10.97
658.459	10.88
658.87	10.78
659.282	10.69
659.693	10.59
660.104	10.51
660.515	10.42
660.926	10.34
661.338	10.25
661.749	10.14
662.159	10.04
662.57	9.95
662.981	9.86
663.392	9.77
663.803	9.68
664.213	9.6
664.624	9.53
665.035	9.46
665.445	9.39
665.855	9.33
666.266	9.29
666.676	9.23
667.086	9.19
667.497	9.13
667.907	9.08
668.317	9.05
668.727	9.03
669.137	9
669.547	8.98
669.956	8.95
670.366	8.94
670.776	8.92
671.186	8.91
671.595	8.91
672.005	8.93
672.414	8.94
672.824	8.94
673.233	8.97
673.642	8.97
674.052	8.99
674.461	9
674.87	9.03
675.279	9.06
675.688	9.08
676.097	9.13
676.506	9.16
676.915	9.22
677.323	9.28
677.732	9.32
678.141	9.38
678.549	9.45
678.958	9.54
679.366	9.61
679.775	9.72
680.183	9.83
680.592	9.95
681	10.08
681.408	10.22
681.816	10.38
682.224	10.55
682.632	10.76
683.04	10.97
683.448	11.22
683.856	11.48
684.264	11.77
684.671	12.08
685.079	12.42
685.487	12.81
685.894	13.23
686.302	13.66
686.709	14.12
687.116	14.63
687.524	15.18
687.931	15.73
688.338	16.36
688.745	16.99
689.152	17.66
689.559	18.35
689.966	19.06
690.373	19.82
690.78	20.58
691.187	21.37
691.593	22.16
692	22.98
692.407	23.82
692.813	24.64
693.22	25.47
693.626	26.31
694.032	27.15
694.439	28
694.845	28.83
695.251	29.68
695.657	30.51
696.063	31.34
696.469	32.13
696.875	32.91
697.281	33.7
697.687	34.51
698.093	35.29
698.498	36.07
698.904	36.8
699.31	37.54
699.715	38.26
700.12	38.98
700.526	39.69
700.931	40.4
701.337	41.12
701.742	41.77
702.147	42.44
702.552	43.09
702.957	43.71
703.362	44.36
703.767	44.96
704.172	45.58
704.577	46.15
704.981	46.71
705.386	47.26
705.791	47.79
706.195	48.33
706.6	48.8
707.004	49.3
707.408	49.79
707.813	50.26
708.217	50.73
708.621	51.18
709.025	51.61
709.43	52.02
709.834	52.47
710.237	52.9
710.641	53.33
711.045	53.76
711.449	54.15
711.853	54.57
712.256	54.97
712.66	55.36
713.064	55.73
713.467	56.13
713.87	56.48
714.274	56.87
714.677	57.24
715.08	57.55
715.484	57.91
715.887	58.23
716.29	58.5
716.693	58.77
717.096	59.05
717.499	59.37
717.901	59.65
718.304	59.94
718.707	60.18
719.109	60.42
719.512	60.72
719.915	60.96
720.317	61.24
720.719	61.51
721.122	61.8
721.524	62.06
721.926	62.31
722.328	62.55
722.731	62.82
723.133	63.08
723.535	63.31
723.937	63.49
724.338	63.69
724.74	63.88
725.142	64.01
725.544	64.15
725.945	64.31
726.347	64.47
726.748	64.62
727.15	64.73
727.551	64.83
727.952	64.95
728.354	65.1
728.755	65.24
729.156	65.37
729.557	65.56
729.958	65.7
730.359	65.8
730.76	65.87
731.161	65.97
731.562	66.11
731.962	66.22
732.363	66.31
732.763	66.44
733.164	66.48
733.564	66.53
733.965	66.59
734.365	66.66
734.766	66.73
735.166	66.8
735.566	66.83
735.966	66.84
736.366	66.84
736.766	66.89
737.166	66.89
737.566	66.95
737.966	67.02
738.365	67.06
738.765	67.13
739.165	67.15
739.564	67.21
739.964	67.23
740.363	67.3
740.763	67.33
741.162	67.33
741.561	67.42
741.96	67.45
742.36	67.49
742.759	67.51
743.158	67.52
743.557	67.56
743.955	67.62
744.354	67.68
744.753	67.71
745.152	67.75
745.55	67.81
745.949	67.81
746.348	67.85
746.746	67.85
747.144	67.93
747.543	67.96
747.941	67.99
748.339	68.04
748.737	68.08
749.136	68.12
749.534	68.14
749.932	68.17
750.33	68.18
750.727	68.18
751.125	68.18
751.523	68.14
751.921	68.16
752.318	68.16
752.716	68.12
753.113	68.12
753.511	68.06
753.908	68.07
754.305	68.06
754.703	68.05
755.1	68.02
755.497	68.05
755.894	68.05
756.291	68
756.688	67.99
757.085	67.97
757.482	67.98
757.878	68.01
758.275	67.98
758.672	67.99
759.068	67.99
759.465	68.03
759.861	67.99
760.258	67.95
760.654	67.96
761.05	67.95
761.447	67.93
761.843	67.88
762.239	67.83
762.635	67.83
763.031	67.76
763.427	67.71
763.822	67.64
764.218	67.62
764.614	67.62
765.01	67.61
765.405	67.56
765.801	67.56
766.196	67.55
766.592	67.53
766.987	67.52
767.382	67.56
767.778	67.57
768.173	67.58
768.568	67.55
768.963	67.53
769.358	67.53
769.753	67.58
770.148	67.59
770.542	67.58
770.937	67.57
771.332	67.56
771.726	67.53
772.121	67.5
772.515	67.5
772.91	67.55
773.304	67.59
773.699	67.54
774.093	67.49
774.487	67.49
774.881	67.45
775.275	67.47
775.669	67.47
776.063	67.48
776.457	67.48
776.851	67.44
777.245	67.45
777.638	67.4
778.032	67.42
778.425	67.41
778.819	67.4
779.212	67.41
779.606	67.4
779.999	67.39
780.392	67.41
780.786	67.46
781.179	67.51
781.572	67.5
781.965	67.58
782.358	67.53
782.751	67.51
783.143	67.53
783.536	67.57
783.929	67.59
784.322	67.63
784.714	67.64
785.107	67.62
785.499	67.62
785.891	67.62
786.284	67.54
786.676	67.6
787.068	67.63
787.46	67.61
787.852	67.59
788.245	67.63
788.636	67.61
789.028	67.57
789.42	67.54
789.812	67.56
790.204	67.52
790.595	67.57
790.987	67.58
791.378	67.59
791.77	67.64
792.161	67.66
792.553	67.66
792.944	67.68
793.335	67.71
793.726	67.72
794.117	67.72
794.508	67.76
794.899	67.78
795.29	67.77
795.681	67.8
796.072	67.8
796.463	67.77
796.853	67.75
797.244	67.75
797.634	67.77
798.025	67.77
798.415	67.79
798.806	67.79
799.196	67.83
799.586	67.85
799.976	67.82
800.366	67.83
800.756	67.87
801.146	67.89
801.536	67.92
801.926	67.89
802.316	67.93
802.706	67.95
803.095	67.97
803.485	67.97
803.874	67.96
804.264	68.03
804.653	68.02
805.043	68.03
805.432	67.98
805.821	67.98
806.21	68.06
806.599	68.12
806.988	68.14
807.377	68.15
807.766	68.17
808.155	68.22
808.544	68.22
808.933	68.25
809.321	68.28
809.71	68.37
810.098	68.38
810.487	68.34
810.875	68.36
811.264	68.38
811.652	68.36
812.04	68.38
812.428	68.38
812.816	68.39
813.204	68.42
813.592	68.4
813.98	68.41
814.368	68.42
814.756	68.47
815.144	68.45
815.531	68.45
815.919	68.45
816.306	68.43
816.694	68.45
817.081	68.43
817.469	68.44
817.856	68.5
818.243	68.51
818.63	68.56
819.017	68.58
819.404	68.59
819.791	68.62
820.178	68.69
820.565	68.72
820.952	68.72
821.339	68.76
821.725	68.75
822.112	68.75
822.498	68.75
822.885	68.72
823.271	68.73
823.657	68.78
824.044	68.75
824.43	68.76
824.816	68.77
825.202	68.75
825.588	68.75
825.974	68.77
826.36	68.75
826.746	68.77
827.132	68.74
827.517	68.72
827.903	68.68
828.289	68.69
828.674	68.65
829.06	68.67
829.445	68.7
829.83	68.69
830.216	68.68
830.601	68.7
830.986	68.64
831.371	68.67
831.756	68.63
832.141	68.64
832.526	68.6
832.911	68.61
833.295	68.59
833.68	68.57
834.065	68.54
834.449	68.51
834.834	68.47
835.218	68.47
835.603	68.44
835.987	68.47
836.371	68.47
836.755	68.43
837.139	68.39
837.524	68.34
837.908	68.3
838.291	68.28
838.675	68.28
839.059	68.27
839.443	68.3
839.827	68.3
840.21	68.29
840.594	68.26
840.977	68.23
841.361	68.27
841.744	68.31
842.127	68.3
842.511	68.27
842.894	68.25
843.277	68.26
843.66	68.22
844.043	68.21
844.426	68.21
844.809	68.18
845.191	68.19
845.574	68.13
845.957	68.07
846.339	68.07
846.722	68.1
847.104	68.1
847.487	68.09
847.869	68.09
848.252	68.06
848.634	68.04
849.016	68.06
849.398	68.05
849.78	68.06
850.162	68.04
850.544	68.06
850.926	68.02
851.307	68
851.689	67.97
852.071	67.97
852.452	68
852.834	67.99
853.215	67.97
853.597	67.98
853.978	67.96
854.359	68.01
854.741	68.02
855.122	68.02
855.503	68.03
855.884	68.03
856.265	67.99
856.646	67.96
857.026	67.97
857.407	67.95
857.788	67.98
858.169	67.95
858.549	67.95
858.93	67.95
859.31	67.96
859.69	67.95
860.071	67.97
860.451	68.02
860.831	68.03
861.211	68.01
861.591	68.03
861.971	67.99
862.351	68.06
862.731	68.05
863.111	68.04
863.491	68.08
863.87	68.08
864.25	68.08
864.629	68.05
865.009	68.06
865.388	68.03
865.768	68.04
866.147	68.06
866.526	68
866.905	68.01
867.284	67.99
867.663	67.97
868.042	67.96
868.421	67.95
868.8	67.95
869.179	67.96
869.558	67.98
869.936	67.94
870.315	67.89
870.693	67.9
871.072	67.86
871.45	67.85
871.828	67.82
872.207	67.87
872.585	67.89
872.963	67.87
873.341	67.85
873.719	67.86
874.097	67.88
874.475	67.93
874.853	67.92
875.23	67.93
875.608	67.95
875.986	67.92
876.363	67.87
876.741	67.83
877.118	67.84
877.495	67.86
877.873	67.83
878.25	67.82
878.627	67.77
879.004	67.78
879.381	67.79
879.758	67.76
880.135	67.8
880.512	67.79
880.889	67.83
881.265	67.84
881.642	67.78
882.019	67.78
882.395	67.77
882.772	67.76
883.148	67.76
883.524	67.78
883.901	67.78
884.277	67.76
884.653	67.78
885.029	67.75
885.405	67.72
885.781	67.71
886.157	67.73
886.532	67.75
886.908	67.79
887.284	67.8
887.659	67.8
888.035	67.81
888.411	67.78
888.786	67.75
889.161	67.72
889.537	67.73
889.912	67.74
890.287	67.71
890.662	67.7
891.037	67.61
891.412	67.57
891.787	67.52
892.162	67.46
892.536	67.45
892.911	67.46
893.286	67.45
893.66	67.43
894.035	67.39
894.409	67.34
894.784	67.33
895.158	67.34
895.532	67.3
895.906	67.25
896.281	67.24
896.655	67.22
897.029	67.16
897.402	67.13
897.776	67.11
898.15	67.11
898.524	67.1
898.898	67.02
899.271	67
899.645	67.02
900.018	67.02
900.392	67.03
900.765	67.02
901.138	67.01
901.511	66.96
901.884	66.94
902.258	66.93
902.631	66.98
903.003	67
903.376	67
903.749	66.98
904.122	66.97
904.495	66.95
904.867	66.93
905.24	66.94
905.612	66.96
905.985	66.95
906.357	66.91
906.729	66.88
907.102	66.89
907.474	66.89
907.846	66.87
908.218	66.88
908.59	66.84
908.962	66.88
909.334	66.88
909.705	66.89
910.077	66.89
910.449	66.93
910.82	66.91
911.192	66.87
911.563	66.85
911.935	66.84
912.306	66.83
912.677	66.88
913.048	66.83
913.419	66.83
913.79	66.75
914.161	66.71
914.532	66.66
914.903	66.66
915.274	66.62
915.645	66.63
916.015	66.64
916.386	66.6
916.756	66.54
917.127	66.54
917.497	66.5
917.868	66.52
918.238	66.54
918.608	66.5
918.978	66.46
919.348	66.45
919.718	66.41
920.088	66.39
920.458	66.44
920.828	66.45
921.198	66.46
921.567	66.41
921.937	66.45
922.306	66.4
922.676	66.47
923.045	66.47
923.415	66.53
923.784	66.53
924.153	66.51
924.522	66.51
924.891	66.47
925.26	66.41
925.629	66.39
925.998	66.32
926.367	66.35
926.736	66.26
927.104	66.24
927.473	66.16
927.842	66.11
928.21	66.12
928.578	66.05
928.947	66.05
929.315	66.04
929.683	66.1
930.051	66.09
930.42	66.07
930.788	66.05
931.156	65.96
931.523	65.93
931.891	65.86
932.259	65.74
932.627	65.64
932.994	65.55
933.362	65.48
933.729	65.36
934.097	65.3
934.464	65.18
934.831	65.09
935.199	65.12
935.566	64.98
935.933	65.05
936.3	64.95
936.667	64.87
937.034	64.84
937.401	64.73
937.767	64.71
938.134	64.63
938.501	64.58
938.867	64.53
939.234	64.52
939.6	64.52
939.967	64.4
940.333	64.54
940.699	64.66
941.065	64.69
941.431	64.85
941.798	64.86
942.163	64.95
942.529	65.03
942.895	65.09
943.261	65.07
943.627	65.27
943.992	65.34
944.358	65.39
944.723	65.4
945.089	65.53
945.454	65.51
945.82	65.49
946.185	65.61
946.55	65.72
946.915	65.76
947.28	65.7
947.645	65.63
948.01	65.61
948.375	65.61
948.74	65.56
949.104	65.57
949.469	65.54
949.834	65.55
950.198	65.34
950.562	65.22
950.927	65.17
951.291	65.08
951.655	65.08
952.02	65.05
952.384	65.01
952.748	64.99
953.112	64.87
953.476	64.84
953.839	64.78
954.203	64.8
954.567	64.74
954.931	64.74
955.294	64.84
955.658	64.81
956.021	64.8
956.385	64.77
956.748	64.76
957.111	64.72
957.474	64.76
957.837	64.77
958.2	64.73
958.563	64.74
958.926	64.66
959.289	64.59
959.652	64.53
960.015	64.52
960.377	64.46
960.74	64.41
961.102	64.36
961.465	64.24
961.827	64.11
962.189	64.09
962.552	63.94
962.914	63.88
963.276	63.87
963.638	63.84
964	63.74
964.362	63.76
964.724	63.75
965.085	63.75
965.447	63.73
965.809	63.68
966.17	63.69
966.532	63.77
966.893	63.83
967.255	63.8
967.616	63.74
967.977	63.72
968.338	63.68
968.699	63.6
969.061	63.57
969.421	63.55
969.782	63.59
970.143	63.5
970.504	63.42
970.865	63.32
971.225	63.27
971.586	63.38
971.946	63.36
972.307	63.32
972.667	63.4
973.027	63.43
973.388	63.48
973.748	63.63
974.108	63.6
974.468	63.62
974.828	63.74
975.188	63.77
975.548	63.72
975.907	63.76
976.267	63.79
976.627	63.78
976.986	63.77
977.346	63.7
977.705	63.58
978.064	63.64
978.424	63.64
978.783	63.65
979.142	63.6
979.501	63.58
979.86	63.54
980.219	63.4
980.578	63.32
980.937	63.26
981.296	63.27
981.654	63.31
982.013	63.32
982.371	63.26
982.73	63.1
983.088	63.09
983.447	63.08
983.805	63.07
984.163	63.19
984.521	63.13
984.879	63.06
985.237	63.15
985.595	63.09
985.953	63.08
986.311	63.19
986.669	63.2
987.026	63.22
987.384	63.1
987.741	63.13
988.099	63.05
988.456	63.09
988.814	63.12
989.171	63.01
989.528	63
989.885	63.03
990.242	62.96
990.599	62.99
990.956	62.89
991.313	62.96
991.67	62.96
992.027	62.95
992.383	62.98
992.74	62.98
993.096	62.9
993.453	62.91
993.809	62.79
994.165	62.79
994.522	62.85
994.878	62.87
995.234	62.8
995.59	62.53
995.946	62.58
996.302	62.44
996.658	62.4
997.013	62.47
997.369	62.41
997.725	62.45
998.08	62.4
998.436	62.38
998.791	62.35
999.147	62.39
999.502	62.52
999.857	62.36
1000.212	62.31
1000.567	62.33
1000.922	62.36
1001.277	62.27
1001.632	62.17
1001.987	62.11
1002.342	61.99
1002.696	61.93
1003.051	61.89
1003.406	61.96
1003.76	61.94
1004.114	62.1
1004.469	61.94
1004.823	61.74
1005.177	61.92
1005.531	61.91
1005.885	61.98
1006.239	62.02
1006.593	62.07
1006.947	61.8
1007.301	61.81
1007.655	61.86
1008.008	61.67
1008.362	61.8
1008.715	61.85
1009.069	61.56
1009.422	61.47
1009.776	61.36
1010.129	61.09
1010.482	61.11
1010.835	61.45
1011.188	61.22
1011.541	61.07
1011.894	61.02
1012.247	60.84
1012.6	60.68
1012.952	60.75
1013.305	60.76
1013.657	60.68
1014.01	60.98
1014.362	60.77
1014.715	60.42
1015.067	60.51
1015.419	60.48
1015.771	60.79
1016.123	60.91
1016.475	61.25
1016.827	61.41
1017.179	61.55
1017.531	61.72
1017.883	61.55
1018.234	61.56
1018.586	61.67
1018.938	61.51
1019.289	61.49
1019.64	61.37
1019.992	61.27
1020.343	60.96
1020.694	60.55
1021.045	60.33
1021.396	60.26
1021.747	60.28
1022.098	60.32
1022.449	60.26
1022.8	60.14
1023.151	60.02
1023.501	59.8
1023.852	59.76
1024.202	59.61
1024.553	59.72
1024.903	59.88
1025.253	59.76
1025.604	59.76
1025.954	59.68
1026.304	59.98
1026.654	60.24
1027.004	60.47
1027.354	60.2
1027.703	60.03
1028.053	60.22
1028.403	59.82
1028.753	59.91
1029.102	59.7
1029.452	59.43
1029.801	59.28
1030.15	59.02
1030.499	58.87
897.758	581.52
901.051	594.47
904.343	601.96
907.636	589.87
910.928	577.66
914.22	589.29
917.511	578.96
920.803	557.78
924.094	536.94
927.384	539.54
930.675	522.4
933.965	517.97
937.255	516.91
940.544	493.32
943.834	475.5
947.123	470.46
950.411	444.19
953.7	435.26
956.988	422.7
960.276	404.52
963.563	400.64
966.851	378.4
970.138	371.83
973.424	347.35
976.711	341.24
979.997	330.01
983.283	321.9
986.568	311.77
989.853	302.95
993.138	291.65
996.423	287.03
999.708	279.03
1002.992	279.97
1006.275	270.4
1009.559	268.42
1012.842	261.41
1016.125	252.17
1019.408	248.09
1022.69	248.15
1025.972	245.74
1029.254	239.52
1032.536	234.96
1035.817	228.16
1039.098	225.48
1042.379	222.19
1045.659	219.22
1048.939	217.07
1052.219	213.75
1055.498	210.28
1058.778	205.74
1062.057	203.04
1065.335	201.96
1068.614	199.07
1071.892	196.15
1075.17	191.4
1078.447	188.81
1081.724	186.73
1085.001	182.29
1088.278	182.81
1091.554	181.83
1094.83	180.38
1098.106	177.12
1101.382	176.48
1104.657	175.82
1107.932	175.33
1111.206	174.39
1114.481	172.13
1117.755	171.05
1121.029	171.77
1124.302	168.85
1127.575	164.98
1130.848	164.34
1134.121	162.64
1137.393	162.2
1140.665	161.16
1143.937	159.42
1147.208	157.2
1150.48	156.4
1153.75	155.52
1157.021	153.86
1160.291	153.13
1163.561	153.74
1166.831	152.49
1170.101	152.28
1173.37	151.16
1176.639	149.77
1179.907	149.4
1183.176	149.47
1186.444	150.06
1189.711	148.5
1192.979	150.28
1196.246	149.68
1199.513	149.67
1202.78	149.55
1206.046	149.35
1209.312	150.62
1212.578	150.96
1215.843	153.07
1219.108	154.18
1222.373	156.36
1225.638	159.03
1228.902	161.21
1232.166	166.84
1235.43	168.86
1238.693	172.9
1241.956	177.5
1245.219	180.99
1248.482	181.93
1251.744	181.06
1255.006	182.23
1258.268	177.48
1261.529	176.54
1264.79	171.6
1268.051	168.99
1271.312	167.03
1274.572	164.64
1277.832	159.81
1281.092	157.15
1284.351	154.68
1287.61	154.84
1290.869	153.97
1294.128	153.31
1297.386	152.78
1300.644	152.57
1303.902	150.69
1307.159	150.21
1310.416	150.83
1313.673	152.47
1316.93	154.45
1320.186	156.43
1323.442	157.99
1326.697	159.66
1329.953	161.62
1333.208	166.48
1336.463	172.93
1339.717	176.55
1342.972	185.23
1346.226	189.85
1349.479	192.02
1352.733	199.73
1355.986	204.44
1359.238	208.04
1362.491	210.89
1365.743	218.07
1368.995	219.57
1372.247	218.45
1375.498	217.48
1378.749	223.09
1382	222.93
1385.251	222.23
1388.501	221.88
1391.751	223.27
1395	222.49
1398.25	224.1
1401.499	222.48
1404.748	219.8
1407.996	217.01
1411.244	216.62
1414.492	213.35
1417.74	207
1420.987	201.52
1424.234	197.14
1427.481	189.7
1430.728	184.21
1433.974	176.82
1437.22	171.3
1440.465	165.6
1443.711	159.93
1446.956	155.46
1450.201	149.47
1453.445	142.18
1456.689	138.15
1459.933	133.5
1463.177	127.49
1466.42	125.54
1469.663	122.25
1472.906	118.03
1476.148	115.84
1479.391	113.25
1482.633	110.95
1485.874	108.98
1489.115	108.47
1492.356	106.44
1495.597	104.89
1498.838	105.37
1502.078	103.77
1505.318	103.38
1508.557	103.03
1511.797	101.57
1515.036	100.4
1518.274	101.22
1521.513	99.16
1524.751	98.92
1527.989	100.38
1531.227	99.74
1534.464	99.29
1537.701	99.21
1540.938	98.7
1544.174	99.11
1547.41	99.01
1550.646	99.58
1553.882	98.93
1557.117	99.08
1560.352	98.3
1563.587	97.62
1566.821	97.61
1570.055	96.98
1573.289	96.3
1576.523	96.49
1579.756	95.98
1582.989	96.16
1586.222	96.07
1589.454	95.88
1592.686	95.96
1595.918	96.2
1599.15	95.57
1602.381	95.67
1605.612	95.97
1608.843	96.39
1612.073	96.55
1615.303	96.38
1618.533	96.7
1621.762	96.6
1624.992	96.27
1628.221	96.19
1631.449	96.8
1634.678	97.47
1637.906	97.44
1641.134	97.65
1644.361	97.31
1647.588	98.04
1650.815	98.25
1654.042	97.41
1657.269	97.48
1660.495	98.34
1663.72	98.84
1666.946	98.36
1670.171	98.33
1673.396	98.77
1676.621	98.91
1679.845	99.06
1683.069	98.5
1686.293	98.18
1689.517	99.3
1692.74	99.4
1695.963	99.12
1699.185	99.41
1702.408	99.26
1705.63	99.46
1708.852	100.55
1712.073	99.81
1715.294	100.2
1718.515	100.71
1721.736	101.27
1724.956	100.89
1728.176	100.77
1731.396	101.19
1734.616	101.1
1737.835	101.59
1741.054	101.17
1744.272	101.03
1747.491	100.81
1750.709	101.53
1753.927	101.24
1757.144	101.84
1760.361	101.75
1763.578	102.38
1766.795	102.86
1770.011	103.17
1773.227	103.58
1776.443	104.42
1779.658	103.72
1782.874	104.79
1786.089	104.47
1789.303	104.41
1792.518	104.99
1795.732	105.66
1798.945	106.77
1802.159	106.99
1805.372	107.66
1808.585	108.74
1811.797	109.79
1815.01	110.57
1818.222	111.51
1821.434	113.03
1824.645	113.35
1827.856	114.71
1831.067	115.54
1834.278	116.81
1837.488	117.38
1840.698	118.57
1843.908	118.38
1847.117	119.25
1850.326	120.72
1853.535	121.68
1856.744	121.99
1859.952	124.11
1863.16	124.11
1866.368	123.87
1869.575	123.36
1872.782	123.02
1875.989	121.55
1879.196	121.65
1882.402	120.77
1885.608	120.51
1888.814	119.68
1892.019	122.17
1895.224	120.37
1898.429	119.96
1901.634	120.15
1904.838	121.73
1908.042	123.07
1911.246	122.53
1914.449	123.23
1917.652	122.49
1920.855	123.36
1924.058	122.63
1927.26	120.29
1930.462	121.1
1933.664	122.22
1936.865	123.22
1940.066	120.71
1943.267	119.16
1946.467	121.66
1949.668	121.28
1952.868	122.04
1956.067	121.74
1959.267	121.83
1962.466	122.5
1965.665	124.15
1968.863	123.63
1972.061	125.41
1975.259	127.4
1978.457	129.2
1981.654	129.66
1984.852	131.14
1988.048	132.52
1991.245	134.47
1994.441	138.07
1997.637	140.74
2000.833	142.99
2004.028	145.28
2007.223	146.82
2010.418	150.56
2013.613	158.41
2016.807	162.15
2020.001	164.85
2023.194	168.95
2026.388	175.07
2029.581	183.94
2032.774	189.93
2035.966	194.42
2039.158	199.89
2042.35	203.22
2045.542	206.36
2048.733	212.03
2051.924	213.96
2055.115	220.31
2058.306	223.23
2061.496	226.55
2064.686	225.9
2067.875	224.34
2071.065	228.11
2074.254	228.37
2077.442	236.25
2080.631	239.1
2083.819	239.81
2087.007	244.04
2090.195	246.84
2093.382	247.27
2096.569	247.77
2099.756	251.49
2102.942	257.16
2106.128	262.16
2109.314	264.17
2112.5	263.46
2115.685	259.95
2118.87	260.66
2122.055	264.98
2125.239	268.5
2128.424	274.26
2131.608	273.81
2134.791	274.14
2137.974	274.03
2141.157	276.33
2144.34	278.82
2147.523	284.23
2150.705	293.26
2153.887	291.1
2157.068	291.92
2160.25	295.82
2163.431	296.15
2166.611	298.68
2169.792	303.12
2172.972	308.93
2176.152	308.61
2179.331	315.9
2182.511	315.25
2185.69	319.58
2188.868	329.25
2192.047	339.65
2195.225	343.66
2198.403	348.7
2201.58	345.25
2204.758	359.53
2207.935	360.47
2211.111	370.02
2214.288	370.07
2217.464	376.72
2220.64	375.61
2223.815	378.01
2226.991	372.14
2230.166	374.57
2233.34	385.74
2236.515	397.48
2239.689	388.96
2242.863	397.72
2246.036	393.49
2249.209	402.11
2252.382	398.38
2255.555	416.1
2258.727	419.52
2261.9	431.7
2265.071	437.03
2268.243	433.46
2271.414	445.8
2274.585	456.69
2277.756	454.84
2280.926	471.99
2284.096	476.65
2287.266	479.79
2290.436	472.43
2293.605	481.67
2296.774	497.14
2299.942	499.82
2303.111	511.62
2306.279	526.24
2309.447	527.79
2312.614	531.51
2315.781	542.73
2318.948	548.69
2322.115	562.83
2325.281	592.7
2328.447	588.08
2331.613	593.3
2334.779	599.41
2337.944	612.47
2341.109	616.77
2344.274	624.05
2347.438	640.47
2350.602	648.86
2353.766	686.58
2356.929	690.42
2360.092	697.17
2363.255	703.82
2366.418	710.93
2369.58	728.33
2372.742	729.36
2375.904	727.45
2379.066	748.91
2382.227	785.27
2385.388	784.52
2388.548	743.64
2391.709	738.31
2394.869	760.33
2398.029	757.12
2401.188	759.75
2404.347	780.38
2407.506	801.82
2410.665	773.37
2413.823	779.73
2416.981	784.86
2420.139	744.09
2423.296	809.2
2426.453	862.65
2429.61	818.61
2432.767	877.04
2435.923	904.08
2439.079	879.94
2442.235	897.13
2445.391	921.88
2448.546	907.36
2451.701	958.07
2454.855	1029.44
2458.009	907.63
2461.163	919.01
2464.317	939.98
2467.471	918.22
2470.624	949.42
2473.777	928.27
2476.929	899.94
2480.082	958.43
2483.234	1010.9
2486.385	1029.11
2489.537	1051.67
2492.688	1157.44
2495.839	1132.6
2498.989	1159.74
2502.14	1165.84
2505.29	1113.8
2508.439	1228.75
2511.589	1258.55
2514.738	1230.22
2517.887	1210.89
2521.035	1130.33
2524.183	1117.19
2527.331	1106.48
2530.479	1082.26
2533.627	1104.47
