Data from N_3_ofc_ct_2n_Splice17_02.txt Node
Date: Sat Feb 29 14:47:09 EST 2020
User: sa697716
Spectrometer: FLMS03696
Trigger mode: 0
Integration Time (sec): 3.180400E-1
Scans to average: 20
Electric dark correction enabled: true
Nonlinearity correction enabled: true
Boxcar width: 5
XAxis mode: Wavelengths
Number of Pixels in Spectrum: 2048
>>>>>Begin Spectral Data<<<<<
187.83	79.82
188.298	73.82
188.766	80.27
189.233	81.41
189.701	90.84
190.169	83.98
190.636	91.11
191.104	118.24
191.571	377.54
192.039	170.27
192.506	-207.68
192.974	-2916.02
193.441	570.41
193.908	33.67
194.375	122.49
194.842	195.49
195.31	27.06
195.777	9.58
196.244	11.62
196.711	17.24
197.177	15.19
197.644	17.02
198.111	17.28
198.578	16.5
199.045	16.81
199.511	16.71
199.978	16.96
200.445	17.52
200.911	17.64
201.378	18.02
201.844	18.03
202.31	18.52
202.777	18.46
203.243	18.88
203.709	19.32
204.176	18.75
204.642	18.92
205.108	19.01
205.574	19.21
206.04	19.03
206.506	19.12
206.972	19.22
207.438	18.96
207.903	19.09
208.369	18.79
208.835	18.55
209.301	18.78
209.766	18.56
210.232	18.26
210.697	18.2
211.163	18.09
211.628	17.59
212.094	16.92
212.559	16.7
213.024	16.12
213.49	15.67
213.955	15.53
214.42	14.8
214.885	14.02
215.35	13.7
215.815	12.88
216.28	12.33
216.745	11.68
217.21	11.06
217.675	10.34
218.14	9.59
218.604	8.93
219.069	8.36
219.534	7.97
219.998	7.56
220.463	7.16
220.927	6.87
221.392	6.54
221.856	6.28
222.32	6.04
222.785	5.85
223.249	5.72
223.713	5.58
224.177	5.42
224.642	5.34
225.106	5.27
225.57	5.15
226.034	5.08
226.497	4.98
226.961	4.87
227.425	4.76
227.889	4.67
228.353	4.55
228.816	4.51
229.28	4.43
229.744	4.35
230.207	4.27
230.671	4.21
231.134	4.11
231.597	4.06
232.061	4.01
232.524	3.98
232.987	3.93
233.45	3.88
233.914	3.82
234.377	3.79
234.84	3.72
235.303	3.67
235.766	3.64
236.229	3.61
236.691	3.57
237.154	3.53
237.617	3.49
238.08	3.45
238.542	3.43
239.005	3.39
239.468	3.34
239.93	3.33
240.393	3.31
240.855	3.27
241.317	3.25
241.78	3.22
242.242	3.18
242.704	3.16
243.166	3.14
243.629	3.09
244.091	3.06
244.553	3.05
245.015	3.02
245.477	2.98
245.939	2.96
246.4	2.92
246.862	2.91
247.324	2.89
247.786	2.87
248.247	2.84
248.709	2.82
249.17	2.8
249.632	2.76
250.093	2.72
250.555	2.71
251.016	2.69
251.477	2.67
251.939	2.65
252.4	2.64
252.861	2.63
253.322	2.6
253.783	2.6
254.244	2.58
254.705	2.57
255.166	2.57
255.627	2.55
256.088	2.53
256.549	2.52
257.009	2.51
257.47	2.49
257.931	2.46
258.391	2.45
258.852	2.43
259.312	2.42
259.773	2.41
260.233	2.39
260.694	2.37
261.154	2.36
261.614	2.35
262.074	2.33
262.534	2.31
262.994	2.3
263.455	2.29
263.915	2.27
264.374	2.25
264.834	2.24
265.294	2.23
265.754	2.21
266.214	2.21
266.673	2.2
267.133	2.18
267.593	2.18
268.052	2.16
268.512	2.15
268.971	2.14
269.431	2.14
269.89	2.13
270.349	2.12
270.809	2.12
271.268	2.1
271.727	2.1
272.186	2.1
272.645	2.09
273.104	2.08
273.563	2.08
274.022	2.08
274.481	2.07
274.94	2.07
275.399	2.07
275.857	2.06
276.316	2.06
276.775	2.05
277.233	2.04
277.692	2.04
278.15	2.03
278.609	2.02
279.067	2.01
279.525	2
279.984	1.98
280.442	1.98
280.9	1.97
281.358	1.96
281.816	1.96
282.274	1.96
282.732	1.95
283.19	1.96
283.648	1.95
284.106	1.95
284.564	1.96
285.021	1.96
285.479	1.96
285.937	1.95
286.394	1.94
286.852	1.94
287.309	1.93
287.767	1.92
288.224	1.91
288.682	1.9
289.139	1.9
289.596	1.89
290.053	1.88
290.511	1.87
290.968	1.87
291.425	1.87
291.882	1.86
292.339	1.86
292.796	1.85
293.252	1.84
293.709	1.83
294.166	1.83
294.623	1.82
295.079	1.82
295.536	1.81
295.992	1.81
296.449	1.8
296.905	1.79
297.362	1.78
297.818	1.78
298.274	1.78
298.731	1.78
299.187	1.77
299.643	1.77
300.099	1.77
300.555	1.76
301.011	1.75
301.467	1.75
301.923	1.75
302.379	1.74
302.835	1.74
303.291	1.74
303.746	1.74
304.202	1.73
304.658	1.72
305.113	1.72
305.569	1.72
306.024	1.72
306.479	1.72
306.935	1.72
307.39	1.72
307.845	1.72
308.301	1.72
308.756	1.73
309.211	1.73
309.666	1.73
310.121	1.72
310.576	1.72
311.031	1.72
311.486	1.72
311.94	1.72
312.395	1.73
312.85	1.73
313.305	1.73
313.759	1.72
314.214	1.72
314.668	1.73
315.123	1.73
315.577	1.73
316.032	1.73
316.486	1.73
316.94	1.72
317.394	1.71
317.849	1.71
318.303	1.7
318.757	1.69
319.211	1.68
319.665	1.67
320.119	1.66
320.572	1.66
321.026	1.66
321.48	1.66
321.934	1.66
322.387	1.66
322.841	1.65
323.295	1.65
323.748	1.65
324.202	1.66
324.655	1.67
325.108	1.66
325.562	1.66
326.015	1.66
326.468	1.65
326.921	1.64
327.374	1.64
327.827	1.64
328.28	1.64
328.733	1.64
329.186	1.63
329.639	1.62
330.092	1.62
330.545	1.62
330.997	1.63
331.45	1.63
331.903	1.63
332.355	1.63
332.808	1.64
333.26	1.64
333.713	1.63
334.165	1.64
334.617	1.65
335.069	1.65
335.522	1.64
335.974	1.64
336.426	1.64
336.878	1.64
337.33	1.63
337.782	1.62
338.234	1.63
338.686	1.63
339.137	1.63
339.589	1.62
340.041	1.62
340.493	1.62
340.944	1.61
341.396	1.62
341.847	1.61
342.299	1.61
342.75	1.59
343.201	1.59
343.653	1.58
344.104	1.58
344.555	1.58
345.006	1.57
345.457	1.57
345.908	1.58
346.359	1.57
346.81	1.57
347.261	1.57
347.712	1.59
348.163	1.59
348.613	1.59
349.064	1.57
349.515	1.56
349.965	1.56
350.416	1.55
350.866	1.55
351.317	1.55
351.767	1.55
352.217	1.55
352.668	1.54
353.118	1.53
353.568	1.53
354.018	1.54
354.468	1.55
354.918	1.56
355.368	1.57
355.818	1.57
356.268	1.56
356.718	1.56
357.168	1.56
357.617	1.56
358.067	1.56
358.517	1.56
358.966	1.57
359.416	1.58
359.865	1.58
360.315	1.57
360.764	1.57
361.213	1.56
361.663	1.57
362.112	1.58
362.561	1.58
363.01	1.59
363.459	1.59
363.908	1.58
364.357	1.57
364.806	1.58
365.255	1.58
365.703	1.58
366.152	1.59
366.601	1.6
367.05	1.6
367.498	1.59
367.947	1.59
368.395	1.6
368.844	1.61
369.292	1.6
369.74	1.59
370.189	1.59
370.637	1.59
371.085	1.6
371.533	1.58
371.981	1.58
372.429	1.58
372.877	1.58
373.325	1.58
373.773	1.57
374.221	1.58
374.669	1.58
375.116	1.58
375.564	1.58
376.012	1.58
376.459	1.59
376.907	1.59
377.354	1.61
377.801	1.62
378.249	1.62
378.696	1.64
379.143	1.65
379.591	1.67
380.038	1.68
380.485	1.7
380.932	1.71
381.379	1.72
381.826	1.74
382.273	1.74
382.72	1.75
383.166	1.76
383.613	1.78
384.06	1.8
384.506	1.82
384.953	1.85
385.4	1.89
385.846	1.93
386.292	1.99
386.739	2.06
387.185	2.16
387.631	2.24
388.078	2.32
388.524	2.37
388.97	2.46
389.416	2.56
389.862	2.7
390.308	2.87
390.754	3.07
391.2	3.28
391.645	3.47
392.091	3.62
392.537	3.81
392.983	4.08
393.428	4.47
393.874	4.93
394.319	5.43
394.765	5.94
395.21	6.48
395.655	7.05
396.101	7.66
396.546	8.35
396.991	9.13
397.436	9.93
397.881	10.74
398.326	11.52
398.771	12.26
399.216	12.98
399.661	13.66
400.106	14.27
400.551	14.81
400.995	15.28
401.44	15.71
401.885	16.11
402.329	16.54
402.774	16.96
403.218	17.45
403.663	17.96
404.107	18.52
404.551	19.1
404.995	19.63
405.44	20.14
405.884	20.68
406.328	21.3
406.772	22.03
407.216	22.78
407.66	23.46
408.104	24.06
408.547	24.59
408.991	25.05
409.435	25.52
409.879	26.11
410.322	26.81
410.766	27.54
411.209	28.21
411.653	28.77
412.096	29.29
412.54	29.78
412.983	30.26
413.426	30.82
413.869	31.42
414.312	32.03
414.756	32.56
415.199	32.98
415.642	33.37
416.085	33.69
416.527	34
416.97	34.2
417.413	34.23
417.856	34.19
418.298	34.12
418.741	34.09
419.184	34.09
419.626	34.19
420.069	34.36
420.511	34.52
420.953	34.68
421.396	34.89
421.838	35.21
422.28	35.72
422.722	36.27
423.164	36.78
423.606	37.21
424.048	37.51
424.49	37.62
424.932	37.4
425.374	36.87
425.816	36.1
426.258	35.26
426.699	34.65
427.141	34.49
427.582	34.75
428.024	35.23
428.465	35.79
428.907	36.35
429.348	36.88
429.789	37.58
430.231	38.73
430.672	40.37
431.113	42.24
431.554	44.1
431.995	45.52
432.436	46.55
432.877	47.28
433.318	47.82
433.759	48.42
434.2	49.22
434.64	50.25
435.081	51.24
435.522	52.08
435.962	52.77
436.403	53.3
436.843	53.75
437.284	54.25
437.724	54.83
438.164	55.6
438.604	56.43
439.045	57.31
439.485	58.09
439.925	58.74
440.365	59.25
440.805	59.59
441.245	59.84
441.685	60.15
442.125	60.51
442.564	61
443.004	61.51
443.444	62.1
443.883	62.68
444.323	63.35
444.762	63.96
445.202	64.73
445.641	65.64
446.081	66.75
446.52	67.81
446.959	68.85
447.398	69.59
447.837	70.08
448.276	70.25
448.716	70.39
449.154	70.49
449.593	70.63
450.032	70.64
450.471	70.52
450.91	70.18
451.349	69.89
451.787	69.64
452.226	69.49
452.664	69.42
453.103	69.42
453.541	69.4
453.98	69.19
454.418	68.93
454.856	68.58
455.295	68.23
455.733	67.98
456.171	67.72
456.609	67.48
457.047	67.3
457.485	67.19
457.923	67.22
458.361	67.29
458.798	67.49
459.236	67.7
459.674	67.94
460.111	68.15
460.549	68.37
460.987	68.64
461.424	68.87
461.862	69.12
462.299	69.3
462.736	69.49
463.173	69.76
463.611	70.17
464.048	70.69
464.485	71.31
464.922	72.05
465.359	72.71
465.796	73.28
466.233	73.87
466.67	74.55
467.106	75.46
467.543	76.44
467.98	77.39
468.416	78.21
468.853	78.88
469.29	79.56
469.726	80.2
470.162	80.97
470.599	81.74
471.035	82.42
471.471	82.87
471.907	83.12
472.344	83.28
472.78	83.37
473.216	83.57
473.652	83.76
474.088	83.86
474.523	83.87
474.959	83.84
475.395	83.77
475.831	83.7
476.266	83.68
476.702	83.63
477.138	83.52
477.573	83.39
478.008	83
478.444	82.61
478.879	82.1
479.314	81.55
479.75	80.91
480.185	80.21
480.62	79.3
481.055	78.07
481.49	76.47
481.925	74.73
482.36	73.08
482.795	71.7
483.229	70.63
483.664	69.75
484.099	69.01
484.534	68.31
484.968	67.75
485.403	67.49
485.837	67.55
486.271	67.93
486.706	68.37
487.14	68.66
487.574	68.73
488.009	68.62
488.443	68.52
488.877	68.39
489.311	68.31
489.745	68.24
490.179	68.17
490.613	68.09
491.046	68.04
491.48	68.07
491.914	68.21
492.348	68.5
492.781	68.74
493.215	68.91
493.648	69.03
494.082	69.07
494.515	69.11
494.948	69.1
495.382	69.09
495.815	69.02
496.248	68.91
496.681	68.76
497.114	68.55
497.547	68.39
497.98	68.32
498.413	68.4
498.846	68.53
499.279	68.63
499.711	68.68
500.144	68.82
500.577	69.09
501.009	69.54
501.442	70.12
501.874	70.71
502.306	71.31
502.739	71.76
503.171	72.15
503.603	72.49
504.036	72.89
504.468	73.38
504.9	73.89
505.332	74.29
505.764	74.62
506.196	74.89
506.627	75.21
507.059	75.6
507.491	76.05
507.923	76.47
508.354	76.89
508.786	77.26
509.217	77.51
509.649	77.73
510.08	77.98
510.512	78.27
510.943	78.6
511.374	78.85
511.805	78.87
512.237	78.7
512.668	78.44
513.099	78.27
513.53	78.15
513.961	78.1
514.391	78.12
514.822	78.32
515.253	78.55
515.684	78.79
516.114	79.15
516.545	79.66
516.975	80.52
517.406	81.46
517.836	82.35
518.267	83.14
518.697	83.91
519.127	84.66
519.558	85.31
519.988	85.88
520.418	86.42
520.848	86.86
521.278	87.23
521.708	87.3
522.138	87.22
522.567	87.14
522.997	87.14
523.427	87.24
523.857	87.34
524.286	87.52
524.716	87.72
525.145	87.87
525.575	88.02
526.004	88.29
526.433	88.79
526.863	89.45
527.292	90.07
527.721	90.52
528.15	90.78
528.579	90.89
529.008	90.87
529.437	90.78
529.866	90.71
530.295	90.7
530.724	90.74
531.152	90.72
531.581	90.72
532.01	90.64
532.438	90.64
532.867	90.7
533.295	90.83
533.723	90.96
534.152	91.05
534.58	91.11
535.008	91.01
535.436	90.77
535.865	90.45
536.293	90.12
536.721	89.95
537.149	89.87
537.576	89.88
538.004	89.86
538.432	89.82
538.86	89.85
539.287	89.95
539.715	90.18
540.143	90.44
540.57	90.82
540.998	91.24
541.425	91.63
541.852	92
542.28	92.29
542.707	92.59
543.134	92.87
543.561	93.07
543.988	93.29
544.415	93.52
544.842	93.82
545.269	94.09
545.696	94.33
546.123	94.6
546.549	94.84
546.976	95.08
547.403	95.31
547.829	95.61
548.256	95.91
548.682	96.11
549.108	96.36
549.535	96.54
549.961	96.72
550.387	96.89
550.813	97.06
551.24	97.23
551.666	97.37
552.092	97.43
552.518	97.37
552.943	97.35
553.369	97.34
553.795	97.17
554.221	96.96
554.646	96.64
555.072	96.29
555.498	95.91
555.923	95.58
556.349	95.28
556.774	95.1
557.199	94.93
557.625	94.68
558.05	94.43
558.475	94.21
558.9	94.06
559.325	93.94
559.75	93.77
560.175	93.58
560.6	93.25
561.025	92.82
561.449	92.29
561.874	91.77
562.299	91.33
562.723	90.88
563.148	90.42
563.572	89.91
563.997	89.36
564.421	88.77
564.846	88.16
565.27	87.65
565.694	87.09
566.118	86.5
566.542	85.91
566.966	85.27
567.39	84.66
567.814	84.13
568.238	83.66
568.662	83.26
569.086	82.92
569.509	82.65
569.933	82.35
570.357	82.09
570.78	81.9
571.204	81.69
571.627	81.57
572.05	81.47
572.474	81.3
572.897	81.14
573.32	80.96
573.743	80.79
574.166	80.57
574.589	80.37
575.012	80.33
575.435	80.32
575.858	80.37
576.281	80.43
576.704	80.49
577.126	80.59
577.549	80.72
577.972	80.93
578.394	81.14
578.817	81.41
579.239	81.71
579.661	81.95
580.084	82.16
580.506	82.32
580.928	82.43
581.35	82.48
581.772	82.52
582.194	82.52
582.616	82.5
583.038	82.49
583.46	82.46
583.882	82.26
584.303	81.92
584.725	81.42
585.147	80.92
585.568	80.47
585.99	80.15
586.411	79.93
586.833	79.73
587.254	79.55
587.675	79.4
588.096	79.3
588.518	79.28
588.939	79.44
589.36	79.75
589.781	80.06
590.202	80.31
590.623	80.48
591.043	80.5
591.464	80.5
591.885	80.49
592.305	80.45
592.726	80.34
593.147	80.25
593.567	80.08
593.987	79.91
594.408	79.77
594.828	79.6
595.248	79.42
595.669	79.22
596.089	78.97
596.509	78.66
596.929	78.32
597.349	77.94
597.769	77.57
598.189	77.25
598.608	76.96
599.028	76.7
599.448	76.52
599.867	76.3
600.287	76.15
600.706	75.97
601.126	75.79
601.545	75.65
601.965	75.55
602.384	75.45
602.803	75.33
603.222	75.18
603.641	74.98
604.061	74.75
604.48	74.51
604.898	74.24
605.317	74.03
605.736	73.77
606.155	73.49
606.574	73.23
606.992	73
607.411	72.78
607.829	72.51
608.248	72.28
608.666	72.06
609.085	71.8
609.503	71.5
609.921	71.25
610.339	71.06
610.758	70.88
611.176	70.65
611.594	70.37
612.012	70.03
612.43	69.72
612.847	69.44
613.265	69.19
613.683	69.01
614.101	68.9
614.518	68.77
614.936	68.63
615.353	68.49
615.771	68.43
616.188	68.42
616.606	68.45
617.023	68.47
617.44	68.42
617.857	68.32
618.274	68.18
618.691	67.99
619.108	67.76
619.525	67.53
619.942	67.27
620.359	66.95
620.776	66.58
621.192	66.2
621.609	65.86
622.026	65.58
622.442	65.35
622.859	65.06
623.275	64.8
623.691	64.51
624.108	64.26
624.524	64
624.94	63.77
625.356	63.56
625.772	63.39
626.188	63.23
626.604	63.03
627.02	62.82
627.436	62.66
627.852	62.55
628.268	62.5
628.683	62.47
629.099	62.48
629.514	62.47
629.93	62.51
630.345	62.53
630.761	62.56
631.176	62.61
631.591	62.64
632.007	62.64
632.422	62.67
632.837	62.69
633.252	62.68
633.667	62.68
634.082	62.71
634.497	62.71
634.911	62.7
635.326	62.61
635.741	62.51
636.155	62.41
636.57	62.29
636.984	62.1
637.399	61.92
637.813	61.74
638.228	61.53
638.642	61.32
639.056	61.08
639.47	60.84
639.884	60.68
640.298	60.52
640.712	60.36
641.126	60.19
641.54	60.04
641.954	59.87
642.368	59.64
642.781	59.39
643.195	59.15
643.609	58.92
644.022	58.69
644.436	58.38
644.849	58.05
645.262	57.7
645.676	57.39
646.089	57.18
646.502	56.98
646.915	56.83
647.328	56.67
647.741	56.55
648.154	56.44
648.567	56.35
648.98	56.3
649.393	56.29
649.805	56.31
650.218	56.26
650.631	56.08
651.043	55.77
651.456	55.22
651.868	54.52
652.28	53.73
652.693	53
653.105	52.44
653.517	52
653.929	51.67
654.341	51.4
654.753	51.24
655.165	51.11
655.577	51.1
655.989	51.35
656.401	51.76
656.813	52.28
657.224	52.73
657.636	53.01
658.047	53.18
658.459	53.23
658.87	53.2
659.282	53.11
659.693	52.98
660.104	52.86
660.515	52.73
660.926	52.62
661.338	52.45
661.749	52.26
662.159	52.05
662.57	51.8
662.981	51.56
663.392	51.34
663.803	51.14
664.213	50.98
664.624	50.82
665.035	50.61
665.445	50.4
665.855	50.18
666.266	49.96
666.676	49.73
667.086	49.53
667.497	49.3
667.907	49.06
668.317	48.87
668.727	48.63
669.137	48.44
669.547	48.25
669.956	48.02
670.366	47.85
670.776	47.69
671.186	47.53
671.595	47.41
672.005	47.3
672.414	47.2
672.824	47.06
673.233	46.96
673.642	46.84
674.052	46.74
674.461	46.7
674.87	46.62
675.279	46.56
675.688	46.49
676.097	46.41
676.506	46.36
676.915	46.33
677.323	46.34
677.732	46.32
678.141	46.3
678.549	46.29
678.958	46.29
679.366	46.25
679.775	46.21
680.183	46.18
680.592	46.2
681	46.18
681.408	46.16
681.816	46.01
682.224	45.68
682.632	45.08
683.04	44.26
683.448	43.42
683.856	42.69
684.264	42.09
684.671	41.5
685.079	40.93
685.487	40.47
685.894	40.08
686.302	39.88
686.709	39.98
687.116	40.43
687.524	41.21
687.931	42.05
688.338	42.88
688.745	43.68
689.152	44.5
689.559	45.28
689.966	46.03
690.373	46.76
690.78	47.44
691.187	48.1
691.593	48.72
692	49.29
692.407	49.89
692.813	50.48
693.22	51.02
693.626	51.54
694.032	52.06
694.439	52.57
694.845	53.02
695.251	53.47
695.657	53.87
696.063	54.28
696.469	54.62
696.875	54.87
697.281	55.13
697.687	55.38
698.093	55.65
698.498	55.94
698.904	56.23
699.31	56.57
699.715	56.95
700.12	57.33
700.526	57.75
700.931	58.19
701.337	58.64
701.742	59.04
702.147	59.5
702.552	59.93
702.957	60.36
703.362	60.82
703.767	61.23
704.172	61.58
704.577	61.93
704.981	62.24
705.386	62.53
705.791	62.87
706.195	63.17
706.6	63.45
707.004	63.75
707.408	64.03
707.813	64.27
708.217	64.49
708.621	64.72
709.025	64.97
709.43	65.21
709.834	65.46
710.237	65.63
710.641	65.84
711.045	66.01
711.449	66.18
711.853	66.28
712.256	66.31
712.66	66.21
713.064	66.02
713.467	65.68
713.87	65.27
714.274	64.82
714.677	64.28
715.08	63.69
715.484	63.14
715.887	62.6
716.29	62.18
716.693	61.95
717.096	62.02
717.499	62.31
717.901	62.74
718.304	63.28
718.707	63.82
719.109	64.41
719.512	64.98
719.915	65.48
720.317	65.9
720.719	66.25
721.122	66.52
721.524	66.59
721.926	66.6
722.328	66.59
722.731	66.55
723.133	66.5
723.535	66.54
723.937	66.6
724.338	66.68
724.74	66.79
725.142	66.81
725.544	66.88
725.945	67.01
726.347	67.11
726.748	67.12
727.15	67.22
727.551	67.37
727.952	67.57
728.354	67.89
728.755	68.21
729.156	68.61
729.557	69.15
729.958	69.57
730.359	69.97
730.76	70.3
731.161	70.62
731.562	70.9
731.962	71.15
732.363	71.32
732.763	71.46
733.164	71.53
733.564	71.56
733.965	71.49
734.365	71.41
734.766	71.28
735.166	71.16
735.566	71.08
735.966	71.01
736.366	70.95
736.766	70.87
737.166	70.77
737.566	70.69
737.966	70.63
738.365	70.59
738.765	70.63
739.165	70.67
739.564	70.75
739.964	70.78
740.363	70.8
740.763	70.79
741.162	70.83
741.561	70.89
741.96	70.94
742.36	71
742.759	71
743.158	70.93
743.557	70.91
743.955	70.89
744.354	70.91
744.753	70.89
745.152	70.86
745.55	70.8
745.949	70.69
746.348	70.61
746.746	70.47
747.144	70.4
747.543	70.35
747.941	70.29
748.339	70.21
748.737	70.14
749.136	70.07
749.534	70
749.932	69.94
750.33	69.89
750.727	69.83
751.125	69.75
751.523	69.64
751.921	69.54
752.318	69.44
752.716	69.3
753.113	69.15
753.511	68.98
753.908	68.83
754.305	68.55
754.703	68
755.1	66.89
755.497	65.06
755.894	62.5
756.291	59.42
756.688	56.16
757.085	53.03
757.482	50.16
757.878	47.46
758.275	44.75
758.672	42.09
759.068	39.69
759.465	37.88
759.861	36.99
760.258	36.96
760.654	37.72
761.05	38.84
761.447	40.08
761.843	41.25
762.239	42.5
762.635	43.99
763.031	45.76
763.427	47.7
763.822	49.71
764.218	51.73
764.614	53.73
765.01	55.52
765.405	57.18
765.801	58.65
766.196	59.99
766.592	61.12
766.987	62.01
767.382	62.7
767.778	63.23
768.173	63.66
768.568	63.93
768.963	64.16
769.358	64.33
769.753	64.46
770.148	64.49
770.542	64.46
770.937	64.38
771.332	64.37
771.726	64.29
772.121	64.24
772.515	64.21
772.91	64.17
773.304	64.04
773.699	63.9
774.093	63.77
774.487	63.71
774.881	63.67
775.275	63.6
775.669	63.5
776.063	63.37
776.457	63.21
776.851	63.03
777.245	62.9
777.638	62.79
778.032	62.72
778.425	62.61
778.819	62.47
779.212	62.28
779.606	62.12
779.999	61.95
780.392	61.83
780.786	61.7
781.179	61.62
781.572	61.45
781.965	61.3
782.358	61.1
782.751	60.94
783.143	60.8
783.536	60.65
783.929	60.52
784.322	60.32
784.714	60.15
785.107	59.96
785.499	59.69
785.891	59.47
786.284	59.19
786.676	58.97
787.068	58.7
787.46	58.39
787.852	58.13
788.245	57.86
788.636	57.62
789.028	57.3
789.42	57.02
789.812	56.79
790.204	56.51
790.595	56.28
790.987	56.05
791.378	55.84
791.77	55.71
792.161	55.5
792.553	55.31
792.944	55.15
793.335	55.05
793.726	54.92
794.117	54.79
794.508	54.68
794.899	54.53
795.29	54.33
795.681	54.15
796.072	53.91
796.463	53.7
796.853	53.48
797.244	53.25
797.634	52.98
798.025	52.71
798.415	52.46
798.806	52.19
799.196	51.95
799.586	51.75
799.976	51.49
800.366	51.23
800.756	50.99
801.146	50.77
801.536	50.55
801.926	50.36
802.316	50.19
802.706	49.99
803.095	49.8
803.485	49.59
803.874	49.37
804.264	49.18
804.653	48.98
805.043	48.75
805.432	48.44
805.821	48.14
806.21	47.88
806.599	47.6
806.988	47.32
807.377	47.02
807.766	46.74
808.155	46.43
808.544	46.04
808.933	45.69
809.321	45.35
809.71	45.01
810.098	44.6
810.487	44.16
810.875	43.67
811.264	43.18
811.652	42.68
812.04	42.13
812.428	41.62
812.816	41.18
813.204	40.75
813.592	40.33
813.98	39.91
814.368	39.55
814.756	39.23
815.144	38.96
815.531	38.69
815.919	38.51
816.306	38.37
816.694	38.29
817.081	38.2
817.469	38.09
817.856	37.97
818.243	37.81
818.63	37.59
819.017	37.33
819.404	37.11
819.791	36.94
820.178	36.78
820.565	36.62
820.952	36.46
821.339	36.3
821.725	36.15
822.112	36.05
822.498	36.01
822.885	36.02
823.271	36.02
823.657	35.95
824.044	35.82
824.43	35.66
824.816	35.48
825.202	35.26
825.588	35.07
825.974	34.86
826.36	34.65
826.746	34.45
827.132	34.2
827.517	34.02
827.903	33.87
828.289	33.74
828.674	33.61
829.06	33.49
829.445	33.38
829.83	33.24
830.216	33.14
830.601	33.02
830.986	32.91
831.371	32.85
831.756	32.74
832.141	32.66
832.526	32.57
832.911	32.49
833.295	32.44
833.68	32.36
834.065	32.3
834.449	32.21
834.834	32.11
835.218	32.02
835.603	31.95
835.987	31.88
836.371	31.81
836.755	31.73
837.139	31.64
837.524	31.55
837.908	31.46
838.291	31.37
838.675	31.32
839.059	31.27
839.443	31.18
839.827	31.07
840.21	31
840.594	30.89
840.977	30.79
841.361	30.72
841.744	30.65
842.127	30.58
842.511	30.49
842.894	30.38
843.277	30.31
843.66	30.26
844.043	30.19
844.426	30.1
844.809	30.01
845.191	29.91
845.574	29.77
845.957	29.61
846.339	29.49
846.722	29.38
847.104	29.28
847.487	29.19
847.869	29.07
848.252	28.97
848.634	28.91
849.016	28.83
849.398	28.71
849.78	28.58
850.162	28.42
850.544	28.29
850.926	28.16
851.307	28.08
851.689	27.95
852.071	27.86
852.452	27.77
852.834	27.67
853.215	27.59
853.597	27.59
853.978	27.61
854.359	27.68
854.741	27.72
855.122	27.76
855.503	27.73
855.884	27.7
856.265	27.67
856.646	27.64
857.026	27.61
857.407	27.58
857.788	27.51
858.169	27.46
858.549	27.41
858.93	27.34
859.31	27.28
859.69	27.22
860.071	27.16
860.451	27.11
860.831	27.04
861.211	26.96
861.591	26.87
861.971	26.75
862.351	26.63
862.731	26.52
863.111	26.41
863.491	26.32
863.87	26.23
864.25	26.17
864.629	26.07
865.009	26.01
865.388	25.95
865.768	25.92
866.147	25.93
866.526	25.94
866.905	25.93
867.284	25.94
867.663	25.94
868.042	25.92
868.421	25.91
868.8	25.9
869.179	25.89
869.558	25.89
869.936	25.86
870.315	25.81
870.693	25.77
871.072	25.73
871.45	25.68
871.828	25.63
872.207	25.61
872.585	25.56
872.963	25.53
873.341	25.5
873.719	25.45
874.097	25.43
874.475	25.41
874.853	25.4
875.23	25.38
875.608	25.38
875.986	25.33
876.363	25.29
876.741	25.27
877.118	25.22
877.495	25.18
877.873	25.14
878.25	25.11
878.627	25.09
879.004	25.05
879.381	24.99
879.758	24.92
880.135	24.9
880.512	24.87
880.889	24.82
881.265	24.8
881.642	24.77
882.019	24.75
882.395	24.71
882.772	24.66
883.148	24.63
883.524	24.61
883.901	24.59
884.277	24.57
884.653	24.56
885.029	24.55
885.405	24.53
885.781	24.51
886.157	24.47
886.532	24.44
886.908	24.44
887.284	24.42
887.659	24.39
888.035	24.37
888.411	24.34
888.786	24.29
889.161	24.27
889.537	24.24
889.912	24.18
890.287	24.14
890.662	24.08
891.037	24.02
891.412	23.94
891.787	23.88
892.162	23.81
892.536	23.72
892.911	23.62
893.286	23.5
893.66	23.4
894.035	23.32
894.409	23.21
894.784	23.12
895.158	23.03
895.532	22.95
895.906	22.85
896.281	22.76
896.655	22.68
897.029	22.61
897.402	22.54
897.776	22.46
898.15	22.4
898.524	22.36
898.898	22.33
899.271	22.3
899.645	22.32
900.018	22.33
900.392	22.34
900.765	22.35
901.138	22.4
901.511	22.44
901.884	22.48
902.258	22.51
902.631	22.55
903.003	22.56
903.376	22.54
903.749	22.49
904.122	22.45
904.495	22.42
904.867	22.37
905.24	22.3
905.612	22.25
905.985	22.2
906.357	22.13
906.729	22.06
907.102	22.02
907.474	22.01
907.846	21.98
908.218	21.95
908.59	21.92
908.962	21.92
909.334	21.89
909.705	21.88
910.077	21.86
910.449	21.87
910.82	21.84
911.192	21.84
911.563	21.77
911.935	21.75
912.306	21.71
912.677	21.72
913.048	21.67
913.419	21.65
913.79	21.62
914.161	21.61
914.532	21.59
914.903	21.59
915.274	21.55
915.645	21.59
916.015	21.62
916.386	21.65
916.756	21.62
917.127	21.64
917.497	21.66
917.868	21.68
918.238	21.72
918.608	21.74
918.978	21.77
919.348	21.78
919.718	21.77
920.088	21.72
920.458	21.72
920.828	21.75
921.198	21.75
921.567	21.72
921.937	21.68
922.306	21.65
922.676	21.6
923.045	21.56
923.415	21.55
923.784	21.52
924.153	21.52
924.522	21.48
924.891	21.41
925.26	21.35
925.629	21.33
925.998	21.31
926.367	21.25
926.736	21.19
927.104	21.12
927.473	21.04
927.842	20.91
928.21	20.79
928.578	20.7
928.947	20.62
929.315	20.44
929.683	20.33
930.051	20.21
930.42	20.05
930.788	19.93
931.156	19.81
931.523	19.68
931.891	19.57
932.259	19.49
932.627	19.36
932.994	19.28
933.362	19.26
933.729	19.16
934.097	19.08
934.464	19.05
934.831	19.01
935.199	19.01
935.566	19.02
935.933	19.2
936.3	19.22
936.667	19.32
937.034	19.35
937.401	19.4
937.767	19.51
938.134	19.61
938.501	19.69
938.867	19.81
939.234	19.92
939.6	19.95
939.967	19.84
940.333	19.88
940.699	19.91
941.065	19.9
941.431	19.98
941.798	20.03
942.163	20.08
942.529	20.09
942.895	20.08
943.261	20.06
943.627	20.16
943.992	20.22
944.358	20.24
944.723	20.26
945.089	20.3
945.454	20.31
945.82	20.22
946.185	20.25
946.55	20.26
946.915	20.23
947.28	20.18
947.645	20.16
948.01	20.14
948.375	20.12
948.74	20.05
949.104	20.08
949.469	20.04
949.834	20.08
950.198	20.02
950.562	20.04
950.927	19.96
951.291	19.95
951.655	19.9
952.02	19.82
952.384	19.85
952.748	19.87
953.112	19.77
953.476	19.7
953.839	19.66
954.203	19.6
954.567	19.56
954.931	19.62
955.294	19.63
955.658	19.56
956.021	19.64
956.385	19.64
956.748	19.61
957.111	19.62
957.474	19.66
957.837	19.67
958.2	19.72
958.563	19.69
958.926	19.69
959.289	19.67
959.652	19.74
960.015	19.72
960.377	19.67
960.74	19.69
961.102	19.71
961.465	19.69
961.827	19.62
962.189	19.59
962.552	19.59
962.914	19.61
963.276	19.58
963.638	19.57
964	19.55
964.362	19.56
964.724	19.6
965.085	19.61
965.447	19.64
965.809	19.67
966.17	19.68
966.532	19.71
966.893	19.73
967.255	19.7
967.616	19.7
967.977	19.71
968.338	19.73
968.699	19.69
969.061	19.7
969.421	19.67
969.782	19.76
970.143	19.75
970.504	19.72
970.865	19.67
971.225	19.76
971.586	19.79
971.946	19.78
972.307	19.76
972.667	19.77
973.027	19.77
973.388	19.74
973.748	19.65
974.108	19.65
974.468	19.67
974.828	19.74
975.188	19.68
975.548	19.66
975.907	19.7
976.267	19.74
976.627	19.73
976.986	19.68
977.346	19.73
977.705	19.82
978.064	19.86
978.424	19.9
978.783	19.88
979.142	19.92
979.501	19.9
979.86	19.87
980.219	19.8
980.578	19.82
980.937	19.83
981.296	19.84
981.654	19.78
982.013	19.77
982.371	19.71
982.73	19.72
983.088	19.73
983.447	19.77
983.805	19.82
984.163	19.91
984.521	19.93
984.879	19.97
985.237	20
985.595	20.07
985.953	20.08
986.311	20.14
986.669	20.11
987.026	20.07
987.384	20.07
987.741	20.09
988.099	20.04
988.456	20.07
988.814	20.09
989.171	20.09
989.528	20.07
989.885	20.03
990.242	19.96
990.599	20.06
990.956	20.21
991.313	20.2
991.67	20.24
992.027	20.25
992.383	20.18
992.74	20.07
993.096	20.01
993.453	20.01
993.809	20
994.165	20.01
994.522	19.9
994.878	19.82
995.234	19.8
995.59	19.6
995.946	19.7
996.302	19.65
996.658	19.79
997.013	19.9
997.369	19.93
997.725	19.98
998.08	20.01
998.436	20.11
998.791	20.06
999.147	20.08
999.502	20.17
999.857	20.1
1000.212	20.08
1000.567	20.06
1000.922	19.93
1001.277	19.85
1001.632	19.99
1001.987	19.98
1002.342	19.86
1002.696	19.82
1003.051	19.69
1003.406	19.67
1003.76	19.64
1004.114	19.75
1004.469	19.76
1004.823	19.86
1005.177	20.03
1005.531	19.86
1005.885	20
1006.239	19.93
1006.593	20.02
1006.947	20.15
1007.301	20.22
1007.655	20.31
1008.008	20.27
1008.362	20.25
1008.715	20.2
1009.069	20
1009.422	19.89
1009.776	19.8
1010.129	19.83
1010.482	20.01
1010.835	20.03
1011.188	19.97
1011.541	19.72
1011.894	19.65
1012.247	19.49
1012.6	19.41
1012.952	19.65
1013.305	19.7
1013.657	19.59
1014.01	19.79
1014.362	19.63
1014.715	19.56
1015.067	19.8
1015.419	20
1015.771	20.24
1016.123	20.37
1016.475	20.54
1016.827	20.54
1017.179	20.5
1017.531	20.82
1017.883	20.69
1018.234	20.73
1018.586	20.74
1018.938	20.29
1019.289	20.25
1019.64	20.22
1019.992	20.15
1020.343	20.19
1020.694	19.88
1021.045	19.89
1021.396	19.73
1021.747	19.79
1022.098	19.9
1022.449	19.88
1022.8	19.94
1023.151	19.75
1023.501	19.72
1023.852	20.16
1024.202	20.05
1024.553	20.33
1024.903	20.73
1025.253	20.58
1025.604	20.82
1025.954	20.67
1026.304	21.45
1026.654	21.77
1027.004	22.31
1027.354	22.31
1027.703	22.23
1028.053	22.12
1028.403	21.94
1028.753	21.92
1029.102	22.14
1029.452	22
1029.801	22.01
1030.15	21.5
1030.499	21.52
897.758	594.21
901.051	604.96
904.343	612.55
907.636	600.37
910.928	588.84
914.22	598.63
917.511	589.49
920.803	568.77
924.094	542.64
927.384	548.55
930.675	532.39
933.965	524.41
937.255	525.24
940.544	500.99
943.834	481.34
947.123	474.58
950.411	451.73
953.7	441.45
956.988	428.18
960.276	414.53
963.563	406.1
966.851	386.68
970.138	380.2
973.424	354.43
976.711	351.53
979.997	339.74
983.283	332.67
986.568	321.11
989.853	312.58
993.138	303.13
996.423	297.75
999.708	291.66
1002.992	291.9
1006.275	281.72
1009.559	280.05
1012.842	271.15
1016.125	263.31
1019.408	260.05
1022.69	258.59
1025.972	255.81
1029.254	249.75
1032.536	244.84
1035.817	235.69
1039.098	233.09
1042.379	230.75
1045.659	226.68
1048.939	225.67
1052.219	222.66
1055.498	218.37
1058.778	214.78
1062.057	211.92
1065.335	211.08
1068.614	208.89
1071.892	208.38
1075.17	202.5
1078.447	200.14
1081.724	199.65
1085.001	194.19
1088.278	193.69
1091.554	193.49
1094.83	191.53
1098.106	189.19
1101.382	187.83
1104.657	186.64
1107.932	185.12
1111.206	184.95
1114.481	183.45
1117.755	181.87
1121.029	182.64
1124.302	180.58
1127.575	177.17
1130.848	177.12
1134.121	175.59
1137.393	174.8
1140.665	173.65
1143.937	172.11
1147.208	170.64
1150.48	168.56
1153.75	168.33
1157.021	166.09
1160.291	165.53
1163.561	165.4
1166.831	164.56
1170.101	163.49
1173.37	162.91
1176.639	161.27
1179.907	161.5
1183.176	160.66
1186.444	161.14
1189.711	159.69
1192.979	160.98
1196.246	160.8
1199.513	160.38
1202.78	160.89
1206.046	160.9
1209.312	161.29
1212.578	163.01
1215.843	165.34
1219.108	166.14
1222.373	168.31
1225.638	170.97
1228.902	174.68
1232.166	179.39
1235.43	181.82
1238.693	184.47
1241.956	188.79
1245.219	193.67
1248.482	192.8
1251.744	192.23
1255.006	193.6
1258.268	188.56
1261.529	186.9
1264.79	182.2
1268.051	179.59
1271.312	178.58
1274.572	176.8
1277.832	172.45
1281.092	170.42
1284.351	168.41
1287.61	167.78
1290.869	167.57
1294.128	167.96
1297.386	166.69
1300.644	166.9
1303.902	165.36
1307.159	163.23
1310.416	163.64
1313.673	166.17
1316.93	166.47
1320.186	169.21
1323.442	171.05
1326.697	172
1329.953	174.58
1333.208	179.9
1336.463	186.01
1339.717	189.65
1342.972	198.62
1346.226	204.12
1349.479	205.24
1352.733	214.2
1355.986	217.06
1359.238	221.26
1362.491	224.61
1365.743	229.91
1368.995	231.05
1372.247	232.17
1375.498	231.19
1378.749	239.17
1382	237.6
1385.251	236.62
1388.501	234.31
1391.751	237.85
1395	235.25
1398.25	237.84
1401.499	237.24
1404.748	236.12
1407.996	229.63
1411.244	229.77
1414.492	224.66
1417.74	218.56
1420.987	213.21
1424.234	211.02
1427.481	202.95
1430.728	198.95
1433.974	191.06
1437.22	185.26
1440.465	180.31
1443.711	174.89
1446.956	170.41
1450.201	163.64
1453.445	157.39
1456.689	153.45
1459.933	148.93
1463.177	143.45
1466.42	141.17
1469.663	138.01
1472.906	134.56
1476.148	131.04
1479.391	128.32
1482.633	125.94
1485.874	125.34
1489.115	124.26
1492.356	122.14
1495.597	120.21
1498.838	120.67
1502.078	119.36
1505.318	118.92
1508.557	118.36
1511.797	117.19
1515.036	116.76
1518.274	117.46
1521.513	114.64
1524.751	114.37
1527.989	115.98
1531.227	115.75
1534.464	115.3
1537.701	114.45
1540.938	113.95
1544.174	114.17
1547.41	114.5
1550.646	114.63
1553.882	114.19
1557.117	114.79
1560.352	114.36
1563.587	113.6
1566.821	113.62
1570.055	112.45
1573.289	112.79
1576.523	112.85
1579.756	112.36
1582.989	112.46
1586.222	112.75
1589.454	112.02
1592.686	112.2
1595.918	112.18
1599.15	111.76
1602.381	111.79
1605.612	112.33
1608.843	111.93
1612.073	112.4
1615.303	112.71
1618.533	112.48
1621.762	112.25
1624.992	112.48
1628.221	112.54
1631.449	113.21
1634.678	112.6
1637.906	113.2
1641.134	113.45
1644.361	113.54
1647.588	113.97
1650.815	114.07
1654.042	113.74
1657.269	113.46
1660.495	114.3
1663.72	114.11
1666.946	113.86
1670.171	114.92
1673.396	114.74
1676.621	115.06
1679.845	115.28
1683.069	114.33
1686.293	114.04
1689.517	114.8
1692.74	115.25
1695.963	115.04
1699.185	115.86
1702.408	115.5
1705.63	115.47
1708.852	116.05
1712.073	115.61
1715.294	115.57
1718.515	116.33
1721.736	116.62
1724.956	116.76
1728.176	116.51
1731.396	116.62
1734.616	116.47
1737.835	116.98
1741.054	116.89
1744.272	116.38
1747.491	116.34
1750.709	117.35
1753.927	117.51
1757.144	117.73
1760.361	117.47
1763.578	118.78
1766.795	118.93
1770.011	119.22
1773.227	119.34
1776.443	120.16
1779.658	120.52
1782.874	120.98
1786.089	120.46
1789.303	120.59
1792.518	121.22
1795.732	122.32
1798.945	122.47
1802.159	122.85
1805.372	124.1
1808.585	125.48
1811.797	126.26
1815.01	127.25
1818.222	128.22
1821.434	129.51
1824.645	129.88
1827.856	131.91
1831.067	132.14
1834.278	132.85
1837.488	133.83
1840.698	135.02
1843.908	134.8
1847.117	136.37
1850.326	137.05
1853.535	137.87
1856.744	138.63
1859.952	140.23
1863.16	139.59
1866.368	138.39
1869.575	139.98
1872.782	137.67
1875.989	136.15
1879.196	135.98
1882.402	133.3
1885.608	133.29
1888.814	132.03
1892.019	132.45
1895.224	129.99
1898.429	128.68
1901.634	129.45
1904.838	128.68
1908.042	130.38
1911.246	128.6
1914.449	128.14
1917.652	128.09
1920.855	127.94
1924.058	127.03
1927.26	125.47
1930.462	125.87
1933.664	127.33
1936.865	127.32
1940.066	124.61
1943.267	123.32
1946.467	125.35
1949.668	125.4
1952.868	126.46
1956.067	126.51
1959.267	127.03
1962.466	127.86
1965.665	129.89
1968.863	128.48
1972.061	130.52
1975.259	133.13
1978.457	136.5
1981.654	136.26
1984.852	137.98
1988.048	139.39
1991.245	141.36
1994.441	144.63
1997.637	147.49
2000.833	150.01
2004.028	153.68
2007.223	157.62
2010.418	161.14
2013.613	165.26
2016.807	170.98
2020.001	173.34
2023.194	176.84
2026.388	182.81
2029.581	191.74
2032.774	198.07
2035.966	202.74
2039.158	208.21
2042.35	209.78
2045.542	213.81
2048.733	223.66
2051.924	225.56
2055.115	230.46
2058.306	235.22
2061.496	239.37
2064.686	239.28
2067.875	236.19
2071.065	239.87
2074.254	240.26
2077.442	246.71
2080.631	249.78
2083.819	249.7
2087.007	255.34
2090.195	258.01
2093.382	257.2
2096.569	258.09
2099.756	261.22
2102.942	267.57
2106.128	273.07
2109.314	275.61
2112.5	276.39
2115.685	275.1
2118.87	275.41
2122.055	276.68
2125.239	281.88
2128.424	288.83
2131.608	286.63
2134.791	287.99
2137.974	287.4
2141.157	290.88
2144.34	292.89
2147.523	297.37
2150.705	303.49
2153.887	301.34
2157.068	303.81
2160.25	307.47
2163.431	307.05
2166.611	311.3
2169.792	316.68
2172.972	320.76
2176.152	319.18
2179.331	327.56
2182.511	328.99
2185.69	332.78
2188.868	344.89
2192.047	354.82
2195.225	358.63
2198.403	363.53
2201.58	360.25
2204.758	373.08
2207.935	375.99
2211.111	385.6
2214.288	385.18
2217.464	389.1
2220.64	390.92
2223.815	394.8
2226.991	386.07
2230.166	389.29
2233.34	401.76
2236.515	410.68
2239.689	403.7
2242.863	411.85
2246.036	408.74
2249.209	416.46
2252.382	413.41
2255.555	431.28
2258.727	429.85
2261.9	445.73
2265.071	452.21
2268.243	445.78
2271.414	461.71
2274.585	472.78
2277.756	471.89
2280.926	488.55
2284.096	487.9
2287.266	494.43
2290.436	480.52
2293.605	494.41
2296.774	510.07
2299.942	512.25
2303.111	525.38
2306.279	533.26
2309.447	536.75
2312.614	537.51
2315.781	549.03
2318.948	557.86
2322.115	566.66
2325.281	602.46
2328.447	590.91
2331.613	597.34
2334.779	601.76
2337.944	615.58
2341.109	627.85
2344.274	632.8
2347.438	647.2
2350.602	652.79
2353.766	695.53
2356.929	699.92
2360.092	703.27
2363.255	713.44
2366.418	717.36
2369.58	735.47
2372.742	734.23
2375.904	728.45
2379.066	747.43
2382.227	795.1
2385.388	800.29
2388.548	755.21
2391.709	749.17
2394.869	769.93
2398.029	764.49
2401.188	766.71
2404.347	790.73
2407.506	813.52
2410.665	785.94
2413.823	788.06
2416.981	787.88
2420.139	744.78
2423.296	808.15
2426.453	858.57
2429.61	817.76
2432.767	878.42
2435.923	904.13
2439.079	868.29
2442.235	889.59
2445.391	908.21
2448.546	895.07
2451.701	946.58
2454.855	1012.86
2458.009	897.7
2461.163	910.82
2464.317	922.94
2467.471	908.04
2470.624	943.68
2473.777	927.57
2476.929	899.45
2480.082	961.02
2483.234	1012.11
2486.385	1031.02
2489.537	1057.66
2492.688	1165.19
2495.839	1139.38
2498.989	1172.28
2502.14	1173.69
2505.29	1120.01
2508.439	1243
2511.589	1272.87
2514.738	1237.66
2517.887	1218.78
2521.035	1143.9
2524.183	1128.56
2527.331	1116.5
2530.479	1097.7
2533.627	1125.55
