Data from N_3_hir_wi_4n_Splice17_09.txt Node
Date: Sat Feb 29 14:54:16 EST 2020
User: sa697716
Spectrometer: FLMS03696
Trigger mode: 0
Integration Time (sec): 3.180400E-1
Scans to average: 20
Electric dark correction enabled: true
Nonlinearity correction enabled: true
Boxcar width: 5
XAxis mode: Wavelengths
Number of Pixels in Spectrum: 2048
>>>>>Begin Spectral Data<<<<<
187.83	129.21
188.298	151.55
188.766	128.41
189.233	129.14
189.701	139.5
190.169	136.63
190.636	143.29
191.104	122.57
191.571	320.79
192.039	324.64
192.506	-395.82
192.974	-4956.06
193.441	535.23
193.908	-0.61
194.375	34.15
194.842	239.17
195.31	143.67
195.777	116.66
196.244	32.66
196.711	41.37
197.177	42.42
197.644	43.17
198.111	44.06
198.578	44.87
199.045	45.07
199.511	44.83
199.978	44.79
200.445	44.48
200.911	44.88
201.378	45.15
201.844	45.64
202.31	45.99
202.777	46.61
203.243	46.78
203.709	47.02
204.176	46.26
204.642	46.24
205.108	45.96
205.574	46.68
206.04	46.56
206.506	46.15
206.972	45.63
207.438	44.93
207.903	44.31
208.369	43.41
208.835	42.83
209.301	42.93
209.766	41.84
210.232	41.08
210.697	40.35
211.163	39.75
211.628	39.1
212.094	38.78
212.559	38.23
213.024	37.53
213.49	36.87
213.955	35.96
214.42	35.13
214.885	34.38
215.35	33.12
215.815	31.34
216.28	29.4
216.745	27.55
217.21	25.53
217.675	23.8
218.14	21.96
218.604	20.41
219.069	19.07
219.534	17.79
219.998	16.8
220.463	16.04
220.927	15.36
221.392	14.77
221.856	14.24
222.32	13.76
222.785	13.32
223.249	12.98
223.713	12.67
224.177	12.36
224.642	12.13
225.106	11.86
225.57	11.6
226.034	11.39
226.497	11.19
226.961	10.97
227.425	10.75
227.889	10.56
228.353	10.35
228.816	10.16
229.28	9.96
229.744	9.8
230.207	9.66
230.671	9.52
231.134	9.36
231.597	9.19
232.061	9.05
232.524	8.94
232.987	8.8
233.45	8.68
233.914	8.59
234.377	8.51
234.84	8.41
235.303	8.3
235.766	8.21
236.229	8.11
236.691	8.03
237.154	7.96
237.617	7.88
238.08	7.81
238.542	7.74
239.005	7.65
239.468	7.56
239.93	7.48
240.393	7.43
240.855	7.33
241.317	7.28
241.78	7.22
242.242	7.15
242.704	7.09
243.166	7.02
243.629	6.95
244.091	6.9
244.553	6.85
245.015	6.8
245.477	6.73
245.939	6.66
246.4	6.6
246.862	6.54
247.324	6.49
247.786	6.44
248.247	6.39
248.709	6.34
249.17	6.28
249.632	6.22
250.093	6.16
250.555	6.11
251.016	6.09
251.477	6.04
251.939	5.99
252.4	5.95
252.861	5.91
253.322	5.88
253.783	5.85
254.244	5.81
254.705	5.78
255.166	5.75
255.627	5.71
256.088	5.67
256.549	5.63
257.009	5.6
257.47	5.56
257.931	5.53
258.391	5.48
258.852	5.43
259.312	5.4
259.773	5.36
260.233	5.31
260.694	5.28
261.154	5.24
261.614	5.2
262.074	5.16
262.534	5.11
262.994	5.07
263.455	5.04
263.915	5.01
264.374	4.98
264.834	4.94
265.294	4.91
265.754	4.87
266.214	4.84
266.673	4.82
267.133	4.8
267.593	4.78
268.052	4.75
268.512	4.73
268.971	4.7
269.431	4.69
269.89	4.66
270.349	4.64
270.809	4.63
271.268	4.61
271.727	4.6
272.186	4.57
272.645	4.55
273.104	4.53
273.563	4.52
274.022	4.5
274.481	4.48
274.94	4.47
275.399	4.45
275.857	4.44
276.316	4.42
276.775	4.4
277.233	4.39
277.692	4.38
278.15	4.36
278.609	4.34
279.067	4.32
279.525	4.31
279.984	4.29
280.442	4.28
280.9	4.27
281.358	4.26
281.816	4.25
282.274	4.24
282.732	4.23
283.19	4.23
283.648	4.22
284.106	4.22
284.564	4.22
285.021	4.22
285.479	4.22
285.937	4.21
286.394	4.2
286.852	4.2
287.309	4.18
287.767	4.17
288.224	4.16
288.682	4.16
289.139	4.14
289.596	4.13
290.053	4.11
290.511	4.08
290.968	4.07
291.425	4.05
291.882	4.03
292.339	4.01
292.796	3.99
293.252	3.97
293.709	3.95
294.166	3.93
294.623	3.92
295.079	3.9
295.536	3.89
295.992	3.88
296.449	3.88
296.905	3.86
297.362	3.85
297.818	3.84
298.274	3.83
298.731	3.82
299.187	3.8
299.643	3.79
300.099	3.78
300.555	3.77
301.011	3.75
301.467	3.74
301.923	3.74
302.379	3.73
302.835	3.72
303.291	3.71
303.746	3.7
304.202	3.69
304.658	3.69
305.113	3.68
305.569	3.68
306.024	3.68
306.479	3.67
306.935	3.66
307.39	3.66
307.845	3.67
308.301	3.67
308.756	3.67
309.211	3.67
309.666	3.67
310.121	3.67
310.576	3.66
311.031	3.66
311.486	3.67
311.94	3.67
312.395	3.67
312.85	3.67
313.305	3.68
313.759	3.68
314.214	3.67
314.668	3.67
315.123	3.67
315.577	3.68
316.032	3.68
316.486	3.67
316.94	3.66
317.394	3.65
317.849	3.64
318.303	3.63
318.757	3.62
319.211	3.61
319.665	3.61
320.119	3.6
320.572	3.59
321.026	3.58
321.48	3.57
321.934	3.57
322.387	3.56
322.841	3.55
323.295	3.54
323.748	3.53
324.202	3.52
324.655	3.51
325.108	3.49
325.562	3.48
326.015	3.47
326.468	3.46
326.921	3.44
327.374	3.43
327.827	3.43
328.28	3.42
328.733	3.42
329.186	3.42
329.639	3.4
330.092	3.4
330.545	3.4
330.997	3.4
331.45	3.41
331.903	3.41
332.355	3.41
332.808	3.42
333.26	3.41
333.713	3.42
334.165	3.43
334.617	3.44
335.069	3.45
335.522	3.46
335.974	3.46
336.426	3.46
336.878	3.46
337.33	3.46
337.782	3.45
338.234	3.46
338.686	3.45
339.137	3.45
339.589	3.45
340.041	3.45
340.493	3.43
340.944	3.44
341.396	3.43
341.847	3.42
342.299	3.41
342.75	3.4
343.201	3.39
343.653	3.37
344.104	3.36
344.555	3.35
345.006	3.34
345.457	3.33
345.908	3.31
346.359	3.31
346.81	3.31
347.261	3.29
347.712	3.29
348.163	3.29
348.613	3.28
349.064	3.28
349.515	3.27
349.965	3.27
350.416	3.27
350.866	3.27
351.317	3.27
351.767	3.26
352.217	3.26
352.668	3.27
353.118	3.27
353.568	3.28
354.018	3.29
354.468	3.3
354.918	3.31
355.368	3.32
355.818	3.32
356.268	3.34
356.718	3.35
357.168	3.35
357.617	3.36
358.067	3.37
358.517	3.38
358.966	3.39
359.416	3.4
359.865	3.41
360.315	3.41
360.764	3.43
361.213	3.44
361.663	3.46
362.112	3.48
362.561	3.48
363.01	3.5
363.459	3.52
363.908	3.53
364.357	3.54
364.806	3.55
365.255	3.57
365.703	3.58
366.152	3.6
366.601	3.61
367.05	3.64
367.498	3.66
367.947	3.68
368.395	3.72
368.844	3.75
369.292	3.77
369.74	3.8
370.189	3.83
370.637	3.88
371.085	3.91
371.533	3.93
371.981	3.96
372.429	3.99
372.877	4.01
373.325	4.05
373.773	4.08
374.221	4.12
374.669	4.16
375.116	4.19
375.564	4.21
376.012	4.24
376.459	4.28
376.907	4.32
377.354	4.36
377.801	4.4
378.249	4.44
378.696	4.49
379.143	4.53
379.591	4.57
380.038	4.6
380.485	4.65
380.932	4.69
381.379	4.73
381.826	4.77
382.273	4.8
382.72	4.85
383.166	4.88
383.613	4.91
384.06	4.95
384.506	4.98
384.953	5.02
385.4	5.05
385.846	5.08
386.292	5.12
386.739	5.14
387.185	5.18
387.631	5.2
388.078	5.23
388.524	5.25
388.97	5.26
389.416	5.28
389.862	5.31
390.308	5.34
390.754	5.37
391.2	5.39
391.645	5.42
392.091	5.43
392.537	5.45
392.983	5.48
393.428	5.5
393.874	5.54
394.319	5.55
394.765	5.55
395.21	5.55
395.655	5.56
396.101	5.58
396.546	5.58
396.991	5.59
397.436	5.6
397.881	5.61
398.326	5.63
398.771	5.64
399.216	5.66
399.661	5.7
400.106	5.73
400.551	5.72
400.995	5.71
401.44	5.7
401.885	5.7
402.329	5.69
402.774	5.68
403.218	5.68
403.663	5.67
404.107	5.67
404.551	5.66
404.995	5.65
405.44	5.66
405.884	5.65
406.328	5.66
406.772	5.66
407.216	5.67
407.66	5.67
408.104	5.67
408.547	5.66
408.991	5.63
409.435	5.61
409.879	5.61
410.322	5.6
410.766	5.61
411.209	5.61
411.653	5.6
412.096	5.58
412.54	5.57
412.983	5.57
413.426	5.59
413.869	5.62
414.312	5.64
414.756	5.65
415.199	5.67
415.642	5.69
416.085	5.71
416.527	5.74
416.97	5.76
417.413	5.77
417.856	5.78
418.298	5.76
418.741	5.75
419.184	5.75
419.626	5.75
420.069	5.74
420.511	5.72
420.953	5.71
421.396	5.7
421.838	5.7
422.28	5.72
422.722	5.71
423.164	5.71
423.606	5.73
424.048	5.73
424.49	5.74
424.932	5.76
425.374	5.77
425.816	5.75
426.258	5.74
426.699	5.72
427.141	5.69
427.582	5.69
428.024	5.69
428.465	5.68
428.907	5.69
429.348	5.67
429.789	5.67
430.231	5.65
430.672	5.66
431.113	5.68
431.554	5.71
431.995	5.73
432.436	5.72
432.877	5.7
433.318	5.7
433.759	5.7
434.2	5.71
434.64	5.72
435.081	5.73
435.522	5.76
435.962	5.77
436.403	5.79
436.843	5.8
437.284	5.83
437.724	5.86
438.164	5.88
438.604	5.91
439.045	5.92
439.485	5.92
439.925	5.92
440.365	5.91
440.805	5.9
441.245	5.88
441.685	5.9
442.125	5.91
442.564	5.91
443.004	5.91
443.444	5.91
443.883	5.92
444.323	5.93
444.762	5.97
445.202	6.03
445.641	6.07
446.081	6.12
446.52	6.12
446.959	6.14
447.398	6.18
447.837	6.24
448.276	6.26
448.716	6.29
449.154	6.33
449.593	6.33
450.032	6.33
450.471	6.32
450.91	6.31
451.349	6.34
451.787	6.36
452.226	6.34
452.664	6.32
453.103	6.31
453.541	6.3
453.98	6.28
454.418	6.26
454.856	6.23
455.295	6.22
455.733	6.22
456.171	6.2
456.609	6.19
457.047	6.19
457.485	6.16
457.923	6.15
458.361	6.15
458.798	6.16
459.236	6.16
459.674	6.17
460.111	6.19
460.549	6.17
460.987	6.18
461.424	6.17
461.862	6.16
462.299	6.16
462.736	6.17
463.173	6.17
463.611	6.15
464.048	6.15
464.485	6.14
464.922	6.12
465.359	6.13
465.796	6.09
466.233	6.08
466.67	6.11
467.106	6.11
467.543	6.11
467.98	6.13
468.416	6.13
468.853	6.13
469.29	6.15
469.726	6.16
470.162	6.16
470.599	6.2
471.035	6.21
471.471	6.18
471.907	6.19
472.344	6.18
472.78	6.18
473.216	6.19
473.652	6.2
474.088	6.19
474.523	6.2
474.959	6.19
475.395	6.2
475.831	6.21
476.266	6.21
476.702	6.21
477.138	6.2
477.573	6.2
478.008	6.19
478.444	6.19
478.879	6.19
479.314	6.17
479.75	6.18
480.185	6.16
480.62	6.15
481.055	6.15
481.49	6.14
481.925	6.13
482.36	6.12
482.795	6.12
483.229	6.11
483.664	6.1
484.099	6.1
484.534	6.08
484.968	6.09
485.403	6.08
485.837	6.09
486.271	6.09
486.706	6.09
487.14	6.11
487.574	6.12
488.009	6.14
488.443	6.16
488.877	6.17
489.311	6.18
489.745	6.21
490.179	6.23
490.613	6.25
491.046	6.29
491.48	6.32
491.914	6.35
492.348	6.39
492.781	6.42
493.215	6.46
493.648	6.52
494.082	6.58
494.515	6.61
494.948	6.67
495.382	6.72
495.815	6.77
496.248	6.83
496.681	6.89
497.114	6.95
497.547	7.01
497.98	7.08
498.413	7.14
498.846	7.22
499.279	7.3
499.711	7.39
500.144	7.47
500.577	7.56
501.009	7.65
501.442	7.76
501.874	7.85
502.306	7.95
502.739	8.05
503.171	8.16
503.603	8.29
504.036	8.41
504.468	8.55
504.9	8.7
505.332	8.85
505.764	8.99
506.196	9.15
506.627	9.32
507.059	9.49
507.491	9.68
507.923	9.85
508.354	10.03
508.786	10.22
509.217	10.38
509.649	10.56
510.08	10.76
510.512	10.96
510.943	11.16
511.374	11.37
511.805	11.56
512.237	11.77
512.668	11.99
513.099	12.22
513.53	12.44
513.961	12.71
514.391	12.94
514.822	13.17
515.253	13.42
515.684	13.66
516.114	13.91
516.545	14.17
516.975	14.4
517.406	14.66
517.836	14.89
518.267	15.14
518.697	15.37
519.127	15.6
519.558	15.83
519.988	16.07
520.418	16.28
520.848	16.5
521.278	16.73
521.708	16.78
522.138	16.97
522.567	17.17
522.997	17.36
523.427	17.56
523.857	17.75
524.286	17.94
524.716	18.1
525.145	18.3
525.575	18.47
526.004	18.63
526.433	18.97
526.863	19.15
527.292	19.32
527.721	19.47
528.15	19.59
528.579	19.72
529.008	19.86
529.437	19.98
529.866	20.08
530.295	20.21
530.724	20.34
531.152	20.44
531.581	20.53
532.01	20.62
532.438	20.71
532.867	20.81
533.295	20.89
533.723	20.97
534.152	21.05
534.58	21.1
535.008	21.13
535.436	21.17
535.865	21.22
536.293	21.25
536.721	21.29
537.149	21.32
537.576	21.35
538.004	21.4
538.432	21.43
538.86	21.45
539.287	21.5
539.715	21.54
540.143	21.56
540.57	21.59
540.998	21.64
541.425	21.67
541.852	21.7
542.28	21.72
542.707	21.76
543.134	21.76
543.561	21.79
543.988	21.81
544.415	21.82
544.842	21.85
545.269	21.86
545.696	21.89
546.123	21.91
546.549	21.93
546.976	21.96
547.403	21.97
547.829	22.01
548.256	22.04
548.682	22.07
549.108	22.1
549.535	22.1
549.961	22.13
550.387	22.13
550.813	22.13
551.24	22.12
551.666	22.14
552.092	22.14
552.518	22.13
552.943	22.13
553.369	22.11
553.795	22.12
554.221	22.1
554.646	22.08
555.072	22.07
555.498	22.06
555.923	22.04
556.349	22
556.774	21.97
557.199	21.94
557.625	21.89
558.05	21.83
558.475	21.77
558.9	21.72
559.325	21.67
559.75	21.59
560.175	21.52
560.6	21.46
561.025	21.39
561.449	21.31
561.874	21.22
562.299	21.14
562.723	21.05
563.148	20.95
563.572	20.86
563.997	20.76
564.421	20.65
564.846	20.53
565.27	20.39
565.694	20.28
566.118	20.16
566.542	20.03
566.966	19.89
567.39	19.77
567.814	19.65
568.238	19.51
568.662	19.37
569.086	19.22
569.509	19.11
569.933	18.97
570.357	18.83
570.78	18.7
571.204	18.58
571.627	18.47
572.05	18.35
572.474	18.24
572.897	18.13
573.32	18.02
573.743	17.93
574.166	17.82
574.589	17.73
575.012	17.64
575.435	17.54
575.858	17.45
576.281	17.36
576.704	17.27
577.126	17.18
577.549	17.11
577.972	17.03
578.394	16.94
578.817	16.86
579.239	16.79
579.661	16.73
580.084	16.66
580.506	16.6
580.928	16.54
581.35	16.47
581.772	16.42
582.194	16.34
582.616	16.28
583.038	16.25
583.46	16.2
583.882	16.15
584.303	16.09
584.725	16.05
585.147	15.98
585.568	15.9
585.99	15.85
586.411	15.79
586.833	15.76
587.254	15.71
587.675	15.66
588.096	15.62
588.518	15.56
588.939	15.53
589.36	15.47
589.781	15.45
590.202	15.41
590.623	15.38
591.043	15.34
591.464	15.3
591.885	15.27
592.305	15.24
592.726	15.21
593.147	15.19
593.567	15.15
593.987	15.14
594.408	15.11
594.828	15.1
595.248	15.08
595.669	15.06
596.089	15.03
596.509	15.01
596.929	14.97
597.349	14.93
597.769	14.91
598.189	14.88
598.608	14.84
599.028	14.79
599.448	14.75
599.867	14.7
600.287	14.67
600.706	14.63
601.126	14.58
601.545	14.54
601.965	14.51
602.384	14.47
602.803	14.41
603.222	14.36
603.641	14.33
604.061	14.28
604.48	14.23
604.898	14.18
605.317	14.12
605.736	14.06
606.155	13.99
606.574	13.93
606.992	13.86
607.411	13.8
607.829	13.7
608.248	13.64
608.666	13.57
609.085	13.5
609.503	13.42
609.921	13.36
610.339	13.3
610.758	13.23
611.176	13.16
611.594	13.09
612.012	13.02
612.43	13
612.847	12.94
613.265	12.88
613.683	12.82
614.101	12.75
614.518	12.69
614.936	12.64
615.353	12.59
615.771	12.55
616.188	12.51
616.606	12.45
617.023	12.4
617.44	12.34
617.857	12.3
618.274	12.26
618.691	12.24
619.108	12.21
619.525	12.15
619.942	12.11
620.359	12.08
620.776	12.04
621.192	12.02
621.609	11.99
622.026	11.96
622.442	11.93
622.859	11.9
623.275	11.88
623.691	11.87
624.108	11.86
624.524	11.85
624.94	11.82
625.356	11.81
625.772	11.8
626.188	11.79
626.604	11.78
627.02	11.78
627.436	11.78
627.852	11.75
628.268	11.73
628.683	11.72
629.099	11.7
629.514	11.68
629.93	11.65
630.345	11.62
630.761	11.59
631.176	11.56
631.591	11.52
632.007	11.47
632.422	11.45
632.837	11.42
633.252	11.37
633.667	11.31
634.082	11.27
634.497	11.2
634.911	11.13
635.326	11.06
635.741	10.99
636.155	10.91
636.57	10.83
636.984	10.72
637.399	10.61
637.813	10.51
638.228	10.42
638.642	10.33
639.056	10.24
639.47	10.15
639.884	10.04
640.298	9.93
640.712	9.82
641.126	9.72
641.54	9.62
641.954	9.54
642.368	9.45
642.781	9.35
643.195	9.24
643.609	9.13
644.022	9.04
644.436	8.95
644.849	8.86
645.262	8.8
645.676	8.7
646.089	8.63
646.502	8.54
646.915	8.47
647.328	8.41
647.741	8.35
648.154	8.3
648.567	8.25
648.98	8.23
649.393	8.2
649.805	8.15
650.218	8.11
650.631	8.08
651.043	8.04
651.456	8.01
651.868	7.96
652.28	7.93
652.693	7.89
653.105	7.85
653.517	7.8
653.929	7.75
654.341	7.71
654.753	7.66
655.165	7.61
655.577	7.55
655.989	7.48
656.401	7.42
656.813	7.35
657.224	7.29
657.636	7.23
658.047	7.15
658.459	7.06
658.87	6.99
659.282	6.91
659.693	6.84
660.104	6.77
660.515	6.71
660.926	6.64
661.338	6.58
661.749	6.51
662.159	6.42
662.57	6.36
662.981	6.29
663.392	6.23
663.803	6.16
664.213	6.11
664.624	6.07
665.035	6
665.445	5.97
665.855	5.93
666.266	5.9
666.676	5.87
667.086	5.84
667.497	5.82
667.907	5.79
668.317	5.77
668.727	5.75
669.137	5.73
669.547	5.73
669.956	5.71
670.366	5.71
670.776	5.69
671.186	5.69
671.595	5.7
672.005	5.7
672.414	5.7
672.824	5.73
673.233	5.75
673.642	5.75
674.052	5.75
674.461	5.77
674.87	5.78
675.279	5.81
675.688	5.83
676.097	5.85
676.506	5.87
676.915	5.91
677.323	5.93
677.732	5.97
678.141	6.02
678.549	6.07
678.958	6.12
679.366	6.16
679.775	6.21
680.183	6.29
680.592	6.37
681	6.44
681.408	6.52
681.816	6.61
682.224	6.71
682.632	6.84
683.04	6.98
683.448	7.12
683.856	7.27
684.264	7.46
684.671	7.65
685.079	7.86
685.487	8.11
685.894	8.36
686.302	8.64
686.709	8.93
687.116	9.23
687.524	9.55
687.931	9.91
688.338	10.28
688.745	10.65
689.152	11.06
689.559	11.46
689.966	11.87
690.373	12.34
690.78	12.79
691.187	13.25
691.593	13.72
692	14.2
692.407	14.68
692.813	15.18
693.22	15.68
693.626	16.19
694.032	16.7
694.439	17.22
694.845	17.7
695.251	18.2
695.657	18.69
696.063	19.21
696.469	19.71
696.875	20.2
697.281	20.65
697.687	21.13
698.093	21.59
698.498	22.05
698.904	22.49
699.31	22.93
699.715	23.34
700.12	23.76
700.526	24.17
700.931	24.56
701.337	24.96
701.742	25.35
702.147	25.73
702.552	26.12
702.957	26.47
703.362	26.84
703.767	27.16
704.172	27.55
704.577	27.9
704.981	28.25
705.386	28.59
705.791	28.92
706.195	29.24
706.6	29.55
707.004	29.84
707.408	30.15
707.813	30.42
708.217	30.72
708.621	30.99
709.025	31.24
709.43	31.48
709.834	31.74
710.237	31.96
710.641	32.22
711.045	32.44
711.449	32.66
711.853	32.89
712.256	33.15
712.66	33.4
713.064	33.61
713.467	33.83
713.87	34.04
714.274	34.25
714.677	34.47
715.08	34.66
715.484	34.88
715.887	35.07
716.29	35.29
716.693	35.45
717.096	35.61
717.499	35.79
717.901	35.95
718.304	36.13
718.707	36.29
719.109	36.46
719.512	36.67
719.915	36.82
720.317	36.99
720.719	37.11
721.122	37.28
721.524	37.42
721.926	37.56
722.328	37.73
722.731	37.86
723.133	38
723.535	38.12
723.937	38.21
724.338	38.3
724.74	38.37
725.142	38.42
725.544	38.5
725.945	38.59
726.347	38.7
726.748	38.74
727.15	38.81
727.551	38.9
727.952	38.97
728.354	39.06
728.755	39.16
729.156	39.27
729.557	39.39
729.958	39.49
730.359	39.57
730.76	39.62
731.161	39.71
731.562	39.77
731.962	39.83
732.363	39.88
732.763	39.96
733.164	40
733.564	40.03
733.965	40.08
734.365	40.1
734.766	40.14
735.166	40.17
735.566	40.2
735.966	40.22
736.366	40.22
736.766	40.25
737.166	40.26
737.566	40.28
737.966	40.31
738.365	40.34
738.765	40.36
739.165	40.39
739.564	40.42
739.964	40.44
740.363	40.51
740.763	40.57
741.162	40.58
741.561	40.59
741.96	40.64
742.36	40.65
742.759	40.66
743.158	40.7
743.557	40.73
743.955	40.78
744.354	40.79
744.753	40.8
745.152	40.82
745.55	40.85
745.949	40.89
746.348	40.92
746.746	40.96
747.144	41
747.543	41.03
747.941	41.07
748.339	41.11
748.737	41.15
749.136	41.17
749.534	41.19
749.932	41.2
750.33	41.21
750.727	41.2
751.125	41.19
751.523	41.17
751.921	41.15
752.318	41.1
752.716	41.05
753.113	41.04
753.511	41.01
753.908	41
754.305	40.97
754.703	40.94
755.1	40.92
755.497	40.91
755.894	40.91
756.291	40.9
756.688	40.91
757.085	40.92
757.482	40.9
757.878	40.9
758.275	40.88
758.672	40.91
759.068	40.93
759.465	40.92
759.861	40.9
760.258	40.86
760.654	40.84
761.05	40.84
761.447	40.85
761.843	40.83
762.239	40.79
762.635	40.77
763.031	40.78
763.427	40.76
763.822	40.74
764.218	40.76
764.614	40.79
765.01	40.79
765.405	40.77
765.801	40.75
766.196	40.76
766.592	40.79
766.987	40.81
767.382	40.78
767.778	40.77
768.173	40.79
768.568	40.75
768.963	40.73
769.358	40.74
769.753	40.76
770.148	40.79
770.542	40.77
770.937	40.77
771.332	40.76
771.726	40.75
772.121	40.76
772.515	40.76
772.91	40.76
773.304	40.79
773.699	40.8
774.093	40.77
774.487	40.75
774.881	40.77
775.275	40.78
775.669	40.8
776.063	40.8
776.457	40.8
776.851	40.78
777.245	40.79
777.638	40.78
778.032	40.75
778.425	40.74
778.819	40.75
779.212	40.73
779.606	40.72
779.999	40.72
780.392	40.72
780.786	40.71
781.179	40.73
781.572	40.74
781.965	40.75
782.358	40.76
782.751	40.76
783.143	40.76
783.536	40.78
783.929	40.79
784.322	40.82
784.714	40.83
785.107	40.84
785.499	40.84
785.891	40.87
786.284	40.84
786.676	40.88
787.068	40.9
787.46	40.9
787.852	40.91
788.245	40.92
788.636	40.91
789.028	40.92
789.42	40.91
789.812	40.94
790.204	40.9
790.595	40.92
790.987	40.9
791.378	40.9
791.77	40.93
792.161	40.93
792.553	40.94
792.944	40.95
793.335	40.97
793.726	40.96
794.117	40.95
794.508	40.98
794.899	40.97
795.29	40.97
795.681	40.99
796.072	40.96
796.463	40.9
796.853	40.88
797.244	40.85
797.634	40.83
798.025	40.86
798.415	40.85
798.806	40.89
799.196	40.91
799.586	40.91
799.976	40.91
800.366	40.94
800.756	41
801.146	41.02
801.536	41.03
801.926	41.05
802.316	41.04
802.706	41.06
803.095	41.06
803.485	41.1
803.874	41.13
804.264	41.18
804.653	41.15
805.043	41.16
805.432	41.16
805.821	41.16
806.21	41.2
806.599	41.25
806.988	41.23
807.377	41.22
807.766	41.17
808.155	41.17
808.544	41.13
808.933	41.17
809.321	41.18
809.71	41.23
810.098	41.21
810.487	41.19
810.875	41.15
811.264	41.18
811.652	41.18
812.04	41.24
812.428	41.25
812.816	41.27
813.204	41.27
813.592	41.28
813.98	41.27
814.368	41.29
814.756	41.29
815.144	41.33
815.531	41.33
815.919	41.34
816.306	41.34
816.694	41.37
817.081	41.35
817.469	41.35
817.856	41.38
818.243	41.39
818.63	41.44
819.017	41.45
819.404	41.43
819.791	41.44
820.178	41.45
820.565	41.43
820.952	41.4
821.339	41.42
821.725	41.46
822.112	41.44
822.498	41.42
822.885	41.4
823.271	41.42
823.657	41.44
824.044	41.44
824.43	41.48
824.816	41.45
825.202	41.46
825.588	41.48
825.974	41.45
826.36	41.43
826.746	41.46
827.132	41.44
827.517	41.42
827.903	41.37
828.289	41.35
828.674	41.32
829.06	41.35
829.445	41.36
829.83	41.33
830.216	41.33
830.601	41.31
830.986	41.29
831.371	41.3
831.756	41.28
832.141	41.3
832.526	41.29
832.911	41.29
833.295	41.27
833.68	41.25
834.065	41.26
834.449	41.21
834.834	41.2
835.218	41.19
835.603	41.14
835.987	41.12
836.371	41.11
836.755	41.1
837.139	41.07
837.524	41.05
837.908	41.05
838.291	41.03
838.675	41.04
839.059	41.04
839.443	41.03
839.827	41.03
840.21	41.07
840.594	41.05
840.977	41.03
841.361	41.03
841.744	41.07
842.127	41.07
842.511	41.04
842.894	41.03
843.277	41.03
843.66	41.04
844.043	41.04
844.426	41
844.809	41.01
845.191	41.01
845.574	40.99
845.957	40.94
846.339	40.95
846.722	40.97
847.104	40.97
847.487	40.97
847.869	40.97
848.252	40.98
848.634	41.01
849.016	41.02
849.398	41.05
849.78	41.07
850.162	41.07
850.544	41.06
850.926	41.03
851.307	41.04
851.689	41.01
852.071	41.01
852.452	40.99
852.834	40.99
853.215	40.98
853.597	40.95
853.978	40.93
854.359	40.91
854.741	40.92
855.122	40.93
855.503	40.92
855.884	40.95
856.265	40.94
856.646	40.93
857.026	40.93
857.407	40.91
857.788	40.91
858.169	40.91
858.549	40.95
858.93	40.95
859.31	40.93
859.69	40.95
860.071	40.94
860.451	40.95
860.831	40.96
861.211	40.92
861.591	40.92
861.971	40.95
862.351	40.97
862.731	40.94
863.111	40.95
863.491	40.97
863.87	40.94
864.25	40.96
864.629	40.96
865.009	40.96
865.388	40.98
865.768	40.96
866.147	40.93
866.526	40.89
866.905	40.91
867.284	40.91
867.663	40.9
868.042	40.88
868.421	40.88
868.8	40.9
869.179	40.91
869.558	40.92
869.936	40.94
870.315	40.94
870.693	40.97
871.072	40.94
871.45	40.91
871.828	40.93
872.207	40.97
872.585	40.94
872.963	40.89
873.341	40.89
873.719	40.89
874.097	40.88
874.475	40.9
874.853	40.89
875.23	40.93
875.608	40.95
875.986	40.92
876.363	40.92
876.741	40.92
877.118	40.9
877.495	40.89
877.873	40.88
878.25	40.88
878.627	40.87
879.004	40.88
879.381	40.88
879.758	40.86
880.135	40.88
880.512	40.87
880.889	40.9
881.265	40.94
881.642	40.97
882.019	40.99
882.395	40.99
882.772	40.99
883.148	41
883.524	41.01
883.901	41.03
884.277	41.01
884.653	41.03
885.029	41.01
885.405	41.01
885.781	40.99
886.157	40.97
886.532	40.97
886.908	40.98
887.284	40.96
887.659	40.97
888.035	40.99
888.411	40.99
888.786	40.96
889.161	40.94
889.537	40.94
889.912	40.91
890.287	40.92
890.662	40.91
891.037	40.86
891.412	40.81
891.787	40.77
892.162	40.72
892.536	40.69
892.911	40.67
893.286	40.63
893.66	40.6
894.035	40.6
894.409	40.57
894.784	40.55
895.158	40.53
895.532	40.51
895.906	40.47
896.281	40.45
896.655	40.44
897.029	40.42
897.402	40.42
897.776	40.41
898.15	40.39
898.524	40.38
898.898	40.36
899.271	40.39
899.645	40.41
900.018	40.42
900.392	40.43
900.765	40.43
901.138	40.46
901.511	40.47
901.884	40.47
902.258	40.49
902.631	40.49
903.003	40.51
903.376	40.51
903.749	40.52
904.122	40.56
904.495	40.57
904.867	40.6
905.24	40.61
905.612	40.63
905.985	40.65
906.357	40.61
906.729	40.62
907.102	40.63
907.474	40.64
907.846	40.64
908.218	40.62
908.59	40.63
908.962	40.64
909.334	40.65
909.705	40.66
910.077	40.65
910.449	40.71
910.82	40.72
911.192	40.71
911.563	40.71
911.935	40.7
912.306	40.71
912.677	40.71
913.048	40.65
913.419	40.65
913.79	40.65
914.161	40.66
914.532	40.67
914.903	40.68
915.274	40.69
915.645	40.71
916.015	40.72
916.386	40.74
916.756	40.71
917.127	40.74
917.497	40.76
917.868	40.75
918.238	40.76
918.608	40.76
918.978	40.75
919.348	40.74
919.718	40.71
920.088	40.74
920.458	40.77
920.828	40.8
921.198	40.84
921.567	40.81
921.937	40.84
922.306	40.88
922.676	40.87
923.045	40.88
923.415	40.86
923.784	40.89
924.153	40.86
924.522	40.82
924.891	40.81
925.26	40.77
925.629	40.82
925.998	40.78
926.367	40.74
926.736	40.72
927.104	40.72
927.473	40.77
927.842	40.69
928.21	40.72
928.578	40.69
928.947	40.68
929.315	40.69
929.683	40.66
930.051	40.63
930.42	40.62
930.788	40.64
931.156	40.59
931.523	40.55
931.891	40.52
932.259	40.46
932.627	40.44
932.994	40.39
933.362	40.35
933.729	40.25
934.097	40.24
934.464	40.22
934.831	40.1
935.199	40.08
935.566	40.03
935.933	40.19
936.3	40.18
936.667	40.14
937.034	40.09
937.401	40.05
937.767	40.05
938.134	40.11
938.501	40.05
938.867	40.17
939.234	40.28
939.6	40.32
939.967	40.17
940.333	40.27
940.699	40.46
941.065	40.59
941.431	40.71
941.798	40.81
942.163	40.86
942.529	41.01
942.895	41.13
943.261	41.11
943.627	41.2
943.992	41.33
944.358	41.3
944.723	41.25
945.089	41.31
945.454	41.36
945.82	41.43
946.185	41.41
946.55	41.43
946.915	41.42
947.28	41.34
947.645	41.31
948.01	41.21
948.375	41.22
948.74	41.16
949.104	41.15
949.469	41.07
949.834	41.01
950.198	40.95
950.562	40.85
950.927	40.79
951.291	40.84
951.655	40.8
952.02	40.73
952.384	40.8
952.748	40.82
953.112	40.73
953.476	40.72
953.839	40.72
954.203	40.66
954.567	40.66
954.931	40.63
955.294	40.56
955.658	40.54
956.021	40.64
956.385	40.58
956.748	40.63
957.111	40.66
957.474	40.7
957.837	40.65
958.2	40.61
958.563	40.66
958.926	40.61
959.289	40.62
959.652	40.61
960.015	40.49
960.377	40.47
960.74	40.32
961.102	40.3
961.465	40.26
961.827	40.19
962.189	40.23
962.552	40.13
962.914	40.14
963.276	40.19
963.638	40.14
964	40.1
964.362	40.05
964.724	40.14
965.085	40.07
965.447	40.06
965.809	40.04
966.17	40.04
966.532	40.08
966.893	40.06
967.255	39.98
967.616	40
967.977	40.07
968.338	40.06
968.699	39.99
969.061	40.04
969.421	39.98
969.782	40
970.143	39.99
970.504	39.93
970.865	39.92
971.225	39.94
971.586	40
971.946	39.99
972.307	40.02
972.667	40.06
973.027	40.06
973.388	40.13
973.748	40.14
974.108	40.14
974.468	40.17
974.828	40.23
975.188	40.3
975.548	40.19
975.907	40.22
976.267	40.25
976.627	40.23
976.986	40.19
977.346	40.25
977.705	40.3
978.064	40.3
978.424	40.27
978.783	40.3
979.142	40.25
979.501	40.25
979.86	40.25
980.219	40.17
980.578	40.18
980.937	40.26
981.296	40.26
981.654	40.27
982.013	40.32
982.371	40.39
982.73	40.31
983.088	40.32
983.447	40.37
983.805	40.42
984.163	40.55
984.521	40.46
984.879	40.46
985.237	40.43
985.595	40.49
985.953	40.57
986.311	40.56
986.669	40.61
987.026	40.62
987.384	40.77
987.741	40.85
988.099	40.8
988.456	41
988.814	41
989.171	41.03
989.528	40.95
989.885	40.92
990.242	40.98
990.599	41.06
990.956	41.12
991.313	41.03
991.67	41.07
992.027	41
992.383	40.96
992.74	41.06
993.096	41.02
993.453	41.11
993.809	41.09
994.165	41.03
994.522	40.89
994.878	40.87
995.234	40.77
995.59	40.54
995.946	40.67
996.302	40.63
996.658	40.61
997.013	40.63
997.369	40.65
997.725	40.64
998.08	40.67
998.436	40.82
998.791	40.81
999.147	41.03
999.502	41.17
999.857	41.21
1000.212	41.28
1000.567	41.26
1000.922	41.33
1001.277	41.25
1001.632	41.42
1001.987	41.42
1002.342	41.47
1002.696	41.61
1003.051	41.46
1003.406	41.46
1003.76	41.43
1004.114	41.5
1004.469	41.66
1004.823	41.76
1005.177	41.98
1005.531	41.84
1005.885	41.96
1006.239	42
1006.593	41.96
1006.947	42.05
1007.301	42.08
1007.655	42.14
1008.008	42.05
1008.362	41.81
1008.715	41.68
1009.069	41.38
1009.422	41.41
1009.776	41.4
1010.129	41.34
1010.482	41.62
1010.835	41.69
1011.188	41.56
1011.541	41.43
1011.894	41.57
1012.247	41.75
1012.6	41.75
1012.952	41.79
1013.305	41.75
1013.657	41.73
1014.01	41.82
1014.362	41.56
1014.715	41.44
1015.067	41.77
1015.419	41.97
1015.771	42.03
1016.123	41.96
1016.475	42.19
1016.827	42.42
1017.179	42.5
1017.531	42.63
1017.883	42.71
1018.234	42.74
1018.586	42.97
1018.938	42.65
1019.289	42.49
1019.64	42.6
1019.992	42.82
1020.343	42.65
1020.694	42.31
1021.045	42.56
1021.396	42.41
1021.747	42.51
1022.098	42.69
1022.449	42.56
1022.8	42.82
1023.151	43.21
1023.501	43.18
1023.852	43.25
1024.202	43.25
1024.553	43.72
1024.903	43.45
1025.253	43.79
1025.604	43.68
1025.954	43.51
1026.304	43.69
1026.654	43.79
1027.004	43.85
1027.354	43.9
1027.703	43.68
1028.053	43.81
1028.403	43.55
1028.753	44.14
1029.102	44.03
1029.452	44.09
1029.801	44.17
1030.15	44.16
1030.499	44.1
897.758	466.68
901.051	477.29
904.343	480.44
907.636	472.52
910.928	466.26
914.22	468.68
917.511	457.37
920.803	435.92
924.094	420.06
927.384	425.24
930.675	412.52
933.965	410.16
937.255	408.25
940.544	391.19
943.834	376.88
947.123	370.34
950.411	354.84
953.7	348.79
956.988	339.51
960.276	326.14
963.563	319.66
966.851	303.12
970.138	297.79
973.424	278.9
976.711	274.44
979.997	264.25
983.283	256.78
986.568	248.59
989.853	244.64
993.138	236.63
996.423	232.76
999.708	227.81
1002.992	228.43
1006.275	221.64
1009.559	220.27
1012.842	214.85
1016.125	208.67
1019.408	206.06
1022.69	203.57
1025.972	200.96
1029.254	197.36
1032.536	193.42
1035.817	185.89
1039.098	183.94
1042.379	179.75
1045.659	176.97
1048.939	175.29
1052.219	173.1
1055.498	170.32
1058.778	168.15
1062.057	164.99
1065.335	163.02
1068.614	160.22
1071.892	159.65
1075.17	156.37
1078.447	154.5
1081.724	152.8
1085.001	149.13
1088.278	148.69
1091.554	148.64
1094.83	147.94
1098.106	145.76
1101.382	144.52
1104.657	144.44
1107.932	143.76
1111.206	142.46
1114.481	140.97
1117.755	140.37
1121.029	140.42
1124.302	138.35
1127.575	135.51
1130.848	134.54
1134.121	133.21
1137.393	133.1
1140.665	132.47
1143.937	131.04
1147.208	129.64
1150.48	128.97
1153.75	127.8
1157.021	126.94
1160.291	125.83
1163.561	125.73
1166.831	124.69
1170.101	124.1
1173.37	123.75
1176.639	122.09
1179.907	121.93
1183.176	121.58
1186.444	121.86
1189.711	121.25
1192.979	122.21
1196.246	122.39
1199.513	122.47
1202.78	122.56
1206.046	122.4
1209.312	123.44
1212.578	123.63
1215.843	125.73
1219.108	126.2
1222.373	127.94
1225.638	129.93
1228.902	132.65
1232.166	136.92
1235.43	137.8
1238.693	142.25
1241.956	144.8
1245.219	147.61
1248.482	148.76
1251.744	147.56
1255.006	148.84
1258.268	144.74
1261.529	143.92
1264.79	139.79
1268.051	136.7
1271.312	136.66
1274.572	132.65
1277.832	130.84
1281.092	128.3
1284.351	126.21
1287.61	126.45
1290.869	125.81
1294.128	125.36
1297.386	124.8
1300.644	123.88
1303.902	122.9
1307.159	121.66
1310.416	123.35
1313.673	123.8
1316.93	125.75
1320.186	127.65
1323.442	128.71
1326.697	130.77
1329.953	131.94
1333.208	135.68
1336.463	140.8
1339.717	144.18
1342.972	151.25
1346.226	153.58
1349.479	155.19
1352.733	160.19
1355.986	162.79
1359.238	166.03
1362.491	167.58
1365.743	174.28
1368.995	174.42
1372.247	177.03
1375.498	175.56
1378.749	179.01
1382	181.03
1385.251	178.16
1388.501	178.46
1391.751	180.96
1395	178.85
1398.25	179.57
1401.499	178.55
1404.748	178.4
1407.996	171.19
1411.244	171.64
1414.492	169.47
1417.74	162.98
1420.987	161.36
1424.234	157.36
1427.481	150.95
1430.728	147.51
1433.974	141.78
1437.22	136.5
1440.465	131.38
1443.711	127.9
1446.956	123.88
1450.201	118.96
1453.445	113.61
1456.689	110.12
1459.933	106.84
1463.177	102.52
1466.42	100.54
1469.663	97.62
1472.906	94.9
1476.148	92.31
1479.391	90.43
1482.633	88.57
1485.874	87.17
1489.115	86.9
1492.356	84.43
1495.597	82.72
1498.838	83.03
1502.078	82.05
1505.318	81.88
1508.557	81.69
1511.797	81.54
1515.036	80.84
1518.274	80.6
1521.513	79.7
1524.751	79.24
1527.989	80.8
1531.227	80.99
1534.464	80.51
1537.701	80.29
1540.938	79.78
1544.174	79.03
1547.41	79.66
1550.646	79.33
1553.882	79.79
1557.117	79.93
1560.352	79.33
1563.587	78.98
1566.821	78.72
1570.055	78.34
1573.289	78.72
1576.523	78.67
1579.756	79.02
1582.989	78.62
1586.222	78.9
1589.454	78.51
1592.686	78.67
1595.918	78.85
1599.15	78.5
1602.381	79.22
1605.612	79.39
1608.843	78.57
1612.073	79.44
1615.303	79.54
1618.533	79.29
1621.762	79
1624.992	79.86
1628.221	79.23
1631.449	79.96
1634.678	80.09
1637.906	79.91
1641.134	80.09
1644.361	80.1
1647.588	80.55
1650.815	81.04
1654.042	80.51
1657.269	80.75
1660.495	80.76
1663.72	81.19
1666.946	81
1670.171	81.39
1673.396	81.66
1676.621	82
1679.845	82.58
1683.069	81.51
1686.293	81.17
1689.517	81.98
1692.74	82.32
1695.963	82.07
1699.185	82.27
1702.408	81.82
1705.63	81.86
1708.852	82.24
1712.073	81.8
1715.294	81.69
1718.515	82.96
1721.736	82.92
1724.956	83.06
1728.176	82.92
1731.396	83.45
1734.616	83.25
1737.835	83.88
1741.054	83.2
1744.272	83.47
1747.491	83.46
1750.709	83.67
1753.927	83
1757.144	83.19
1760.361	83.08
1763.578	83.86
1766.795	83.88
1770.011	83.77
1773.227	83.75
1776.443	85.12
1779.658	83.96
1782.874	85.31
1786.089	84.62
1789.303	84.78
1792.518	85.93
1795.732	86.25
1798.945	86.72
1802.159	86.75
1805.372	87.95
1808.585	88.86
1811.797	89.15
1815.01	90.8
1818.222	90.77
1821.434	92.69
1824.645	92.93
1827.856	94.18
1831.067	94.46
1834.278	95.56
1837.488	96.43
1840.698	97.41
1843.908	97.37
1847.117	98.57
1850.326	98.49
1853.535	99.08
1856.744	99.56
1859.952	101.23
1863.16	100.37
1866.368	100.52
1869.575	100.28
1872.782	99.24
1875.989	97.35
1879.196	98.97
1882.402	97
1885.608	97.27
1888.814	96.61
1892.019	97.87
1895.224	95.83
1898.429	96.12
1901.634	96
1904.838	97.26
1908.042	98.55
1911.246	98.54
1914.449	97.58
1917.652	98.1
1920.855	98.44
1924.058	97.75
1927.26	96.4
1930.462	97.03
1933.664	97.56
1936.865	97.46
1940.066	94.45
1943.267	94.22
1946.467	95.41
1949.668	95.78
1952.868	96.41
1956.067	96.03
1959.267	96.73
1962.466	97.06
1965.665	98.36
1968.863	98.07
1972.061	100.99
1975.259	102.65
1978.457	104.22
1981.654	103.59
1984.852	104.01
1988.048	105.23
1991.245	107.16
1994.441	109.33
1997.637	111.43
2000.833	112.8
2004.028	114.78
2007.223	115.56
2010.418	119.27
2013.613	122.66
2016.807	127.99
2020.001	128.64
2023.194	132.65
2026.388	137.26
2029.581	144.43
2032.774	148.96
2035.966	152.47
2039.158	156.38
2042.35	160.23
2045.542	162.16
2048.733	171.3
2051.924	171.32
2055.115	175.76
2058.306	177.23
2061.496	178.49
2064.686	178.8
2067.875	176.77
2071.065	182.29
2074.254	182
2077.442	185.54
2080.631	189.67
2083.819	186.52
2087.007	192.05
2090.195	197.35
2093.382	196.75
2096.569	198.43
2099.756	201.42
2102.942	207.01
2106.128	209.59
2109.314	212.24
2112.5	213.77
2115.685	210.5
2118.87	212.51
2122.055	213.76
2125.239	216.6
2128.424	221.4
2131.608	219.1
2134.791	219.85
2137.974	220.9
2141.157	222.4
2144.34	222.88
2147.523	228.54
2150.705	235.55
2153.887	231.2
2157.068	233.65
2160.25	235.57
2163.431	237.27
2166.611	242.59
2169.792	244.62
2172.972	247.72
2176.152	248.18
2179.331	253.61
2182.511	252.2
2185.69	254.59
2188.868	264.55
2192.047	275
2195.225	279.18
2198.403	280.75
2201.58	278.23
2204.758	288.41
2207.935	290.24
2211.111	294.83
2214.288	297.27
2217.464	302.3
2220.64	304.78
2223.815	306.71
2226.991	300.52
2230.166	301.29
2233.34	311.63
2236.515	318.51
2239.689	314.61
2242.863	321.93
2246.036	319.43
2249.209	326.8
2252.382	324.13
2255.555	335.05
2258.727	336.94
2261.9	348.61
2265.071	354.85
2268.243	348.74
2271.414	359.12
2274.585	367.24
2277.756	365.04
2280.926	379.1
2284.096	384.69
2287.266	388.16
2290.436	382.67
2293.605	390.89
2296.774	398.39
2299.942	400.3
2303.111	413.2
2306.279	424.08
2309.447	425.26
2312.614	428.57
2315.781	438.46
2318.948	441.17
2322.115	449.4
2325.281	470.97
2328.447	466.43
2331.613	472.43
2334.779	475.94
2337.944	482.93
2341.109	490.13
2344.274	495.79
2347.438	504.7
2350.602	516.2
2353.766	539.52
2356.929	542.24
2360.092	551.27
2363.255	558.23
2366.418	562.37
2369.58	576.42
2372.742	579.07
2375.904	576.71
2379.066	593.46
2382.227	626.5
2385.388	620.89
2388.548	593.66
2391.709	590.34
2394.869	604.98
2398.029	603.38
2401.188	608.43
2404.347	623.8
2407.506	644.47
2410.665	624.05
2413.823	624.88
2416.981	628.84
2420.139	600.5
2423.296	650.63
2426.453	690
2429.61	654.65
2432.767	703.85
2435.923	721.18
2439.079	706.01
2442.235	723.05
2445.391	737.29
2448.546	729.69
2451.701	770.43
2454.855	821.16
2458.009	731.15
2461.163	736.48
2464.317	754.84
2467.471	739.91
2470.624	761.55
2473.777	743.28
2476.929	716.79
2480.082	767.22
2483.234	807.69
2486.385	819.76
2489.537	839.59
2492.688	922.94
2495.839	910.72
2498.989	935.27
2502.14	934.41
2505.29	896.18
2508.439	997.46
2511.589	1019.87
2514.738	988.6
2517.887	979.02
2521.035	918.65
2524.183	909.28
2527.331	901.55
2530.479	886.9
2533.627	904.21
