Data from N_3_dec_wc_4n_Splice17_20.txt Node
Date: Sat Feb 29 14:51:11 EST 2020
User: sa697716
Spectrometer: FLMS03696
Trigger mode: 0
Integration Time (sec): 3.180400E-1
Scans to average: 20
Electric dark correction enabled: true
Nonlinearity correction enabled: true
Boxcar width: 5
XAxis mode: Wavelengths
Number of Pixels in Spectrum: 2048
>>>>>Begin Spectral Data<<<<<
187.83	99.05
188.298	88.23
188.766	74.16
189.233	75.04
189.701	80.66
190.169	84.94
190.636	72.48
191.104	66.94
191.571	113.18
192.039	167.68
192.506	237.19
192.974	4593.18
193.441	-42.73
193.908	36.79
194.375	17.78
194.842	70.75
195.31	50.27
195.777	-20.82
196.244	32.22
196.711	42.23
197.177	41.77
197.644	43.33
198.111	44.35
198.578	44.75
199.045	45.85
199.511	46.43
199.978	46.76
200.445	46.77
200.911	46.99
201.378	46.74
201.844	47.44
202.31	48.48
202.777	48.63
203.243	49.46
203.709	49.77
204.176	48.91
204.642	48.77
205.108	48.88
205.574	49.42
206.04	49.05
206.506	49.1
206.972	48.53
207.438	47.72
207.903	47.51
208.369	46.35
208.835	45.59
209.301	45.79
209.766	45
210.232	44.09
210.697	43.04
211.163	43
211.628	42.08
212.094	41.45
212.559	40.78
213.024	39.99
213.49	39.25
213.955	38.56
214.42	37.45
214.885	36.51
215.35	35.34
215.815	33.54
216.28	31.44
216.745	29.62
217.21	27.45
217.675	25.44
218.14	23.54
218.604	21.89
219.069	20.45
219.534	19.11
219.998	18.03
220.463	17.09
220.927	16.37
221.392	15.76
221.856	15.17
222.32	14.74
222.785	14.31
223.249	13.92
223.713	13.56
224.177	13.24
224.642	13.01
225.106	12.73
225.57	12.47
226.034	12.24
226.497	11.98
226.961	11.75
227.425	11.47
227.889	11.26
228.353	11.03
228.816	10.86
229.28	10.63
229.744	10.42
230.207	10.24
230.671	10.08
231.134	9.89
231.597	9.72
232.061	9.58
232.524	9.46
232.987	9.29
233.45	9.17
233.914	9.02
234.377	8.92
234.84	8.81
235.303	8.71
235.766	8.6
236.229	8.52
236.691	8.44
237.154	8.36
237.617	8.27
238.08	8.21
238.542	8.13
239.005	8.05
239.468	7.98
239.93	7.93
240.393	7.85
240.855	7.76
241.317	7.7
241.78	7.63
242.242	7.53
242.704	7.45
243.166	7.37
243.629	7.3
244.091	7.23
244.553	7.15
245.015	7.07
245.477	7
245.939	6.94
246.4	6.87
246.862	6.8
247.324	6.76
247.786	6.71
248.247	6.66
248.709	6.61
249.17	6.56
249.632	6.5
250.093	6.43
250.555	6.38
251.016	6.33
251.477	6.27
251.939	6.23
252.4	6.18
252.861	6.13
253.322	6.09
253.783	6.06
254.244	6.01
254.705	5.96
255.166	5.94
255.627	5.91
256.088	5.86
256.549	5.82
257.009	5.77
257.47	5.73
257.931	5.69
258.391	5.64
258.852	5.59
259.312	5.55
259.773	5.52
260.233	5.48
260.694	5.44
261.154	5.4
261.614	5.38
262.074	5.35
262.534	5.3
262.994	5.27
263.455	5.24
263.915	5.21
264.374	5.17
264.834	5.14
265.294	5.1
265.754	5.07
266.214	5.04
266.673	5.01
267.133	4.98
267.593	4.96
268.052	4.93
268.512	4.91
268.971	4.89
269.431	4.87
269.89	4.85
270.349	4.84
270.809	4.82
271.268	4.81
271.727	4.79
272.186	4.78
272.645	4.76
273.104	4.75
273.563	4.73
274.022	4.72
274.481	4.71
274.94	4.7
275.399	4.68
275.857	4.67
276.316	4.64
276.775	4.62
277.233	4.61
277.692	4.6
278.15	4.58
278.609	4.56
279.067	4.53
279.525	4.51
279.984	4.5
280.442	4.49
280.9	4.48
281.358	4.48
281.816	4.46
282.274	4.44
282.732	4.43
283.19	4.43
283.648	4.43
284.106	4.42
284.564	4.42
285.021	4.42
285.479	4.41
285.937	4.41
286.394	4.4
286.852	4.4
287.309	4.41
287.767	4.39
288.224	4.37
288.682	4.37
289.139	4.35
289.596	4.33
290.053	4.32
290.511	4.29
290.968	4.27
291.425	4.24
291.882	4.22
292.339	4.19
292.796	4.17
293.252	4.15
293.709	4.13
294.166	4.11
294.623	4.09
295.079	4.08
295.536	4.07
295.992	4.06
296.449	4.05
296.905	4.03
297.362	4.02
297.818	4.01
298.274	4
298.731	3.99
299.187	3.98
299.643	3.98
300.099	3.98
300.555	3.96
301.011	3.95
301.467	3.94
301.923	3.93
302.379	3.92
302.835	3.92
303.291	3.91
303.746	3.9
304.202	3.88
304.658	3.87
305.113	3.85
305.569	3.86
306.024	3.85
306.479	3.84
306.935	3.84
307.39	3.84
307.845	3.84
308.301	3.84
308.756	3.85
309.211	3.86
309.666	3.86
310.121	3.86
310.576	3.86
311.031	3.86
311.486	3.87
311.94	3.86
312.395	3.87
312.85	3.87
313.305	3.86
313.759	3.86
314.214	3.85
314.668	3.85
315.123	3.85
315.577	3.85
316.032	3.83
316.486	3.82
316.94	3.82
317.394	3.81
317.849	3.8
318.303	3.79
318.757	3.77
319.211	3.76
319.665	3.74
320.119	3.73
320.572	3.72
321.026	3.71
321.48	3.7
321.934	3.68
322.387	3.68
322.841	3.67
323.295	3.66
323.748	3.66
324.202	3.65
324.655	3.66
325.108	3.65
325.562	3.64
326.015	3.63
326.468	3.62
326.921	3.6
327.374	3.6
327.827	3.59
328.28	3.58
328.733	3.57
329.186	3.57
329.639	3.55
330.092	3.55
330.545	3.55
330.997	3.56
331.45	3.56
331.903	3.56
332.355	3.55
332.808	3.56
333.26	3.56
333.713	3.57
334.165	3.59
334.617	3.59
335.069	3.6
335.522	3.6
335.974	3.6
336.426	3.61
336.878	3.6
337.33	3.61
337.782	3.61
338.234	3.61
338.686	3.61
339.137	3.6
339.589	3.6
340.041	3.59
340.493	3.58
340.944	3.58
341.396	3.57
341.847	3.56
342.299	3.53
342.75	3.51
343.201	3.5
343.653	3.48
344.104	3.46
344.555	3.44
345.006	3.42
345.457	3.41
345.908	3.41
346.359	3.4
346.81	3.4
347.261	3.4
347.712	3.4
348.163	3.4
348.613	3.39
349.064	3.39
349.515	3.39
349.965	3.38
350.416	3.38
350.866	3.37
351.317	3.37
351.767	3.36
352.217	3.36
352.668	3.35
353.118	3.35
353.568	3.36
354.018	3.36
354.468	3.36
354.918	3.37
355.368	3.38
355.818	3.37
356.268	3.38
356.718	3.38
357.168	3.37
357.617	3.37
358.067	3.37
358.517	3.36
358.966	3.36
359.416	3.37
359.865	3.36
360.315	3.36
360.764	3.36
361.213	3.36
361.663	3.36
362.112	3.38
362.561	3.39
363.01	3.39
363.459	3.39
363.908	3.4
364.357	3.4
364.806	3.42
365.255	3.43
365.703	3.43
366.152	3.43
366.601	3.43
367.05	3.44
367.498	3.44
367.947	3.45
368.395	3.46
368.844	3.48
369.292	3.48
369.74	3.49
370.189	3.5
370.637	3.51
371.085	3.54
371.533	3.56
371.981	3.58
372.429	3.58
372.877	3.61
373.325	3.62
373.773	3.63
374.221	3.64
374.669	3.66
375.116	3.67
375.564	3.7
376.012	3.72
376.459	3.74
376.907	3.76
377.354	3.79
377.801	3.82
378.249	3.85
378.696	3.88
379.143	3.92
379.591	3.95
380.038	3.99
380.485	4.02
380.932	4.04
381.379	4.05
381.826	4.1
382.273	4.13
382.72	4.16
383.166	4.19
383.613	4.23
384.06	4.26
384.506	4.29
384.953	4.31
385.4	4.34
385.846	4.37
386.292	4.43
386.739	4.46
387.185	4.49
387.631	4.52
388.078	4.55
388.524	4.57
388.97	4.6
389.416	4.63
389.862	4.66
390.308	4.69
390.754	4.72
391.2	4.75
391.645	4.78
392.091	4.81
392.537	4.84
392.983	4.87
393.428	4.9
393.874	4.93
394.319	4.95
394.765	4.97
395.21	4.99
395.655	5.02
396.101	5.03
396.546	5.04
396.991	5.06
397.436	5.06
397.881	5.07
398.326	5.11
398.771	5.13
399.216	5.15
399.661	5.17
400.106	5.2
400.551	5.19
400.995	5.19
401.44	5.18
401.885	5.17
402.329	5.19
402.774	5.17
403.218	5.15
403.663	5.13
404.107	5.12
404.551	5.12
404.995	5.11
405.44	5.1
405.884	5.1
406.328	5.1
406.772	5.1
407.216	5.1
407.66	5.11
408.104	5.11
408.547	5.11
408.991	5.12
409.435	5.09
409.879	5.1
410.322	5.11
410.766	5.09
411.209	5.09
411.653	5.08
412.096	5.06
412.54	5.06
412.983	5.06
413.426	5.07
413.869	5.07
414.312	5.1
414.756	5.11
415.199	5.12
415.642	5.15
416.085	5.16
416.527	5.18
416.97	5.2
417.413	5.2
417.856	5.19
418.298	5.17
418.741	5.16
419.184	5.15
419.626	5.14
420.069	5.12
420.511	5.11
420.953	5.1
421.396	5.1
421.838	5.12
422.28	5.14
422.722	5.15
423.164	5.17
423.606	5.17
424.048	5.17
424.49	5.17
424.932	5.17
425.374	5.19
425.816	5.17
426.258	5.13
426.699	5.08
427.141	5.05
427.582	5.03
428.024	5.01
428.465	5.01
428.907	5.01
429.348	5
429.789	5
430.231	4.98
430.672	5.01
431.113	5.03
431.554	5.07
431.995	5.09
432.436	5.09
432.877	5.1
433.318	5.09
433.759	5.1
434.2	5.11
434.64	5.12
435.081	5.13
435.522	5.14
435.962	5.16
436.403	5.18
436.843	5.21
437.284	5.23
437.724	5.27
438.164	5.3
438.604	5.32
439.045	5.34
439.485	5.34
439.925	5.36
440.365	5.38
440.805	5.39
441.245	5.39
441.685	5.39
442.125	5.41
442.564	5.43
443.004	5.45
443.444	5.47
443.883	5.51
444.323	5.55
444.762	5.59
445.202	5.63
445.641	5.68
446.081	5.75
446.52	5.78
446.959	5.83
447.398	5.9
447.837	5.95
448.276	6
448.716	6.03
449.154	6.08
449.593	6.13
450.032	6.16
450.471	6.18
450.91	6.17
451.349	6.2
451.787	6.21
452.226	6.19
452.664	6.19
453.103	6.19
453.541	6.19
453.98	6.16
454.418	6.14
454.856	6.1
455.295	6.08
455.733	6.08
456.171	6.06
456.609	6.06
457.047	6.05
457.485	6.04
457.923	6.03
458.361	6.01
458.798	6.02
459.236	6.02
459.674	6.05
460.111	6.04
460.549	6.04
460.987	6.03
461.424	6.03
461.862	6.02
462.299	6.02
462.736	6.01
463.173	6.03
463.611	6.03
464.048	6.03
464.485	6.01
464.922	6.01
465.359	6.03
465.796	6.01
466.233	6.01
466.67	6.02
467.106	6
467.543	6
467.98	6.01
468.416	6
468.853	6
469.29	6.02
469.726	6.03
470.162	6.02
470.599	6.05
471.035	6.05
471.471	6.03
471.907	6.05
472.344	6.06
472.78	6.06
473.216	6.07
473.652	6.07
474.088	6.08
474.523	6.07
474.959	6.06
475.395	6.05
475.831	6.05
476.266	6.07
476.702	6.07
477.138	6.06
477.573	6.06
478.008	6.06
478.444	6.07
478.879	6.05
479.314	6.05
479.75	6.06
480.185	6.06
480.62	6.06
481.055	6.06
481.49	6.05
481.925	6.05
482.36	6.04
482.795	6.04
483.229	6.04
483.664	6.04
484.099	6.05
484.534	6.07
484.968	6.09
485.403	6.09
485.837	6.11
486.271	6.12
486.706	6.14
487.14	6.18
487.574	6.2
488.009	6.24
488.443	6.26
488.877	6.3
489.311	6.33
489.745	6.37
490.179	6.42
490.613	6.47
491.046	6.53
491.48	6.59
491.914	6.65
492.348	6.71
492.781	6.77
493.215	6.84
493.648	6.91
494.082	7.01
494.515	7.08
494.948	7.17
495.382	7.25
495.815	7.35
496.248	7.44
496.681	7.54
497.114	7.65
497.547	7.76
497.98	7.89
498.413	8.01
498.846	8.12
499.279	8.26
499.711	8.39
500.144	8.54
500.577	8.68
501.009	8.85
501.442	9.02
501.874	9.19
502.306	9.37
502.739	9.54
503.171	9.75
503.603	9.96
504.036	10.17
504.468	10.4
504.9	10.63
505.332	10.88
505.764	11.12
506.196	11.38
506.627	11.66
507.059	11.93
507.491	12.22
507.923	12.5
508.354	12.8
508.786	13.12
509.217	13.41
509.649	13.73
510.08	14.06
510.512	14.39
510.943	14.75
511.374	15.1
511.805	15.46
512.237	15.83
512.668	16.19
513.099	16.58
513.53	16.95
513.961	17.36
514.391	17.73
514.822	18.1
515.253	18.51
515.684	18.89
516.114	19.28
516.545	19.68
516.975	20.08
517.406	20.48
517.836	20.86
518.267	21.27
518.697	21.66
519.127	22.06
519.558	22.48
519.988	22.86
520.418	23.24
520.848	23.63
521.278	23.99
521.708	24.19
522.138	24.54
522.567	24.89
522.997	25.22
523.427	25.55
523.857	25.86
524.286	26.16
524.716	26.48
525.145	26.78
525.575	27.05
526.004	27.33
526.433	27.76
526.863	28.04
527.292	28.29
527.721	28.55
528.15	28.77
528.579	28.99
529.008	29.21
529.437	29.4
529.866	29.59
530.295	29.79
530.724	29.98
531.152	30.17
531.581	30.32
532.01	30.47
532.438	30.6
532.867	30.75
533.295	30.88
533.723	31.03
534.152	31.13
534.58	31.22
535.008	31.3
535.436	31.38
535.865	31.43
536.293	31.5
536.721	31.57
537.149	31.65
537.576	31.71
538.004	31.78
538.432	31.81
538.86	31.87
539.287	31.94
539.715	31.99
540.143	32.03
540.57	32.08
540.998	32.13
541.425	32.17
541.852	32.2
542.28	32.23
542.707	32.26
543.134	32.3
543.561	32.32
543.988	32.36
544.415	32.39
544.842	32.42
545.269	32.45
545.696	32.49
546.123	32.52
546.549	32.56
546.976	32.61
547.403	32.64
547.829	32.66
548.256	32.69
548.682	32.69
549.108	32.72
549.535	32.74
549.961	32.76
550.387	32.76
550.813	32.77
551.24	32.77
551.666	32.76
552.092	32.78
552.518	32.78
552.943	32.8
553.369	32.81
553.795	32.81
554.221	32.79
554.646	32.77
555.072	32.75
555.498	32.72
555.923	32.69
556.349	32.62
556.774	32.56
557.199	32.49
557.625	32.4
558.05	32.29
558.475	32.19
558.9	32.14
559.325	32.03
559.75	31.9
560.175	31.78
560.6	31.66
561.025	31.54
561.449	31.38
561.874	31.25
562.299	31.11
562.723	30.96
563.148	30.79
563.572	30.62
563.997	30.45
564.421	30.3
564.846	30.12
565.27	29.93
565.694	29.75
566.118	29.57
566.542	29.38
566.966	29.18
567.39	28.98
567.814	28.78
568.238	28.54
568.662	28.34
569.086	28.11
569.509	27.92
569.933	27.71
570.357	27.49
570.78	27.3
571.204	27.08
571.627	26.87
572.05	26.69
572.474	26.52
572.897	26.34
573.32	26.17
573.743	26.02
574.166	25.83
574.589	25.68
575.012	25.54
575.435	25.38
575.858	25.24
576.281	25.1
576.704	24.95
577.126	24.78
577.549	24.68
577.972	24.56
578.394	24.42
578.817	24.29
579.239	24.18
579.661	24.04
580.084	23.92
580.506	23.82
580.928	23.71
581.35	23.62
581.772	23.54
582.194	23.41
582.616	23.29
583.038	23.2
583.46	23.11
583.882	23.01
584.303	22.94
584.725	22.86
585.147	22.75
585.568	22.67
585.99	22.58
586.411	22.49
586.833	22.43
587.254	22.37
587.675	22.28
588.096	22.22
588.518	22.15
588.939	22.07
589.36	21.99
589.781	21.92
590.202	21.85
590.623	21.79
591.043	21.74
591.464	21.68
591.885	21.61
592.305	21.57
592.726	21.5
593.147	21.46
593.567	21.39
593.987	21.36
594.408	21.32
594.828	21.26
595.248	21.23
595.669	21.17
596.089	21.12
596.509	21.06
596.929	20.99
597.349	20.94
597.769	20.88
598.189	20.84
598.608	20.76
599.028	20.71
599.448	20.66
599.867	20.59
600.287	20.54
600.706	20.48
601.126	20.42
601.545	20.37
601.965	20.31
602.384	20.27
602.803	20.2
603.222	20.13
603.641	20.05
604.061	19.98
604.48	19.9
604.898	19.8
605.317	19.71
605.736	19.63
606.155	19.53
606.574	19.44
606.992	19.32
607.411	19.23
607.829	19.11
608.248	19.01
608.666	18.91
609.085	18.81
609.503	18.71
609.921	18.62
610.339	18.52
610.758	18.44
611.176	18.34
611.594	18.24
612.012	18.15
612.43	18.1
612.847	18.01
613.265	17.93
613.683	17.84
614.101	17.76
614.518	17.66
614.936	17.56
615.353	17.46
615.771	17.37
616.188	17.3
616.606	17.21
617.023	17.13
617.44	17.04
617.857	16.96
618.274	16.89
618.691	16.82
619.108	16.77
619.525	16.73
619.942	16.69
620.359	16.65
620.776	16.6
621.192	16.57
621.609	16.52
622.026	16.48
622.442	16.45
622.859	16.41
623.275	16.4
623.691	16.38
624.108	16.34
624.524	16.33
624.94	16.3
625.356	16.28
625.772	16.25
626.188	16.25
626.604	16.22
627.02	16.2
627.436	16.19
627.852	16.15
628.268	16.12
628.683	16.08
629.099	16.03
629.514	16
629.93	15.96
630.345	15.92
630.761	15.85
631.176	15.81
631.591	15.75
632.007	15.67
632.422	15.61
632.837	15.53
633.252	15.44
633.667	15.33
634.082	15.21
634.497	15.09
634.911	14.96
635.326	14.82
635.741	14.66
636.155	14.51
636.57	14.35
636.984	14.17
637.399	13.98
637.813	13.79
638.228	13.61
638.642	13.43
639.056	13.24
639.47	13.06
639.884	12.88
640.298	12.7
640.712	12.5
641.126	12.3
641.54	12.11
641.954	11.95
642.368	11.78
642.781	11.6
643.195	11.42
643.609	11.26
644.022	11.1
644.436	10.95
644.849	10.8
645.262	10.67
645.676	10.55
646.089	10.42
646.502	10.3
646.915	10.2
647.328	10.1
647.741	10
648.154	9.92
648.567	9.84
648.98	9.77
649.393	9.69
649.805	9.62
650.218	9.56
650.631	9.51
651.043	9.46
651.456	9.41
651.868	9.36
652.28	9.33
652.693	9.27
653.105	9.21
653.517	9.15
653.929	9.1
654.341	9.06
654.753	8.99
655.165	8.92
655.577	8.83
655.989	8.74
656.401	8.65
656.813	8.55
657.224	8.46
657.636	8.37
658.047	8.27
658.459	8.14
658.87	8.02
659.282	7.92
659.693	7.8
660.104	7.69
660.515	7.58
660.926	7.48
661.338	7.38
661.749	7.27
662.159	7.15
662.57	7.07
662.981	6.98
663.392	6.89
663.803	6.8
664.213	6.72
664.624	6.66
665.035	6.59
665.445	6.54
665.855	6.49
666.266	6.42
666.676	6.39
667.086	6.33
667.497	6.29
667.907	6.24
668.317	6.21
668.727	6.18
669.137	6.15
669.547	6.13
669.956	6.09
670.366	6.09
670.776	6.08
671.186	6.07
671.595	6.09
672.005	6.1
672.414	6.12
672.824	6.13
673.233	6.16
673.642	6.16
674.052	6.17
674.461	6.21
674.87	6.22
675.279	6.25
675.688	6.28
676.097	6.31
676.506	6.35
676.915	6.4
677.323	6.44
677.732	6.5
678.141	6.58
678.549	6.67
678.958	6.74
679.366	6.83
679.775	6.94
680.183	7.05
680.592	7.18
681	7.3
681.408	7.44
681.816	7.61
682.224	7.8
682.632	8
683.04	8.22
683.448	8.47
683.856	8.74
684.264	9.04
684.671	9.36
685.079	9.71
685.487	10.1
685.894	10.54
686.302	11
686.709	11.47
687.116	11.99
687.524	12.53
687.931	13.1
688.338	13.72
688.745	14.38
689.152	15.06
689.559	15.76
689.966	16.49
690.373	17.21
690.78	17.97
691.187	18.76
691.593	19.54
692	20.34
692.407	21.16
692.813	21.99
693.22	22.81
693.626	23.63
694.032	24.46
694.439	25.31
694.845	26.14
695.251	26.94
695.657	27.72
696.063	28.56
696.469	29.38
696.875	30.15
697.281	30.9
697.687	31.65
698.093	32.4
698.498	33.11
698.904	33.81
699.31	34.53
699.715	35.24
700.12	35.93
700.526	36.58
700.931	37.21
701.337	37.85
701.742	38.44
702.147	39.05
702.552	39.65
702.957	40.22
703.362	40.8
703.767	41.35
704.172	41.9
704.577	42.44
704.981	42.99
705.386	43.52
705.791	44.06
706.195	44.59
706.6	45.08
707.004	45.56
707.408	46.04
707.813	46.46
708.217	46.91
708.621	47.35
709.025	47.79
709.43	48.18
709.834	48.61
710.237	49
710.641	49.39
711.045	49.79
711.449	50.14
711.853	50.54
712.256	50.95
712.66	51.31
713.064	51.66
713.467	52
713.87	52.33
714.274	52.66
714.677	53
715.08	53.29
715.484	53.59
715.887	53.92
716.29	54.22
716.693	54.5
717.096	54.77
717.499	55.03
717.901	55.31
718.304	55.59
718.707	55.83
719.109	56.09
719.512	56.36
719.915	56.61
720.317	56.87
720.719	57.07
721.122	57.3
721.524	57.53
721.926	57.75
722.328	57.97
722.731	58.18
723.133	58.42
723.535	58.6
723.937	58.8
724.338	58.97
724.74	59.12
725.142	59.25
725.544	59.41
725.945	59.57
726.347	59.72
726.748	59.82
727.15	59.96
727.551	60.08
727.952	60.21
728.354	60.34
728.755	60.46
729.156	60.59
729.557	60.78
729.958	60.91
730.359	61.06
730.76	61.17
731.161	61.29
731.562	61.39
731.962	61.5
732.363	61.58
732.763	61.69
733.164	61.76
733.564	61.85
733.965	61.89
734.365	61.94
734.766	61.96
735.166	61.98
735.566	62.03
735.966	62.06
736.366	62.08
736.766	62.14
737.166	62.16
737.566	62.21
737.966	62.23
738.365	62.28
738.765	62.31
739.165	62.32
739.564	62.37
739.964	62.38
740.363	62.42
740.763	62.46
741.162	62.45
741.561	62.48
741.96	62.55
742.36	62.58
742.759	62.57
743.158	62.61
743.557	62.71
743.955	62.78
744.354	62.86
744.753	62.92
745.152	62.94
745.55	62.99
745.949	63.04
746.348	63.04
746.746	63.08
747.144	63.17
747.543	63.21
747.941	63.24
748.339	63.29
748.737	63.34
749.136	63.35
749.534	63.41
749.932	63.44
750.33	63.43
750.727	63.45
751.125	63.43
751.523	63.39
751.921	63.41
752.318	63.37
752.716	63.31
753.113	63.28
753.511	63.24
753.908	63.19
754.305	63.14
754.703	63.12
755.1	63.12
755.497	63.13
755.894	63.14
756.291	63.11
756.688	63.12
757.085	63.13
757.482	63.09
757.878	63.09
758.275	63.09
758.672	63.14
759.068	63.15
759.465	63.15
759.861	63.13
760.258	63.07
760.654	63.04
761.05	63.03
761.447	63
761.843	62.98
762.239	62.94
762.635	62.92
763.031	62.91
763.427	62.9
763.822	62.86
764.218	62.86
764.614	62.89
765.01	62.89
765.405	62.89
765.801	62.83
766.196	62.86
766.592	62.92
766.987	62.92
767.382	62.9
767.778	62.87
768.173	62.89
768.568	62.87
768.963	62.87
769.358	62.88
769.753	62.88
770.148	62.92
770.542	62.89
770.937	62.9
771.332	62.91
771.726	62.92
772.121	62.89
772.515	62.9
772.91	62.92
773.304	62.9
773.699	62.88
774.093	62.86
774.487	62.86
774.881	62.87
775.275	62.85
775.669	62.85
776.063	62.81
776.457	62.81
776.851	62.77
777.245	62.79
777.638	62.84
778.032	62.85
778.425	62.88
778.819	62.84
779.212	62.8
779.606	62.8
779.999	62.79
780.392	62.8
780.786	62.86
781.179	62.89
781.572	62.86
781.965	62.82
782.358	62.75
782.751	62.76
783.143	62.81
783.536	62.89
783.929	62.89
784.322	62.93
784.714	62.91
785.107	62.9
785.499	62.94
785.891	62.96
786.284	62.94
786.676	63.01
787.068	63.01
787.46	63.01
787.852	62.98
788.245	63
788.636	63.01
789.028	63.05
789.42	63.02
789.812	63.03
790.204	62.96
790.595	63.01
790.987	63.03
791.378	63.02
791.77	63.04
792.161	63.04
792.553	63.03
792.944	63.04
793.335	63.06
793.726	63.05
794.117	63.02
794.508	63.09
794.899	63.07
795.29	63.04
795.681	63.08
796.072	63.11
796.463	63.14
796.853	63.15
797.244	63.14
797.634	63.14
798.025	63.18
798.415	63.19
798.806	63.21
799.196	63.27
799.586	63.33
799.976	63.31
800.366	63.3
800.756	63.3
801.146	63.32
801.536	63.32
801.926	63.32
802.316	63.36
802.706	63.41
803.095	63.43
803.485	63.44
803.874	63.44
804.264	63.49
804.653	63.52
805.043	63.53
805.432	63.55
805.821	63.56
806.21	63.63
806.599	63.67
806.988	63.66
807.377	63.68
807.766	63.7
808.155	63.72
808.544	63.72
808.933	63.72
809.321	63.78
809.71	63.82
810.098	63.85
810.487	63.87
810.875	63.83
811.264	63.86
811.652	63.84
812.04	63.85
812.428	63.89
812.816	63.91
813.204	63.92
813.592	63.9
813.98	63.92
814.368	63.94
814.756	63.97
815.144	64.02
815.531	64.06
815.919	64.08
816.306	64.1
816.694	64.11
817.081	64.1
817.469	64.18
817.856	64.24
818.243	64.24
818.63	64.29
819.017	64.27
819.404	64.27
819.791	64.24
820.178	64.28
820.565	64.31
820.952	64.31
821.339	64.35
821.725	64.33
822.112	64.34
822.498	64.34
822.885	64.34
823.271	64.36
823.657	64.39
824.044	64.42
824.43	64.43
824.816	64.42
825.202	64.41
825.588	64.41
825.974	64.4
826.36	64.36
826.746	64.39
827.132	64.36
827.517	64.35
827.903	64.31
828.289	64.3
828.674	64.28
829.06	64.31
829.445	64.33
829.83	64.31
830.216	64.32
830.601	64.32
830.986	64.29
831.371	64.31
831.756	64.28
832.141	64.29
832.526	64.29
832.911	64.31
833.295	64.28
833.68	64.24
834.065	64.23
834.449	64.18
834.834	64.12
835.218	64.11
835.603	64.07
835.987	64.09
836.371	64.1
836.755	64.07
837.139	64.02
837.524	64.02
837.908	64.02
838.291	64.02
838.675	64.05
839.059	64.07
839.443	64.08
839.827	64.07
840.21	64.07
840.594	64.05
840.977	64.03
841.361	64.04
841.744	64.03
842.127	64.02
842.511	63.99
842.894	63.96
843.277	63.94
843.66	63.93
844.043	63.94
844.426	63.9
844.809	63.89
845.191	63.87
845.574	63.86
845.957	63.84
846.339	63.83
846.722	63.81
847.104	63.8
847.487	63.82
847.869	63.79
848.252	63.78
848.634	63.81
849.016	63.82
849.398	63.83
849.78	63.83
850.162	63.84
850.544	63.83
850.926	63.84
851.307	63.83
851.689	63.83
852.071	63.8
852.452	63.8
852.834	63.8
853.215	63.79
853.597	63.8
853.978	63.74
854.359	63.71
854.741	63.75
855.122	63.75
855.503	63.75
855.884	63.74
856.265	63.76
856.646	63.74
857.026	63.72
857.407	63.69
857.788	63.7
858.169	63.77
858.549	63.83
858.93	63.82
859.31	63.83
859.69	63.84
860.071	63.83
860.451	63.84
860.831	63.86
861.211	63.86
861.591	63.9
861.971	63.88
862.351	63.86
862.731	63.84
863.111	63.85
863.491	63.89
863.87	63.89
864.25	63.92
864.629	63.92
865.009	63.94
865.388	63.95
865.768	63.94
866.147	63.97
866.526	63.99
866.905	64
867.284	63.99
867.663	63.97
868.042	63.98
868.421	63.95
868.8	63.95
869.179	63.9
869.558	63.85
869.936	63.85
870.315	63.83
870.693	63.83
871.072	63.83
871.45	63.8
871.828	63.79
872.207	63.8
872.585	63.79
872.963	63.77
873.341	63.8
873.719	63.85
874.097	63.83
874.475	63.84
874.853	63.79
875.23	63.79
875.608	63.81
875.986	63.81
876.363	63.79
876.741	63.83
877.118	63.85
877.495	63.85
877.873	63.81
878.25	63.82
878.627	63.82
879.004	63.85
879.381	63.84
879.758	63.8
880.135	63.81
880.512	63.82
880.889	63.81
881.265	63.85
881.642	63.84
882.019	63.86
882.395	63.85
882.772	63.84
883.148	63.81
883.524	63.82
883.901	63.85
884.277	63.84
884.653	63.82
885.029	63.78
885.405	63.75
885.781	63.73
886.157	63.72
886.532	63.7
886.908	63.69
887.284	63.67
887.659	63.68
888.035	63.68
888.411	63.67
888.786	63.66
889.161	63.68
889.537	63.66
889.912	63.66
890.287	63.67
890.662	63.67
891.037	63.61
891.412	63.57
891.787	63.51
892.162	63.45
892.536	63.42
892.911	63.39
893.286	63.33
893.66	63.28
894.035	63.25
894.409	63.2
894.784	63.16
895.158	63.16
895.532	63.15
895.906	63.15
896.281	63.15
896.655	63.11
897.029	63.08
897.402	63.1
897.776	63.12
898.15	63.13
898.524	63.13
898.898	63.12
899.271	63.13
899.645	63.11
900.018	63.1
900.392	63.12
900.765	63.12
901.138	63.16
901.511	63.13
901.884	63.13
902.258	63.12
902.631	63.15
903.003	63.14
903.376	63.13
903.749	63.15
904.122	63.16
904.495	63.13
904.867	63.11
905.24	63.1
905.612	63.13
905.985	63.07
906.357	63.03
906.729	62.98
907.102	63
907.474	63
907.846	63
908.218	62.97
908.59	62.95
908.962	62.98
909.334	62.96
909.705	62.93
910.077	62.96
910.449	63.01
910.82	63
911.192	62.95
911.563	62.95
911.935	62.9
912.306	62.94
912.677	62.96
913.048	62.92
913.419	62.91
913.79	62.88
914.161	62.84
914.532	62.83
914.903	62.85
915.274	62.86
915.645	62.9
916.015	62.93
916.386	62.88
916.756	62.81
917.127	62.81
917.497	62.81
917.868	62.82
918.238	62.85
918.608	62.86
918.978	62.84
919.348	62.79
919.718	62.76
920.088	62.73
920.458	62.76
920.828	62.78
921.198	62.78
921.567	62.77
921.937	62.8
922.306	62.79
922.676	62.79
923.045	62.76
923.415	62.75
923.784	62.72
924.153	62.73
924.522	62.69
924.891	62.71
925.26	62.66
925.629	62.66
925.998	62.66
926.367	62.6
926.736	62.55
927.104	62.54
927.473	62.54
927.842	62.53
928.21	62.52
928.578	62.51
928.947	62.48
929.315	62.53
929.683	62.55
930.051	62.49
930.42	62.49
930.788	62.48
931.156	62.41
931.523	62.41
931.891	62.37
932.259	62.27
932.627	62.17
932.994	62.12
933.362	62.02
933.729	61.84
934.097	61.77
934.464	61.68
934.831	61.59
935.199	61.54
935.566	61.43
935.933	61.48
936.3	61.41
936.667	61.38
937.034	61.32
937.401	61.28
937.767	61.29
938.134	61.22
938.501	61.23
938.867	61.22
939.234	61.33
939.6	61.38
939.967	61.28
940.333	61.42
940.699	61.57
941.065	61.79
941.431	61.93
941.798	62.09
942.163	62.26
942.529	62.41
942.895	62.47
943.261	62.44
943.627	62.55
943.992	62.66
944.358	62.64
944.723	62.66
945.089	62.62
945.454	62.68
945.82	62.68
946.185	62.71
946.55	62.77
946.915	62.82
947.28	62.84
947.645	62.77
948.01	62.74
948.375	62.8
948.74	62.74
949.104	62.72
949.469	62.52
949.834	62.47
950.198	62.36
950.562	62.27
950.927	62.21
951.291	62.19
951.655	62.21
952.02	62.14
952.384	62.11
952.748	62.12
953.112	61.98
953.476	62.05
953.839	61.92
954.203	61.87
954.567	61.82
954.931	61.79
955.294	61.74
955.658	61.67
956.021	61.64
956.385	61.61
956.748	61.55
957.111	61.53
957.474	61.51
957.837	61.58
958.2	61.51
958.563	61.38
958.926	61.35
959.289	61.36
959.652	61.42
960.015	61.42
960.377	61.39
960.74	61.33
961.102	61.32
961.465	61.26
961.827	61.09
962.189	61.1
962.552	61.16
962.914	61.17
963.276	61.12
963.638	60.97
964	60.91
964.362	60.81
964.724	60.81
965.085	60.84
965.447	60.8
965.809	60.81
966.17	60.74
966.532	60.73
966.893	60.62
967.255	60.51
967.616	60.54
967.977	60.54
968.338	60.59
968.699	60.59
969.061	60.5
969.421	60.46
969.782	60.52
970.143	60.59
970.504	60.5
970.865	60.43
971.225	60.46
971.586	60.41
971.946	60.4
972.307	60.31
972.667	60.32
973.027	60.34
973.388	60.32
973.748	60.3
974.108	60.28
974.468	60.38
974.828	60.45
975.188	60.53
975.548	60.59
975.907	60.6
976.267	60.65
976.627	60.56
976.986	60.58
977.346	60.56
977.705	60.58
978.064	60.55
978.424	60.49
978.783	60.5
979.142	60.41
979.501	60.33
979.86	60.33
980.219	60.26
980.578	60.31
980.937	60.37
981.296	60.46
981.654	60.51
982.013	60.55
982.371	60.49
982.73	60.41
983.088	60.42
983.447	60.43
983.805	60.37
984.163	60.46
984.521	60.39
984.879	60.29
985.237	60.21
985.595	60.17
985.953	60.06
986.311	60.15
986.669	60.27
987.026	60.23
987.384	60.17
987.741	60.27
988.099	60.15
988.456	60.18
988.814	60.24
989.171	60.12
989.528	60.02
989.885	60.07
990.242	60.1
990.599	60.1
990.956	60.15
991.313	60.27
991.67	60.19
992.027	60.18
992.383	60.27
992.74	60.2
993.096	60.32
993.453	60.29
993.809	60.28
994.165	60.32
994.522	60.23
994.878	60.24
995.234	60.13
995.59	60.17
995.946	60.29
996.302	60.11
996.658	60.14
997.013	60.26
997.369	60.41
997.725	60.57
998.08	60.45
998.436	60.55
998.791	60.51
999.147	60.51
999.502	60.5
999.857	60.46
1000.212	60.54
1000.567	60.59
1000.922	60.48
1001.277	60.48
1001.632	60.33
1001.987	60.31
1002.342	60.32
1002.696	60.49
1003.051	60.54
1003.406	60.44
1003.76	60.44
1004.114	60.46
1004.469	60.35
1004.823	60.52
1005.177	60.5
1005.531	60.37
1005.885	60.54
1006.239	60.58
1006.593	60.38
1006.947	60.34
1007.301	60.37
1007.655	60.37
1008.008	60.24
1008.362	60.19
1008.715	60.16
1009.069	60.14
1009.422	60.23
1009.776	60.22
1010.129	59.99
1010.482	60.17
1010.835	60.27
1011.188	60.27
1011.541	60.18
1011.894	60.22
1012.247	60.33
1012.6	60.23
1012.952	60.32
1013.305	60.28
1013.657	60.07
1014.01	60.28
1014.362	60.15
1014.715	60.04
1015.067	60.13
1015.419	60.24
1015.771	60.34
1016.123	60.26
1016.475	60.43
1016.827	60.4
1017.179	60.8
1017.531	60.84
1017.883	60.95
1018.234	60.92
1018.586	61.08
1018.938	60.95
1019.289	60.76
1019.64	60.84
1019.992	60.93
1020.343	60.68
1020.694	60.4
1021.045	60.33
1021.396	60.42
1021.747	60.19
1022.098	60.27
1022.449	60.17
1022.8	60.44
1023.151	60.54
1023.501	60.65
1023.852	61.01
1024.202	61.27
1024.553	61.55
1024.903	61.41
1025.253	61.62
1025.604	61.67
1025.954	61.54
1026.304	62.21
1026.654	62.26
1027.004	62.62
1027.354	62.64
1027.703	62.31
1028.053	61.93
1028.403	61.62
1028.753	61.93
1029.102	61.46
1029.452	61.21
1029.801	60.99
1030.15	60.38
1030.499	60.08
897.758	529.53
901.051	540.64
904.343	543.47
907.636	533.41
910.928	525.98
914.22	530.73
917.511	520.5
920.803	497.21
924.094	476.98
927.384	484.54
930.675	470.78
933.965	465.33
937.255	465.66
940.544	445.04
943.834	426.24
947.123	419.71
950.411	400.66
953.7	394.88
956.988	383.41
960.276	368.7
963.563	363.25
966.851	344.51
970.138	337.27
973.424	313.63
976.711	313.76
979.997	302.62
983.283	295.32
986.568	287.02
989.853	278.81
993.138	269.08
996.423	265.39
999.708	258.79
1002.992	259.46
1006.275	251
1009.559	249.89
1012.842	241.43
1016.125	236.19
1019.408	232.04
1022.69	230.16
1025.972	226.88
1029.254	222.39
1032.536	218.22
1035.817	210.88
1039.098	207.64
1042.379	205.62
1045.659	202.45
1048.939	200.7
1052.219	197.26
1055.498	193.95
1058.778	190.66
1062.057	188.51
1065.335	187.56
1068.614	184.39
1071.892	182.67
1075.17	179.21
1078.447	176.73
1081.724	175.84
1085.001	171.44
1088.278	171.34
1091.554	170.18
1094.83	169.31
1098.106	166.46
1101.382	166
1104.657	165.85
1107.932	165.14
1111.206	164.36
1114.481	163.48
1117.755	161.94
1121.029	162.57
1124.302	160.08
1127.575	158.17
1130.848	157.34
1134.121	155.83
1137.393	154.57
1140.665	153.62
1143.937	152.72
1147.208	151.26
1150.48	149.25
1153.75	148.15
1157.021	146.33
1160.291	145.85
1163.561	145.86
1166.831	145.32
1170.101	144.94
1173.37	143.76
1176.639	142.54
1179.907	141.85
1183.176	141.3
1186.444	141.66
1189.711	140.91
1192.979	142.22
1196.246	141.95
1199.513	142.18
1202.78	141.09
1206.046	141.14
1209.312	142.69
1212.578	143.23
1215.843	145.7
1219.108	145.64
1222.373	147.38
1225.638	149.87
1228.902	152.07
1232.166	158.13
1235.43	158.71
1238.693	163.15
1241.956	166.93
1245.219	169.62
1248.482	171.9
1251.744	170.55
1255.006	172.16
1258.268	168.42
1261.529	167.1
1264.79	163.17
1268.051	158.84
1271.312	158.37
1274.572	155.44
1277.832	152.22
1281.092	149.2
1284.351	145.59
1287.61	145.7
1290.869	145.73
1294.128	145.12
1297.386	144.37
1300.644	143.74
1303.902	142.76
1307.159	141.67
1310.416	142.99
1313.673	143.81
1316.93	146.38
1320.186	149.17
1323.442	150.41
1326.697	151.85
1329.953	153.01
1333.208	157.28
1336.463	163.86
1339.717	166.83
1342.972	175.47
1346.226	178.15
1349.479	179.91
1352.733	186.31
1355.986	188.52
1359.238	191.86
1362.491	193.18
1365.743	199.77
1368.995	200.5
1372.247	201.58
1375.498	200.62
1378.749	204.04
1382	204.82
1385.251	202.99
1388.501	203.03
1391.751	205.16
1395	203.96
1398.25	205.82
1401.499	204.33
1404.748	204.25
1407.996	195.4
1411.244	196.35
1414.492	192.99
1417.74	187.72
1420.987	183.94
1424.234	180.13
1427.481	173.27
1430.728	168.74
1433.974	162.26
1437.22	157.01
1440.465	152.26
1443.711	149.23
1446.956	143.68
1450.201	138.31
1453.445	132.12
1456.689	128.86
1459.933	123.96
1463.177	119.26
1466.42	117.09
1469.663	114.3
1472.906	111.3
1476.148	107.78
1479.391	105.56
1482.633	104.05
1485.874	102.4
1489.115	101.79
1492.356	100.15
1495.597	98.76
1498.838	99.04
1502.078	97.91
1505.318	97.69
1508.557	96.92
1511.797	96.5
1515.036	96.44
1518.274	96.44
1521.513	95.67
1524.751	94.96
1527.989	95.84
1531.227	96.1
1534.464	95.76
1537.701	95.2
1540.938	94.77
1544.174	95.03
1547.41	95.77
1550.646	95.38
1553.882	95.68
1557.117	95.4
1560.352	95.68
1563.587	94.86
1566.821	94.74
1570.055	94.42
1573.289	94.64
1576.523	94.55
1579.756	94.83
1582.989	94.36
1586.222	94.74
1589.454	94.34
1592.686	94.77
1595.918	94.49
1599.15	94.82
1602.381	95.19
1605.612	95
1608.843	94.83
1612.073	95.2
1615.303	95.33
1618.533	95.21
1621.762	95.55
1624.992	95.53
1628.221	95.46
1631.449	95.91
1634.678	95.89
1637.906	95.68
1641.134	96.22
1644.361	96.46
1647.588	96.73
1650.815	96.62
1654.042	96.56
1657.269	96.09
1660.495	96.48
1663.72	96.17
1666.946	96.33
1670.171	96.51
1673.396	97.36
1676.621	97.18
1679.845	97.68
1683.069	97.71
1686.293	97.33
1689.517	97.48
1692.74	97.58
1695.963	97.89
1699.185	98.59
1702.408	97.82
1705.63	98.32
1708.852	98.7
1712.073	98.9
1715.294	98.74
1718.515	98.42
1721.736	99.19
1724.956	99.3
1728.176	99.4
1731.396	99.61
1734.616	99.67
1737.835	100.44
1741.054	99.32
1744.272	99.16
1747.491	98.82
1750.709	99.4
1753.927	99.76
1757.144	99.69
1760.361	99.79
1763.578	100.41
1766.795	100.55
1770.011	100.41
1773.227	100.54
1776.443	102.09
1779.658	101.22
1782.874	102.17
1786.089	101.36
1789.303	101.58
1792.518	102.33
1795.732	103.16
1798.945	103.34
1802.159	103.3
1805.372	104.51
1808.585	105.7
1811.797	105.9
1815.01	107
1818.222	107.2
1821.434	109.03
1824.645	109.24
1827.856	110.06
1831.067	110.64
1834.278	111.98
1837.488	112.54
1840.698	113.66
1843.908	113.64
1847.117	114.7
1850.326	115.73
1853.535	116.65
1856.744	116.69
1859.952	117.97
1863.16	118.02
1866.368	116.48
1869.575	116.43
1872.782	116.55
1875.989	113.66
1879.196	113.64
1882.402	111.31
1885.608	111.41
1888.814	110.22
1892.019	111.63
1895.224	109.73
1898.429	108.74
1901.634	109.64
1904.838	110.24
1908.042	111.27
1911.246	111.03
1914.449	111.23
1917.652	111.57
1920.855	111.99
1924.058	111.13
1927.26	109.57
1930.462	110.16
1933.664	111.93
1936.865	111.4
1940.066	109.22
1943.267	106.97
1946.467	109.41
1949.668	108.96
1952.868	110.27
1956.067	109.54
1959.267	110.25
1962.466	110.62
1965.665	112.39
1968.863	111.05
1972.061	113.06
1975.259	115.08
1978.457	117.86
1981.654	118.2
1984.852	119.1
1988.048	119.83
1991.245	121.86
1994.441	124.56
1997.637	127.36
2000.833	129.66
2004.028	131.52
2007.223	134.11
2010.418	136.62
2013.613	141.8
2016.807	145.02
2020.001	147.78
2023.194	152.15
2026.388	156.63
2029.581	164.69
2032.774	169.74
2035.966	174.72
2039.158	180.98
2042.35	184.27
2045.542	187.44
2048.733	194.18
2051.924	196.8
2055.115	201.08
2058.306	203.23
2061.496	206.65
2064.686	206.08
2067.875	204.85
2071.065	206.07
2074.254	206.58
2077.442	212.51
2080.631	216.39
2083.819	215.98
2087.007	221.51
2090.195	225.42
2093.382	224.16
2096.569	226.01
2099.756	229.07
2102.942	233.66
2106.128	238.47
2109.314	240.78
2112.5	241.65
2115.685	239.41
2118.87	239.93
2122.055	241.3
2125.239	245.67
2128.424	253.81
2131.608	251.32
2134.791	251.51
2137.974	254.55
2141.157	256.32
2144.34	257.67
2147.523	262.72
2150.705	270.2
2153.887	265.9
2157.068	267.65
2160.25	269.38
2163.431	268.78
2166.611	272
2169.792	275.97
2172.972	277.48
2176.152	278.74
2179.331	284.46
2182.511	283.28
2185.69	286.6
2188.868	300.82
2192.047	306.88
2195.225	311.47
2198.403	313.34
2201.58	311.18
2204.758	323.92
2207.935	325.35
2211.111	332.1
2214.288	334.6
2217.464	337.35
2220.64	340.32
2223.815	339.61
2226.991	335.79
2230.166	337.42
2233.34	349.9
2236.515	361.25
2239.689	353.22
2242.863	361
2246.036	358.5
2249.209	365.89
2252.382	364.17
2255.555	373.31
2258.727	375.95
2261.9	389.9
2265.071	396.05
2268.243	392.78
2271.414	403.16
2274.585	414.55
2277.756	411.75
2280.926	427.15
2284.096	433.46
2287.266	438.35
2290.436	429.09
2293.605	440.83
2296.774	455.6
2299.942	455.7
2303.111	466.09
2306.279	473.48
2309.447	472.51
2312.614	475.65
2315.781	485
2318.948	485.02
2322.115	494.4
2325.281	521.61
2328.447	513.66
2331.613	512.51
2334.779	517.21
2337.944	529.77
2341.109	539.93
2344.274	546.08
2347.438	559.29
2350.602	567.94
2353.766	606.05
2356.929	608.12
2360.092	615.64
2363.255	622.14
2366.418	631.35
2369.58	646.11
2372.742	644.09
2375.904	642.47
2379.066	662.91
2382.227	702.61
2385.388	704.45
2388.548	662.83
2391.709	658
2394.869	686.05
2398.029	680.67
2401.188	684.6
2404.347	702.1
2407.506	725.41
2410.665	697.56
2413.823	698.05
2416.981	696.81
2420.139	665.72
2423.296	725.62
2426.453	768.49
2429.61	727.01
2432.767	780.85
2435.923	803.99
2439.079	785.3
2442.235	796
2445.391	820.98
2448.546	812.72
2451.701	857.65
2454.855	908.06
2458.009	799.14
2461.163	815.65
2464.317	828.92
2467.471	814.98
2470.624	838.14
2473.777	820.44
2476.929	800.94
2480.082	849.35
2483.234	891.38
2486.385	905.3
2489.537	926.97
2492.688	1026.51
2495.839	1008.62
2498.989	1040.93
2502.14	1040.34
2505.29	1002.86
2508.439	1097.24
2511.589	1124.17
2514.738	1091.08
2517.887	1082.01
2521.035	1018.85
2524.183	1002.26
2527.331	989.95
2530.479	965.08
2533.627	982.47
