Data from N_3_ofc_ct_2n_Splice17_05.txt Node
Date: Sat Feb 29 14:47:15 EST 2020
User: sa697716
Spectrometer: FLMS03696
Trigger mode: 0
Integration Time (sec): 3.180400E-1
Scans to average: 20
Electric dark correction enabled: true
Nonlinearity correction enabled: true
Boxcar width: 5
XAxis mode: Wavelengths
Number of Pixels in Spectrum: 2048
>>>>>Begin Spectral Data<<<<<
187.83	58.04
188.298	53.19
188.766	54.39
189.233	50.16
189.701	63.1
190.169	66.71
190.636	62.46
191.104	50.13
191.571	35.66
192.039	83.65
192.506	-215.43
192.974	2594.9
193.441	149.98
193.908	68.96
194.375	100.75
194.842	189.03
195.31	109.97
195.777	78.75
196.244	43.79
196.711	32.22
197.177	31.54
197.644	32.15
198.111	30.16
198.578	30.99
199.045	31.26
199.511	31.51
199.978	32.18
200.445	32.22
200.911	32.62
201.378	32.42
201.844	33
202.31	33.54
202.777	33.9
203.243	34.94
203.709	35.22
204.176	34.97
204.642	35.06
205.108	35.07
205.574	35.64
206.04	35.87
206.506	36.3
206.972	36.2
207.438	35.57
207.903	35.6
208.369	35.12
208.835	34.85
209.301	34.93
209.766	34.68
210.232	34.25
210.697	34
211.163	33.46
211.628	33.28
212.094	33.12
212.559	32.88
213.024	32.47
213.49	32.12
213.955	31.93
214.42	31.29
214.885	30.76
215.35	30.25
215.815	29.05
216.28	28.14
216.745	26.88
217.21	25.69
217.675	24.72
218.14	23.56
218.604	22.58
219.069	21.77
219.534	21.02
219.998	20.37
220.463	19.89
220.927	19.41
221.392	18.92
221.856	18.51
222.32	18.17
222.785	17.81
223.249	17.56
223.713	17.31
224.177	17.03
224.642	16.81
225.106	16.53
225.57	16.25
226.034	16.04
226.497	15.84
226.961	15.6
227.425	15.36
227.889	15.18
228.353	14.95
228.816	14.75
229.28	14.51
229.744	14.3
230.207	14.14
230.671	13.93
231.134	13.75
231.597	13.53
232.061	13.36
232.524	13.21
232.987	13.03
233.45	12.86
233.914	12.7
234.377	12.54
234.84	12.39
235.303	12.23
235.766	12.08
236.229	11.93
236.691	11.83
237.154	11.7
237.617	11.57
238.08	11.44
238.542	11.32
239.005	11.2
239.468	11.09
239.93	10.99
240.393	10.87
240.855	10.76
241.317	10.66
241.78	10.55
242.242	10.44
242.704	10.33
243.166	10.23
243.629	10.12
244.091	10.04
244.553	9.95
245.015	9.86
245.477	9.77
245.939	9.69
246.4	9.59
246.862	9.5
247.324	9.43
247.786	9.36
248.247	9.29
248.709	9.21
249.17	9.13
249.632	9.03
250.093	8.94
250.555	8.88
251.016	8.81
251.477	8.74
251.939	8.67
252.4	8.6
252.861	8.54
253.322	8.47
253.783	8.42
254.244	8.36
254.705	8.32
255.166	8.28
255.627	8.23
256.088	8.16
256.549	8.12
257.009	8.07
257.47	8.02
257.931	7.97
258.391	7.91
258.852	7.85
259.312	7.81
259.773	7.76
260.233	7.7
260.694	7.65
261.154	7.6
261.614	7.56
262.074	7.51
262.534	7.46
262.994	7.42
263.455	7.39
263.915	7.34
264.374	7.29
264.834	7.25
265.294	7.22
265.754	7.18
266.214	7.15
266.673	7.12
267.133	7.08
267.593	7.05
268.052	7.01
268.512	6.98
268.971	6.96
269.431	6.94
269.89	6.91
270.349	6.89
270.809	6.85
271.268	6.83
271.727	6.81
272.186	6.79
272.645	6.77
273.104	6.75
273.563	6.73
274.022	6.7
274.481	6.67
274.94	6.65
275.399	6.62
275.857	6.6
276.316	6.57
276.775	6.54
277.233	6.51
277.692	6.48
278.15	6.45
278.609	6.41
279.067	6.38
279.525	6.35
279.984	6.32
280.442	6.3
280.9	6.27
281.358	6.25
281.816	6.23
282.274	6.2
282.732	6.19
283.19	6.17
283.648	6.17
284.106	6.15
284.564	6.15
285.021	6.14
285.479	6.12
285.937	6.11
286.394	6.09
286.852	6.08
287.309	6.07
287.767	6.05
288.224	6.02
288.682	6
289.139	5.98
289.596	5.95
290.053	5.91
290.511	5.88
290.968	5.84
291.425	5.82
291.882	5.79
292.339	5.76
292.796	5.74
293.252	5.71
293.709	5.69
294.166	5.66
294.623	5.65
295.079	5.64
295.536	5.63
295.992	5.61
296.449	5.6
296.905	5.59
297.362	5.57
297.818	5.55
298.274	5.54
298.731	5.53
299.187	5.51
299.643	5.5
300.099	5.49
300.555	5.46
301.011	5.46
301.467	5.44
301.923	5.43
302.379	5.42
302.835	5.41
303.291	5.39
303.746	5.37
304.202	5.36
304.658	5.34
305.113	5.33
305.569	5.33
306.024	5.31
306.479	5.3
306.935	5.28
307.39	5.28
307.845	5.27
308.301	5.27
308.756	5.27
309.211	5.27
309.666	5.26
310.121	5.24
310.576	5.23
311.031	5.23
311.486	5.23
311.94	5.23
312.395	5.21
312.85	5.21
313.305	5.2
313.759	5.18
314.214	5.18
314.668	5.17
315.123	5.17
315.577	5.16
316.032	5.14
316.486	5.13
316.94	5.12
317.394	5.11
317.849	5.1
318.303	5.08
318.757	5.07
319.211	5.04
319.665	5.03
320.119	5.01
320.572	5
321.026	4.98
321.48	4.97
321.934	4.96
322.387	4.95
322.841	4.93
323.295	4.92
323.748	4.91
324.202	4.91
324.655	4.91
325.108	4.9
325.562	4.88
326.015	4.87
326.468	4.85
326.921	4.83
327.374	4.83
327.827	4.81
328.28	4.8
328.733	4.78
329.186	4.77
329.639	4.76
330.092	4.75
330.545	4.76
330.997	4.76
331.45	4.75
331.903	4.75
332.355	4.75
332.808	4.76
333.26	4.76
333.713	4.76
334.165	4.75
334.617	4.76
335.069	4.76
335.522	4.76
335.974	4.75
336.426	4.76
336.878	4.75
337.33	4.76
337.782	4.76
338.234	4.76
338.686	4.75
339.137	4.76
339.589	4.75
340.041	4.74
340.493	4.72
340.944	4.71
341.396	4.72
341.847	4.7
342.299	4.67
342.75	4.65
343.201	4.62
343.653	4.61
344.104	4.59
344.555	4.58
345.006	4.56
345.457	4.55
345.908	4.54
346.359	4.53
346.81	4.53
347.261	4.52
347.712	4.52
348.163	4.52
348.613	4.5
349.064	4.48
349.515	4.47
349.965	4.46
350.416	4.46
350.866	4.46
351.317	4.45
351.767	4.43
352.217	4.43
352.668	4.44
353.118	4.43
353.568	4.44
354.018	4.45
354.468	4.45
354.918	4.47
355.368	4.47
355.818	4.46
356.268	4.47
356.718	4.48
357.168	4.47
357.617	4.47
358.067	4.46
358.517	4.44
358.966	4.44
359.416	4.45
359.865	4.44
360.315	4.43
360.764	4.44
361.213	4.43
361.663	4.43
362.112	4.43
362.561	4.43
363.01	4.44
363.459	4.43
363.908	4.43
364.357	4.42
364.806	4.41
365.255	4.41
365.703	4.4
366.152	4.39
366.601	4.39
367.05	4.39
367.498	4.38
367.947	4.37
368.395	4.39
368.844	4.39
369.292	4.38
369.74	4.4
370.189	4.4
370.637	4.4
371.085	4.42
371.533	4.43
371.981	4.44
372.429	4.44
372.877	4.45
373.325	4.45
373.773	4.45
374.221	4.46
374.669	4.47
375.116	4.47
375.564	4.48
376.012	4.49
376.459	4.5
376.907	4.52
377.354	4.52
377.801	4.54
378.249	4.56
378.696	4.58
379.143	4.6
379.591	4.63
380.038	4.65
380.485	4.68
380.932	4.69
381.379	4.71
381.826	4.74
382.273	4.77
382.72	4.78
383.166	4.8
383.613	4.81
384.06	4.84
384.506	4.85
384.953	4.87
385.4	4.88
385.846	4.91
386.292	4.93
386.739	4.95
387.185	4.98
387.631	5.01
388.078	5.02
388.524	5.04
388.97	5.05
389.416	5.06
389.862	5.07
390.308	5.09
390.754	5.11
391.2	5.13
391.645	5.16
392.091	5.18
392.537	5.21
392.983	5.25
393.428	5.28
393.874	5.32
394.319	5.36
394.765	5.38
395.21	5.39
395.655	5.43
396.101	5.45
396.546	5.45
396.991	5.47
397.436	5.46
397.881	5.47
398.326	5.5
398.771	5.52
399.216	5.53
399.661	5.57
400.106	5.6
400.551	5.59
400.995	5.6
401.44	5.6
401.885	5.62
402.329	5.63
402.774	5.62
403.218	5.61
403.663	5.6
404.107	5.61
404.551	5.61
404.995	5.61
405.44	5.62
405.884	5.61
406.328	5.63
406.772	5.63
407.216	5.65
407.66	5.66
408.104	5.65
408.547	5.67
408.991	5.66
409.435	5.65
409.879	5.65
410.322	5.67
410.766	5.68
411.209	5.68
411.653	5.67
412.096	5.67
412.54	5.67
412.983	5.68
413.426	5.69
413.869	5.7
414.312	5.73
414.756	5.75
415.199	5.76
415.642	5.78
416.085	5.8
416.527	5.82
416.97	5.84
417.413	5.83
417.856	5.82
418.298	5.81
418.741	5.8
419.184	5.79
419.626	5.78
420.069	5.76
420.511	5.74
420.953	5.73
421.396	5.71
421.838	5.73
422.28	5.75
422.722	5.78
423.164	5.79
423.606	5.8
424.048	5.79
424.49	5.8
424.932	5.79
425.374	5.79
425.816	5.78
426.258	5.76
426.699	5.73
427.141	5.69
427.582	5.65
428.024	5.66
428.465	5.66
428.907	5.68
429.348	5.67
429.789	5.68
430.231	5.68
430.672	5.69
431.113	5.72
431.554	5.74
431.995	5.74
432.436	5.75
432.877	5.74
433.318	5.74
433.759	5.74
434.2	5.74
434.64	5.76
435.081	5.77
435.522	5.77
435.962	5.78
436.403	5.8
436.843	5.83
437.284	5.85
437.724	5.87
438.164	5.87
438.604	5.89
439.045	5.88
439.485	5.88
439.925	5.88
440.365	5.89
440.805	5.87
441.245	5.86
441.685	5.87
442.125	5.88
442.564	5.9
443.004	5.91
443.444	5.94
443.883	5.98
444.323	5.99
444.762	6.03
445.202	6.08
445.641	6.11
446.081	6.16
446.52	6.16
446.959	6.2
447.398	6.24
447.837	6.3
448.276	6.3
448.716	6.32
449.154	6.35
449.593	6.38
450.032	6.39
450.471	6.41
450.91	6.42
451.349	6.44
451.787	6.43
452.226	6.43
452.664	6.4
453.103	6.39
453.541	6.4
453.98	6.39
454.418	6.38
454.856	6.36
455.295	6.36
455.733	6.35
456.171	6.32
456.609	6.34
457.047	6.33
457.485	6.32
457.923	6.33
458.361	6.32
458.798	6.32
459.236	6.31
459.674	6.3
460.111	6.28
460.549	6.28
460.987	6.29
461.424	6.28
461.862	6.29
462.299	6.28
462.736	6.27
463.173	6.27
463.611	6.26
464.048	6.27
464.485	6.26
464.922	6.27
465.359	6.3
465.796	6.29
466.233	6.28
466.67	6.27
467.106	6.28
467.543	6.29
467.98	6.29
468.416	6.31
468.853	6.3
469.29	6.31
469.726	6.31
470.162	6.3
470.599	6.31
471.035	6.32
471.471	6.32
471.907	6.31
472.344	6.32
472.78	6.31
473.216	6.3
473.652	6.31
474.088	6.32
474.523	6.32
474.959	6.32
475.395	6.32
475.831	6.32
476.266	6.33
476.702	6.33
477.138	6.33
477.573	6.33
478.008	6.34
478.444	6.33
478.879	6.31
479.314	6.3
479.75	6.29
480.185	6.29
480.62	6.28
481.055	6.27
481.49	6.28
481.925	6.27
482.36	6.25
482.795	6.24
483.229	6.23
483.664	6.24
484.099	6.24
484.534	6.25
484.968	6.24
485.403	6.24
485.837	6.24
486.271	6.23
486.706	6.24
487.14	6.27
487.574	6.28
488.009	6.29
488.443	6.31
488.877	6.32
489.311	6.35
489.745	6.37
490.179	6.39
490.613	6.41
491.046	6.44
491.48	6.48
491.914	6.5
492.348	6.54
492.781	6.58
493.215	6.61
493.648	6.67
494.082	6.72
494.515	6.78
494.948	6.84
495.382	6.9
495.815	6.97
496.248	7.03
496.681	7.11
497.114	7.18
497.547	7.26
497.98	7.34
498.413	7.43
498.846	7.52
499.279	7.62
499.711	7.72
500.144	7.81
500.577	7.92
501.009	8.05
501.442	8.17
501.874	8.31
502.306	8.44
502.739	8.58
503.171	8.73
503.603	8.87
504.036	9.03
504.468	9.21
504.9	9.4
505.332	9.59
505.764	9.79
506.196	9.99
506.627	10.2
507.059	10.42
507.491	10.65
507.923	10.88
508.354	11.13
508.786	11.38
509.217	11.63
509.649	11.9
510.08	12.17
510.512	12.44
510.943	12.74
511.374	13.04
511.805	13.35
512.237	13.67
512.668	13.99
513.099	14.33
513.53	14.67
513.961	15.03
514.391	15.37
514.822	15.73
515.253	16.1
515.684	16.47
516.114	16.84
516.545	17.2
516.975	17.58
517.406	17.96
517.836	18.33
518.267	18.7
518.697	19.1
519.127	19.5
519.558	19.87
519.988	20.25
520.418	20.62
520.848	20.98
521.278	21.35
521.708	21.7
522.138	22.05
522.567	22.41
522.997	22.75
523.427	23.06
523.857	23.36
524.286	23.7
524.716	24.01
525.145	24.31
525.575	24.61
526.004	24.9
526.433	25.19
526.863	25.47
527.292	25.72
527.721	25.97
528.15	26.23
528.579	26.47
529.008	26.68
529.437	26.9
529.866	27.1
530.295	27.29
530.724	27.49
531.152	27.67
531.581	27.83
532.01	27.99
532.438	28.15
532.867	28.3
533.295	28.43
533.723	28.57
534.152	28.69
534.58	28.81
535.008	28.89
535.436	28.96
535.865	29.03
536.293	29.11
536.721	29.18
537.149	29.24
537.576	29.3
538.004	29.35
538.432	29.39
538.86	29.43
539.287	29.46
539.715	29.52
540.143	29.55
540.57	29.61
540.998	29.67
541.425	29.72
541.852	29.74
542.28	29.76
542.707	29.8
543.134	29.84
543.561	29.87
543.988	29.9
544.415	29.94
544.842	29.97
545.269	29.99
545.696	30
546.123	30.03
546.549	30.06
546.976	30.11
547.403	30.12
547.829	30.15
548.256	30.16
548.682	30.18
549.108	30.2
549.535	30.23
549.961	30.23
550.387	30.24
550.813	30.23
551.24	30.24
551.666	30.24
552.092	30.22
552.518	30.22
552.943	30.22
553.369	30.21
553.795	30.19
554.221	30.16
554.646	30.12
555.072	30.09
555.498	30.03
555.923	29.96
556.349	29.89
556.774	29.81
557.199	29.73
557.625	29.63
558.05	29.53
558.475	29.4
558.9	29.28
559.325	29.16
559.75	29.02
560.175	28.9
560.6	28.75
561.025	28.6
561.449	28.46
561.874	28.3
562.299	28.15
562.723	27.97
563.148	27.8
563.572	27.64
563.997	27.47
564.421	27.27
564.846	27.07
565.27	26.87
565.694	26.65
566.118	26.44
566.542	26.21
566.966	25.98
567.39	25.77
567.814	25.54
568.238	25.29
568.662	25.07
569.086	24.84
569.509	24.61
569.933	24.38
570.357	24.13
570.78	23.91
571.204	23.69
571.627	23.46
572.05	23.25
572.474	23.04
572.897	22.85
573.32	22.65
573.743	22.44
574.166	22.25
574.589	22.07
575.012	21.92
575.435	21.73
575.858	21.59
576.281	21.44
576.704	21.28
577.126	21.16
577.549	21.02
577.972	20.89
578.394	20.75
578.817	20.61
579.239	20.49
579.661	20.37
580.084	20.26
580.506	20.15
580.928	20.02
581.35	19.91
581.772	19.8
582.194	19.68
582.616	19.57
583.038	19.48
583.46	19.39
583.882	19.31
584.303	19.23
584.725	19.13
585.147	19.01
585.568	18.92
585.99	18.82
586.411	18.75
586.833	18.66
587.254	18.6
587.675	18.52
588.096	18.47
588.518	18.39
588.939	18.32
589.36	18.23
589.781	18.21
590.202	18.15
590.623	18.1
591.043	18.04
591.464	17.98
591.885	17.94
592.305	17.89
592.726	17.84
593.147	17.81
593.567	17.77
593.987	17.75
594.408	17.69
594.828	17.65
595.248	17.62
595.669	17.58
596.089	17.54
596.509	17.5
596.929	17.46
597.349	17.4
597.769	17.35
598.189	17.31
598.608	17.26
599.028	17.22
599.448	17.18
599.867	17.13
600.287	17.09
600.706	17.05
601.126	16.97
601.545	16.91
601.965	16.85
602.384	16.79
602.803	16.71
603.222	16.63
603.641	16.55
604.061	16.47
604.48	16.38
604.898	16.29
605.317	16.19
605.736	16.09
606.155	15.99
606.574	15.89
606.992	15.77
607.411	15.67
607.829	15.53
608.248	15.44
608.666	15.33
609.085	15.21
609.503	15.11
609.921	15
610.339	14.91
610.758	14.81
611.176	14.72
611.594	14.63
612.012	14.53
612.43	14.47
612.847	14.38
613.265	14.28
613.683	14.19
614.101	14.09
614.518	13.99
614.936	13.91
615.353	13.82
615.771	13.74
616.188	13.66
616.606	13.58
617.023	13.5
617.44	13.42
617.857	13.35
618.274	13.28
618.691	13.24
619.108	13.2
619.525	13.14
619.942	13.08
620.359	13.04
620.776	13
621.192	12.97
621.609	12.93
622.026	12.89
622.442	12.86
622.859	12.84
623.275	12.82
623.691	12.78
624.108	12.75
624.524	12.74
624.94	12.72
625.356	12.69
625.772	12.68
626.188	12.66
626.604	12.63
627.02	12.63
627.436	12.6
627.852	12.57
628.268	12.56
628.683	12.55
629.099	12.53
629.514	12.49
629.93	12.47
630.345	12.42
630.761	12.38
631.176	12.36
631.591	12.32
632.007	12.26
632.422	12.22
632.837	12.15
633.252	12.09
633.667	12
634.082	11.93
634.497	11.84
634.911	11.76
635.326	11.66
635.741	11.56
636.155	11.44
636.57	11.34
636.984	11.23
637.399	11.11
637.813	10.98
638.228	10.87
638.642	10.76
639.056	10.63
639.47	10.51
639.884	10.38
640.298	10.26
640.712	10.14
641.126	10.01
641.54	9.89
641.954	9.77
642.368	9.65
642.781	9.52
643.195	9.38
643.609	9.27
644.022	9.17
644.436	9.05
644.849	8.95
645.262	8.87
645.676	8.77
646.089	8.68
646.502	8.59
646.915	8.52
647.328	8.45
647.741	8.39
648.154	8.34
648.567	8.29
648.98	8.25
649.393	8.19
649.805	8.14
650.218	8.1
650.631	8.06
651.043	8.02
651.456	7.99
651.868	7.94
652.28	7.91
652.693	7.84
653.105	7.8
653.517	7.75
653.929	7.71
654.341	7.68
654.753	7.62
655.165	7.56
655.577	7.49
655.989	7.42
656.401	7.35
656.813	7.28
657.224	7.23
657.636	7.15
658.047	7.07
658.459	6.99
658.87	6.9
659.282	6.84
659.693	6.76
660.104	6.69
660.515	6.62
660.926	6.56
661.338	6.5
661.749	6.43
662.159	6.37
662.57	6.32
662.981	6.28
663.392	6.23
663.803	6.17
664.213	6.15
664.624	6.12
665.035	6.1
665.445	6.07
665.855	6.05
666.266	6.03
666.676	6.02
667.086	6
667.497	5.98
667.907	5.97
668.317	5.96
668.727	5.93
669.137	5.92
669.547	5.91
669.956	5.91
670.366	5.92
670.776	5.93
671.186	5.94
671.595	5.96
672.005	5.98
672.414	6
672.824	6.03
673.233	6.07
673.642	6.1
674.052	6.13
674.461	6.15
674.87	6.16
675.279	6.2
675.688	6.22
676.097	6.26
676.506	6.29
676.915	6.31
677.323	6.36
677.732	6.42
678.141	6.48
678.549	6.54
678.958	6.61
679.366	6.67
679.775	6.74
680.183	6.82
680.592	6.9
681	6.98
681.408	7.07
681.816	7.15
682.224	7.23
682.632	7.34
683.04	7.45
683.448	7.57
683.856	7.71
684.264	7.86
684.671	8.04
685.079	8.22
685.487	8.43
685.894	8.67
686.302	8.92
686.709	9.22
687.116	9.52
687.524	9.86
687.931	10.22
688.338	10.64
688.745	11.08
689.152	11.55
689.559	12.04
689.966	12.57
690.373	13.14
690.78	13.72
691.187	14.34
691.593	14.98
692	15.65
692.407	16.34
692.813	17.04
693.22	17.76
693.626	18.51
694.032	19.27
694.439	20.03
694.845	20.78
695.251	21.58
695.657	22.36
696.063	23.15
696.469	23.97
696.875	24.76
697.281	25.53
697.687	26.31
698.093	27.07
698.498	27.86
698.904	28.65
699.31	29.4
699.715	30.17
700.12	30.94
700.526	31.68
700.931	32.39
701.337	33.12
701.742	33.84
702.147	34.57
702.552	35.31
702.957	35.99
703.362	36.68
703.767	37.36
704.172	38.01
704.577	38.68
704.981	39.33
705.386	39.99
705.791	40.64
706.195	41.27
706.6	41.87
707.004	42.49
707.408	43.12
707.813	43.72
708.217	44.33
708.621	44.94
709.025	45.49
709.43	46.07
709.834	46.65
710.237	47.2
710.641	47.78
711.045	48.35
711.449	48.88
711.853	49.41
712.256	49.95
712.66	50.47
713.064	50.97
713.467	51.49
713.87	51.98
714.274	52.47
714.677	52.95
715.08	53.42
715.484	53.9
715.887	54.38
716.29	54.81
716.693	55.23
717.096	55.69
717.499	56.13
717.901	56.56
718.304	56.99
718.707	57.38
719.109	57.8
719.512	58.21
719.915	58.57
720.317	58.97
720.719	59.32
721.122	59.7
721.524	60.06
721.926	60.43
722.328	60.76
722.731	61.09
723.133	61.43
723.535	61.74
723.937	62.03
724.338	62.33
724.74	62.59
725.142	62.82
725.544	63.08
725.945	63.31
726.347	63.57
726.748	63.79
727.15	64
727.551	64.23
727.952	64.44
728.354	64.66
728.755	64.91
729.156	65.09
729.557	65.37
729.958	65.58
730.359	65.77
730.76	65.91
731.161	66.13
731.562	66.32
731.962	66.48
732.363	66.67
732.763	66.87
733.164	66.96
733.564	67.11
733.965	67.2
734.365	67.3
734.766	67.44
735.166	67.52
735.566	67.57
735.966	67.67
736.366	67.74
736.766	67.78
737.166	67.84
737.566	67.92
737.966	68.01
738.365	68.11
738.765	68.21
739.165	68.23
739.564	68.33
739.964	68.42
740.363	68.48
740.763	68.51
741.162	68.56
741.561	68.66
741.96	68.71
742.36	68.75
742.759	68.76
743.158	68.8
743.557	68.89
743.955	68.93
744.354	69
744.753	69.08
745.152	69.16
745.55	69.25
745.949	69.25
746.348	69.31
746.746	69.34
747.144	69.43
747.543	69.45
747.941	69.51
748.339	69.58
748.737	69.61
749.136	69.63
749.534	69.66
749.932	69.64
750.33	69.65
750.727	69.71
751.125	69.74
751.523	69.74
751.921	69.78
752.318	69.77
752.716	69.75
753.113	69.75
753.511	69.72
753.908	69.71
754.305	69.67
754.703	69.65
755.1	69.59
755.497	69.58
755.894	69.55
756.291	69.48
756.688	69.49
757.085	69.48
757.482	69.48
757.878	69.49
758.275	69.47
758.672	69.54
759.068	69.59
759.465	69.58
759.861	69.54
760.258	69.53
760.654	69.57
761.05	69.55
761.447	69.56
761.843	69.51
762.239	69.48
762.635	69.47
763.031	69.41
763.427	69.34
763.822	69.32
764.218	69.34
764.614	69.33
765.01	69.29
765.405	69.25
765.801	69.22
766.196	69.23
766.592	69.23
766.987	69.24
767.382	69.24
767.778	69.27
768.173	69.28
768.568	69.24
768.963	69.26
769.358	69.26
769.753	69.32
770.148	69.32
770.542	69.29
770.937	69.29
771.332	69.28
771.726	69.25
772.121	69.2
772.515	69.21
772.91	69.21
773.304	69.21
773.699	69.2
774.093	69.14
774.487	69.15
774.881	69.14
775.275	69.17
775.669	69.18
776.063	69.18
776.457	69.19
776.851	69.18
777.245	69.18
777.638	69.17
778.032	69.19
778.425	69.23
778.819	69.2
779.212	69.2
779.606	69.15
779.999	69.14
780.392	69.15
780.786	69.11
781.179	69.14
781.572	69.13
781.965	69.1
782.358	69.03
782.751	69.02
783.143	69.04
783.536	69.09
783.929	69.11
784.322	69.12
784.714	69.15
785.107	69.22
785.499	69.23
785.891	69.28
786.284	69.32
786.676	69.4
787.068	69.39
787.46	69.39
787.852	69.36
788.245	69.38
788.636	69.42
789.028	69.37
789.42	69.33
789.812	69.32
790.204	69.24
790.595	69.27
790.987	69.26
791.378	69.27
791.77	69.29
792.161	69.35
792.553	69.35
792.944	69.36
793.335	69.42
793.726	69.43
794.117	69.42
794.508	69.48
794.899	69.47
795.29	69.44
795.681	69.46
796.072	69.45
796.463	69.38
796.853	69.4
797.244	69.38
797.634	69.37
798.025	69.42
798.415	69.44
798.806	69.45
799.196	69.5
799.586	69.52
799.976	69.55
800.366	69.57
800.756	69.62
801.146	69.6
801.536	69.62
801.926	69.61
802.316	69.62
802.706	69.67
803.095	69.7
803.485	69.66
803.874	69.7
804.264	69.76
804.653	69.75
805.043	69.76
805.432	69.77
805.821	69.78
806.21	69.86
806.599	69.9
806.988	69.9
807.377	69.9
807.766	69.95
808.155	69.97
808.544	69.92
808.933	69.95
809.321	69.97
809.71	70.06
810.098	70.07
810.487	70.05
810.875	70.02
811.264	70.02
811.652	70.06
812.04	70.03
812.428	70.03
812.816	70.06
813.204	70.06
813.592	70.07
813.98	70.04
814.368	70.04
814.756	70.05
815.144	70.07
815.531	70.1
815.919	70.05
816.306	70.08
816.694	70.1
817.081	70.11
817.469	70.15
817.856	70.2
818.243	70.19
818.63	70.25
819.017	70.26
819.404	70.26
819.791	70.28
820.178	70.34
820.565	70.36
820.952	70.33
821.339	70.35
821.725	70.38
822.112	70.37
822.498	70.43
822.885	70.44
823.271	70.45
823.657	70.49
824.044	70.46
824.43	70.46
824.816	70.44
825.202	70.45
825.588	70.44
825.974	70.43
826.36	70.42
826.746	70.41
827.132	70.35
827.517	70.33
827.903	70.33
828.289	70.33
828.674	70.28
829.06	70.31
829.445	70.32
829.83	70.33
830.216	70.3
830.601	70.29
830.986	70.27
831.371	70.33
831.756	70.3
832.141	70.33
832.526	70.31
832.911	70.34
833.295	70.34
833.68	70.33
834.065	70.32
834.449	70.3
834.834	70.24
835.218	70.18
835.603	70.13
835.987	70.13
836.371	70.08
836.755	70.05
837.139	70.03
837.524	70
837.908	69.96
838.291	69.92
838.675	69.92
839.059	69.91
839.443	69.93
839.827	69.92
840.21	69.91
840.594	69.9
840.977	69.91
841.361	69.89
841.744	69.87
842.127	69.87
842.511	69.85
842.894	69.81
843.277	69.83
843.66	69.83
844.043	69.82
844.426	69.8
844.809	69.77
845.191	69.75
845.574	69.74
845.957	69.71
846.339	69.7
846.722	69.73
847.104	69.74
847.487	69.75
847.869	69.71
848.252	69.69
848.634	69.7
849.016	69.73
849.398	69.74
849.78	69.74
850.162	69.76
850.544	69.74
850.926	69.69
851.307	69.72
851.689	69.69
852.071	69.71
852.452	69.74
852.834	69.73
853.215	69.73
853.597	69.71
853.978	69.69
854.359	69.68
854.741	69.72
855.122	69.75
855.503	69.73
855.884	69.73
856.265	69.72
856.646	69.69
857.026	69.68
857.407	69.63
857.788	69.68
858.169	69.7
858.549	69.72
858.93	69.71
859.31	69.66
859.69	69.66
860.071	69.67
860.451	69.67
860.831	69.69
861.211	69.69
861.591	69.72
861.971	69.68
862.351	69.66
862.731	69.66
863.111	69.67
863.491	69.72
863.87	69.69
864.25	69.68
864.629	69.66
865.009	69.65
865.388	69.62
865.768	69.6
866.147	69.6
866.526	69.61
866.905	69.58
867.284	69.55
867.663	69.56
868.042	69.56
868.421	69.53
868.8	69.53
869.179	69.54
869.558	69.54
869.936	69.52
870.315	69.51
870.693	69.52
871.072	69.51
871.45	69.5
871.828	69.49
872.207	69.53
872.585	69.57
872.963	69.56
873.341	69.58
873.719	69.59
874.097	69.6
874.475	69.63
874.853	69.61
875.23	69.62
875.608	69.63
875.986	69.6
876.363	69.58
876.741	69.56
877.118	69.56
877.495	69.53
877.873	69.52
878.25	69.54
878.627	69.5
879.004	69.49
879.381	69.48
879.758	69.45
880.135	69.48
880.512	69.51
880.889	69.52
881.265	69.54
881.642	69.53
882.019	69.56
882.395	69.52
882.772	69.51
883.148	69.51
883.524	69.52
883.901	69.53
884.277	69.51
884.653	69.48
885.029	69.47
885.405	69.43
885.781	69.41
886.157	69.41
886.532	69.44
886.908	69.46
887.284	69.47
887.659	69.47
888.035	69.46
888.411	69.42
888.786	69.4
889.161	69.41
889.537	69.41
889.912	69.38
890.287	69.34
890.662	69.3
891.037	69.25
891.412	69.22
891.787	69.18
892.162	69.17
892.536	69.16
892.911	69.11
893.286	69.03
893.66	68.97
894.035	68.95
894.409	68.95
894.784	68.94
895.158	68.95
895.532	68.92
895.906	68.9
896.281	68.87
896.655	68.88
897.029	68.86
897.402	68.88
897.776	68.9
898.15	68.88
898.524	68.83
898.898	68.79
899.271	68.79
899.645	68.77
900.018	68.78
900.392	68.77
900.765	68.74
901.138	68.76
901.511	68.74
901.884	68.74
902.258	68.74
902.631	68.76
903.003	68.79
903.376	68.74
903.749	68.78
904.122	68.77
904.495	68.78
904.867	68.8
905.24	68.79
905.612	68.8
905.985	68.78
906.357	68.77
906.729	68.76
907.102	68.76
907.474	68.81
907.846	68.8
908.218	68.75
908.59	68.72
908.962	68.71
909.334	68.7
909.705	68.7
910.077	68.74
910.449	68.76
910.82	68.79
911.192	68.77
911.563	68.72
911.935	68.69
912.306	68.71
912.677	68.72
913.048	68.7
913.419	68.66
913.79	68.65
914.161	68.62
914.532	68.58
914.903	68.55
915.274	68.5
915.645	68.55
916.015	68.52
916.386	68.52
916.756	68.5
917.127	68.5
917.497	68.49
917.868	68.5
918.238	68.46
918.608	68.47
918.978	68.4
919.348	68.39
919.718	68.34
920.088	68.36
920.458	68.38
920.828	68.41
921.198	68.39
921.567	68.36
921.937	68.35
922.306	68.34
922.676	68.34
923.045	68.34
923.415	68.35
923.784	68.35
924.153	68.33
924.522	68.27
924.891	68.2
925.26	68.19
925.629	68.25
925.998	68.24
926.367	68.2
926.736	68.2
927.104	68.21
927.473	68.22
927.842	68.17
928.21	68.24
928.578	68.21
928.947	68.19
929.315	68.16
929.683	68.12
930.051	68.1
930.42	68.17
930.788	68.15
931.156	68.11
931.523	68.02
931.891	67.99
932.259	67.79
932.627	67.67
932.994	67.59
933.362	67.5
933.729	67.44
934.097	67.36
934.464	67.23
934.831	67.11
935.199	67.04
935.566	66.97
935.933	66.98
936.3	66.95
936.667	66.97
937.034	66.94
937.401	66.89
937.767	66.77
938.134	66.67
938.501	66.6
938.867	66.56
939.234	66.55
939.6	66.54
939.967	66.44
940.333	66.48
940.699	66.54
941.065	66.66
941.431	66.85
941.798	66.97
942.163	67.05
942.529	67.17
942.895	67.27
943.261	67.32
943.627	67.39
943.992	67.42
944.358	67.49
944.723	67.49
945.089	67.53
945.454	67.44
945.82	67.47
946.185	67.47
946.55	67.55
946.915	67.57
947.28	67.6
947.645	67.69
948.01	67.71
948.375	67.81
948.74	67.81
949.104	67.8
949.469	67.77
949.834	67.71
950.198	67.66
950.562	67.67
950.927	67.72
951.291	67.68
951.655	67.62
952.02	67.59
952.384	67.5
952.748	67.55
953.112	67.53
953.476	67.53
953.839	67.55
954.203	67.58
954.567	67.47
954.931	67.34
955.294	67.31
955.658	67.24
956.021	67.18
956.385	67.18
956.748	67.15
957.111	67.1
957.474	67.09
957.837	67.07
958.2	66.98
958.563	66.98
958.926	67.04
959.289	67.1
959.652	67.11
960.015	67.09
960.377	67.07
960.74	67.04
961.102	67.02
961.465	67.03
961.827	66.91
962.189	66.94
962.552	66.85
962.914	66.82
963.276	66.82
963.638	66.75
964	66.8
964.362	66.74
964.724	66.71
965.085	66.69
965.447	66.63
965.809	66.63
966.17	66.6
966.532	66.64
966.893	66.58
967.255	66.45
967.616	66.55
967.977	66.52
968.338	66.51
968.699	66.46
969.061	66.41
969.421	66.38
969.782	66.41
970.143	66.37
970.504	66.33
970.865	66.34
971.225	66.38
971.586	66.31
971.946	66.28
972.307	66.25
972.667	66.33
973.027	66.36
973.388	66.38
973.748	66.41
974.108	66.41
974.468	66.45
974.828	66.43
975.188	66.4
975.548	66.37
975.907	66.36
976.267	66.39
976.627	66.31
976.986	66.29
977.346	66.29
977.705	66.25
978.064	66.26
978.424	66.22
978.783	66.22
979.142	66.21
979.501	66.14
979.86	66.12
980.219	66.02
980.578	66.02
980.937	66.07
981.296	66
981.654	66.06
982.013	66.06
982.371	65.96
982.73	65.86
983.088	65.82
983.447	65.85
983.805	65.86
984.163	65.91
984.521	65.83
984.879	65.8
985.237	65.87
985.595	65.9
985.953	65.89
986.311	66.09
986.669	66.17
987.026	66.26
987.384	66.31
987.741	66.24
988.099	66.26
988.456	66.32
988.814	66.28
989.171	66.18
989.528	66.03
989.885	66
990.242	65.91
990.599	65.88
990.956	65.85
991.313	65.75
991.67	65.88
992.027	65.83
992.383	65.83
992.74	65.75
993.096	65.79
993.453	65.77
993.809	65.86
994.165	65.88
994.522	65.91
994.878	65.85
995.234	65.82
995.59	65.61
995.946	65.56
996.302	65.51
996.658	65.45
997.013	65.48
997.369	65.4
997.725	65.43
998.08	65.36
998.436	65.31
998.791	65.29
999.147	65.37
999.502	65.4
999.857	65.37
1000.212	65.28
1000.567	65.31
1000.922	65.22
1001.277	65.32
1001.632	65.32
1001.987	65.35
1002.342	65.31
1002.696	65.32
1003.051	65.2
1003.406	65.17
1003.76	65.16
1004.114	65.21
1004.469	65.13
1004.823	65.04
1005.177	65.03
1005.531	64.74
1005.885	64.72
1006.239	64.81
1006.593	64.69
1006.947	64.67
1007.301	64.73
1007.655	64.75
1008.008	64.54
1008.362	64.44
1008.715	64.48
1009.069	64.3
1009.422	64.14
1009.776	64.16
1010.129	63.92
1010.482	63.98
1010.835	64.06
1011.188	63.88
1011.541	63.81
1011.894	64.01
1012.247	64.13
1012.6	64.14
1012.952	64.31
1013.305	64.37
1013.657	64.21
1014.01	64.53
1014.362	64.64
1014.715	64.5
1015.067	64.61
1015.419	64.76
1015.771	64.84
1016.123	64.71
1016.475	64.77
1016.827	64.8
1017.179	65.03
1017.531	65.01
1017.883	64.85
1018.234	64.66
1018.586	64.7
1018.938	64.71
1019.289	64.31
1019.64	64.37
1019.992	64.7
1020.343	64.52
1020.694	64.31
1021.045	64.29
1021.396	64.1
1021.747	64.09
1022.098	63.97
1022.449	63.79
1022.8	63.57
1023.151	63.97
1023.501	63.81
1023.852	63.86
1024.202	63.77
1024.553	63.7
1024.903	63.38
1025.253	63.15
1025.604	62.88
1025.954	62.87
1026.304	63.6
1026.654	63.72
1027.004	63.45
1027.354	63.36
1027.703	62.57
1028.053	62.66
1028.403	62.36
1028.753	62.65
1029.102	62.51
1029.452	62.08
1029.801	61.62
1030.15	60.71
1030.499	60.5
897.758	599.11
901.051	609.85
904.343	614.43
907.636	605.07
910.928	593.4
914.22	603.34
917.511	594.98
920.803	570.25
924.094	545.67
927.384	549.67
930.675	536.03
933.965	527.24
937.255	528.22
940.544	505.6
943.834	486.61
947.123	479.96
950.411	455.47
953.7	445.27
956.988	432.92
960.276	418.71
963.563	411.92
966.851	390.6
970.138	384.52
973.424	358.18
976.711	353.87
979.997	339.96
983.283	332.92
986.568	321.65
989.853	314.29
993.138	304.28
996.423	298.47
999.708	290.93
1002.992	291.12
1006.275	281.86
1009.559	279.57
1012.842	272.4
1016.125	265.34
1019.408	261.82
1022.69	259.89
1025.972	258.1
1029.254	251.77
1032.536	247.2
1035.817	239.7
1039.098	236.68
1042.379	234.22
1045.659	230.53
1048.939	228.18
1052.219	225.72
1055.498	221.38
1058.778	218.25
1062.057	214.49
1065.335	213.68
1068.614	210.5
1071.892	208.92
1075.17	203.63
1078.447	200.87
1081.724	200.32
1085.001	195.68
1088.278	195.02
1091.554	194.58
1094.83	192.78
1098.106	189.97
1101.382	188.45
1104.657	187.46
1107.932	186.32
1111.206	185.68
1114.481	184.78
1117.755	183.44
1121.029	183.58
1124.302	181.01
1127.575	177.93
1130.848	177.93
1134.121	175.98
1137.393	175.5
1140.665	175.01
1143.937	173.37
1147.208	171.9
1150.48	169.14
1153.75	168.32
1157.021	166.51
1160.291	165.77
1163.561	165.44
1166.831	164.93
1170.101	164.31
1173.37	163.45
1176.639	161.58
1179.907	161.68
1183.176	161.2
1186.444	161.74
1189.711	160.21
1192.979	161.93
1196.246	161.9
1199.513	161.88
1202.78	161.37
1206.046	161.01
1209.312	162.35
1212.578	164.12
1215.843	166.4
1219.108	167.46
1222.373	169.27
1225.638	172.27
1228.902	175.37
1232.166	180.26
1235.43	181.86
1238.693	185.92
1241.956	190.8
1245.219	194.88
1248.482	193.99
1251.744	193.21
1255.006	194.26
1258.268	190.24
1261.529	188.66
1264.79	184.94
1268.051	181.99
1271.312	181
1274.572	178.3
1277.832	173.74
1281.092	171.27
1284.351	169.14
1287.61	168.8
1290.869	168.49
1294.128	168.47
1297.386	167.33
1300.644	166.4
1303.902	165.01
1307.159	163.14
1310.416	164.14
1313.673	166.54
1316.93	167.32
1320.186	169.91
1323.442	171.48
1326.697	172.8
1329.953	175.2
1333.208	180.62
1336.463	186.98
1339.717	190.45
1342.972	199.48
1346.226	204.66
1349.479	205.81
1352.733	214.51
1355.986	217.33
1359.238	222.03
1362.491	224.8
1365.743	231.25
1368.995	232.61
1372.247	233.66
1375.498	232.95
1378.749	240.48
1382	239.17
1385.251	238.35
1388.501	236.42
1391.751	240.46
1395	238.75
1398.25	240.29
1401.499	238.29
1404.748	236.88
1407.996	230.61
1411.244	230.34
1414.492	225.74
1417.74	219.59
1420.987	214.59
1424.234	212.25
1427.481	204.33
1430.728	199.29
1433.974	192.78
1437.22	186.98
1440.465	181.49
1443.711	176.64
1446.956	171.79
1450.201	165.32
1453.445	158.99
1456.689	154.96
1459.933	150.13
1463.177	144.14
1466.42	142.19
1469.663	138.36
1472.906	134.85
1476.148	131.56
1479.391	129.21
1482.633	127.05
1485.874	126.01
1489.115	124.67
1492.356	122.4
1495.597	120.75
1498.838	121.49
1502.078	119.89
1505.318	119.68
1508.557	119.56
1511.797	118.4
1515.036	117.42
1518.274	117.56
1521.513	115.45
1524.751	115.23
1527.989	116.91
1531.227	116.48
1534.464	115.59
1537.701	115.42
1540.938	114.85
1544.174	114.67
1547.41	115.07
1550.646	115.3
1553.882	115.2
1557.117	115.58
1560.352	115.4
1563.587	114.35
1566.821	114.4
1570.055	113.6
1573.289	113.37
1576.523	113.6
1579.756	113.14
1582.989	113.1
1586.222	113.39
1589.454	112.79
1592.686	112.97
1595.918	112.44
1599.15	112.29
1602.381	112.31
1605.612	112.77
1608.843	112.38
1612.073	112.67
1615.303	112.81
1618.533	112.96
1621.762	112.45
1624.992	112.67
1628.221	112.25
1631.449	113.29
1634.678	112.97
1637.906	113.19
1641.134	113.4
1644.361	113.39
1647.588	113.81
1650.815	113.97
1654.042	113.6
1657.269	113.48
1660.495	114
1663.72	113.78
1666.946	113.87
1670.171	114.66
1673.396	115.02
1676.621	115.04
1679.845	115.47
1683.069	114.74
1686.293	114.63
1689.517	115.34
1692.74	115.74
1695.963	115.64
1699.185	116.72
1702.408	116.22
1705.63	116.02
1708.852	116.47
1712.073	116.45
1715.294	116.44
1718.515	116.98
1721.736	117.18
1724.956	117.51
1728.176	117.21
1731.396	117.85
1734.616	117.84
1737.835	118.03
1741.054	118.04
1744.272	117.66
1747.491	117.47
1750.709	118.44
1753.927	118.61
1757.144	118.74
1760.361	118.18
1763.578	119.49
1766.795	119.25
1770.011	118.97
1773.227	119.56
1776.443	120.5
1779.658	120.31
1782.874	121.56
1786.089	120.88
1789.303	121.07
1792.518	121.64
1795.732	122.72
1798.945	122.82
1802.159	123.24
1805.372	125.06
1808.585	125.95
1811.797	126.52
1815.01	127.42
1818.222	127.64
1821.434	129.21
1824.645	129.84
1827.856	131.75
1831.067	131.97
1834.278	133.24
1837.488	134.41
1840.698	135.08
1843.908	134.97
1847.117	136.91
1850.326	138.03
1853.535	138.8
1856.744	139.41
1859.952	140.79
1863.16	140.53
1866.368	139.56
1869.575	140.14
1872.782	138.59
1875.989	137.24
1879.196	136.88
1882.402	134.12
1885.608	134.15
1888.814	133.12
1892.019	133.91
1895.224	131.24
1898.429	130.19
1901.634	130.46
1904.838	130.13
1908.042	130.7
1911.246	129.53
1914.449	129.33
1917.652	128.77
1920.855	128.89
1924.058	128.42
1927.26	126.35
1930.462	127.26
1933.664	128.01
1936.865	128.4
1940.066	126.31
1943.267	124.79
1946.467	126.7
1949.668	126.59
1952.868	128.06
1956.067	128.01
1959.267	127.37
1962.466	128.2
1965.665	130.25
1968.863	128.95
1972.061	131.22
1975.259	133.7
1978.457	136.87
1981.654	137.06
1984.852	138.82
1988.048	140.04
1991.245	142.22
1994.441	146.34
1997.637	149.27
2000.833	150.97
2004.028	154.7
2007.223	157.64
2010.418	160.92
2013.613	166.15
2016.807	170.94
2020.001	173.55
2023.194	176.65
2026.388	182.63
2029.581	192.51
2032.774	198.7
2035.966	204.93
2039.158	210.43
2042.35	213.24
2045.542	217.42
2048.733	227.04
2051.924	227.96
2055.115	233.17
2058.306	237.82
2061.496	242.36
2064.686	241.5
2067.875	238.73
2071.065	242.19
2074.254	242.78
2077.442	250.24
2080.631	252.17
2083.819	252.04
2087.007	258.11
2090.195	260.82
2093.382	260.32
2096.569	259.92
2099.756	262.71
2102.942	268.47
2106.128	274.24
2109.314	275.96
2112.5	275.29
2115.685	275.6
2118.87	276.07
2122.055	276.96
2125.239	282.49
2128.424	290.55
2131.608	288.92
2134.791	290.29
2137.974	290.69
2141.157	291.35
2144.34	294.35
2147.523	298.41
2150.705	304.5
2153.887	301.6
2157.068	305.47
2160.25	310.45
2163.431	308.7
2166.611	312.94
2169.792	318.74
2172.972	322.78
2176.152	323.5
2179.331	331.3
2182.511	332.64
2185.69	335.41
2188.868	348.01
2192.047	357.79
2195.225	358.98
2198.403	366.46
2201.58	363.25
2204.758	374.7
2207.935	377.66
2211.111	383.83
2214.288	384.42
2217.464	389.39
2220.64	391.37
2223.815	394.76
2226.991	388.68
2230.166	392.1
2233.34	401.61
2236.515	412.6
2239.689	406.07
2242.863	414.77
2246.036	412.44
2249.209	422.2
2252.382	418.76
2255.555	436.48
2258.727	435.84
2261.9	449.95
2265.071	458.1
2268.243	450.62
2271.414	464.59
2274.585	476.28
2277.756	473.29
2280.926	492.16
2284.096	489.67
2287.266	495.68
2290.436	484.8
2293.605	497.69
2296.774	513.18
2299.942	514.59
2303.111	530.7
2306.279	541.15
2309.447	543.18
2312.614	543.46
2315.781	555.51
2318.948	566.61
2322.115	575.85
2325.281	608.17
2328.447	598.33
2331.613	601.07
2334.779	604.03
2337.944	617.76
2341.109	626.48
2344.274	632.26
2347.438	649.23
2350.602	655.2
2353.766	700.2
2356.929	702.81
2360.092	707.77
2363.255	717.65
2366.418	725.22
2369.58	741.32
2372.742	743.61
2375.904	739.5
2379.066	758.45
2382.227	805.46
2385.388	811.79
2388.548	762.53
2391.709	756.67
2394.869	780.13
2398.029	777.55
2401.188	775.51
2404.347	800.61
2407.506	819.35
2410.665	792.98
2413.823	794.55
2416.981	794.2
2420.139	752.93
2423.296	813.6
2426.453	866.55
2429.61	828.07
2432.767	885.81
2435.923	916.73
2439.079	884.06
2442.235	908.26
2445.391	923.96
2448.546	913.36
2451.701	967.19
2454.855	1030.01
2458.009	914.33
2461.163	926.14
2464.317	940.14
2467.471	919.99
2470.624	952.55
2473.777	933.18
2476.929	899.07
2480.082	968.58
2483.234	1020.55
2486.385	1034.66
2489.537	1062.67
2492.688	1168.52
2495.839	1141.68
2498.989	1167.09
2502.14	1172.56
2505.29	1125.71
2508.439	1247.87
2511.589	1280.7
2514.738	1240.06
2517.887	1218
2521.035	1147.49
2524.183	1133.2
2527.331	1118.14
2530.479	1101.71
2533.627	1126.97
