Data from N_3_div_pa_2n_Splice17_18.txt Node
Date: Sat Feb 29 14:56:23 EST 2020
User: sa697716
Spectrometer: FLMS03696
Trigger mode: 0
Integration Time (sec): 3.180400E-1
Scans to average: 20
Electric dark correction enabled: true
Nonlinearity correction enabled: true
Boxcar width: 5
XAxis mode: Wavelengths
Number of Pixels in Spectrum: 2048
>>>>>Begin Spectral Data<<<<<
187.83	73.1
188.298	70.24
188.766	77.34
189.233	78.4
189.701	83.53
190.169	86.55
190.636	84.33
191.104	116.52
191.571	523.77
192.039	470.11
192.506	-518.22
192.974	4041.47
193.441	-250.7
193.908	148.75
194.375	183.36
194.842	260.87
195.31	182.1
195.777	188.6
196.244	114.56
196.711	84.97
197.177	79.05
197.644	74.78
198.111	72.31
198.578	73.13
199.045	73.01
199.511	73.62
199.978	73.77
200.445	73.24
200.911	72.99
201.378	73
201.844	73.26
202.31	73.79
202.777	74.01
203.243	74.76
203.709	74.58
204.176	74.17
204.642	73.69
205.108	73.25
205.574	73.67
206.04	73.53
206.506	73.24
206.972	72.87
207.438	72.31
207.903	71.59
208.369	69.97
208.835	69.22
209.301	68.42
209.766	67.07
210.232	65.69
210.697	64.27
211.163	62.96
211.628	61.41
212.094	59.81
212.559	58.17
213.024	57.25
213.49	56.18
213.955	54.73
214.42	53.18
214.885	51.54
215.35	49.61
215.815	46.75
216.28	43.78
216.745	40.35
217.21	36.86
217.675	33.6
218.14	30.33
218.604	27.56
219.069	25.22
219.534	23.28
219.998	21.61
220.463	20.28
220.927	19.09
221.392	18.11
221.856	17.27
222.32	16.55
222.785	15.91
223.249	15.41
223.713	14.96
224.177	14.5
224.642	14.12
225.106	13.75
225.57	13.37
226.034	13.06
226.497	12.72
226.961	12.43
227.425	12.15
227.889	11.92
228.353	11.65
228.816	11.41
229.28	11.13
229.744	10.9
230.207	10.7
230.671	10.49
231.134	10.29
231.597	10.12
232.061	9.93
232.524	9.79
232.987	9.62
233.45	9.47
233.914	9.34
234.377	9.22
234.84	9.09
235.303	8.98
235.766	8.89
236.229	8.79
236.691	8.69
237.154	8.61
237.617	8.51
238.08	8.43
238.542	8.34
239.005	8.24
239.468	8.16
239.93	8.08
240.393	7.99
240.855	7.9
241.317	7.81
241.78	7.74
242.242	7.65
242.704	7.58
243.166	7.51
243.629	7.43
244.091	7.37
244.553	7.31
245.015	7.25
245.477	7.18
245.939	7.1
246.4	7.04
246.862	6.98
247.324	6.93
247.786	6.86
248.247	6.79
248.709	6.73
249.17	6.66
249.632	6.6
250.093	6.52
250.555	6.47
251.016	6.43
251.477	6.36
251.939	6.31
252.4	6.26
252.861	6.21
253.322	6.17
253.783	6.13
254.244	6.09
254.705	6.05
255.166	6.02
255.627	5.98
256.088	5.92
256.549	5.88
257.009	5.84
257.47	5.79
257.931	5.74
258.391	5.68
258.852	5.63
259.312	5.59
259.773	5.54
260.233	5.48
260.694	5.43
261.154	5.39
261.614	5.35
262.074	5.31
262.534	5.25
262.994	5.22
263.455	5.19
263.915	5.15
264.374	5.11
264.834	5.07
265.294	5.04
265.754	5.01
266.214	4.98
266.673	4.95
267.133	4.92
267.593	4.9
268.052	4.85
268.512	4.83
268.971	4.8
269.431	4.77
269.89	4.75
270.349	4.73
270.809	4.71
271.268	4.7
271.727	4.68
272.186	4.66
272.645	4.64
273.104	4.63
273.563	4.62
274.022	4.61
274.481	4.59
274.94	4.57
275.399	4.56
275.857	4.54
276.316	4.52
276.775	4.5
277.233	4.49
277.692	4.48
278.15	4.46
278.609	4.44
279.067	4.42
279.525	4.41
279.984	4.4
280.442	4.39
280.9	4.38
281.358	4.37
281.816	4.36
282.274	4.35
282.732	4.35
283.19	4.36
283.648	4.36
284.106	4.35
284.564	4.37
285.021	4.37
285.479	4.37
285.937	4.37
286.394	4.37
286.852	4.37
287.309	4.36
287.767	4.36
288.224	4.34
288.682	4.33
289.139	4.32
289.596	4.29
290.053	4.26
290.511	4.24
290.968	4.23
291.425	4.19
291.882	4.17
292.339	4.15
292.796	4.12
293.252	4.1
293.709	4.06
294.166	4.04
294.623	4.03
295.079	4.02
295.536	4
295.992	3.98
296.449	3.98
296.905	3.96
297.362	3.95
297.818	3.94
298.274	3.93
298.731	3.92
299.187	3.92
299.643	3.91
300.099	3.9
300.555	3.89
301.011	3.87
301.467	3.86
301.923	3.86
302.379	3.85
302.835	3.85
303.291	3.84
303.746	3.84
304.202	3.83
304.658	3.82
305.113	3.82
305.569	3.82
306.024	3.82
306.479	3.82
306.935	3.81
307.39	3.81
307.845	3.8
308.301	3.82
308.756	3.82
309.211	3.82
309.666	3.82
310.121	3.83
310.576	3.83
311.031	3.83
311.486	3.84
311.94	3.84
312.395	3.86
312.85	3.86
313.305	3.85
313.759	3.85
314.214	3.84
314.668	3.84
315.123	3.84
315.577	3.84
316.032	3.83
316.486	3.83
316.94	3.82
317.394	3.81
317.849	3.8
318.303	3.8
318.757	3.78
319.211	3.77
319.665	3.77
320.119	3.76
320.572	3.75
321.026	3.73
321.48	3.72
321.934	3.71
322.387	3.7
322.841	3.7
323.295	3.69
323.748	3.69
324.202	3.68
324.655	3.68
325.108	3.67
325.562	3.66
326.015	3.66
326.468	3.65
326.921	3.65
327.374	3.64
327.827	3.64
328.28	3.63
328.733	3.63
329.186	3.64
329.639	3.63
330.092	3.63
330.545	3.63
330.997	3.63
331.45	3.64
331.903	3.64
332.355	3.64
332.808	3.64
333.26	3.64
333.713	3.65
334.165	3.65
334.617	3.66
335.069	3.67
335.522	3.68
335.974	3.68
336.426	3.68
336.878	3.68
337.33	3.69
337.782	3.7
338.234	3.71
338.686	3.7
339.137	3.7
339.589	3.68
340.041	3.68
340.493	3.66
340.944	3.66
341.396	3.66
341.847	3.65
342.299	3.63
342.75	3.6
343.201	3.58
343.653	3.58
344.104	3.57
344.555	3.56
345.006	3.54
345.457	3.53
345.908	3.52
346.359	3.51
346.81	3.51
347.261	3.5
347.712	3.51
348.163	3.51
348.613	3.49
349.064	3.48
349.515	3.47
349.965	3.47
350.416	3.46
350.866	3.46
351.317	3.46
351.767	3.46
352.217	3.45
352.668	3.46
353.118	3.46
353.568	3.48
354.018	3.49
354.468	3.49
354.918	3.51
355.368	3.52
355.818	3.52
356.268	3.52
356.718	3.53
357.168	3.55
357.617	3.55
358.067	3.55
358.517	3.55
358.966	3.56
359.416	3.57
359.865	3.57
360.315	3.59
360.764	3.59
361.213	3.6
361.663	3.61
362.112	3.62
362.561	3.62
363.01	3.64
363.459	3.65
363.908	3.66
364.357	3.67
364.806	3.67
365.255	3.68
365.703	3.7
366.152	3.72
366.601	3.74
367.05	3.75
367.498	3.77
367.947	3.78
368.395	3.8
368.844	3.81
369.292	3.83
369.74	3.85
370.189	3.87
370.637	3.89
371.085	3.91
371.533	3.93
371.981	3.96
372.429	3.98
372.877	4.01
373.325	4.03
373.773	4.06
374.221	4.09
374.669	4.11
375.116	4.13
375.564	4.15
376.012	4.18
376.459	4.21
376.907	4.25
377.354	4.28
377.801	4.31
378.249	4.36
378.696	4.4
379.143	4.43
379.591	4.48
380.038	4.54
380.485	4.59
380.932	4.63
381.379	4.67
381.826	4.72
382.273	4.76
382.72	4.82
383.166	4.87
383.613	4.91
384.06	4.96
384.506	5.01
384.953	5.05
385.4	5.1
385.846	5.15
386.292	5.2
386.739	5.25
387.185	5.32
387.631	5.38
388.078	5.43
388.524	5.48
388.97	5.53
389.416	5.58
389.862	5.64
390.308	5.7
390.754	5.77
391.2	5.84
391.645	5.9
392.091	5.96
392.537	6.01
392.983	6.09
393.428	6.18
393.874	6.27
394.319	6.34
394.765	6.41
395.21	6.48
395.655	6.55
396.101	6.62
396.546	6.68
396.991	6.75
397.436	6.81
397.881	6.87
398.326	6.93
398.771	7.01
399.216	7.1
399.661	7.18
400.106	7.25
400.551	7.29
400.995	7.33
401.44	7.37
401.885	7.43
402.329	7.47
402.774	7.5
403.218	7.53
403.663	7.55
404.107	7.6
404.551	7.63
404.995	7.64
405.44	7.68
405.884	7.71
406.328	7.73
406.772	7.76
407.216	7.8
407.66	7.83
408.104	7.86
408.547	7.88
408.991	7.89
409.435	7.89
409.879	7.91
410.322	7.93
410.766	7.96
411.209	7.99
411.653	7.99
412.096	8
412.54	8.02
412.983	8.05
413.426	8.08
413.869	8.12
414.312	8.17
414.756	8.22
415.199	8.27
415.642	8.32
416.085	8.36
416.527	8.4
416.97	8.45
417.413	8.47
417.856	8.46
418.298	8.45
418.741	8.45
419.184	8.45
419.626	8.45
420.069	8.45
420.511	8.45
420.953	8.43
421.396	8.43
421.838	8.43
422.28	8.45
422.722	8.48
423.164	8.51
423.606	8.52
424.048	8.53
424.49	8.56
424.932	8.56
425.374	8.55
425.816	8.55
426.258	8.52
426.699	8.48
427.141	8.44
427.582	8.41
428.024	8.39
428.465	8.38
428.907	8.38
429.348	8.35
429.789	8.33
430.231	8.29
430.672	8.3
431.113	8.33
431.554	8.36
431.995	8.39
432.436	8.39
432.877	8.39
433.318	8.39
433.759	8.4
434.2	8.4
434.64	8.43
435.081	8.48
435.522	8.51
435.962	8.54
436.403	8.58
436.843	8.62
437.284	8.69
437.724	8.76
438.164	8.81
438.604	8.87
439.045	8.9
439.485	8.95
439.925	8.99
440.365	9
440.805	9.04
441.245	9.07
441.685	9.14
442.125	9.17
442.564	9.22
443.004	9.29
443.444	9.36
443.883	9.43
444.323	9.51
444.762	9.62
445.202	9.75
445.641	9.82
446.081	9.94
446.52	10
446.959	10.09
447.398	10.21
447.837	10.31
448.276	10.38
448.716	10.46
449.154	10.55
449.593	10.61
450.032	10.68
450.471	10.77
450.91	10.82
451.349	10.88
451.787	10.93
452.226	10.93
452.664	10.95
453.103	10.98
453.541	11
453.98	11.01
454.418	10.99
454.856	10.98
455.295	10.97
455.733	10.97
456.171	10.96
456.609	10.95
457.047	10.95
457.485	10.93
457.923	10.92
458.361	10.91
458.798	10.92
459.236	10.93
459.674	10.93
460.111	10.92
460.549	10.92
460.987	10.94
461.424	10.93
461.862	10.93
462.299	10.95
462.736	10.95
463.173	10.96
463.611	10.96
464.048	10.98
464.485	11
464.922	11.02
465.359	11.02
465.796	11.01
466.233	11.03
466.67	11.04
467.106	11.04
467.543	11.07
467.98	11.11
468.416	11.14
468.853	11.16
469.29	11.18
469.726	11.19
470.162	11.23
470.599	11.26
471.035	11.3
471.471	11.32
471.907	11.35
472.344	11.39
472.78	11.4
473.216	11.44
473.652	11.45
474.088	11.49
474.523	11.52
474.959	11.54
475.395	11.56
475.831	11.6
476.266	11.62
476.702	11.64
477.138	11.62
477.573	11.63
478.008	11.62
478.444	11.62
478.879	11.62
479.314	11.61
479.75	11.61
480.185	11.62
480.62	11.62
481.055	11.64
481.49	11.63
481.925	11.64
482.36	11.64
482.795	11.63
483.229	11.65
483.664	11.66
484.099	11.67
484.534	11.68
484.968	11.69
485.403	11.7
485.837	11.72
486.271	11.74
486.706	11.77
487.14	11.82
487.574	11.86
488.009	11.91
488.443	11.95
488.877	12.01
489.311	12.09
489.745	12.17
490.179	12.24
490.613	12.32
491.046	12.42
491.48	12.52
491.914	12.63
492.348	12.75
492.781	12.87
493.215	12.99
493.648	13.12
494.082	13.26
494.515	13.39
494.948	13.55
495.382	13.71
495.815	13.86
496.248	14.03
496.681	14.19
497.114	14.36
497.547	14.55
497.98	14.75
498.413	14.95
498.846	15.16
499.279	15.38
499.711	15.6
500.144	15.82
500.577	16.06
501.009	16.3
501.442	16.57
501.874	16.82
502.306	17.1
502.739	17.35
503.171	17.65
503.603	17.93
504.036	18.24
504.468	18.56
504.9	18.89
505.332	19.22
505.764	19.56
506.196	19.91
506.627	20.27
507.059	20.62
507.491	20.99
507.923	21.35
508.354	21.73
508.786	22.12
509.217	22.49
509.649	22.88
510.08	23.3
510.512	23.71
510.943	24.13
511.374	24.55
511.805	24.96
512.237	25.41
512.668	25.84
513.099	26.28
513.53	26.7
513.961	27.14
514.391	27.56
514.822	27.95
515.253	28.37
515.684	28.79
516.114	29.22
516.545	29.66
516.975	30.07
517.406	30.47
517.836	30.85
518.267	31.24
518.697	31.65
519.127	32.05
519.558	32.45
519.988	32.83
520.418	33.19
520.848	33.57
521.278	33.93
521.708	34.14
522.138	34.48
522.567	34.82
522.997	35.15
523.427	35.45
523.857	35.75
524.286	36.05
524.716	36.32
525.145	36.61
525.575	36.84
526.004	37.09
526.433	37.48
526.863	37.73
527.292	37.95
527.721	38.18
528.15	38.38
528.579	38.59
529.008	38.78
529.437	38.97
529.866	39.13
530.295	39.31
530.724	39.47
531.152	39.63
531.581	39.77
532.01	39.9
532.438	40.02
532.867	40.16
533.295	40.26
533.723	40.39
534.152	40.5
534.58	40.6
535.008	40.67
535.436	40.76
535.865	40.83
536.293	40.92
536.721	41
537.149	41.06
537.576	41.12
538.004	41.17
538.432	41.21
538.86	41.25
539.287	41.28
539.715	41.35
540.143	41.37
540.57	41.41
540.998	41.44
541.425	41.48
541.852	41.51
542.28	41.53
542.707	41.6
543.134	41.62
543.561	41.66
543.988	41.7
544.415	41.74
544.842	41.78
545.269	41.81
545.696	41.83
546.123	41.86
546.549	41.91
546.976	41.97
547.403	41.99
547.829	42.05
548.256	42.09
548.682	42.12
549.108	42.14
549.535	42.18
549.961	42.21
550.387	42.23
550.813	42.24
551.24	42.26
551.666	42.28
552.092	42.31
552.518	42.29
552.943	42.29
553.369	42.3
553.795	42.3
554.221	42.3
554.646	42.31
555.072	42.33
555.498	42.32
555.923	42.3
556.349	42.25
556.774	42.21
557.199	42.19
557.625	42.17
558.05	42.1
558.475	42.04
558.9	42
559.325	41.92
559.75	41.82
560.175	41.74
560.6	41.66
561.025	41.57
561.449	41.49
561.874	41.37
562.299	41.29
562.723	41.22
563.148	41.12
563.572	41.02
563.997	40.87
564.421	40.78
564.846	40.66
565.27	40.54
565.694	40.38
566.118	40.23
566.542	40.09
566.966	39.91
567.39	39.7
567.814	39.52
568.238	39.31
568.662	39.16
569.086	38.96
569.509	38.78
569.933	38.58
570.357	38.41
570.78	38.22
571.204	38.02
571.627	37.86
572.05	37.7
572.474	37.53
572.897	37.38
573.32	37.2
573.743	37.05
574.166	36.88
574.589	36.73
575.012	36.6
575.435	36.47
575.858	36.36
576.281	36.21
576.704	36.09
577.126	35.97
577.549	35.84
577.972	35.75
578.394	35.62
578.817	35.54
579.239	35.45
579.661	35.35
580.084	35.24
580.506	35.15
580.928	35.06
581.35	34.98
581.772	34.91
582.194	34.83
582.616	34.74
583.038	34.69
583.46	34.61
583.882	34.55
584.303	34.47
584.725	34.42
585.147	34.33
585.568	34.25
585.99	34.2
586.411	34.14
586.833	34.07
587.254	34.01
587.675	33.95
588.096	33.9
588.518	33.82
588.939	33.8
589.36	33.75
589.781	33.71
590.202	33.66
590.623	33.62
591.043	33.57
591.464	33.54
591.885	33.5
592.305	33.46
592.726	33.41
593.147	33.39
593.567	33.35
593.987	33.33
594.408	33.31
594.828	33.29
595.248	33.27
595.669	33.26
596.089	33.22
596.509	33.19
596.929	33.16
597.349	33.11
597.769	33.07
598.189	33.04
598.608	32.98
599.028	32.92
599.448	32.88
599.867	32.82
600.287	32.74
600.706	32.67
601.126	32.59
601.545	32.51
601.965	32.44
602.384	32.37
602.803	32.25
603.222	32.17
603.641	32.08
604.061	31.97
604.48	31.84
604.898	31.74
605.317	31.67
605.736	31.55
606.155	31.43
606.574	31.3
606.992	31.15
607.411	31.05
607.829	30.88
608.248	30.75
608.666	30.61
609.085	30.48
609.503	30.33
609.921	30.17
610.339	30.05
610.758	29.93
611.176	29.79
611.594	29.67
612.012	29.51
612.43	29.43
612.847	29.31
613.265	29.2
613.683	29.09
614.101	28.96
614.518	28.83
614.936	28.71
615.353	28.6
615.771	28.5
616.188	28.43
616.606	28.34
617.023	28.25
617.44	28.15
617.857	28.04
618.274	27.97
618.691	27.9
619.108	27.84
619.525	27.77
619.942	27.71
620.359	27.65
620.776	27.58
621.192	27.51
621.609	27.47
622.026	27.42
622.442	27.39
622.859	27.34
623.275	27.32
623.691	27.29
624.108	27.27
624.524	27.24
624.94	27.21
625.356	27.18
625.772	27.18
626.188	27.16
626.604	27.14
627.02	27.12
627.436	27.11
627.852	27.08
628.268	27.06
628.683	27.04
629.099	27.02
629.514	27
629.93	26.98
630.345	26.92
630.761	26.89
631.176	26.88
631.591	26.84
632.007	26.79
632.422	26.75
632.837	26.69
633.252	26.63
633.667	26.56
634.082	26.49
634.497	26.4
634.911	26.3
635.326	26.18
635.741	26.05
636.155	25.94
636.57	25.82
636.984	25.66
637.399	25.52
637.813	25.37
638.228	25.22
638.642	25.08
639.056	24.93
639.47	24.79
639.884	24.63
640.298	24.47
640.712	24.3
641.126	24.12
641.54	23.97
641.954	23.82
642.368	23.62
642.781	23.43
643.195	23.22
643.609	23.03
644.022	22.84
644.436	22.65
644.849	22.48
645.262	22.3
645.676	22.11
646.089	21.95
646.502	21.76
646.915	21.61
647.328	21.44
647.741	21.29
648.154	21.14
648.567	21.01
648.98	20.87
649.393	20.73
649.805	20.6
650.218	20.49
650.631	20.35
651.043	20.23
651.456	20.12
651.868	20
652.28	19.87
652.693	19.74
653.105	19.6
653.517	19.46
653.929	19.3
654.341	19.14
654.753	18.96
655.165	18.78
655.577	18.55
655.989	18.33
656.401	18.08
656.813	17.85
657.224	17.61
657.636	17.37
658.047	17.11
658.459	16.85
658.87	16.58
659.282	16.31
659.693	16.04
660.104	15.79
660.515	15.52
660.926	15.28
661.338	15.03
661.749	14.76
662.159	14.52
662.57	14.27
662.981	14.03
663.392	13.81
663.803	13.58
664.213	13.35
664.624	13.17
665.035	12.96
665.445	12.78
665.855	12.6
666.266	12.44
666.676	12.27
667.086	12.11
667.497	11.96
667.907	11.82
668.317	11.7
668.727	11.59
669.137	11.49
669.547	11.4
669.956	11.32
670.366	11.23
670.776	11.16
671.186	11.1
671.595	11.06
672.005	11.03
672.414	10.99
672.824	10.97
673.233	10.96
673.642	10.92
674.052	10.9
674.461	10.88
674.87	10.89
675.279	10.89
675.688	10.9
676.097	10.92
676.506	10.95
676.915	11
677.323	11.05
677.732	11.12
678.141	11.21
678.549	11.32
678.958	11.44
679.366	11.56
679.775	11.74
680.183	11.94
680.592	12.16
681	12.4
681.408	12.66
681.816	12.96
682.224	13.3
682.632	13.68
683.04	14.08
683.448	14.52
683.856	15.02
684.264	15.56
684.671	16.11
685.079	16.7
685.487	17.34
685.894	18.02
686.302	18.73
686.709	19.46
687.116	20.19
687.524	21
687.931	21.8
688.338	22.61
688.745	23.44
689.152	24.29
689.559	25.16
689.966	26
690.373	26.86
690.78	27.7
691.187	28.55
691.593	29.4
692	30.22
692.407	31.06
692.813	31.87
693.22	32.62
693.626	33.41
694.032	34.16
694.439	34.93
694.845	35.66
695.251	36.38
695.657	37.07
696.063	37.73
696.469	38.36
696.875	38.99
697.281	39.6
697.687	40.24
698.093	40.8
698.498	41.35
698.904	41.9
699.31	42.42
699.715	42.94
700.12	43.42
700.526	43.9
700.931	44.36
701.337	44.82
701.742	45.22
702.147	45.63
702.552	46.05
702.957	46.46
703.362	46.84
703.767	47.19
704.172	47.53
704.577	47.89
704.981	48.26
705.386	48.58
705.791	48.9
706.195	49.2
706.6	49.48
707.004	49.76
707.408	50.03
707.813	50.27
708.217	50.52
708.621	50.78
709.025	51.02
709.43	51.22
709.834	51.48
710.237	51.66
710.641	51.88
711.045	52.09
711.449	52.26
711.853	52.44
712.256	52.66
712.66	52.86
713.064	53.03
713.467	53.19
713.87	53.37
714.274	53.53
714.677	53.7
715.08	53.87
715.484	54.07
715.887	54.24
716.29	54.39
716.693	54.5
717.096	54.67
717.499	54.83
717.901	54.95
718.304	55.07
718.707	55.2
719.109	55.34
719.512	55.47
719.915	55.55
720.317	55.69
720.719	55.82
721.122	55.92
721.524	56.04
721.926	56.14
722.328	56.27
722.731	56.39
723.133	56.48
723.535	56.6
723.937	56.7
724.338	56.81
724.74	56.86
725.142	56.9
725.544	56.98
725.945	57
726.347	57.08
726.748	57.1
727.15	57.17
727.551	57.23
727.952	57.26
728.354	57.33
728.755	57.37
729.156	57.46
729.557	57.58
729.958	57.65
730.359	57.73
730.76	57.74
731.161	57.85
731.562	57.9
731.962	57.96
732.363	58
732.763	58.04
733.164	58.06
733.564	58.07
733.965	58.06
734.365	58.08
734.766	58.11
735.166	58.13
735.566	58.09
735.966	58.11
736.366	58.1
736.766	58.11
737.166	58.13
737.566	58.16
737.966	58.21
738.365	58.24
738.765	58.28
739.165	58.29
739.564	58.29
739.964	58.29
740.363	58.31
740.763	58.34
741.162	58.33
741.561	58.36
741.96	58.35
742.36	58.37
742.759	58.37
743.158	58.35
743.557	58.4
743.955	58.46
744.354	58.54
744.753	58.6
745.152	58.6
745.55	58.64
745.949	58.65
746.348	58.69
746.746	58.67
747.144	58.72
747.543	58.76
747.941	58.81
748.339	58.84
748.737	58.89
749.136	58.87
749.534	58.91
749.932	58.93
750.33	58.93
750.727	58.93
751.125	58.94
751.523	58.92
751.921	58.91
752.318	58.85
752.716	58.79
753.113	58.74
753.511	58.7
753.908	58.66
754.305	58.59
754.703	58.58
755.1	58.53
755.497	58.53
755.894	58.5
756.291	58.49
756.688	58.49
757.085	58.49
757.482	58.46
757.878	58.46
758.275	58.44
758.672	58.5
759.068	58.5
759.465	58.53
759.861	58.51
760.258	58.48
760.654	58.47
761.05	58.45
761.447	58.45
761.843	58.44
762.239	58.41
762.635	58.4
763.031	58.37
763.427	58.33
763.822	58.29
764.218	58.27
764.614	58.3
765.01	58.27
765.405	58.26
765.801	58.22
766.196	58.25
766.592	58.29
766.987	58.3
767.382	58.3
767.778	58.31
768.173	58.31
768.568	58.3
768.963	58.28
769.358	58.31
769.753	58.36
770.148	58.36
770.542	58.34
770.937	58.33
771.332	58.32
771.726	58.3
772.121	58.25
772.515	58.28
772.91	58.29
773.304	58.29
773.699	58.29
774.093	58.2
774.487	58.21
774.881	58.22
775.275	58.2
775.669	58.21
776.063	58.2
776.457	58.21
776.851	58.17
777.245	58.19
777.638	58.2
778.032	58.21
778.425	58.28
778.819	58.28
779.212	58.29
779.606	58.3
779.999	58.29
780.392	58.29
780.786	58.31
781.179	58.36
781.572	58.34
781.965	58.33
782.358	58.26
782.751	58.27
783.143	58.3
783.536	58.34
783.929	58.37
784.322	58.37
784.714	58.37
785.107	58.43
785.499	58.41
785.891	58.45
786.284	58.43
786.676	58.5
787.068	58.45
787.46	58.41
787.852	58.36
788.245	58.31
788.636	58.31
789.028	58.32
789.42	58.25
789.812	58.25
790.204	58.2
790.595	58.21
790.987	58.19
791.378	58.23
791.77	58.28
792.161	58.33
792.553	58.32
792.944	58.35
793.335	58.39
793.726	58.41
794.117	58.41
794.508	58.46
794.899	58.46
795.29	58.43
795.681	58.44
796.072	58.43
796.463	58.36
796.853	58.38
797.244	58.38
797.634	58.36
798.025	58.38
798.415	58.42
798.806	58.41
799.196	58.43
799.586	58.47
799.976	58.49
800.366	58.49
800.756	58.53
801.146	58.56
801.536	58.57
801.926	58.59
802.316	58.59
802.706	58.61
803.095	58.64
803.485	58.68
803.874	58.72
804.264	58.76
804.653	58.76
805.043	58.78
805.432	58.73
805.821	58.73
806.21	58.76
806.599	58.8
806.988	58.76
807.377	58.78
807.766	58.77
808.155	58.78
808.544	58.75
808.933	58.77
809.321	58.85
809.71	58.95
810.098	58.96
810.487	59.03
810.875	59.06
811.264	59.12
811.652	59.13
812.04	59.12
812.428	59.16
812.816	59.2
813.204	59.21
813.592	59.17
813.98	59.14
814.368	59.13
814.756	59.07
815.144	59.11
815.531	59.11
815.919	59.1
816.306	59.16
816.694	59.19
817.081	59.17
817.469	59.19
817.856	59.24
818.243	59.27
818.63	59.32
819.017	59.36
819.404	59.32
819.791	59.34
820.178	59.37
820.565	59.38
820.952	59.36
821.339	59.41
821.725	59.42
822.112	59.4
822.498	59.4
822.885	59.39
823.271	59.39
823.657	59.39
824.044	59.37
824.43	59.36
824.816	59.32
825.202	59.26
825.588	59.22
825.974	59.2
826.36	59.19
826.746	59.22
827.132	59.2
827.517	59.19
827.903	59.21
828.289	59.21
828.674	59.21
829.06	59.23
829.445	59.27
829.83	59.3
830.216	59.29
830.601	59.26
830.986	59.23
831.371	59.27
831.756	59.24
832.141	59.23
832.526	59.17
832.911	59.17
833.295	59.13
833.68	59.11
834.065	59.07
834.449	59.08
834.834	59.06
835.218	59.02
835.603	59
835.987	58.97
836.371	58.94
836.755	58.92
837.139	58.87
837.524	58.88
837.908	58.86
838.291	58.83
838.675	58.79
839.059	58.78
839.443	58.79
839.827	58.75
840.21	58.78
840.594	58.75
840.977	58.76
841.361	58.78
841.744	58.78
842.127	58.76
842.511	58.75
842.894	58.74
843.277	58.75
843.66	58.71
844.043	58.71
844.426	58.67
844.809	58.67
845.191	58.64
845.574	58.61
845.957	58.55
846.339	58.58
846.722	58.57
847.104	58.57
847.487	58.59
847.869	58.59
848.252	58.62
848.634	58.63
849.016	58.64
849.398	58.65
849.78	58.63
850.162	58.68
850.544	58.68
850.926	58.69
851.307	58.67
851.689	58.63
852.071	58.63
852.452	58.61
852.834	58.61
853.215	58.6
853.597	58.61
853.978	58.6
854.359	58.58
854.741	58.56
855.122	58.56
855.503	58.57
855.884	58.57
856.265	58.54
856.646	58.53
857.026	58.52
857.407	58.5
857.788	58.52
858.169	58.53
858.549	58.53
858.93	58.52
859.31	58.5
859.69	58.48
860.071	58.51
860.451	58.52
860.831	58.51
861.211	58.51
861.591	58.52
861.971	58.48
862.351	58.52
862.731	58.52
863.111	58.54
863.491	58.54
863.87	58.56
864.25	58.55
864.629	58.57
865.009	58.59
865.388	58.59
865.768	58.6
866.147	58.63
866.526	58.59
866.905	58.59
867.284	58.6
867.663	58.63
868.042	58.6
868.421	58.59
868.8	58.58
869.179	58.56
869.558	58.54
869.936	58.53
870.315	58.5
870.693	58.53
871.072	58.52
871.45	58.49
871.828	58.46
872.207	58.52
872.585	58.51
872.963	58.47
873.341	58.46
873.719	58.45
874.097	58.46
874.475	58.46
874.853	58.43
875.23	58.42
875.608	58.45
875.986	58.44
876.363	58.39
876.741	58.41
877.118	58.46
877.495	58.47
877.873	58.48
878.25	58.48
878.627	58.48
879.004	58.48
879.381	58.5
879.758	58.46
880.135	58.48
880.512	58.48
880.889	58.48
881.265	58.49
881.642	58.48
882.019	58.5
882.395	58.51
882.772	58.51
883.148	58.52
883.524	58.52
883.901	58.54
884.277	58.5
884.653	58.5
885.029	58.47
885.405	58.42
885.781	58.42
886.157	58.41
886.532	58.37
886.908	58.38
887.284	58.37
887.659	58.36
888.035	58.34
888.411	58.33
888.786	58.31
889.161	58.31
889.537	58.3
889.912	58.25
890.287	58.21
890.662	58.2
891.037	58.14
891.412	58.07
891.787	58.04
892.162	58
892.536	57.98
892.911	57.95
893.286	57.9
893.66	57.86
894.035	57.83
894.409	57.79
894.784	57.77
895.158	57.78
895.532	57.75
895.906	57.75
896.281	57.73
896.655	57.69
897.029	57.67
897.402	57.67
897.776	57.69
898.15	57.69
898.524	57.72
898.898	57.69
899.271	57.68
899.645	57.72
900.018	57.73
900.392	57.77
900.765	57.8
901.138	57.82
901.511	57.83
901.884	57.84
902.258	57.88
902.631	57.86
903.003	57.9
903.376	57.9
903.749	57.89
904.122	57.91
904.495	57.92
904.867	57.93
905.24	57.95
905.612	57.93
905.985	57.9
906.357	57.88
906.729	57.9
907.102	57.9
907.474	57.91
907.846	57.92
908.218	57.85
908.59	57.8
908.962	57.8
909.334	57.78
909.705	57.8
910.077	57.79
910.449	57.81
910.82	57.8
911.192	57.77
911.563	57.77
911.935	57.73
912.306	57.77
912.677	57.79
913.048	57.78
913.419	57.73
913.79	57.73
914.161	57.77
914.532	57.75
914.903	57.75
915.274	57.79
915.645	57.82
916.015	57.84
916.386	57.8
916.756	57.79
917.127	57.77
917.497	57.8
917.868	57.84
918.238	57.86
918.608	57.86
918.978	57.85
919.348	57.81
919.718	57.8
920.088	57.79
920.458	57.86
920.828	57.87
921.198	57.91
921.567	57.92
921.937	57.9
922.306	57.88
922.676	57.9
923.045	57.87
923.415	57.86
923.784	57.85
924.153	57.85
924.522	57.8
924.891	57.79
925.26	57.75
925.629	57.71
925.998	57.72
926.367	57.68
926.736	57.64
927.104	57.7
927.473	57.79
927.842	57.77
928.21	57.83
928.578	57.84
928.947	57.85
929.315	57.88
929.683	57.91
930.051	57.86
930.42	57.86
930.788	57.87
931.156	57.81
931.523	57.7
931.891	57.68
932.259	57.55
932.627	57.45
932.994	57.39
933.362	57.32
933.729	57.24
934.097	57.18
934.464	57.13
934.831	57.07
935.199	56.99
935.566	56.9
935.933	56.95
936.3	56.9
936.667	56.88
937.034	56.86
937.401	56.88
937.767	56.86
938.134	56.83
938.501	56.82
938.867	56.92
939.234	57.06
939.6	57.22
939.967	57.15
940.333	57.37
940.699	57.54
941.065	57.65
941.431	57.76
941.798	57.96
942.163	58.12
942.529	58.32
942.895	58.38
943.261	58.4
943.627	58.48
943.992	58.62
944.358	58.65
944.723	58.61
945.089	58.69
945.454	58.71
945.82	58.68
946.185	58.67
946.55	58.74
946.915	58.71
947.28	58.77
947.645	58.87
948.01	58.77
948.375	58.81
948.74	58.84
949.104	58.86
949.469	58.75
949.834	58.69
950.198	58.64
950.562	58.6
950.927	58.56
951.291	58.51
951.655	58.4
952.02	58.39
952.384	58.39
952.748	58.39
953.112	58.34
953.476	58.33
953.839	58.36
954.203	58.33
954.567	58.2
954.931	58.19
955.294	58.12
955.658	58.08
956.021	58.1
956.385	58.04
956.748	57.99
957.111	57.9
957.474	57.86
957.837	57.85
958.2	57.81
958.563	57.8
958.926	57.78
959.289	57.75
959.652	57.79
960.015	57.66
960.377	57.61
960.74	57.51
961.102	57.47
961.465	57.51
961.827	57.35
962.189	57.27
962.552	57.19
962.914	57.16
963.276	57.14
963.638	57.02
964	56.99
964.362	56.96
964.724	57.05
965.085	57.01
965.447	56.94
965.809	57
966.17	57.13
966.532	57.2
966.893	57.13
967.255	57.16
967.616	57.25
967.977	57.32
968.338	57.29
968.699	57.17
969.061	57.2
969.421	57.18
969.782	57.18
970.143	57.11
970.504	57.04
970.865	56.97
971.225	56.93
971.586	56.86
971.946	56.82
972.307	56.86
972.667	56.98
973.027	57.07
973.388	57.09
973.748	57.12
974.108	57.18
974.468	57.23
974.828	57.39
975.188	57.47
975.548	57.5
975.907	57.53
976.267	57.56
976.627	57.54
976.986	57.48
977.346	57.51
977.705	57.55
978.064	57.54
978.424	57.53
978.783	57.53
979.142	57.47
979.501	57.46
979.86	57.45
980.219	57.36
980.578	57.35
980.937	57.37
981.296	57.39
981.654	57.45
982.013	57.47
982.371	57.52
982.73	57.51
983.088	57.51
983.447	57.6
983.805	57.66
984.163	57.74
984.521	57.69
984.879	57.72
985.237	57.72
985.595	57.73
985.953	57.7
986.311	57.79
986.669	57.78
987.026	57.84
987.384	57.76
987.741	57.83
988.099	57.94
988.456	58.02
988.814	58.12
989.171	58.12
989.528	57.98
989.885	57.98
990.242	57.94
990.599	58.01
990.956	57.95
991.313	58.1
991.67	58.03
992.027	57.85
992.383	57.82
992.74	57.71
993.096	57.72
993.453	57.83
993.809	57.97
994.165	58.06
994.522	57.94
994.878	57.95
995.234	57.83
995.59	57.78
995.946	57.99
996.302	58.04
996.658	58.16
997.013	58.14
997.369	58.19
997.725	58.18
998.08	58.14
998.436	58.42
998.791	58.46
999.147	58.6
999.502	58.77
999.857	58.72
1000.212	58.74
1000.567	58.68
1000.922	58.8
1001.277	58.82
1001.632	58.87
1001.987	58.91
1002.342	58.87
1002.696	58.99
1003.051	58.96
1003.406	58.82
1003.76	58.76
1004.114	58.96
1004.469	59
1004.823	59.1
1005.177	59.25
1005.531	59.08
1005.885	59.1
1006.239	58.89
1006.593	58.89
1006.947	59.02
1007.301	59.27
1007.655	59.48
1008.008	59.3
1008.362	59.55
1008.715	59.47
1009.069	59.28
1009.422	59.38
1009.776	59.34
1010.129	59.61
1010.482	59.76
1010.835	59.82
1011.188	59.8
1011.541	59.6
1011.894	59.77
1012.247	59.71
1012.6	59.96
1012.952	60.28
1013.305	60.26
1013.657	60.37
1014.01	60.54
1014.362	60.61
1014.715	60.53
1015.067	60.81
1015.419	61.2
1015.771	61.46
1016.123	61.43
1016.475	61.44
1016.827	61.43
1017.179	61.68
1017.531	61.87
1017.883	61.93
1018.234	61.84
1018.586	62
1018.938	61.48
1019.289	61.35
1019.64	61.47
1019.992	61.59
1020.343	61.44
1020.694	61.31
1021.045	61.47
1021.396	61.53
1021.747	61.33
1022.098	61.67
1022.449	61.76
1022.8	62.12
1023.151	62.26
1023.501	62.38
1023.852	62.63
1024.202	62.68
1024.553	62.93
1024.903	62.77
1025.253	62.67
1025.604	62.98
1025.954	62.82
1026.304	63.31
1026.654	63.77
1027.004	64.28
1027.354	63.94
1027.703	63.59
1028.053	63.69
1028.403	63.59
1028.753	64.35
1029.102	64.46
1029.452	64.37
1029.801	64.32
1030.15	64
1030.499	63.68
897.758	437.33
901.051	449.86
904.343	454.52
907.636	449.35
910.928	441.63
914.22	446.34
917.511	436.88
920.803	418.1
924.094	399.2
927.384	400.21
930.675	392.29
933.965	389.93
937.255	387.44
940.544	369.99
943.834	356.2
947.123	351.58
950.411	334.73
953.7	328.07
956.988	320.19
960.276	314.1
963.563	311.41
966.851	293.66
970.138	288.3
973.424	269.54
976.711	266.04
979.997	255.27
983.283	249.61
986.568	242.55
989.853	238.51
993.138	230.74
996.423	225.43
999.708	217.79
1002.992	218.23
1006.275	212.98
1009.559	211.73
1012.842	206.62
1016.125	200.62
1019.408	196.95
1022.69	196.18
1025.972	192.79
1029.254	189.85
1032.536	186.27
1035.817	181.83
1039.098	179.12
1042.379	175.36
1045.659	173.38
1048.939	171.57
1052.219	169.01
1055.498	168.18
1058.778	165.3
1062.057	161.88
1065.335	160.06
1068.614	157.83
1071.892	155.76
1075.17	153.68
1078.447	151.52
1081.724	149.81
1085.001	146.34
1088.278	146.88
1091.554	143.91
1094.83	143.4
1098.106	142.55
1101.382	141.51
1104.657	141.29
1107.932	140.47
1111.206	140.21
1114.481	139.7
1117.755	138.94
1121.029	139.23
1124.302	137.58
1127.575	136.33
1130.848	135.29
1134.121	134.28
1137.393	134.28
1140.665	133.31
1143.937	132.24
1147.208	130.1
1150.48	128.35
1153.75	127.86
1157.021	127.32
1160.291	126.31
1163.561	126
1166.831	125.2
1170.101	124.12
1173.37	123.32
1176.639	122.13
1179.907	122.19
1183.176	121.88
1186.444	122.09
1189.711	121.58
1192.979	121.97
1196.246	122.16
1199.513	122.03
1202.78	122.01
1206.046	121.62
1209.312	123.01
1212.578	123.64
1215.843	125.27
1219.108	126.53
1222.373	128.14
1225.638	129.57
1228.902	131.98
1232.166	135.71
1235.43	137.03
1238.693	141.1
1241.956	144.09
1245.219	146.79
1248.482	148.44
1251.744	147.74
1255.006	147.12
1258.268	143.52
1261.529	142.71
1264.79	138.95
1268.051	136.55
1271.312	135.88
1274.572	132.87
1277.832	130.7
1281.092	128.49
1284.351	125.48
1287.61	125.47
1290.869	125.19
1294.128	125.27
1297.386	124.09
1300.644	124.47
1303.902	123.45
1307.159	122.56
1310.416	123.56
1313.673	124.7
1316.93	126.04
1320.186	128.3
1323.442	128.66
1326.697	131.07
1329.953	131.96
1333.208	136.83
1336.463	141.97
1339.717	144.35
1342.972	150.88
1346.226	153.05
1349.479	154.3
1352.733	158.96
1355.986	161.93
1359.238	166.28
1362.491	167.6
1365.743	171.88
1368.995	173
1372.247	173.65
1375.498	173.29
1378.749	177.07
1382	178.66
1385.251	176.46
1388.501	176.97
1391.751	177.73
1395	175.75
1398.25	177.52
1401.499	177.65
1404.748	175.86
1407.996	167.59
1411.244	168.28
1414.492	166.49
1417.74	160.79
1420.987	158.06
1424.234	155.37
1427.481	149.5
1430.728	145.75
1433.974	140.82
1437.22	136.34
1440.465	130.97
1443.711	128.13
1446.956	124.45
1450.201	119.27
1453.445	114.57
1456.689	111.89
1459.933	108
1463.177	103.78
1466.42	102.85
1469.663	99.36
1472.906	97.05
1476.148	95.38
1479.391	93.8
1482.633	92.07
1485.874	90.78
1489.115	90.31
1492.356	88.97
1495.597	87.5
1498.838	88.59
1502.078	87.17
1505.318	87.24
1508.557	86.4
1511.797	86.1
1515.036	85.72
1518.274	85.85
1521.513	85.5
1524.751	84.8
1527.989	85.55
1531.227	86
1534.464	85.14
1537.701	85.23
1540.938	84.69
1544.174	85.08
1547.41	85.59
1550.646	85.68
1553.882	85.65
1557.117	85.26
1560.352	85.73
1563.587	84.77
1566.821	84.52
1570.055	83.9
1573.289	84.07
1576.523	84.39
1579.756	84.53
1582.989	83.88
1586.222	83.96
1589.454	83.84
1592.686	84.5
1595.918	84.2
1599.15	84.4
1602.381	84.68
1605.612	85.07
1608.843	84.8
1612.073	84.95
1615.303	85.1
1618.533	85.42
1621.762	85.5
1624.992	85.12
1628.221	84.49
1631.449	84.82
1634.678	84.71
1637.906	84.56
1641.134	84.8
1644.361	84.61
1647.588	85.35
1650.815	85.11
1654.042	85.02
1657.269	84.67
1660.495	85.44
1663.72	85.46
1666.946	85.55
1670.171	86.36
1673.396	86.5
1676.621	86.83
1679.845	87.1
1683.069	86.63
1686.293	86.16
1689.517	86.69
1692.74	87.09
1695.963	87.29
1699.185	87.89
1702.408	87.11
1705.63	87.13
1708.852	88.16
1712.073	87.61
1715.294	87.56
1718.515	87.92
1721.736	88.51
1724.956	88.45
1728.176	88.25
1731.396	88.33
1734.616	88.29
1737.835	89.33
1741.054	88.68
1744.272	87.93
1747.491	88.4
1750.709	88.59
1753.927	88.08
1757.144	88.68
1760.361	88.65
1763.578	88.96
1766.795	89.14
1770.011	88.93
1773.227	88.99
1776.443	90.39
1779.658	89.76
1782.874	90.39
1786.089	90.26
1789.303	90.61
1792.518	91.45
1795.732	91.45
1798.945	92.64
1802.159	92.09
1805.372	93.42
1808.585	94.14
1811.797	93.91
1815.01	95.22
1818.222	95.55
1821.434	96.53
1824.645	96.81
1827.856	97.49
1831.067	98.23
1834.278	98.55
1837.488	99.92
1840.698	100.75
1843.908	100.49
1847.117	101.53
1850.326	101.92
1853.535	102.36
1856.744	103.5
1859.952	104.54
1863.16	103.31
1866.368	103.31
1869.575	102.73
1872.782	101.53
1875.989	99.45
1879.196	100.17
1882.402	98.23
1885.608	98.15
1888.814	97.21
1892.019	97.13
1895.224	94.98
1898.429	95.3
1901.634	94.35
1904.838	95.51
1908.042	96.32
1911.246	95.17
1914.449	94.18
1917.652	94.4
1920.855	94.25
1924.058	93.47
1927.26	92.05
1930.462	92.72
1933.664	92.68
1936.865	93.5
1940.066	91.33
1943.267	90.4
1946.467	92.29
1949.668	92.6
1952.868	92.62
1956.067	92.76
1959.267	93.1
1962.466	93.73
1965.665	95.36
1968.863	95.06
1972.061	96.1
1975.259	98.37
1978.457	99.58
1981.654	100.94
1984.852	101.4
1988.048	103.18
1991.245	105.16
1994.441	107.02
1997.637	109.61
2000.833	110.88
2004.028	113.44
2007.223	114.98
2010.418	117.28
2013.613	122.5
2016.807	124.81
2020.001	128.26
2023.194	130.87
2026.388	135.37
2029.581	142.61
2032.774	146.71
2035.966	150.78
2039.158	154.2
2042.35	157.98
2045.542	160.08
2048.733	168.87
2051.924	168.24
2055.115	171.07
2058.306	173.99
2061.496	174.33
2064.686	175.72
2067.875	174.25
2071.065	178.22
2074.254	177.22
2077.442	181.94
2080.631	185.91
2083.819	181.97
2087.007	190.32
2090.195	191.16
2093.382	189.52
2096.569	192.13
2099.756	194.42
2102.942	199.19
2106.128	200.87
2109.314	204.6
2112.5	205.95
2115.685	201.73
2118.87	203.19
2122.055	203
2125.239	207.04
2128.424	215.58
2131.608	214.57
2134.791	211.6
2137.974	212.47
2141.157	214.42
2144.34	215.76
2147.523	220.46
2150.705	227.35
2153.887	225.08
2157.068	226.86
2160.25	229.67
2163.431	229.21
2166.611	230.88
2169.792	238.91
2172.972	240.01
2176.152	241.6
2179.331	246.22
2182.511	244.25
2185.69	248.16
2188.868	255.71
2192.047	261.11
2195.225	265.78
2198.403	265.75
2201.58	263.29
2204.758	273.12
2207.935	275.08
2211.111	279.35
2214.288	280.28
2217.464	284.94
2220.64	286.97
2223.815	288.81
2226.991	288.14
2230.166	288.3
2233.34	298.03
2236.515	308.55
2239.689	300.22
2242.863	305.55
2246.036	305.45
2249.209	311
2252.382	308.59
2255.555	319.18
2258.727	322.23
2261.9	331.08
2265.071	335.63
2268.243	331.49
2271.414	340.63
2274.585	350.21
2277.756	349.89
2280.926	359.85
2284.096	364.6
2287.266	367.62
2290.436	358.61
2293.605	367.17
2296.774	375.65
2299.942	378.53
2303.111	393.4
2306.279	400.17
2309.447	396.76
2312.614	401.29
2315.781	408.18
2318.948	415.96
2322.115	423.24
2325.281	446.75
2328.447	437.97
2331.613	445.6
2334.779	448.5
2337.944	455.44
2341.109	461.66
2344.274	470.08
2347.438	479.86
2350.602	491.94
2353.766	514.56
2356.929	517.91
2360.092	523.47
2363.255	530.82
2366.418	531.78
2369.58	544.47
2372.742	550.19
2375.904	547.85
2379.066	565.65
2382.227	596.06
2385.388	597.94
2388.548	564.91
2391.709	556.09
2394.869	574.22
2398.029	575.01
2401.188	581.6
2404.347	596.97
2407.506	609.26
2410.665	591.15
2413.823	589.41
2416.981	590.7
2420.139	559.58
2423.296	606.51
2426.453	649.51
2429.61	615.26
2432.767	658.94
2435.923	674.77
2439.079	659.65
2442.235	668.65
2445.391	680.75
2448.546	677.12
2451.701	714.85
2454.855	759.19
2458.009	680.7
2461.163	690.38
2464.317	705.63
2467.471	689.15
2470.624	709.11
2473.777	692.16
2476.929	676.03
2480.082	722.17
2483.234	757.7
2486.385	775.42
2489.537	795.04
2492.688	871.47
2495.839	864.52
2498.989	885.69
2502.14	892.44
2505.29	854.62
2508.439	937.22
2511.589	958.12
2514.738	936
2517.887	922.15
2521.035	865.07
2524.183	843.93
2527.331	836.31
2530.479	809.5
2533.627	824.75
