Data from N_3_dec_va_2n_Splice17_10.txt Node
Date: Sat Feb 29 15:02:59 EST 2020
User: sa697716
Spectrometer: FLMS03696
Trigger mode: 0
Integration Time (sec): 3.180400E-1
Scans to average: 20
Electric dark correction enabled: true
Nonlinearity correction enabled: true
Boxcar width: 5
XAxis mode: Wavelengths
Number of Pixels in Spectrum: 2048
>>>>>Begin Spectral Data<<<<<
187.83	107.26
188.298	89.92
188.766	68.71
189.233	61.54
189.701	74.86
190.169	85.64
190.636	78.75
191.104	39.22
191.571	-101.77
192.039	7.15
192.506	733.25
192.974	11373.31
193.441	-418.4
193.908	21.83
194.375	-77.75
194.842	-59.3
195.31	42.25
195.777	-3.22
196.244	34.56
196.711	68.21
197.177	74.14
197.644	74.77
198.111	76.56
198.578	78.16
199.045	78.81
199.511	79.5
199.978	80.06
200.445	79.62
200.911	79.84
201.378	80.49
201.844	81.27
202.31	81.76
202.777	82.18
203.243	82.4
203.709	81.96
204.176	81.61
204.642	81.41
205.108	81.18
205.574	82.04
206.04	81.61
206.506	80.85
206.972	79.69
207.438	78.61
207.903	77.82
208.369	76.35
208.835	75.72
209.301	75.01
209.766	73.39
210.232	72.22
210.697	70.43
211.163	69.21
211.628	67.46
212.094	66.17
212.559	64.71
213.024	63.44
213.49	61.78
213.955	60.04
214.42	58.38
214.885	56.74
215.35	54.33
215.815	51.24
216.28	48.26
216.745	44.98
217.21	41.49
217.675	38.16
218.14	34.91
218.604	32.15
219.069	29.71
219.534	27.65
219.998	25.78
220.463	24.38
220.927	23.19
221.392	22.05
221.856	21.12
222.32	20.3
222.785	19.56
223.249	18.95
223.713	18.48
224.177	17.96
224.642	17.47
225.106	17.08
225.57	16.6
226.034	16.22
226.497	15.82
226.961	15.44
227.425	15.1
227.889	14.77
228.353	14.43
228.816	14.1
229.28	13.79
229.744	13.54
230.207	13.28
230.671	13.07
231.134	12.79
231.597	12.58
232.061	12.38
232.524	12.2
232.987	11.99
233.45	11.79
233.914	11.6
234.377	11.46
234.84	11.29
235.303	11.13
235.766	10.97
236.229	10.84
236.691	10.72
237.154	10.59
237.617	10.43
238.08	10.34
238.542	10.25
239.005	10.17
239.468	10.03
239.93	9.92
240.393	9.81
240.855	9.71
241.317	9.61
241.78	9.51
242.242	9.4
242.704	9.33
243.166	9.22
243.629	9.12
244.091	9.01
244.553	8.93
245.015	8.85
245.477	8.75
245.939	8.67
246.4	8.58
246.862	8.5
247.324	8.43
247.786	8.35
248.247	8.27
248.709	8.18
249.17	8.1
249.632	8.02
250.093	7.93
250.555	7.86
251.016	7.79
251.477	7.71
251.939	7.64
252.4	7.56
252.861	7.49
253.322	7.43
253.783	7.38
254.244	7.31
254.705	7.25
255.166	7.21
255.627	7.15
256.088	7.09
256.549	7.03
257.009	6.98
257.47	6.93
257.931	6.87
258.391	6.8
258.852	6.74
259.312	6.69
259.773	6.63
260.233	6.56
260.694	6.5
261.154	6.45
261.614	6.39
262.074	6.34
262.534	6.28
262.994	6.22
263.455	6.18
263.915	6.12
264.374	6.06
264.834	6.02
265.294	5.97
265.754	5.93
266.214	5.88
266.673	5.84
267.133	5.8
267.593	5.77
268.052	5.74
268.512	5.7
268.971	5.67
269.431	5.65
269.89	5.61
270.349	5.58
270.809	5.56
271.268	5.54
271.727	5.52
272.186	5.49
272.645	5.46
273.104	5.45
273.563	5.43
274.022	5.41
274.481	5.38
274.94	5.36
275.399	5.34
275.857	5.31
276.316	5.29
276.775	5.26
277.233	5.25
277.692	5.23
278.15	5.21
278.609	5.19
279.067	5.17
279.525	5.15
279.984	5.14
280.442	5.13
280.9	5.11
281.358	5.1
281.816	5.09
282.274	5.07
282.732	5.07
283.19	5.07
283.648	5.05
284.106	5.04
284.564	5.04
285.021	5.04
285.479	5.04
285.937	5.03
286.394	5.03
286.852	5.02
287.309	5
287.767	4.98
288.224	4.96
288.682	4.94
289.139	4.93
289.596	4.89
290.053	4.86
290.511	4.82
290.968	4.8
291.425	4.76
291.882	4.73
292.339	4.7
292.796	4.66
293.252	4.63
293.709	4.61
294.166	4.58
294.623	4.57
295.079	4.56
295.536	4.53
295.992	4.51
296.449	4.49
296.905	4.48
297.362	4.46
297.818	4.46
298.274	4.44
298.731	4.43
299.187	4.41
299.643	4.4
300.099	4.38
300.555	4.36
301.011	4.35
301.467	4.34
301.923	4.32
302.379	4.31
302.835	4.31
303.291	4.29
303.746	4.28
304.202	4.27
304.658	4.26
305.113	4.25
305.569	4.25
306.024	4.24
306.479	4.23
306.935	4.24
307.39	4.24
307.845	4.23
308.301	4.24
308.756	4.24
309.211	4.25
309.666	4.25
310.121	4.25
310.576	4.26
311.031	4.26
311.486	4.27
311.94	4.26
312.395	4.26
312.85	4.26
313.305	4.26
313.759	4.26
314.214	4.25
314.668	4.24
315.123	4.24
315.577	4.23
316.032	4.23
316.486	4.22
316.94	4.21
317.394	4.2
317.849	4.18
318.303	4.17
318.757	4.14
319.211	4.12
319.665	4.11
320.119	4.09
320.572	4.08
321.026	4.06
321.48	4.04
321.934	4.04
322.387	4.03
322.841	4.03
323.295	4.02
323.748	4.01
324.202	4
324.655	4
325.108	3.98
325.562	3.97
326.015	3.97
326.468	3.95
326.921	3.93
327.374	3.92
327.827	3.9
328.28	3.89
328.733	3.88
329.186	3.88
329.639	3.87
330.092	3.87
330.545	3.87
330.997	3.87
331.45	3.88
331.903	3.88
332.355	3.88
332.808	3.89
333.26	3.89
333.713	3.9
334.165	3.91
334.617	3.93
335.069	3.93
335.522	3.95
335.974	3.95
336.426	3.95
336.878	3.96
337.33	3.97
337.782	3.97
338.234	3.97
338.686	3.97
339.137	3.97
339.589	3.96
340.041	3.96
340.493	3.94
340.944	3.92
341.396	3.92
341.847	3.9
342.299	3.88
342.75	3.86
343.201	3.84
343.653	3.81
344.104	3.79
344.555	3.78
345.006	3.76
345.457	3.75
345.908	3.74
346.359	3.73
346.81	3.73
347.261	3.72
347.712	3.72
348.163	3.71
348.613	3.71
349.064	3.7
349.515	3.68
349.965	3.67
350.416	3.66
350.866	3.66
351.317	3.64
351.767	3.64
352.217	3.64
352.668	3.64
353.118	3.64
353.568	3.65
354.018	3.66
354.468	3.67
354.918	3.68
355.368	3.7
355.818	3.7
356.268	3.71
356.718	3.71
357.168	3.69
357.617	3.69
358.067	3.69
358.517	3.69
358.966	3.69
359.416	3.69
359.865	3.7
360.315	3.68
360.764	3.68
361.213	3.67
361.663	3.67
362.112	3.68
362.561	3.67
363.01	3.67
363.459	3.66
363.908	3.65
364.357	3.64
364.806	3.63
365.255	3.63
365.703	3.64
366.152	3.64
366.601	3.65
367.05	3.65
367.498	3.65
367.947	3.65
368.395	3.66
368.844	3.67
369.292	3.66
369.74	3.66
370.189	3.65
370.637	3.64
371.085	3.64
371.533	3.63
371.981	3.62
372.429	3.61
372.877	3.6
373.325	3.58
373.773	3.56
374.221	3.56
374.669	3.56
375.116	3.55
375.564	3.55
376.012	3.55
376.459	3.55
376.907	3.56
377.354	3.56
377.801	3.57
378.249	3.57
378.696	3.58
379.143	3.58
379.591	3.57
380.038	3.58
380.485	3.58
380.932	3.58
381.379	3.57
381.826	3.57
382.273	3.57
382.72	3.56
383.166	3.56
383.613	3.56
384.06	3.56
384.506	3.56
384.953	3.55
385.4	3.55
385.846	3.54
386.292	3.55
386.739	3.55
387.185	3.56
387.631	3.56
388.078	3.56
388.524	3.54
388.97	3.54
389.416	3.54
389.862	3.53
390.308	3.53
390.754	3.53
391.2	3.54
391.645	3.55
392.091	3.54
392.537	3.55
392.983	3.55
393.428	3.57
393.874	3.59
394.319	3.59
394.765	3.61
395.21	3.61
395.655	3.62
396.101	3.63
396.546	3.64
396.991	3.65
397.436	3.64
397.881	3.66
398.326	3.69
398.771	3.71
399.216	3.73
399.661	3.75
400.106	3.79
400.551	3.79
400.995	3.79
401.44	3.79
401.885	3.81
402.329	3.83
402.774	3.82
403.218	3.82
403.663	3.82
404.107	3.84
404.551	3.86
404.995	3.86
405.44	3.87
405.884	3.89
406.328	3.92
406.772	3.93
407.216	3.96
407.66	3.98
408.104	4
408.547	4.02
408.991	4.03
409.435	4.03
409.879	4.03
410.322	4.07
410.766	4.09
411.209	4.11
411.653	4.12
412.096	4.13
412.54	4.17
412.983	4.2
413.426	4.24
413.869	4.27
414.312	4.32
414.756	4.36
415.199	4.39
415.642	4.43
416.085	4.46
416.527	4.48
416.97	4.5
417.413	4.48
417.856	4.46
418.298	4.43
418.741	4.44
419.184	4.43
419.626	4.42
420.069	4.41
420.511	4.41
420.953	4.4
421.396	4.41
421.838	4.43
422.28	4.47
422.722	4.52
423.164	4.55
423.606	4.57
424.048	4.57
424.49	4.6
424.932	4.61
425.374	4.62
425.816	4.62
426.258	4.6
426.699	4.59
427.141	4.56
427.582	4.56
428.024	4.57
428.465	4.58
428.907	4.6
429.348	4.6
429.789	4.61
430.231	4.61
430.672	4.65
431.113	4.7
431.554	4.73
431.995	4.76
432.436	4.77
432.877	4.76
433.318	4.76
433.759	4.78
434.2	4.79
434.64	4.81
435.081	4.83
435.522	4.84
435.962	4.85
436.403	4.89
436.843	4.9
437.284	4.93
437.724	4.97
438.164	4.99
438.604	5.01
439.045	5.05
439.485	5.07
439.925	5.09
440.365	5.08
440.805	5.09
441.245	5.06
441.685	5.09
442.125	5.1
442.564	5.11
443.004	5.13
443.444	5.14
443.883	5.14
444.323	5.14
444.762	5.18
445.202	5.24
445.641	5.26
446.081	5.31
446.52	5.33
446.959	5.34
447.398	5.37
447.837	5.41
448.276	5.43
448.716	5.45
449.154	5.49
449.593	5.51
450.032	5.51
450.471	5.52
450.91	5.53
451.349	5.53
451.787	5.53
452.226	5.52
452.664	5.5
453.103	5.49
453.541	5.48
453.98	5.45
454.418	5.41
454.856	5.38
455.295	5.34
455.733	5.33
456.171	5.32
456.609	5.3
457.047	5.28
457.485	5.28
457.923	5.27
458.361	5.26
458.798	5.26
459.236	5.28
459.674	5.29
460.111	5.3
460.549	5.29
460.987	5.28
461.424	5.27
461.862	5.29
462.299	5.3
462.736	5.28
463.173	5.3
463.611	5.29
464.048	5.29
464.485	5.29
464.922	5.29
465.359	5.3
465.796	5.29
466.233	5.3
466.67	5.29
467.106	5.28
467.543	5.3
467.98	5.3
468.416	5.31
468.853	5.29
469.29	5.31
469.726	5.32
470.162	5.32
470.599	5.32
471.035	5.33
471.471	5.32
471.907	5.33
472.344	5.32
472.78	5.3
473.216	5.3
473.652	5.29
474.088	5.28
474.523	5.25
474.959	5.23
475.395	5.24
475.831	5.22
476.266	5.22
476.702	5.19
477.138	5.17
477.573	5.16
478.008	5.15
478.444	5.14
478.879	5.13
479.314	5.13
479.75	5.13
480.185	5.13
480.62	5.13
481.055	5.12
481.49	5.1
481.925	5.09
482.36	5.06
482.795	5.05
483.229	5.05
483.664	5.03
484.099	5.01
484.534	4.99
484.968	4.99
485.403	4.97
485.837	4.97
486.271	4.97
486.706	4.97
487.14	4.99
487.574	4.99
488.009	5.01
488.443	5.02
488.877	5.04
489.311	5.06
489.745	5.07
490.179	5.09
490.613	5.13
491.046	5.16
491.48	5.2
491.914	5.24
492.348	5.28
492.781	5.31
493.215	5.35
493.648	5.41
494.082	5.47
494.515	5.52
494.948	5.58
495.382	5.63
495.815	5.7
496.248	5.76
496.681	5.83
497.114	5.89
497.547	5.97
497.98	6.06
498.413	6.14
498.846	6.22
499.279	6.32
499.711	6.42
500.144	6.53
500.577	6.64
501.009	6.76
501.442	6.87
501.874	7.01
502.306	7.14
502.739	7.27
503.171	7.43
503.603	7.59
504.036	7.75
504.468	7.93
504.9	8.11
505.332	8.3
505.764	8.48
506.196	8.7
506.627	8.92
507.059	9.14
507.491	9.37
507.923	9.6
508.354	9.84
508.786	10.08
509.217	10.33
509.649	10.6
510.08	10.87
510.512	11.13
510.943	11.42
511.374	11.7
511.805	11.99
512.237	12.29
512.668	12.6
513.099	12.93
513.53	13.26
513.961	13.6
514.391	13.91
514.822	14.24
515.253	14.59
515.684	14.93
516.114	15.28
516.545	15.64
516.975	16.01
517.406	16.38
517.836	16.72
518.267	17.08
518.697	17.43
519.127	17.8
519.558	18.17
519.988	18.5
520.418	18.85
520.848	19.2
521.278	19.54
521.708	19.89
522.138	20.21
522.567	20.54
522.997	20.85
523.427	21.16
523.857	21.45
524.286	21.76
524.716	22.05
525.145	22.33
525.575	22.61
526.004	22.88
526.433	23.11
526.863	23.36
527.292	23.59
527.721	23.82
528.15	24.03
528.579	24.25
529.008	24.45
529.437	24.64
529.866	24.81
530.295	24.98
530.724	25.14
531.152	25.3
531.581	25.45
532.01	25.59
532.438	25.72
532.867	25.85
533.295	25.96
533.723	26.06
534.152	26.18
534.58	26.28
535.008	26.37
535.436	26.44
535.865	26.51
536.293	26.57
536.721	26.65
537.149	26.71
537.576	26.77
538.004	26.81
538.432	26.85
538.86	26.89
539.287	26.94
539.715	26.98
540.143	27.02
540.57	27.05
540.998	27.11
541.425	27.14
541.852	27.18
542.28	27.2
542.707	27.25
543.134	27.28
543.561	27.3
543.988	27.33
544.415	27.35
544.842	27.38
545.269	27.42
545.696	27.44
546.123	27.47
546.549	27.5
546.976	27.55
547.403	27.57
547.829	27.6
548.256	27.65
548.682	27.67
549.108	27.71
549.535	27.74
549.961	27.76
550.387	27.76
550.813	27.76
551.24	27.76
551.666	27.78
552.092	27.79
552.518	27.77
552.943	27.77
553.369	27.76
553.795	27.73
554.221	27.71
554.646	27.66
555.072	27.65
555.498	27.63
555.923	27.57
556.349	27.49
556.774	27.41
557.199	27.36
557.625	27.27
558.05	27.17
558.475	27.08
558.9	26.98
559.325	26.88
559.75	26.73
560.175	26.61
560.6	26.48
561.025	26.36
561.449	26.22
561.874	26.06
562.299	25.91
562.723	25.75
563.148	25.58
563.572	25.41
563.997	25.23
564.421	25.05
564.846	24.87
565.27	24.68
565.694	24.49
566.118	24.28
566.542	24.07
566.966	23.87
567.39	23.66
567.814	23.45
568.238	23.24
568.662	23.03
569.086	22.83
569.509	22.63
569.933	22.43
570.357	22.21
570.78	22.01
571.204	21.81
571.627	21.62
572.05	21.44
572.474	21.26
572.897	21.1
573.32	20.93
573.743	20.75
574.166	20.58
574.589	20.42
575.012	20.28
575.435	20.12
575.858	20
576.281	19.86
576.704	19.72
577.126	19.59
577.549	19.45
577.972	19.32
578.394	19.21
578.817	19.08
579.239	18.97
579.661	18.85
580.084	18.75
580.506	18.65
580.928	18.54
581.35	18.45
581.772	18.37
582.194	18.28
582.616	18.19
583.038	18.1
583.46	18.03
583.882	17.95
584.303	17.87
584.725	17.78
585.147	17.67
585.568	17.59
585.99	17.52
586.411	17.43
586.833	17.35
587.254	17.29
587.675	17.21
588.096	17.14
588.518	17.06
588.939	17.01
589.36	16.97
589.781	16.92
590.202	16.87
590.623	16.8
591.043	16.74
591.464	16.68
591.885	16.64
592.305	16.61
592.726	16.55
593.147	16.52
593.567	16.46
593.987	16.43
594.408	16.38
594.828	16.34
595.248	16.31
595.669	16.26
596.089	16.21
596.509	16.14
596.929	16.1
597.349	16.06
597.769	16
598.189	15.97
598.608	15.91
599.028	15.84
599.448	15.8
599.867	15.74
600.287	15.7
600.706	15.66
601.126	15.61
601.545	15.53
601.965	15.47
602.384	15.41
602.803	15.33
603.222	15.26
603.641	15.2
604.061	15.12
604.48	15.05
604.898	14.98
605.317	14.9
605.736	14.82
606.155	14.74
606.574	14.65
606.992	14.57
607.411	14.49
607.829	14.36
608.248	14.28
608.666	14.19
609.085	14.1
609.503	13.99
609.921	13.89
610.339	13.81
610.758	13.71
611.176	13.62
611.594	13.51
612.012	13.41
612.43	13.37
612.847	13.28
613.265	13.18
613.683	13.1
614.101	13.02
614.518	12.93
614.936	12.84
615.353	12.77
615.771	12.68
616.188	12.62
616.606	12.55
617.023	12.48
617.44	12.4
617.857	12.34
618.274	12.29
618.691	12.24
619.108	12.2
619.525	12.16
619.942	12.11
620.359	12.07
620.776	12.04
621.192	12.01
621.609	11.97
622.026	11.93
622.442	11.91
622.859	11.86
623.275	11.84
623.691	11.81
624.108	11.79
624.524	11.77
624.94	11.75
625.356	11.73
625.772	11.72
626.188	11.72
626.604	11.69
627.02	11.68
627.436	11.68
627.852	11.65
628.268	11.63
628.683	11.59
629.099	11.57
629.514	11.54
629.93	11.51
630.345	11.46
630.761	11.41
631.176	11.38
631.591	11.34
632.007	11.27
632.422	11.22
632.837	11.16
633.252	11.1
633.667	11.02
634.082	10.95
634.497	10.85
634.911	10.75
635.326	10.65
635.741	10.54
636.155	10.43
636.57	10.33
636.984	10.19
637.399	10.06
637.813	9.91
638.228	9.79
638.642	9.66
639.056	9.53
639.47	9.42
639.884	9.3
640.298	9.17
640.712	9.03
641.126	8.89
641.54	8.76
641.954	8.64
642.368	8.53
642.781	8.41
643.195	8.28
643.609	8.17
644.022	8.06
644.436	7.96
644.849	7.86
645.262	7.78
645.676	7.68
646.089	7.61
646.502	7.52
646.915	7.45
647.328	7.38
647.741	7.31
648.154	7.26
648.567	7.19
648.98	7.15
649.393	7.11
649.805	7.05
650.218	7.01
650.631	6.95
651.043	6.92
651.456	6.88
651.868	6.85
652.28	6.82
652.693	6.77
653.105	6.74
653.517	6.69
653.929	6.64
654.341	6.61
654.753	6.56
655.165	6.52
655.577	6.47
655.989	6.4
656.401	6.34
656.813	6.26
657.224	6.2
657.636	6.11
658.047	6.03
658.459	5.95
658.87	5.87
659.282	5.81
659.693	5.73
660.104	5.66
660.515	5.58
660.926	5.52
661.338	5.46
661.749	5.38
662.159	5.32
662.57	5.27
662.981	5.22
663.392	5.15
663.803	5.11
664.213	5.06
664.624	5.01
665.035	4.97
665.445	4.93
665.855	4.89
666.266	4.86
666.676	4.83
667.086	4.8
667.497	4.78
667.907	4.76
668.317	4.73
668.727	4.72
669.137	4.71
669.547	4.72
669.956	4.72
670.366	4.75
670.776	4.75
671.186	4.75
671.595	4.76
672.005	4.78
672.414	4.79
672.824	4.82
673.233	4.84
673.642	4.85
674.052	4.87
674.461	4.87
674.87	4.88
675.279	4.91
675.688	4.93
676.097	4.97
676.506	4.99
676.915	5.02
677.323	5.06
677.732	5.1
678.141	5.14
678.549	5.18
678.958	5.24
679.366	5.28
679.775	5.35
680.183	5.42
680.592	5.49
681	5.56
681.408	5.65
681.816	5.74
682.224	5.83
682.632	5.96
683.04	6.07
683.448	6.21
683.856	6.37
684.264	6.53
684.671	6.72
685.079	6.94
685.487	7.19
685.894	7.45
686.302	7.72
686.709	8.04
687.116	8.37
687.524	8.75
687.931	9.16
688.338	9.6
688.745	10.07
689.152	10.57
689.559	11.08
689.966	11.63
690.373	12.2
690.78	12.82
691.187	13.45
691.593	14.1
692	14.77
692.407	15.45
692.813	16.14
693.22	16.87
693.626	17.57
694.032	18.3
694.439	19.07
694.845	19.82
695.251	20.56
695.657	21.3
696.063	22.06
696.469	22.8
696.875	23.51
697.281	24.23
697.687	24.95
698.093	25.71
698.498	26.43
698.904	27.13
699.31	27.81
699.715	28.51
700.12	29.2
700.526	29.87
700.931	30.54
701.337	31.21
701.742	31.86
702.147	32.5
702.552	33.12
702.957	33.74
703.362	34.35
703.767	34.97
704.172	35.57
704.577	36.15
704.981	36.72
705.386	37.29
705.791	37.85
706.195	38.39
706.6	38.91
707.004	39.43
707.408	39.93
707.813	40.43
708.217	40.9
708.621	41.37
709.025	41.84
709.43	42.28
709.834	42.76
710.237	43.21
710.641	43.66
711.045	44.08
711.449	44.51
711.853	44.94
712.256	45.37
712.66	45.8
713.064	46.2
713.467	46.58
713.87	46.98
714.274	47.39
714.677	47.79
715.08	48.17
715.484	48.58
715.887	48.95
716.29	49.3
716.693	49.62
717.096	50
717.499	50.36
717.901	50.7
718.304	51.04
718.707	51.34
719.109	51.65
719.512	51.98
719.915	52.3
720.317	52.62
720.719	52.92
721.122	53.21
721.524	53.45
721.926	53.73
722.328	53.99
722.731	54.24
723.133	54.51
723.535	54.76
723.937	54.98
724.338	55.17
724.74	55.36
725.142	55.51
725.544	55.69
725.945	55.87
726.347	56.03
726.748	56.18
727.15	56.35
727.551	56.51
727.952	56.65
728.354	56.81
728.755	56.98
729.156	57.14
729.557	57.34
729.958	57.48
730.359	57.61
730.76	57.71
731.161	57.85
731.562	57.99
731.962	58.09
732.363	58.19
732.763	58.29
733.164	58.38
733.564	58.44
733.965	58.5
734.365	58.58
734.766	58.69
735.166	58.76
735.566	58.82
735.966	58.87
736.366	58.93
736.766	59.02
737.166	59.11
737.566	59.17
737.966	59.23
738.365	59.31
738.765	59.38
739.165	59.42
739.564	59.53
739.964	59.57
740.363	59.63
740.763	59.67
741.162	59.66
741.561	59.69
741.96	59.73
742.36	59.77
742.759	59.76
743.158	59.77
743.557	59.79
743.955	59.85
744.354	59.93
744.753	59.97
745.152	60.04
745.55	60.1
745.949	60.12
746.348	60.15
746.746	60.18
747.144	60.27
747.543	60.33
747.941	60.39
748.339	60.43
748.737	60.49
749.136	60.51
749.534	60.53
749.932	60.57
750.33	60.58
750.727	60.62
751.125	60.65
751.523	60.61
751.921	60.63
752.318	60.61
752.716	60.56
753.113	60.52
753.511	60.51
753.908	60.47
754.305	60.41
754.703	60.41
755.1	60.35
755.497	60.32
755.894	60.35
756.291	60.37
756.688	60.39
757.085	60.42
757.482	60.39
757.878	60.43
758.275	60.43
758.672	60.48
759.068	60.49
759.465	60.52
759.861	60.51
760.258	60.47
760.654	60.42
761.05	60.4
761.447	60.34
761.843	60.31
762.239	60.25
762.635	60.24
763.031	60.22
763.427	60.2
763.822	60.17
764.218	60.17
764.614	60.19
765.01	60.17
765.405	60.14
765.801	60.14
766.196	60.17
766.592	60.2
766.987	60.19
767.382	60.19
767.778	60.16
768.173	60.18
768.568	60.15
768.963	60.15
769.358	60.18
769.753	60.24
770.148	60.25
770.542	60.24
770.937	60.21
771.332	60.25
771.726	60.23
772.121	60.23
772.515	60.24
772.91	60.28
773.304	60.27
773.699	60.26
774.093	60.19
774.487	60.19
774.881	60.2
775.275	60.24
775.669	60.24
776.063	60.24
776.457	60.2
776.851	60.17
777.245	60.15
777.638	60.16
778.032	60.19
778.425	60.22
778.819	60.2
779.212	60.15
779.606	60.1
779.999	60.05
780.392	60.04
780.786	60.07
781.179	60.12
781.572	60.11
781.965	60.1
782.358	60.04
782.751	60.02
783.143	60.06
783.536	60.11
783.929	60.16
784.322	60.19
784.714	60.19
785.107	60.23
785.499	60.24
785.891	60.23
786.284	60.18
786.676	60.23
787.068	60.25
787.46	60.21
787.852	60.22
788.245	60.18
788.636	60.22
789.028	60.22
789.42	60.18
789.812	60.13
790.204	60.12
790.595	60.15
790.987	60.16
791.378	60.16
791.77	60.22
792.161	60.21
792.553	60.27
792.944	60.28
793.335	60.32
793.726	60.33
794.117	60.33
794.508	60.35
794.899	60.39
795.29	60.4
795.681	60.42
796.072	60.41
796.463	60.4
796.853	60.39
797.244	60.36
797.634	60.32
798.025	60.34
798.415	60.37
798.806	60.42
799.196	60.46
799.586	60.44
799.976	60.46
800.366	60.48
800.756	60.51
801.146	60.5
801.536	60.5
801.926	60.54
802.316	60.57
802.706	60.6
803.095	60.6
803.485	60.6
803.874	60.62
804.264	60.62
804.653	60.59
805.043	60.57
805.432	60.61
805.821	60.67
806.21	60.69
806.599	60.7
806.988	60.69
807.377	60.72
807.766	60.74
808.155	60.75
808.544	60.75
808.933	60.78
809.321	60.82
809.71	60.87
810.098	60.87
810.487	60.91
810.875	60.9
811.264	60.92
811.652	60.92
812.04	60.91
812.428	60.91
812.816	60.95
813.204	60.99
813.592	61
813.98	61
814.368	61.01
814.756	61.02
815.144	61.08
815.531	61.11
815.919	61.11
816.306	61.13
816.694	61.15
817.081	61.11
817.469	61.11
817.856	61.18
818.243	61.17
818.63	61.23
819.017	61.23
819.404	61.21
819.791	61.21
820.178	61.25
820.565	61.28
820.952	61.32
821.339	61.36
821.725	61.4
822.112	61.33
822.498	61.34
822.885	61.29
823.271	61.3
823.657	61.3
824.044	61.27
824.43	61.22
824.816	61.19
825.202	61.16
825.588	61.17
825.974	61.15
826.36	61.18
826.746	61.21
827.132	61.16
827.517	61.15
827.903	61.12
828.289	61.13
828.674	61.12
829.06	61.15
829.445	61.16
829.83	61.13
830.216	61.1
830.601	61.06
830.986	61.04
831.371	61.05
831.756	61
832.141	61
832.526	60.97
832.911	60.96
833.295	60.93
833.68	60.88
834.065	60.88
834.449	60.84
834.834	60.8
835.218	60.77
835.603	60.8
835.987	60.79
836.371	60.79
836.755	60.76
837.139	60.77
837.524	60.75
837.908	60.71
838.291	60.67
838.675	60.69
839.059	60.66
839.443	60.63
839.827	60.57
840.21	60.56
840.594	60.51
840.977	60.51
841.361	60.5
841.744	60.5
842.127	60.5
842.511	60.48
842.894	60.44
843.277	60.46
843.66	60.46
844.043	60.48
844.426	60.46
844.809	60.47
845.191	60.47
845.574	60.44
845.957	60.37
846.339	60.38
846.722	60.36
847.104	60.35
847.487	60.39
847.869	60.4
848.252	60.4
848.634	60.39
849.016	60.4
849.398	60.39
849.78	60.4
850.162	60.42
850.544	60.42
850.926	60.42
851.307	60.42
851.689	60.36
852.071	60.33
852.452	60.29
852.834	60.29
853.215	60.26
853.597	60.25
853.978	60.22
854.359	60.23
854.741	60.23
855.122	60.23
855.503	60.24
855.884	60.24
856.265	60.23
856.646	60.22
857.026	60.25
857.407	60.23
857.788	60.25
858.169	60.25
858.549	60.27
858.93	60.29
859.31	60.31
859.69	60.29
860.071	60.3
860.451	60.34
860.831	60.36
861.211	60.32
861.591	60.37
861.971	60.36
862.351	60.37
862.731	60.36
863.111	60.32
863.491	60.33
863.87	60.34
864.25	60.38
864.629	60.35
865.009	60.33
865.388	60.34
865.768	60.33
866.147	60.34
866.526	60.34
866.905	60.35
867.284	60.35
867.663	60.36
868.042	60.36
868.421	60.33
868.8	60.34
869.179	60.37
869.558	60.38
869.936	60.37
870.315	60.36
870.693	60.36
871.072	60.33
871.45	60.33
871.828	60.31
872.207	60.34
872.585	60.33
872.963	60.32
873.341	60.29
873.719	60.26
874.097	60.24
874.475	60.24
874.853	60.25
875.23	60.24
875.608	60.25
875.986	60.25
876.363	60.21
876.741	60.17
877.118	60.15
877.495	60.14
877.873	60.14
878.25	60.15
878.627	60.16
879.004	60.18
879.381	60.19
879.758	60.15
880.135	60.14
880.512	60.15
880.889	60.19
881.265	60.26
881.642	60.3
882.019	60.29
882.395	60.26
882.772	60.23
883.148	60.18
883.524	60.19
883.901	60.17
884.277	60.16
884.653	60.15
885.029	60.1
885.405	60.03
885.781	59.98
886.157	59.99
886.532	59.98
886.908	59.99
887.284	59.99
887.659	59.94
888.035	59.94
888.411	59.92
888.786	59.87
889.161	59.87
889.537	59.9
889.912	59.86
890.287	59.82
890.662	59.8
891.037	59.75
891.412	59.7
891.787	59.66
892.162	59.62
892.536	59.58
892.911	59.56
893.286	59.51
893.66	59.43
894.035	59.43
894.409	59.43
894.784	59.4
895.158	59.38
895.532	59.35
895.906	59.34
896.281	59.33
896.655	59.3
897.029	59.29
897.402	59.28
897.776	59.27
898.15	59.27
898.524	59.27
898.898	59.23
899.271	59.23
899.645	59.26
900.018	59.24
900.392	59.29
900.765	59.37
901.138	59.39
901.511	59.4
901.884	59.45
902.258	59.43
902.631	59.44
903.003	59.47
903.376	59.48
903.749	59.51
904.122	59.56
904.495	59.55
904.867	59.51
905.24	59.5
905.612	59.5
905.985	59.48
906.357	59.46
906.729	59.45
907.102	59.46
907.474	59.49
907.846	59.43
908.218	59.42
908.59	59.39
908.962	59.39
909.334	59.39
909.705	59.43
910.077	59.41
910.449	59.44
910.82	59.4
911.192	59.38
911.563	59.39
911.935	59.39
912.306	59.34
912.677	59.35
913.048	59.36
913.419	59.37
913.79	59.33
914.161	59.34
914.532	59.31
914.903	59.33
915.274	59.33
915.645	59.29
916.015	59.3
916.386	59.37
916.756	59.35
917.127	59.36
917.497	59.36
917.868	59.41
918.238	59.45
918.608	59.49
918.978	59.47
919.348	59.48
919.718	59.52
920.088	59.54
920.458	59.57
920.828	59.61
921.198	59.6
921.567	59.56
921.937	59.56
922.306	59.54
922.676	59.55
923.045	59.58
923.415	59.55
923.784	59.57
924.153	59.57
924.522	59.56
924.891	59.52
925.26	59.49
925.629	59.53
925.998	59.5
926.367	59.48
926.736	59.44
927.104	59.43
927.473	59.45
927.842	59.37
928.21	59.39
928.578	59.28
928.947	59.3
929.315	59.29
929.683	59.31
930.051	59.31
930.42	59.31
930.788	59.33
931.156	59.32
931.523	59.3
931.891	59.26
932.259	59.18
932.627	59.17
932.994	59.15
933.362	59.09
933.729	58.94
934.097	58.86
934.464	58.8
934.831	58.68
935.199	58.63
935.566	58.55
935.933	58.56
936.3	58.47
936.667	58.43
937.034	58.36
937.401	58.3
937.767	58.35
938.134	58.35
938.501	58.32
938.867	58.45
939.234	58.53
939.6	58.62
939.967	58.73
940.333	58.94
940.699	59.21
941.065	59.39
941.431	59.56
941.798	59.7
942.163	59.89
942.529	60.04
942.895	60.1
943.261	60.16
943.627	60.29
943.992	60.32
944.358	60.33
944.723	60.23
945.089	60.25
945.454	60.36
945.82	60.4
946.185	60.39
946.55	60.47
946.915	60.5
947.28	60.53
947.645	60.55
948.01	60.55
948.375	60.6
948.74	60.52
949.104	60.45
949.469	60.34
949.834	60.29
950.198	60.16
950.562	60.06
950.927	59.99
951.291	59.79
951.655	59.68
952.02	59.69
952.384	59.7
952.748	59.74
953.112	59.73
953.476	59.72
953.839	59.73
954.203	59.7
954.567	59.71
954.931	59.66
955.294	59.79
955.658	59.78
956.021	59.69
956.385	59.58
956.748	59.55
957.111	59.43
957.474	59.39
957.837	59.36
958.2	59.33
958.563	59.22
958.926	59.2
959.289	59.11
959.652	59.15
960.015	59.12
960.377	59.11
960.74	59.04
961.102	59.09
961.465	59.07
961.827	58.91
962.189	58.86
962.552	58.86
962.914	58.79
963.276	58.81
963.638	58.77
964	58.74
964.362	58.65
964.724	58.64
965.085	58.68
965.447	58.66
965.809	58.67
966.17	58.68
966.532	58.68
966.893	58.68
967.255	58.61
967.616	58.56
967.977	58.6
968.338	58.6
968.699	58.53
969.061	58.41
969.421	58.42
969.782	58.4
970.143	58.44
970.504	58.37
970.865	58.35
971.225	58.41
971.586	58.36
971.946	58.3
972.307	58.37
972.667	58.49
973.027	58.52
973.388	58.49
973.748	58.61
974.108	58.62
974.468	58.65
974.828	58.67
975.188	58.68
975.548	58.77
975.907	58.74
976.267	58.69
976.627	58.66
976.986	58.67
977.346	58.7
977.705	58.69
978.064	58.68
978.424	58.71
978.783	58.73
979.142	58.7
979.501	58.66
979.86	58.77
980.219	58.7
980.578	58.73
980.937	58.84
981.296	58.94
981.654	58.99
982.013	59.03
982.371	59.02
982.73	58.98
983.088	58.93
983.447	58.99
983.805	58.95
984.163	59.08
984.521	59
984.879	59.01
985.237	59.07
985.595	59.1
985.953	59.12
986.311	59.29
986.669	59.37
987.026	59.47
987.384	59.45
987.741	59.48
988.099	59.44
988.456	59.48
988.814	59.4
989.171	59.32
989.528	59.21
989.885	59.12
990.242	59.14
990.599	59.21
990.956	59.25
991.313	59.2
991.67	59.3
992.027	59.38
992.383	59.54
992.74	59.64
993.096	59.55
993.453	59.65
993.809	59.75
994.165	59.67
994.522	59.64
994.878	59.57
995.234	59.68
995.59	59.57
995.946	59.64
996.302	59.54
996.658	59.49
997.013	59.76
997.369	59.75
997.725	59.83
998.08	59.89
998.436	59.97
998.791	60.08
999.147	60.2
999.502	60.23
999.857	60.19
1000.212	60.34
1000.567	60.45
1000.922	60.42
1001.277	60.35
1001.632	60.49
1001.987	60.52
1002.342	60.65
1002.696	60.75
1003.051	60.54
1003.406	60.63
1003.76	60.66
1004.114	60.74
1004.469	60.58
1004.823	60.42
1005.177	60.66
1005.531	60.44
1005.885	60.49
1006.239	60.28
1006.593	60.14
1006.947	60.29
1007.301	60.44
1007.655	60.52
1008.008	60.28
1008.362	60.43
1008.715	60.67
1009.069	60.36
1009.422	60.34
1009.776	60.26
1010.129	60.29
1010.482	60.51
1010.835	60.73
1011.188	60.55
1011.541	60.55
1011.894	60.9
1012.247	61.02
1012.6	60.96
1012.952	61.26
1013.305	61.38
1013.657	61.67
1014.01	62.13
1014.362	62.33
1014.715	62.21
1015.067	62.34
1015.419	62.42
1015.771	62.59
1016.123	62.69
1016.475	62.98
1016.827	63.22
1017.179	63.62
1017.531	63.49
1017.883	63.46
1018.234	63.35
1018.586	63.46
1018.938	63.52
1019.289	63.66
1019.64	63.71
1019.992	63.92
1020.343	63.9
1020.694	63.79
1021.045	63.7
1021.396	63.9
1021.747	63.91
1022.098	64.26
1022.449	64.13
1022.8	64.45
1023.151	64.81
1023.501	64.87
1023.852	64.93
1024.202	64.93
1024.553	65.12
1024.903	65.12
1025.253	65.24
1025.604	65.47
1025.954	65.33
1026.304	65.93
1026.654	65.93
1027.004	66
1027.354	66.21
1027.703	66.44
1028.053	66.28
1028.403	66.29
1028.753	66.81
1029.102	66.93
1029.452	66.87
1029.801	66.94
1030.15	66.9
1030.499	67.11
897.758	553.2
901.051	562.8
904.343	567.45
907.636	556.46
910.928	549.46
914.22	559.38
917.511	545.17
920.803	516.97
924.094	499.08
927.384	506.52
930.675	491.12
933.965	484.46
937.255	481.67
940.544	460.43
943.834	444.99
947.123	436.39
950.411	412.51
953.7	406.43
956.988	398.68
960.276	380.07
963.563	373.78
966.851	355.06
970.138	350.68
973.424	328.94
976.711	324.2
979.997	313.07
983.283	305.05
986.568	296.16
989.853	290.17
993.138	279.59
996.423	275.15
999.708	269.32
1002.992	270.05
1006.275	260.22
1009.559	257.77
1012.842	252.28
1016.125	243.21
1019.408	240.15
1022.69	237.63
1025.972	234.17
1029.254	228.82
1032.536	225.78
1035.817	218.85
1039.098	214.29
1042.379	210.9
1045.659	208.45
1048.939	206.47
1052.219	203.48
1055.498	201.31
1058.778	198.78
1062.057	195.24
1065.335	194.38
1068.614	191.42
1071.892	188.28
1075.17	185.55
1078.447	183.84
1081.724	182.18
1085.001	177.83
1088.278	177.67
1091.554	175.94
1094.83	174.09
1098.106	172.41
1101.382	171.47
1104.657	170.22
1107.932	171.14
1111.206	169.96
1114.481	168.35
1117.755	167.54
1121.029	167.55
1124.302	165.63
1127.575	162.92
1130.848	162.89
1134.121	160.44
1137.393	159.89
1140.665	159.62
1143.937	157.43
1147.208	155.95
1150.48	154.19
1153.75	153.5
1157.021	151.75
1160.291	151.05
1163.561	150.95
1166.831	149.21
1170.101	149.23
1173.37	148.1
1176.639	146.05
1179.907	145.97
1183.176	145.96
1186.444	145.71
1189.711	143.81
1192.979	145.35
1196.246	145.7
1199.513	145.74
1202.78	146.55
1206.046	145.97
1209.312	147.44
1212.578	148.43
1215.843	151.03
1219.108	150.54
1222.373	153.77
1225.638	157.13
1228.902	160.11
1232.166	164.08
1235.43	165.56
1238.693	169.09
1241.956	173.42
1245.219	176.54
1248.482	178.79
1251.744	177.34
1255.006	178.91
1258.268	173.99
1261.529	172.57
1264.79	167.8
1268.051	166.01
1271.312	165
1274.572	162.45
1277.832	158.3
1281.092	155.83
1284.351	152.45
1287.61	152.28
1290.869	151.65
1294.128	151.43
1297.386	150.49
1300.644	150.2
1303.902	147.81
1307.159	147.4
1310.416	147.86
1313.673	149.65
1316.93	150.92
1320.186	153.97
1323.442	155.41
1326.697	157.9
1329.953	158.71
1333.208	163.93
1336.463	170.19
1339.717	174.07
1342.972	181.88
1346.226	186.05
1349.479	187.47
1352.733	195.08
1355.986	198.37
1359.238	201.56
1362.491	204.03
1365.743	212.32
1368.995	211.12
1372.247	213.81
1375.498	212.98
1378.749	217.94
1382	219.81
1385.251	218.38
1388.501	217.39
1391.751	219.26
1395	218.48
1398.25	219.19
1401.499	218.54
1404.748	220.11
1407.996	211.16
1411.244	212.05
1414.492	209.2
1417.74	200.96
1420.987	198
1424.234	194.64
1427.481	187.4
1430.728	182.46
1433.974	176.68
1437.22	170.5
1440.465	164.13
1443.711	159.96
1446.956	154.3
1450.201	149.08
1453.445	144.31
1456.689	140.08
1459.933	135.7
1463.177	130.38
1466.42	128.37
1469.663	124.95
1472.906	121.96
1476.148	119.52
1479.391	117.1
1482.633	115.44
1485.874	113.81
1489.115	112.74
1492.356	111.8
1495.597	109.91
1498.838	110.3
1502.078	109.25
1505.318	109.32
1508.557	108.48
1511.797	107.6
1515.036	107.41
1518.274	107.25
1521.513	105.67
1524.751	104.97
1527.989	105.47
1531.227	105.9
1534.464	104.95
1537.701	104.63
1540.938	103.76
1544.174	103.78
1547.41	104.21
1550.646	103.64
1553.882	103.63
1557.117	103.64
1560.352	103.66
1563.587	102.51
1566.821	102.28
1570.055	101.95
1573.289	101.77
1576.523	102.08
1579.756	102.09
1582.989	102.1
1586.222	102.42
1589.454	102.16
1592.686	101.86
1595.918	101.73
1599.15	101.52
1602.381	102.05
1605.612	102.5
1608.843	102.34
1612.073	102.48
1615.303	102.17
1618.533	101.63
1621.762	101.8
1624.992	102.12
1628.221	102.01
1631.449	102.48
1634.678	102.73
1637.906	102.3
1641.134	102.19
1644.361	102.24
1647.588	102.52
1650.815	102.68
1654.042	102.82
1657.269	102.18
1660.495	102.44
1663.72	103.05
1666.946	102.45
1670.171	102.85
1673.396	103.81
1676.621	103.4
1679.845	103.62
1683.069	103.49
1686.293	103.32
1689.517	103.95
1692.74	104.62
1695.963	104.28
1699.185	104.46
1702.408	103.89
1705.63	104.11
1708.852	104.39
1712.073	104.85
1715.294	104.6
1718.515	105.16
1721.736	105.36
1724.956	104.72
1728.176	104.48
1731.396	105.59
1734.616	105.78
1737.835	107.28
1741.054	106.42
1744.272	105.86
1747.491	106.5
1750.709	107.2
1753.927	107.11
1757.144	107.81
1760.361	108.42
1763.578	109.09
1766.795	108.98
1770.011	108.78
1773.227	108.86
1776.443	110.41
1779.658	109.98
1782.874	110.02
1786.089	109.69
1789.303	109.97
1792.518	110.67
1795.732	111.42
1798.945	112.46
1802.159	112.06
1805.372	113.46
1808.585	114.46
1811.797	114.84
1815.01	115.78
1818.222	116.53
1821.434	118.18
1824.645	118.72
1827.856	119.66
1831.067	119.77
1834.278	120.15
1837.488	121.92
1840.698	122.94
1843.908	122.97
1847.117	123.96
1850.326	125.6
1853.535	126.1
1856.744	127.38
1859.952	128.14
1863.16	127.67
1866.368	127.43
1869.575	128.23
1872.782	127.04
1875.989	124.64
1879.196	124.68
1882.402	123.34
1885.608	122.7
1888.814	121.94
1892.019	121.24
1895.224	119.33
1898.429	119.08
1901.634	118.9
1904.838	118.47
1908.042	118.79
1911.246	119.61
1914.449	118.96
1917.652	118.08
1920.855	119.08
1924.058	117.24
1927.26	116.37
1930.462	117.73
1933.664	117.43
1936.865	118.49
1940.066	116.7
1943.267	115.99
1946.467	116.83
1949.668	117.08
1952.868	117.35
1956.067	116.55
1959.267	117.99
1962.466	118.48
1965.665	120.26
1968.863	121.01
1972.061	121.16
1975.259	123.37
1978.457	125.1
1981.654	125.65
1984.852	126.6
1988.048	128.84
1991.245	130.87
1994.441	133.92
1997.637	136.17
2000.833	137.11
2004.028	139.22
2007.223	143.37
2010.418	146.95
2013.613	151.47
2016.807	155.38
2020.001	158.84
2023.194	163.8
2026.388	169.68
2029.581	177.86
2032.774	184.28
2035.966	189.99
2039.158	194.81
2042.35	198.06
2045.542	202.19
2048.733	209.92
2051.924	212.93
2055.115	216.06
2058.306	217.39
2061.496	220.02
2064.686	220.11
2067.875	218.47
2071.065	218.89
2074.254	220.84
2077.442	227.14
2080.631	228.84
2083.819	230.59
2087.007	236.39
2090.195	239.88
2093.382	239.8
2096.569	241
2099.756	243.38
2102.942	248.99
2106.128	257.68
2109.314	256.04
2112.5	255.2
2115.685	254.52
2118.87	255.13
2122.055	253.11
2125.239	258.58
2128.424	264.69
2131.608	263.45
2134.791	263.51
2137.974	264.44
2141.157	263.54
2144.34	269.11
2147.523	274.81
2150.705	280.57
2153.887	278.01
2157.068	281.48
2160.25	283.1
2163.431	282.57
2166.611	285.28
2169.792	291.89
2172.972	294.1
2176.152	295.74
2179.331	300.73
2182.511	299.46
2185.69	302.45
2188.868	311.58
2192.047	321.61
2195.225	325.81
2198.403	330.89
2201.58	325.75
2204.758	337.41
2207.935	342.17
2211.111	349.1
2214.288	349.4
2217.464	355.4
2220.64	359.93
2223.815	364.29
2226.991	356.31
2230.166	360.87
2233.34	369.4
2236.515	383.66
2239.689	378.1
2242.863	380.03
2246.036	377.02
2249.209	388.19
2252.382	385.48
2255.555	397.31
2258.727	397.76
2261.9	414.17
2265.071	417.14
2268.243	414.55
2271.414	428.83
2274.585	435.11
2277.756	434.74
2280.926	452.45
2284.096	455.5
2287.266	458.68
2290.436	450.19
2293.605	460.06
2296.774	472.04
2299.942	471.28
2303.111	485.83
2306.279	494.15
2309.447	497.11
2312.614	499.96
2315.781	509.95
2318.948	510.84
2322.115	521.14
2325.281	551.25
2328.447	544.42
2331.613	547.42
2334.779	552.95
2337.944	565.14
2341.109	571.48
2344.274	579.4
2347.438	597.69
2350.602	607.29
2353.766	648.19
2356.929	648.17
2360.092	653.28
2363.255	661.68
2366.418	667.54
2369.58	688.22
2372.742	683.2
2375.904	684.41
2379.066	702.53
2382.227	738.56
2385.388	734.26
2388.548	695.85
2391.709	692.92
2394.869	709.41
2398.029	716.64
2401.188	714.32
2404.347	730.43
2407.506	755.12
2410.665	727.85
2413.823	730.85
2416.981	733.44
2420.139	699.63
2423.296	754.87
2426.453	803.73
2429.61	770.09
2432.767	817.16
2435.923	844.57
2439.079	826.56
2442.235	840.7
2445.391	861.72
2448.546	853.53
2451.701	898.3
2454.855	959.34
2458.009	844.24
2461.163	857.66
2464.317	868.28
2467.471	845.08
2470.624	875.97
2473.777	857.54
2476.929	831.66
2480.082	881.65
2483.234	927.97
2486.385	947.86
2489.537	972.03
2492.688	1075.44
2495.839	1053.8
2498.989	1082.02
2502.14	1093.03
2505.29	1048.85
2508.439	1151.95
2511.589	1180.75
2514.738	1151.93
2517.887	1135.15
2521.035	1068.24
2524.183	1048.24
2527.331	1040.7
2530.479	1018.33
2533.627	1041.35
