Data from N_3_ofc_ct_2n_Splice17_16.txt Node
Date: Sat Feb 29 14:47:36 EST 2020
User: sa697716
Spectrometer: FLMS03696
Trigger mode: 0
Integration Time (sec): 3.180400E-1
Scans to average: 20
Electric dark correction enabled: true
Nonlinearity correction enabled: true
Boxcar width: 5
XAxis mode: Wavelengths
Number of Pixels in Spectrum: 2048
>>>>>Begin Spectral Data<<<<<
187.83	118.46
188.298	131.31
188.766	109.05
189.233	114.72
189.701	119.11
190.169	102.68
190.636	122.42
191.104	158.92
191.571	700.23
192.039	464.63
192.506	-610.36
192.974	-1504.91
193.441	-211.06
193.908	44.25
194.375	131.91
194.842	238.62
195.31	121.34
195.777	110.65
196.244	40.19
196.711	33.89
197.177	32.8
197.644	32.3
198.111	31.17
198.578	30.06
199.045	30.52
199.511	30.83
199.978	30.93
200.445	30.26
200.911	30.61
201.378	31.04
201.844	31.67
202.31	32.46
202.777	32.6
203.243	33.46
203.709	34.22
204.176	34.41
204.642	34.27
205.108	33.92
205.574	34.51
206.04	34.59
206.506	34.31
206.972	33.81
207.438	33.23
207.903	33.47
208.369	32.87
208.835	32.42
209.301	32.14
209.766	32.15
210.232	32.46
210.697	32.34
211.163	31.97
211.628	31.76
212.094	31.7
212.559	31.39
213.024	30.63
213.49	30.08
213.955	29.94
214.42	29.38
214.885	28.66
215.35	27.93
215.815	27.06
216.28	26.58
216.745	25.86
217.21	24.94
217.675	24.08
218.14	23.33
218.604	22.51
219.069	21.67
219.534	21.01
219.998	20.32
220.463	19.89
220.927	19.47
221.392	19.02
221.856	18.67
222.32	18.29
222.785	18.04
223.249	17.74
223.713	17.53
224.177	17.33
224.642	17.13
225.106	16.95
225.57	16.7
226.034	16.49
226.497	16.25
226.961	16
227.425	15.78
227.889	15.55
228.353	15.32
228.816	15.12
229.28	14.88
229.744	14.68
230.207	14.5
230.671	14.31
231.134	14.1
231.597	13.93
232.061	13.77
232.524	13.61
232.987	13.43
233.45	13.25
233.914	13.06
234.377	12.92
234.84	12.77
235.303	12.61
235.766	12.46
236.229	12.33
236.691	12.19
237.154	12.04
237.617	11.91
238.08	11.8
238.542	11.68
239.005	11.56
239.468	11.42
239.93	11.3
240.393	11.18
240.855	11.05
241.317	10.93
241.78	10.84
242.242	10.73
242.704	10.63
243.166	10.51
243.629	10.43
244.091	10.34
244.553	10.25
245.015	10.16
245.477	10.07
245.939	9.98
246.4	9.89
246.862	9.8
247.324	9.73
247.786	9.66
248.247	9.59
248.709	9.51
249.17	9.46
249.632	9.39
250.093	9.31
250.555	9.25
251.016	9.19
251.477	9.13
251.939	9.06
252.4	9
252.861	8.93
253.322	8.86
253.783	8.8
254.244	8.73
254.705	8.67
255.166	8.63
255.627	8.57
256.088	8.51
256.549	8.46
257.009	8.41
257.47	8.35
257.931	8.3
258.391	8.24
258.852	8.2
259.312	8.16
259.773	8.11
260.233	8.05
260.694	8
261.154	7.95
261.614	7.91
262.074	7.87
262.534	7.83
262.994	7.79
263.455	7.75
263.915	7.71
264.374	7.66
264.834	7.63
265.294	7.58
265.754	7.55
266.214	7.52
266.673	7.49
267.133	7.45
267.593	7.43
268.052	7.39
268.512	7.36
268.971	7.32
269.431	7.3
269.89	7.28
270.349	7.25
270.809	7.22
271.268	7.2
271.727	7.17
272.186	7.15
272.645	7.12
273.104	7.1
273.563	7.08
274.022	7.06
274.481	7.03
274.94	7
275.399	6.98
275.857	6.95
276.316	6.92
276.775	6.88
277.233	6.85
277.692	6.82
278.15	6.79
278.609	6.76
279.067	6.73
279.525	6.7
279.984	6.67
280.442	6.64
280.9	6.63
281.358	6.6
281.816	6.58
282.274	6.56
282.732	6.55
283.19	6.53
283.648	6.52
284.106	6.5
284.564	6.49
285.021	6.48
285.479	6.46
285.937	6.43
286.394	6.41
286.852	6.4
287.309	6.39
287.767	6.37
288.224	6.35
288.682	6.33
289.139	6.31
289.596	6.28
290.053	6.24
290.511	6.2
290.968	6.18
291.425	6.16
291.882	6.12
292.339	6.1
292.796	6.07
293.252	6.04
293.709	6.01
294.166	5.98
294.623	5.95
295.079	5.94
295.536	5.93
295.992	5.91
296.449	5.89
296.905	5.87
297.362	5.85
297.818	5.82
298.274	5.81
298.731	5.79
299.187	5.78
299.643	5.76
300.099	5.75
300.555	5.72
301.011	5.7
301.467	5.69
301.923	5.68
302.379	5.67
302.835	5.66
303.291	5.64
303.746	5.63
304.202	5.61
304.658	5.59
305.113	5.58
305.569	5.57
306.024	5.56
306.479	5.55
306.935	5.54
307.39	5.52
307.845	5.51
308.301	5.51
308.756	5.5
309.211	5.5
309.666	5.5
310.121	5.49
310.576	5.49
311.031	5.49
311.486	5.48
311.94	5.47
312.395	5.47
312.85	5.46
313.305	5.46
313.759	5.45
314.214	5.44
314.668	5.44
315.123	5.43
315.577	5.41
316.032	5.41
316.486	5.4
316.94	5.39
317.394	5.38
317.849	5.37
318.303	5.35
318.757	5.33
319.211	5.31
319.665	5.29
320.119	5.28
320.572	5.27
321.026	5.25
321.48	5.23
321.934	5.22
322.387	5.21
322.841	5.19
323.295	5.17
323.748	5.15
324.202	5.13
324.655	5.12
325.108	5.1
325.562	5.09
326.015	5.07
326.468	5.06
326.921	5.05
327.374	5.04
327.827	5.03
328.28	5.02
328.733	5.01
329.186	5.02
329.639	5
330.092	4.99
330.545	4.98
330.997	4.99
331.45	4.98
331.903	4.97
332.355	4.97
332.808	4.97
333.26	4.97
333.713	4.97
334.165	4.96
334.617	4.97
335.069	4.97
335.522	4.98
335.974	4.97
336.426	4.97
336.878	4.97
337.33	4.96
337.782	4.96
338.234	4.95
338.686	4.94
339.137	4.94
339.589	4.93
340.041	4.91
340.493	4.9
340.944	4.89
341.396	4.88
341.847	4.87
342.299	4.85
342.75	4.83
343.201	4.81
343.653	4.79
344.104	4.78
344.555	4.76
345.006	4.75
345.457	4.74
345.908	4.73
346.359	4.72
346.81	4.72
347.261	4.71
347.712	4.7
348.163	4.69
348.613	4.68
349.064	4.67
349.515	4.66
349.965	4.65
350.416	4.64
350.866	4.63
351.317	4.62
351.767	4.61
352.217	4.61
352.668	4.6
353.118	4.61
353.568	4.62
354.018	4.63
354.468	4.63
354.918	4.64
355.368	4.64
355.818	4.64
356.268	4.64
356.718	4.65
357.168	4.64
357.617	4.64
358.067	4.63
358.517	4.62
358.966	4.62
359.416	4.63
359.865	4.62
360.315	4.61
360.764	4.61
361.213	4.61
361.663	4.61
362.112	4.62
362.561	4.62
363.01	4.62
363.459	4.61
363.908	4.61
364.357	4.61
364.806	4.61
365.255	4.61
365.703	4.61
366.152	4.61
366.601	4.61
367.05	4.61
367.498	4.61
367.947	4.61
368.395	4.62
368.844	4.62
369.292	4.61
369.74	4.61
370.189	4.6
370.637	4.62
371.085	4.61
371.533	4.61
371.981	4.61
372.429	4.6
372.877	4.6
373.325	4.59
373.773	4.59
374.221	4.6
374.669	4.6
375.116	4.6
375.564	4.59
376.012	4.6
376.459	4.61
376.907	4.63
377.354	4.64
377.801	4.65
378.249	4.68
378.696	4.69
379.143	4.7
379.591	4.72
380.038	4.75
380.485	4.77
380.932	4.78
381.379	4.79
381.826	4.81
382.273	4.82
382.72	4.85
383.166	4.87
383.613	4.89
384.06	4.91
384.506	4.93
384.953	4.94
385.4	4.97
385.846	4.98
386.292	5.01
386.739	5.02
387.185	5.05
387.631	5.08
388.078	5.12
388.524	5.12
388.97	5.15
389.416	5.17
389.862	5.2
390.308	5.21
390.754	5.25
391.2	5.28
391.645	5.31
392.091	5.33
392.537	5.34
392.983	5.37
393.428	5.41
393.874	5.43
394.319	5.47
394.765	5.48
395.21	5.5
395.655	5.52
396.101	5.54
396.546	5.56
396.991	5.58
397.436	5.58
397.881	5.6
398.326	5.64
398.771	5.67
399.216	5.7
399.661	5.73
400.106	5.78
400.551	5.78
400.995	5.79
401.44	5.8
401.885	5.81
402.329	5.83
402.774	5.84
403.218	5.83
403.663	5.82
404.107	5.83
404.551	5.83
404.995	5.83
405.44	5.85
405.884	5.85
406.328	5.86
406.772	5.88
407.216	5.9
407.66	5.92
408.104	5.92
408.547	5.93
408.991	5.94
409.435	5.93
409.879	5.92
410.322	5.94
410.766	5.95
411.209	5.97
411.653	5.97
412.096	5.96
412.54	5.96
412.983	5.97
413.426	5.98
413.869	5.99
414.312	6.02
414.756	6.03
415.199	6.03
415.642	6.05
416.085	6.06
416.527	6.08
416.97	6.11
417.413	6.12
417.856	6.1
418.298	6.09
418.741	6.07
419.184	6.06
419.626	6.06
420.069	6.07
420.511	6.05
420.953	6.04
421.396	6.02
421.838	6.02
422.28	6.04
422.722	6.07
423.164	6.08
423.606	6.12
424.048	6.11
424.49	6.12
424.932	6.11
425.374	6.11
425.816	6.11
426.258	6.11
426.699	6.06
427.141	6.02
427.582	6
428.024	5.99
428.465	5.98
428.907	5.98
429.348	5.99
429.789	6
430.231	5.99
430.672	5.99
431.113	6
431.554	6.04
431.995	6.06
432.436	6.07
432.877	6.08
433.318	6.07
433.759	6.07
434.2	6.06
434.64	6.07
435.081	6.09
435.522	6.11
435.962	6.12
436.403	6.14
436.843	6.13
437.284	6.14
437.724	6.15
438.164	6.17
438.604	6.19
439.045	6.18
439.485	6.19
439.925	6.18
440.365	6.17
440.805	6.16
441.245	6.13
441.685	6.16
442.125	6.16
442.564	6.17
443.004	6.18
443.444	6.19
443.883	6.21
444.323	6.21
444.762	6.23
445.202	6.29
445.641	6.31
446.081	6.37
446.52	6.38
446.959	6.43
447.398	6.47
447.837	6.52
448.276	6.54
448.716	6.58
449.154	6.61
449.593	6.66
450.032	6.65
450.471	6.67
450.91	6.67
451.349	6.68
451.787	6.68
452.226	6.65
452.664	6.63
453.103	6.63
453.541	6.62
453.98	6.62
454.418	6.58
454.856	6.58
455.295	6.55
455.733	6.54
456.171	6.53
456.609	6.53
457.047	6.53
457.485	6.53
457.923	6.54
458.361	6.52
458.798	6.51
459.236	6.51
459.674	6.5
460.111	6.51
460.549	6.48
460.987	6.48
461.424	6.47
461.862	6.47
462.299	6.46
462.736	6.45
463.173	6.45
463.611	6.45
464.048	6.45
464.485	6.45
464.922	6.44
465.359	6.46
465.796	6.45
466.233	6.46
466.67	6.46
467.106	6.46
467.543	6.47
467.98	6.47
468.416	6.49
468.853	6.48
469.29	6.51
469.726	6.51
470.162	6.49
470.599	6.5
471.035	6.51
471.471	6.52
471.907	6.52
472.344	6.54
472.78	6.54
473.216	6.53
473.652	6.55
474.088	6.54
474.523	6.54
474.959	6.55
475.395	6.57
475.831	6.57
476.266	6.56
476.702	6.56
477.138	6.54
477.573	6.54
478.008	6.54
478.444	6.54
478.879	6.53
479.314	6.54
479.75	6.54
480.185	6.53
480.62	6.52
481.055	6.51
481.49	6.5
481.925	6.49
482.36	6.47
482.795	6.46
483.229	6.46
483.664	6.46
484.099	6.45
484.534	6.45
484.968	6.45
485.403	6.45
485.837	6.46
486.271	6.48
486.706	6.48
487.14	6.51
487.574	6.53
488.009	6.55
488.443	6.56
488.877	6.58
489.311	6.6
489.745	6.62
490.179	6.64
490.613	6.67
491.046	6.71
491.48	6.75
491.914	6.79
492.348	6.83
492.781	6.86
493.215	6.9
493.648	6.97
494.082	7.02
494.515	7.07
494.948	7.13
495.382	7.19
495.815	7.25
496.248	7.32
496.681	7.38
497.114	7.43
497.547	7.51
497.98	7.59
498.413	7.67
498.846	7.76
499.279	7.86
499.711	7.95
500.144	8.06
500.577	8.17
501.009	8.28
501.442	8.41
501.874	8.54
502.306	8.68
502.739	8.81
503.171	8.97
503.603	9.14
504.036	9.31
504.468	9.48
504.9	9.67
505.332	9.85
505.764	10.04
506.196	10.25
506.627	10.47
507.059	10.69
507.491	10.92
507.923	11.15
508.354	11.4
508.786	11.64
509.217	11.89
509.649	12.16
510.08	12.44
510.512	12.73
510.943	13.01
511.374	13.31
511.805	13.62
512.237	13.93
512.668	14.25
513.099	14.59
513.53	14.93
513.961	15.28
514.391	15.62
514.822	15.97
515.253	16.33
515.684	16.68
516.114	17.04
516.545	17.4
516.975	17.77
517.406	18.12
517.836	18.46
518.267	18.82
518.697	19.19
519.127	19.55
519.558	19.91
519.988	20.27
520.418	20.62
520.848	20.98
521.278	21.35
521.708	21.67
522.138	22.01
522.567	22.36
522.997	22.69
523.427	23.01
523.857	23.31
524.286	23.62
524.716	23.92
525.145	24.22
525.575	24.5
526.004	24.78
526.433	25.05
526.863	25.33
527.292	25.59
527.721	25.82
528.15	26.05
528.579	26.28
529.008	26.5
529.437	26.69
529.866	26.87
530.295	27.06
530.724	27.25
531.152	27.42
531.581	27.56
532.01	27.68
532.438	27.83
532.867	27.95
533.295	28.07
533.723	28.19
534.152	28.32
534.58	28.43
535.008	28.49
535.436	28.55
535.865	28.62
536.293	28.71
536.721	28.79
537.149	28.87
537.576	28.94
538.004	29
538.432	29.04
538.86	29.05
539.287	29.11
539.715	29.16
540.143	29.2
540.57	29.24
540.998	29.29
541.425	29.33
541.852	29.33
542.28	29.35
542.707	29.38
543.134	29.43
543.561	29.45
543.988	29.48
544.415	29.53
544.842	29.57
545.269	29.61
545.696	29.62
546.123	29.66
546.549	29.71
546.976	29.76
547.403	29.79
547.829	29.8
548.256	29.85
548.682	29.87
549.108	29.88
549.535	29.9
549.961	29.92
550.387	29.92
550.813	29.94
551.24	29.92
551.666	29.94
552.092	29.95
552.518	29.94
552.943	29.92
553.369	29.89
553.795	29.86
554.221	29.82
554.646	29.78
555.072	29.75
555.498	29.67
555.923	29.63
556.349	29.53
556.774	29.45
557.199	29.38
557.625	29.29
558.05	29.2
558.475	29.1
558.9	29.01
559.325	28.89
559.75	28.75
560.175	28.62
560.6	28.49
561.025	28.35
561.449	28.19
561.874	28.02
562.299	27.87
562.723	27.7
563.148	27.53
563.572	27.37
563.997	27.17
564.421	26.99
564.846	26.81
565.27	26.59
565.694	26.36
566.118	26.16
566.542	25.97
566.966	25.75
567.39	25.53
567.814	25.32
568.238	25.06
568.662	24.85
569.086	24.64
569.509	24.42
569.933	24.2
570.357	24.01
570.78	23.78
571.204	23.55
571.627	23.35
572.05	23.16
572.474	22.95
572.897	22.76
573.32	22.56
573.743	22.37
574.166	22.18
574.589	22
575.012	21.83
575.435	21.69
575.858	21.53
576.281	21.37
576.704	21.22
577.126	21.07
577.549	20.96
577.972	20.85
578.394	20.72
578.817	20.59
579.239	20.47
579.661	20.36
580.084	20.24
580.506	20.12
580.928	20.01
581.35	19.9
581.772	19.82
582.194	19.71
582.616	19.61
583.038	19.51
583.46	19.44
583.882	19.37
584.303	19.27
584.725	19.18
585.147	19.09
585.568	19.02
585.99	18.93
586.411	18.85
586.833	18.77
587.254	18.69
587.675	18.61
588.096	18.53
588.518	18.46
588.939	18.39
589.36	18.33
589.781	18.28
590.202	18.22
590.623	18.17
591.043	18.1
591.464	18.04
591.885	17.98
592.305	17.94
592.726	17.9
593.147	17.87
593.567	17.83
593.987	17.8
594.408	17.78
594.828	17.73
595.248	17.69
595.669	17.66
596.089	17.63
596.509	17.58
596.929	17.55
597.349	17.5
597.769	17.43
598.189	17.4
598.608	17.34
599.028	17.28
599.448	17.25
599.867	17.19
600.287	17.13
600.706	17.06
601.126	17.01
601.545	16.94
601.965	16.86
602.384	16.8
602.803	16.72
603.222	16.64
603.641	16.57
604.061	16.49
604.48	16.42
604.898	16.34
605.317	16.26
605.736	16.16
606.155	16.07
606.574	15.99
606.992	15.89
607.411	15.81
607.829	15.66
608.248	15.54
608.666	15.44
609.085	15.34
609.503	15.22
609.921	15.11
610.339	15.03
610.758	14.93
611.176	14.84
611.594	14.74
612.012	14.63
612.43	14.58
612.847	14.51
613.265	14.41
613.683	14.31
614.101	14.23
614.518	14.15
614.936	14.06
615.353	13.98
615.771	13.89
616.188	13.82
616.606	13.76
617.023	13.69
617.44	13.61
617.857	13.54
618.274	13.48
618.691	13.42
619.108	13.36
619.525	13.31
619.942	13.25
620.359	13.22
620.776	13.16
621.192	13.11
621.609	13.08
622.026	13.04
622.442	13.01
622.859	12.99
623.275	12.98
623.691	12.95
624.108	12.92
624.524	12.89
624.94	12.87
625.356	12.85
625.772	12.85
626.188	12.84
626.604	12.82
627.02	12.81
627.436	12.78
627.852	12.76
628.268	12.74
628.683	12.73
629.099	12.73
629.514	12.71
629.93	12.68
630.345	12.63
630.761	12.59
631.176	12.54
631.591	12.5
632.007	12.44
632.422	12.39
632.837	12.34
633.252	12.27
633.667	12.18
634.082	12.11
634.497	12.02
634.911	11.93
635.326	11.84
635.741	11.75
636.155	11.65
636.57	11.56
636.984	11.44
637.399	11.31
637.813	11.2
638.228	11.08
638.642	10.97
639.056	10.86
639.47	10.74
639.884	10.62
640.298	10.5
640.712	10.38
641.126	10.24
641.54	10.12
641.954	10
642.368	9.88
642.781	9.75
643.195	9.63
643.609	9.52
644.022	9.4
644.436	9.29
644.849	9.19
645.262	9.1
645.676	9
646.089	8.92
646.502	8.83
646.915	8.76
647.328	8.7
647.741	8.63
648.154	8.58
648.567	8.54
648.98	8.49
649.393	8.44
649.805	8.38
650.218	8.35
650.631	8.31
651.043	8.29
651.456	8.25
651.868	8.2
652.28	8.17
652.693	8.11
653.105	8.06
653.517	8.01
653.929	7.97
654.341	7.92
654.753	7.86
655.165	7.8
655.577	7.72
655.989	7.66
656.401	7.58
656.813	7.51
657.224	7.45
657.636	7.38
658.047	7.29
658.459	7.22
658.87	7.16
659.282	7.1
659.693	7.03
660.104	6.95
660.515	6.87
660.926	6.81
661.338	6.73
661.749	6.66
662.159	6.6
662.57	6.56
662.981	6.5
663.392	6.45
663.803	6.39
664.213	6.34
664.624	6.32
665.035	6.29
665.445	6.27
665.855	6.25
666.266	6.23
666.676	6.2
667.086	6.18
667.497	6.16
667.907	6.13
668.317	6.12
668.727	6.11
669.137	6.09
669.547	6.09
669.956	6.08
670.366	6.08
670.776	6.09
671.186	6.1
671.595	6.11
672.005	6.14
672.414	6.16
672.824	6.18
673.233	6.21
673.642	6.23
674.052	6.25
674.461	6.28
674.87	6.3
675.279	6.33
675.688	6.35
676.097	6.39
676.506	6.42
676.915	6.46
677.323	6.5
677.732	6.54
678.141	6.6
678.549	6.66
678.958	6.72
679.366	6.78
679.775	6.84
680.183	6.92
680.592	6.98
681	7.04
681.408	7.12
681.816	7.19
682.224	7.29
682.632	7.38
683.04	7.48
683.448	7.6
683.856	7.72
684.264	7.88
684.671	8.06
685.079	8.24
685.487	8.47
685.894	8.71
686.302	8.96
686.709	9.25
687.116	9.56
687.524	9.89
687.931	10.26
688.338	10.66
688.745	11.08
689.152	11.53
689.559	12.01
689.966	12.5
690.373	13.04
690.78	13.6
691.187	14.2
691.593	14.83
692	15.47
692.407	16.14
692.813	16.83
693.22	17.53
693.626	18.24
694.032	18.97
694.439	19.73
694.845	20.47
695.251	21.25
695.657	22.01
696.063	22.78
696.469	23.56
696.875	24.32
697.281	25.05
697.687	25.83
698.093	26.59
698.498	27.36
698.904	28.1
699.31	28.86
699.715	29.58
700.12	30.31
700.526	31.04
700.931	31.77
701.337	32.5
701.742	33.2
702.147	33.9
702.552	34.58
702.957	35.25
703.362	35.95
703.767	36.6
704.172	37.27
704.577	37.92
704.981	38.55
705.386	39.16
705.791	39.79
706.195	40.39
706.6	40.98
707.004	41.59
707.408	42.18
707.813	42.74
708.217	43.33
708.621	43.9
709.025	44.46
709.43	44.99
709.834	45.56
710.237	46.07
710.641	46.66
711.045	47.17
711.449	47.67
711.853	48.2
712.256	48.71
712.66	49.19
713.064	49.66
713.467	50.13
713.87	50.61
714.274	51.1
714.677	51.56
715.08	51.97
715.484	52.41
715.887	52.89
716.29	53.31
716.693	53.72
717.096	54.13
717.499	54.55
717.901	54.94
718.304	55.33
718.707	55.67
719.109	56.04
719.512	56.43
719.915	56.82
720.317	57.15
720.719	57.48
721.122	57.82
721.524	58.17
721.926	58.48
722.328	58.82
722.731	59.18
723.133	59.47
723.535	59.8
723.937	60.07
724.338	60.32
724.74	60.58
725.142	60.78
725.544	61.02
725.945	61.25
726.347	61.47
726.748	61.66
727.15	61.82
727.551	62.05
727.952	62.22
728.354	62.44
728.755	62.64
729.156	62.87
729.557	63.1
729.958	63.3
730.359	63.45
730.76	63.64
731.161	63.78
731.562	63.96
731.962	64.11
732.363	64.26
732.763	64.41
733.164	64.55
733.564	64.64
733.965	64.76
734.365	64.84
734.766	64.97
735.166	65.02
735.566	65.13
735.966	65.2
736.366	65.27
736.766	65.34
737.166	65.4
737.566	65.42
737.966	65.5
738.365	65.57
738.765	65.66
739.165	65.71
739.564	65.8
739.964	65.87
740.363	65.95
740.763	66.01
741.162	66.04
741.561	66.12
741.96	66.22
742.36	66.28
742.759	66.29
743.158	66.34
743.557	66.41
743.955	66.49
744.354	66.56
744.753	66.61
745.152	66.68
745.55	66.77
745.949	66.81
746.348	66.85
746.746	66.91
747.144	67
747.543	67.05
747.941	67.1
748.339	67.16
748.737	67.2
749.136	67.23
749.534	67.26
749.932	67.28
750.33	67.27
750.727	67.27
751.125	67.27
751.523	67.25
751.921	67.27
752.318	67.27
752.716	67.22
753.113	67.24
753.511	67.23
753.908	67.23
754.305	67.2
754.703	67.19
755.1	67.17
755.497	67.16
755.894	67.17
756.291	67.15
756.688	67.14
757.085	67.14
757.482	67.11
757.878	67.1
758.275	67.08
758.672	67.11
759.068	67.13
759.465	67.16
759.861	67.13
760.258	67.1
760.654	67.11
761.05	67.09
761.447	67.07
761.843	67.03
762.239	67.01
762.635	66.99
763.031	66.93
763.427	66.88
763.822	66.86
764.218	66.88
764.614	66.89
765.01	66.86
765.405	66.85
765.801	66.84
766.196	66.85
766.592	66.86
766.987	66.87
767.382	66.91
767.778	66.93
768.173	66.91
768.568	66.87
768.963	66.85
769.358	66.84
769.753	66.87
770.148	66.89
770.542	66.87
770.937	66.88
771.332	66.9
771.726	66.86
772.121	66.82
772.515	66.87
772.91	66.88
773.304	66.87
773.699	66.86
774.093	66.84
774.487	66.85
774.881	66.88
775.275	66.88
775.669	66.83
776.063	66.84
776.457	66.85
776.851	66.84
777.245	66.85
777.638	66.86
778.032	66.89
778.425	66.85
778.819	66.82
779.212	66.81
779.606	66.77
779.999	66.79
780.392	66.81
780.786	66.8
781.179	66.79
781.572	66.79
781.965	66.8
782.358	66.74
782.751	66.79
783.143	66.78
783.536	66.82
783.929	66.87
784.322	66.87
784.714	66.86
785.107	66.91
785.499	66.91
785.891	66.94
786.284	66.92
786.676	67.02
787.068	67.01
787.46	67.02
787.852	67
788.245	67
788.636	67
789.028	67.01
789.42	67.01
789.812	67.02
790.204	66.94
790.595	66.96
790.987	66.9
791.378	66.91
791.77	66.96
792.161	66.97
792.553	66.99
792.944	67
793.335	67.02
793.726	66.96
794.117	66.94
794.508	66.99
794.899	67.01
795.29	67.04
795.681	67.07
796.072	67.08
796.463	67.06
796.853	67.03
797.244	67.06
797.634	67.07
798.025	67.12
798.415	67.15
798.806	67.21
799.196	67.26
799.586	67.29
799.976	67.31
800.366	67.28
800.756	67.3
801.146	67.3
801.536	67.3
801.926	67.31
802.316	67.32
802.706	67.35
803.095	67.35
803.485	67.37
803.874	67.38
804.264	67.43
804.653	67.45
805.043	67.47
805.432	67.51
805.821	67.53
806.21	67.58
806.599	67.65
806.988	67.63
807.377	67.66
807.766	67.63
808.155	67.63
808.544	67.54
808.933	67.57
809.321	67.6
809.71	67.67
810.098	67.69
810.487	67.68
810.875	67.66
811.264	67.7
811.652	67.68
812.04	67.71
812.428	67.73
812.816	67.81
813.204	67.84
813.592	67.85
813.98	67.85
814.368	67.87
814.756	67.9
815.144	67.92
815.531	67.93
815.919	67.93
816.306	67.95
816.694	67.97
817.081	67.95
817.469	67.96
817.856	68.01
818.243	67.97
818.63	68.01
819.017	68.02
819.404	68
819.791	68.01
820.178	68.01
820.565	68.02
820.952	68.03
821.339	68.08
821.725	68.11
822.112	68.1
822.498	68.12
822.885	68.11
823.271	68.11
823.657	68.15
824.044	68.15
824.43	68.17
824.816	68.18
825.202	68.16
825.588	68.14
825.974	68.12
826.36	68.1
826.746	68.11
827.132	68.05
827.517	68.05
827.903	68.07
828.289	68.08
828.674	68.04
829.06	68.05
829.445	68.1
829.83	68.08
830.216	68.07
830.601	68.05
830.986	68.05
831.371	68.1
831.756	68.03
832.141	68
832.526	67.99
832.911	68.02
833.295	67.97
833.68	67.94
834.065	67.95
834.449	67.91
834.834	67.88
835.218	67.83
835.603	67.8
835.987	67.83
836.371	67.83
836.755	67.81
837.139	67.78
837.524	67.79
837.908	67.72
838.291	67.66
838.675	67.68
839.059	67.69
839.443	67.69
839.827	67.65
840.21	67.65
840.594	67.63
840.977	67.61
841.361	67.6
841.744	67.61
842.127	67.63
842.511	67.64
842.894	67.62
843.277	67.65
843.66	67.63
844.043	67.64
844.426	67.61
844.809	67.59
845.191	67.57
845.574	67.59
845.957	67.54
846.339	67.54
846.722	67.56
847.104	67.54
847.487	67.52
847.869	67.51
848.252	67.5
848.634	67.51
849.016	67.56
849.398	67.55
849.78	67.55
850.162	67.56
850.544	67.56
850.926	67.52
851.307	67.52
851.689	67.51
852.071	67.52
852.452	67.54
852.834	67.53
853.215	67.5
853.597	67.52
853.978	67.47
854.359	67.49
854.741	67.5
855.122	67.51
855.503	67.54
855.884	67.52
856.265	67.53
856.646	67.5
857.026	67.53
857.407	67.48
857.788	67.48
858.169	67.5
858.549	67.5
858.93	67.49
859.31	67.5
859.69	67.49
860.071	67.48
860.451	67.5
860.831	67.51
861.211	67.49
861.591	67.54
861.971	67.51
862.351	67.53
862.731	67.51
863.111	67.49
863.491	67.49
863.87	67.46
864.25	67.49
864.629	67.43
865.009	67.44
865.388	67.43
865.768	67.39
866.147	67.42
866.526	67.4
866.905	67.4
867.284	67.4
867.663	67.4
868.042	67.41
868.421	67.41
868.8	67.42
869.179	67.42
869.558	67.41
869.936	67.41
870.315	67.41
870.693	67.4
871.072	67.37
871.45	67.36
871.828	67.37
872.207	67.42
872.585	67.41
872.963	67.39
873.341	67.38
873.719	67.4
874.097	67.39
874.475	67.38
874.853	67.37
875.23	67.42
875.608	67.44
875.986	67.41
876.363	67.34
876.741	67.31
877.118	67.31
877.495	67.29
877.873	67.24
878.25	67.26
878.627	67.26
879.004	67.28
879.381	67.26
879.758	67.23
880.135	67.21
880.512	67.23
880.889	67.27
881.265	67.28
881.642	67.25
882.019	67.27
882.395	67.3
882.772	67.28
883.148	67.26
883.524	67.28
883.901	67.28
884.277	67.29
884.653	67.29
885.029	67.24
885.405	67.22
885.781	67.22
886.157	67.21
886.532	67.18
886.908	67.21
887.284	67.22
887.659	67.22
888.035	67.23
888.411	67.21
888.786	67.23
889.161	67.26
889.537	67.31
889.912	67.31
890.287	67.3
890.662	67.31
891.037	67.24
891.412	67.18
891.787	67.13
892.162	67.07
892.536	67.06
892.911	66.99
893.286	66.92
893.66	66.86
894.035	66.82
894.409	66.78
894.784	66.75
895.158	66.74
895.532	66.73
895.906	66.7
896.281	66.67
896.655	66.65
897.029	66.64
897.402	66.65
897.776	66.66
898.15	66.64
898.524	66.65
898.898	66.6
899.271	66.58
899.645	66.57
900.018	66.58
900.392	66.57
900.765	66.56
901.138	66.57
901.511	66.57
901.884	66.57
902.258	66.56
902.631	66.54
903.003	66.56
903.376	66.57
903.749	66.61
904.122	66.63
904.495	66.65
904.867	66.67
905.24	66.68
905.612	66.66
905.985	66.63
906.357	66.64
906.729	66.63
907.102	66.59
907.474	66.58
907.846	66.52
908.218	66.48
908.59	66.48
908.962	66.47
909.334	66.46
909.705	66.47
910.077	66.45
910.449	66.47
910.82	66.44
911.192	66.48
911.563	66.47
911.935	66.49
912.306	66.49
912.677	66.5
913.048	66.45
913.419	66.38
913.79	66.32
914.161	66.32
914.532	66.28
914.903	66.28
915.274	66.25
915.645	66.27
916.015	66.21
916.386	66.21
916.756	66.15
917.127	66.16
917.497	66.21
917.868	66.19
918.238	66.22
918.608	66.22
918.978	66.21
919.348	66.15
919.718	66.11
920.088	66.14
920.458	66.15
920.828	66.2
921.198	66.22
921.567	66.14
921.937	66.17
922.306	66.11
922.676	66.11
923.045	66.05
923.415	66.1
923.784	66.12
924.153	66.08
924.522	66.04
924.891	65.99
925.26	65.93
925.629	65.96
925.998	65.96
926.367	65.96
926.736	65.93
927.104	65.95
927.473	65.94
927.842	65.87
928.21	65.86
928.578	65.83
928.947	65.79
929.315	65.78
929.683	65.77
930.051	65.72
930.42	65.68
930.788	65.62
931.156	65.59
931.523	65.55
931.891	65.51
932.259	65.43
932.627	65.32
932.994	65.26
933.362	65.18
933.729	65.03
934.097	64.94
934.464	64.86
934.831	64.77
935.199	64.68
935.566	64.51
935.933	64.52
936.3	64.4
936.667	64.35
937.034	64.23
937.401	64.17
937.767	64.12
938.134	64.02
938.501	63.94
938.867	64.02
939.234	64.01
939.6	64.06
939.967	63.97
940.333	64.14
940.699	64.27
941.065	64.47
941.431	64.56
941.798	64.78
942.163	64.97
942.529	65.04
942.895	65.05
943.261	65.08
943.627	65.22
943.992	65.3
944.358	65.31
944.723	65.36
945.089	65.35
945.454	65.4
945.82	65.34
946.185	65.42
946.55	65.61
946.915	65.64
947.28	65.71
947.645	65.69
948.01	65.7
948.375	65.76
948.74	65.67
949.104	65.7
949.469	65.61
949.834	65.6
950.198	65.41
950.562	65.32
950.927	65.32
951.291	65.19
951.655	65.22
952.02	65.22
952.384	65.16
952.748	65.12
953.112	65.08
953.476	65.01
953.839	64.96
954.203	64.98
954.567	64.88
954.931	64.82
955.294	64.86
955.658	64.74
956.021	64.66
956.385	64.64
956.748	64.66
957.111	64.57
957.474	64.55
957.837	64.58
958.2	64.56
958.563	64.56
958.926	64.54
959.289	64.52
959.652	64.54
960.015	64.6
960.377	64.53
960.74	64.47
961.102	64.47
961.465	64.6
961.827	64.47
962.189	64.47
962.552	64.39
962.914	64.36
963.276	64.32
963.638	64.23
964	64.14
964.362	64.18
964.724	64.17
965.085	64.12
965.447	63.89
965.809	63.87
966.17	63.82
966.532	63.83
966.893	63.74
967.255	63.71
967.616	63.81
967.977	63.86
968.338	63.85
968.699	63.87
969.061	63.83
969.421	63.92
969.782	63.97
970.143	63.94
970.504	63.95
970.865	63.94
971.225	63.91
971.586	63.88
971.946	63.75
972.307	63.64
972.667	63.63
973.027	63.68
973.388	63.63
973.748	63.65
974.108	63.65
974.468	63.68
974.828	63.77
975.188	63.85
975.548	63.82
975.907	63.9
976.267	63.93
976.627	63.96
976.986	63.96
977.346	63.96
977.705	63.92
978.064	63.92
978.424	63.89
978.783	63.91
979.142	63.86
979.501	63.81
979.86	63.79
980.219	63.75
980.578	63.61
980.937	63.68
981.296	63.68
981.654	63.64
982.013	63.67
982.371	63.61
982.73	63.54
983.088	63.46
983.447	63.49
983.805	63.5
984.163	63.48
984.521	63.39
984.879	63.24
985.237	63.31
985.595	63.37
985.953	63.25
986.311	63.28
986.669	63.3
987.026	63.28
987.384	63.22
987.741	63.12
988.099	63.13
988.456	63.23
988.814	63.27
989.171	63.18
989.528	63.11
989.885	63.19
990.242	63.18
990.599	63.11
990.956	63.17
991.313	63.26
991.67	63.31
992.027	63.31
992.383	63.33
992.74	63.22
993.096	63.14
993.453	63.2
993.809	63.24
994.165	63.14
994.522	63.12
994.878	62.95
995.234	62.79
995.59	62.66
995.946	62.71
996.302	62.68
996.658	62.7
997.013	62.73
997.369	62.61
997.725	62.61
998.08	62.67
998.436	62.77
998.791	62.9
999.147	62.96
999.502	62.95
999.857	62.93
1000.212	62.94
1000.567	62.83
1000.922	62.88
1001.277	62.75
1001.632	62.68
1001.987	62.62
1002.342	62.43
1002.696	62.38
1003.051	62.25
1003.406	62.22
1003.76	62.2
1004.114	62.18
1004.469	62.19
1004.823	62.15
1005.177	62.25
1005.531	62.09
1005.885	62.1
1006.239	62.22
1006.593	62.2
1006.947	62.23
1007.301	62.38
1007.655	62.33
1008.008	62.19
1008.362	62.16
1008.715	62.15
1009.069	62.06
1009.422	62.08
1009.776	61.83
1010.129	61.69
1010.482	61.7
1010.835	61.78
1011.188	61.66
1011.541	61.47
1011.894	61.48
1012.247	61.44
1012.6	61.42
1012.952	61.38
1013.305	61.3
1013.657	61.26
1014.01	61.37
1014.362	61.32
1014.715	61.19
1015.067	61.15
1015.419	61.4
1015.771	61.59
1016.123	61.53
1016.475	61.58
1016.827	61.86
1017.179	62.02
1017.531	62.3
1017.883	62.16
1018.234	62.04
1018.586	61.91
1018.938	61.72
1019.289	61.3
1019.64	61.27
1019.992	61.37
1020.343	61.02
1020.694	60.49
1021.045	60.04
1021.396	59.92
1021.747	59.92
1022.098	60.12
1022.449	60.11
1022.8	60.2
1023.151	60.19
1023.501	59.76
1023.852	60.01
1024.202	60.2
1024.553	60.26
1024.903	60.59
1025.253	60.64
1025.604	60.43
1025.954	59.93
1026.304	60.08
1026.654	59.9
1027.004	60.17
1027.354	60.03
1027.703	59.67
1028.053	59.19
1028.403	59.1
1028.753	59.3
1029.102	58.9
1029.452	58.76
1029.801	58.69
1030.15	58.43
1030.499	58.47
897.758	587.71
901.051	601.65
904.343	607.55
907.636	598.67
910.928	586.85
914.22	596.34
917.511	586.17
920.803	567.61
924.094	542
927.384	545.81
930.675	535.57
933.965	526.79
937.255	520.92
940.544	498.21
943.834	478.95
947.123	472.5
950.411	449.55
953.7	438.42
956.988	425.28
960.276	412.15
963.563	406.21
966.851	383.57
970.138	375.92
973.424	353.12
976.711	349.36
979.997	335.68
983.283	328.12
986.568	316.67
989.853	309.72
993.138	297.37
996.423	292.85
999.708	285.5
1002.992	285.04
1006.275	277.6
1009.559	275.48
1012.842	267.44
1016.125	259.38
1019.408	255.81
1022.69	254.03
1025.972	251.27
1029.254	247.42
1032.536	241.63
1035.817	233.65
1039.098	230.14
1042.379	227.77
1045.659	224.76
1048.939	222.12
1052.219	220.2
1055.498	215.75
1058.778	212.25
1062.057	208.81
1065.335	206.95
1068.614	203.91
1071.892	201.8
1075.17	198.65
1078.447	194.91
1081.724	193.9
1085.001	189.25
1088.278	188.27
1091.554	189.45
1094.83	186.87
1098.106	184.17
1101.382	182.82
1104.657	181.84
1107.932	181.12
1111.206	179.6
1114.481	178.03
1117.755	176.53
1121.029	177.19
1124.302	174.05
1127.575	170.21
1130.848	170.72
1134.121	169.23
1137.393	169.06
1140.665	167.88
1143.937	166.34
1147.208	165.1
1150.48	163.46
1153.75	162.74
1157.021	160.6
1160.291	160.32
1163.561	160.66
1166.831	159.26
1170.101	158.64
1173.37	157.27
1176.639	156.15
1179.907	155.65
1183.176	154.93
1186.444	155.45
1189.711	153.77
1192.979	155.65
1196.246	155.86
1199.513	154.2
1202.78	154.77
1206.046	154.41
1209.312	156.22
1212.578	156.86
1215.843	159.49
1219.108	160.88
1222.373	162.66
1225.638	165.49
1228.902	168.05
1232.166	173.29
1235.43	175.02
1238.693	179.11
1241.956	183.35
1245.219	186.42
1248.482	187.91
1251.744	187.08
1255.006	187.62
1258.268	183.58
1261.529	182.26
1264.79	178.74
1268.051	175
1271.312	174.31
1274.572	171.07
1277.832	167.43
1281.092	164.86
1284.351	162.1
1287.61	161.73
1290.869	161.17
1294.128	160.91
1297.386	160.21
1300.644	159.71
1303.902	158.53
1307.159	157.45
1310.416	158.34
1313.673	160.01
1316.93	160.68
1320.186	163.58
1323.442	165.34
1326.697	167.52
1329.953	169.33
1333.208	175.03
1336.463	181.03
1339.717	184.84
1342.972	193.4
1346.226	198.11
1349.479	199.51
1352.733	208.79
1355.986	210.92
1359.238	215.3
1362.491	217.89
1365.743	224.05
1368.995	224.99
1372.247	225.87
1375.498	225.24
1378.749	232.12
1382	231.82
1385.251	230.97
1388.501	229.5
1391.751	233.12
1395	231.59
1398.25	233.03
1401.499	232.94
1404.748	231.65
1407.996	225.61
1411.244	225.63
1414.492	221.48
1417.74	216.21
1420.987	211.69
1424.234	209.37
1427.481	201.87
1430.728	197.17
1433.974	189
1437.22	183.76
1440.465	177.31
1443.711	172.61
1446.956	167.35
1450.201	161.95
1453.445	155.34
1456.689	151.08
1459.933	145.72
1463.177	140.25
1466.42	138.17
1469.663	134.78
1472.906	130.47
1476.148	128.19
1479.391	125.58
1482.633	123.89
1485.874	121.72
1489.115	120.72
1492.356	118.73
1495.597	117.36
1498.838	117.43
1502.078	115.83
1505.318	115.68
1508.557	115.49
1511.797	113.6
1515.036	113.47
1518.274	112.85
1521.513	110.87
1524.751	110.47
1527.989	111.55
1531.227	111.1
1534.464	110.2
1537.701	110.25
1540.938	109.92
1544.174	109.53
1547.41	110.33
1550.646	109.61
1553.882	109.83
1557.117	110.6
1560.352	109.99
1563.587	109.5
1566.821	109.53
1570.055	108.89
1573.289	108.46
1576.523	108.65
1579.756	108.27
1582.989	108.14
1586.222	108.51
1589.454	108.07
1592.686	108.07
1595.918	107.92
1599.15	107.42
1602.381	107.74
1605.612	107.99
1608.843	108.04
1612.073	108.08
1615.303	108.39
1618.533	108.47
1621.762	107.91
1624.992	108.01
1628.221	107.44
1631.449	108.24
1634.678	108.48
1637.906	108.44
1641.134	108.59
1644.361	108.25
1647.588	108.87
1650.815	109.15
1654.042	108.54
1657.269	108.92
1660.495	109.64
1663.72	109.39
1666.946	109.57
1670.171	109.78
1673.396	110.38
1676.621	110.34
1679.845	110.58
1683.069	110.1
1686.293	109.97
1689.517	110.78
1692.74	110.78
1695.963	110.53
1699.185	111.65
1702.408	110.68
1705.63	110.96
1708.852	111.02
1712.073	111.45
1715.294	111.54
1718.515	111.98
1721.736	112.14
1724.956	112.51
1728.176	112.38
1731.396	113.06
1734.616	113.19
1737.835	114.06
1741.054	113.53
1744.272	113.53
1747.491	113.03
1750.709	113.9
1753.927	113.84
1757.144	113.99
1760.361	113.75
1763.578	115.13
1766.795	115.01
1770.011	114.58
1773.227	115.27
1776.443	116.66
1779.658	115.95
1782.874	117.66
1786.089	117.1
1789.303	117.27
1792.518	118.44
1795.732	119.11
1798.945	119.09
1802.159	119.52
1805.372	121.31
1808.585	121.8
1811.797	122.2
1815.01	123.87
1818.222	123.88
1821.434	125.53
1824.645	126.35
1827.856	127.72
1831.067	127.78
1834.278	129.32
1837.488	131.07
1840.698	131.99
1843.908	131.83
1847.117	133.64
1850.326	134.54
1853.535	135.02
1856.744	136.15
1859.952	137.71
1863.16	137.57
1866.368	136.95
1869.575	137.75
1872.782	135.46
1875.989	133.45
1879.196	134.17
1882.402	131.83
1885.608	131.85
1888.814	131.29
1892.019	131.63
1895.224	128.98
1898.429	128.57
1901.634	129.46
1904.838	128.38
1908.042	129.38
1911.246	129.63
1914.449	128.88
1917.652	128.75
1920.855	128.26
1924.058	127.37
1927.26	125.75
1930.462	126.78
1933.664	126.91
1936.865	126.55
1940.066	125.41
1943.267	123.66
1946.467	125.2
1949.668	125.08
1952.868	126.03
1956.067	126.76
1959.267	125.89
1962.466	126.78
1965.665	129.05
1968.863	127.89
1972.061	130.79
1975.259	132.53
1978.457	135.83
1981.654	135.75
1984.852	137.7
1988.048	138.66
1991.245	140.27
1994.441	145.15
1997.637	148.23
2000.833	148.91
2004.028	152.7
2007.223	155.64
2010.418	159.15
2013.613	164.3
2016.807	169.32
2020.001	171.8
2023.194	176.29
2026.388	183.46
2029.581	192.57
2032.774	198.36
2035.966	204.91
2039.158	209.83
2042.35	211.36
2045.542	216.44
2048.733	225.14
2051.924	228.17
2055.115	232.43
2058.306	235.48
2061.496	238.91
2064.686	237.77
2067.875	235.6
2071.065	238.76
2074.254	239.12
2077.442	247.79
2080.631	249.61
2083.819	250.17
2087.007	253.33
2090.195	257.56
2093.382	258.15
2096.569	258.42
2099.756	262.37
2102.942	267.76
2106.128	272.52
2109.314	275.91
2112.5	275.14
2115.685	273.48
2118.87	273.29
2122.055	275.57
2125.239	280.37
2128.424	287.31
2131.608	285.59
2134.791	285.47
2137.974	285.76
2141.157	289.27
2144.34	290.76
2147.523	296.12
2150.705	304.11
2153.887	301.99
2157.068	305.25
2160.25	308.8
2163.431	305.96
2166.611	310.55
2169.792	315.82
2172.972	320.82
2176.152	321.42
2179.331	329.4
2182.511	329.6
2185.69	331.27
2188.868	341.93
2192.047	352.61
2195.225	355.88
2198.403	363.73
2201.58	359.24
2204.758	373.34
2207.935	374.52
2211.111	381.06
2214.288	380.44
2217.464	384.2
2220.64	390.03
2223.815	394.86
2226.991	385.01
2230.166	387.84
2233.34	396.5
2236.515	408.76
2239.689	401.74
2242.863	411.93
2246.036	407.94
2249.209	418.03
2252.382	414.02
2255.555	428.53
2258.727	429.4
2261.9	444.79
2265.071	452.42
2268.243	448.44
2271.414	460.74
2274.585	471.66
2277.756	466.65
2280.926	485.8
2284.096	487.35
2287.266	495.07
2290.436	484.32
2293.605	495.13
2296.774	512.96
2299.942	512.63
2303.111	525.79
2306.279	535.33
2309.447	536.48
2312.614	540.07
2315.781	552.64
2318.948	559.06
2322.115	567.57
2325.281	597.62
2328.447	590.76
2331.613	594.68
2334.779	599.82
2337.944	614.84
2341.109	627.56
2344.274	634.07
2347.438	646.19
2350.602	650.43
2353.766	695.75
2356.929	699
2360.092	711.16
2363.255	717.5
2366.418	721.24
2369.58	737.53
2372.742	742.91
2375.904	736.08
2379.066	753.92
2382.227	803.28
2385.388	803.93
2388.548	755.51
2391.709	750.62
2394.869	769.05
2398.029	770.53
2401.188	773.47
2404.347	796.23
2407.506	810.44
2410.665	783.78
2413.823	785.07
2416.981	787.7
2420.139	751.07
2423.296	812.42
2426.453	866.37
2429.61	819.79
2432.767	873.33
2435.923	901.1
2439.079	876.23
2442.235	896.26
2445.391	913.61
2448.546	905.7
2451.701	955.51
2454.855	1017.42
2458.009	901.74
2461.163	913.22
2464.317	929.88
2467.471	910.42
2470.624	943.04
2473.777	924.64
2476.929	895.1
2480.082	960.67
2483.234	1011.34
2486.385	1026.95
2489.537	1052.86
2492.688	1153.49
2495.839	1129.39
2498.989	1160.77
2502.14	1166.55
2505.29	1109.7
2508.439	1232.85
2511.589	1263.17
2514.738	1232.39
2517.887	1213.99
2521.035	1143.94
2524.183	1127.67
2527.331	1124
2530.479	1104.17
2533.627	1130.49
