Data from N_3_dec_wc_4n_Splice17_12.txt Node
Date: Sat Feb 29 14:50:54 EST 2020
User: sa697716
Spectrometer: FLMS03696
Trigger mode: 0
Integration Time (sec): 3.180400E-1
Scans to average: 20
Electric dark correction enabled: true
Nonlinearity correction enabled: true
Boxcar width: 5
XAxis mode: Wavelengths
Number of Pixels in Spectrum: 2048
>>>>>Begin Spectral Data<<<<<
187.83	93.95
188.298	79.1
188.766	78.5
189.233	78.21
189.701	71.77
190.169	85.86
190.636	87.12
191.104	125.24
191.571	488.36
192.039	284.76
192.506	-224.68
192.974	4582.95
193.441	378.66
193.908	31.5
194.375	80.47
194.842	23.91
195.31	69.13
195.777	22.77
196.244	45.31
196.711	46.66
197.177	45.38
197.644	47.05
198.111	45.88
198.578	46.61
199.045	47.15
199.511	47.17
199.978	47.77
200.445	48.13
200.911	48.24
201.378	48.67
201.844	48.99
202.31	49.82
202.777	50.03
203.243	50.62
203.709	50.79
204.176	50.08
204.642	49.81
205.108	49.52
205.574	49.73
206.04	49.86
206.506	49.3
206.972	49.06
207.438	48.55
207.903	48.1
208.369	47.45
208.835	47.13
209.301	47.03
209.766	46.66
210.232	46.09
210.697	45.36
211.163	44.86
211.628	44.14
212.094	43.53
212.559	42.53
213.024	41.5
213.49	40.39
213.955	39.58
214.42	38.83
214.885	37.65
215.35	36.26
215.815	34.49
216.28	32.47
216.745	30.71
217.21	28.72
217.675	26.84
218.14	25.1
218.604	23.6
219.069	22.24
219.534	20.94
219.998	19.92
220.463	19.07
220.927	18.36
221.392	17.76
221.856	17.14
222.32	16.65
222.785	16.27
223.249	15.95
223.713	15.64
224.177	15.3
224.642	15.02
225.106	14.77
225.57	14.48
226.034	14.25
226.497	13.96
226.961	13.73
227.425	13.48
227.889	13.25
228.353	13.01
228.816	12.79
229.28	12.57
229.744	12.4
230.207	12.21
230.671	12.04
231.134	11.85
231.597	11.69
232.061	11.54
232.524	11.4
232.987	11.23
233.45	11.07
233.914	10.95
234.377	10.82
234.84	10.66
235.303	10.53
235.766	10.41
236.229	10.31
236.691	10.2
237.154	10.08
237.617	9.97
238.08	9.87
238.542	9.77
239.005	9.66
239.468	9.55
239.93	9.48
240.393	9.39
240.855	9.29
241.317	9.19
241.78	9.11
242.242	9.02
242.704	8.93
243.166	8.85
243.629	8.77
244.091	8.7
244.553	8.63
245.015	8.56
245.477	8.47
245.939	8.39
246.4	8.31
246.862	8.23
247.324	8.19
247.786	8.13
248.247	8.06
248.709	8
249.17	7.95
249.632	7.87
250.093	7.8
250.555	7.75
251.016	7.69
251.477	7.63
251.939	7.57
252.4	7.5
252.861	7.45
253.322	7.4
253.783	7.36
254.244	7.3
254.705	7.27
255.166	7.24
255.627	7.2
256.088	7.17
256.549	7.14
257.009	7.11
257.47	7.07
257.931	7.03
258.391	6.98
258.852	6.93
259.312	6.88
259.773	6.84
260.233	6.79
260.694	6.74
261.154	6.71
261.614	6.66
262.074	6.62
262.534	6.58
262.994	6.54
263.455	6.51
263.915	6.47
264.374	6.44
264.834	6.41
265.294	6.37
265.754	6.34
266.214	6.3
266.673	6.28
267.133	6.25
267.593	6.23
268.052	6.21
268.512	6.18
268.971	6.16
269.431	6.14
269.89	6.12
270.349	6.1
270.809	6.09
271.268	6.07
271.727	6.05
272.186	6.04
272.645	6.02
273.104	5.99
273.563	5.98
274.022	5.97
274.481	5.95
274.94	5.93
275.399	5.92
275.857	5.9
276.316	5.87
276.775	5.84
277.233	5.82
277.692	5.81
278.15	5.79
278.609	5.77
279.067	5.75
279.525	5.73
279.984	5.71
280.442	5.71
280.9	5.69
281.358	5.69
281.816	5.68
282.274	5.66
282.732	5.65
283.19	5.64
283.648	5.63
284.106	5.62
284.564	5.61
285.021	5.6
285.479	5.6
285.937	5.58
286.394	5.57
286.852	5.57
287.309	5.56
287.767	5.55
288.224	5.54
288.682	5.52
289.139	5.51
289.596	5.49
290.053	5.46
290.511	5.43
290.968	5.42
291.425	5.4
291.882	5.38
292.339	5.36
292.796	5.34
293.252	5.31
293.709	5.28
294.166	5.26
294.623	5.25
295.079	5.23
295.536	5.22
295.992	5.2
296.449	5.19
296.905	5.17
297.362	5.15
297.818	5.13
298.274	5.12
298.731	5.11
299.187	5.09
299.643	5.08
300.099	5.07
300.555	5.05
301.011	5.04
301.467	5.03
301.923	5.03
302.379	5.03
302.835	5.02
303.291	5.01
303.746	5
304.202	4.99
304.658	4.97
305.113	4.96
305.569	4.96
306.024	4.94
306.479	4.92
306.935	4.91
307.39	4.9
307.845	4.9
308.301	4.9
308.756	4.89
309.211	4.9
309.666	4.9
310.121	4.89
310.576	4.88
311.031	4.89
311.486	4.89
311.94	4.89
312.395	4.9
312.85	4.89
313.305	4.89
313.759	4.89
314.214	4.88
314.668	4.87
315.123	4.87
315.577	4.87
316.032	4.86
316.486	4.85
316.94	4.85
317.394	4.84
317.849	4.83
318.303	4.82
318.757	4.8
319.211	4.79
319.665	4.77
320.119	4.76
320.572	4.75
321.026	4.74
321.48	4.72
321.934	4.71
322.387	4.7
322.841	4.69
323.295	4.68
323.748	4.67
324.202	4.66
324.655	4.66
325.108	4.65
325.562	4.64
326.015	4.62
326.468	4.61
326.921	4.59
327.374	4.58
327.827	4.58
328.28	4.57
328.733	4.57
329.186	4.57
329.639	4.56
330.092	4.56
330.545	4.56
330.997	4.56
331.45	4.57
331.903	4.57
332.355	4.57
332.808	4.57
333.26	4.56
333.713	4.56
334.165	4.55
334.617	4.56
335.069	4.56
335.522	4.56
335.974	4.57
336.426	4.57
336.878	4.57
337.33	4.56
337.782	4.56
338.234	4.56
338.686	4.56
339.137	4.56
339.589	4.56
340.041	4.54
340.493	4.53
340.944	4.51
341.396	4.51
341.847	4.49
342.299	4.47
342.75	4.46
343.201	4.44
343.653	4.43
344.104	4.42
344.555	4.4
345.006	4.39
345.457	4.37
345.908	4.37
346.359	4.36
346.81	4.36
347.261	4.36
347.712	4.35
348.163	4.35
348.613	4.34
349.064	4.31
349.515	4.3
349.965	4.29
350.416	4.29
350.866	4.28
351.317	4.28
351.767	4.27
352.217	4.26
352.668	4.26
353.118	4.27
353.568	4.27
354.018	4.28
354.468	4.28
354.918	4.3
355.368	4.3
355.818	4.29
356.268	4.28
356.718	4.28
357.168	4.29
357.617	4.29
358.067	4.28
358.517	4.29
358.966	4.3
359.416	4.31
359.865	4.31
360.315	4.32
360.764	4.33
361.213	4.33
361.663	4.34
362.112	4.36
362.561	4.36
363.01	4.38
363.459	4.38
363.908	4.38
364.357	4.38
364.806	4.38
365.255	4.4
365.703	4.41
366.152	4.43
366.601	4.43
367.05	4.44
367.498	4.45
367.947	4.46
368.395	4.48
368.844	4.5
369.292	4.52
369.74	4.54
370.189	4.54
370.637	4.57
371.085	4.59
371.533	4.61
371.981	4.63
372.429	4.64
372.877	4.66
373.325	4.67
373.773	4.69
374.221	4.72
374.669	4.74
375.116	4.76
375.564	4.78
376.012	4.8
376.459	4.82
376.907	4.84
377.354	4.86
377.801	4.9
378.249	4.93
378.696	4.96
379.143	4.99
379.591	5.02
380.038	5.06
380.485	5.1
380.932	5.14
381.379	5.16
381.826	5.2
382.273	5.25
382.72	5.28
383.166	5.32
383.613	5.36
384.06	5.38
384.506	5.42
384.953	5.45
385.4	5.48
385.846	5.5
386.292	5.54
386.739	5.59
387.185	5.62
387.631	5.65
388.078	5.68
388.524	5.7
388.97	5.73
389.416	5.74
389.862	5.77
390.308	5.79
390.754	5.82
391.2	5.84
391.645	5.86
392.091	5.88
392.537	5.9
392.983	5.93
393.428	5.97
393.874	6
394.319	6.03
394.765	6.04
395.21	6.06
395.655	6.08
396.101	6.11
396.546	6.13
396.991	6.14
397.436	6.13
397.881	6.15
398.326	6.17
398.771	6.18
399.216	6.19
399.661	6.22
400.106	6.23
400.551	6.24
400.995	6.22
401.44	6.21
401.885	6.2
402.329	6.2
402.774	6.18
403.218	6.16
403.663	6.13
404.107	6.14
404.551	6.13
404.995	6.11
405.44	6.09
405.884	6.09
406.328	6.09
406.772	6.08
407.216	6.09
407.66	6.09
408.104	6.09
408.547	6.09
408.991	6.08
409.435	6.06
409.879	6.05
410.322	6.05
410.766	6.05
411.209	6.05
411.653	6.04
412.096	6.02
412.54	6.02
412.983	6.02
413.426	6.04
413.869	6.04
414.312	6.06
414.756	6.07
415.199	6.08
415.642	6.09
416.085	6.1
416.527	6.12
416.97	6.14
417.413	6.14
417.856	6.12
418.298	6.11
418.741	6.09
419.184	6.07
419.626	6.06
420.069	6.04
420.511	6.02
420.953	6
421.396	6
421.838	6.01
422.28	6.03
422.722	6.05
423.164	6.04
423.606	6.05
424.048	6.05
424.49	6.06
424.932	6.05
425.374	6.05
425.816	6.05
426.258	6.03
426.699	5.99
427.141	5.94
427.582	5.92
428.024	5.93
428.465	5.93
428.907	5.94
429.348	5.93
429.789	5.93
430.231	5.93
430.672	5.94
431.113	5.95
431.554	5.98
431.995	6
432.436	6
432.877	5.98
433.318	5.97
433.759	5.97
434.2	5.98
434.64	5.99
435.081	5.98
435.522	5.98
435.962	6.01
436.403	6.04
436.843	6.04
437.284	6.07
437.724	6.1
438.164	6.14
438.604	6.17
439.045	6.18
439.485	6.19
439.925	6.22
440.365	6.25
440.805	6.24
441.245	6.22
441.685	6.25
442.125	6.27
442.564	6.29
443.004	6.3
443.444	6.31
443.883	6.34
444.323	6.36
444.762	6.39
445.202	6.41
445.641	6.45
446.081	6.49
446.52	6.49
446.959	6.52
447.398	6.55
447.837	6.59
448.276	6.63
448.716	6.65
449.154	6.69
449.593	6.71
450.032	6.73
450.471	6.76
450.91	6.78
451.349	6.82
451.787	6.82
452.226	6.81
452.664	6.81
453.103	6.8
453.541	6.8
453.98	6.79
454.418	6.78
454.856	6.75
455.295	6.72
455.733	6.69
456.171	6.68
456.609	6.67
457.047	6.64
457.485	6.63
457.923	6.61
458.361	6.59
458.798	6.59
459.236	6.58
459.674	6.58
460.111	6.58
460.549	6.56
460.987	6.54
461.424	6.53
461.862	6.55
462.299	6.54
462.736	6.54
463.173	6.55
463.611	6.55
464.048	6.56
464.485	6.56
464.922	6.56
465.359	6.57
465.796	6.57
466.233	6.59
466.67	6.58
467.106	6.58
467.543	6.59
467.98	6.59
468.416	6.6
468.853	6.61
469.29	6.62
469.726	6.62
470.162	6.63
470.599	6.64
471.035	6.65
471.471	6.64
471.907	6.65
472.344	6.64
472.78	6.65
473.216	6.64
473.652	6.64
474.088	6.64
474.523	6.65
474.959	6.64
475.395	6.64
475.831	6.65
476.266	6.66
476.702	6.66
477.138	6.65
477.573	6.65
478.008	6.66
478.444	6.63
478.879	6.64
479.314	6.64
479.75	6.65
480.185	6.64
480.62	6.63
481.055	6.63
481.49	6.62
481.925	6.61
482.36	6.6
482.795	6.58
483.229	6.59
483.664	6.59
484.099	6.58
484.534	6.58
484.968	6.6
485.403	6.61
485.837	6.62
486.271	6.63
486.706	6.64
487.14	6.67
487.574	6.68
488.009	6.71
488.443	6.72
488.877	6.75
489.311	6.78
489.745	6.81
490.179	6.85
490.613	6.87
491.046	6.92
491.48	6.97
491.914	7.01
492.348	7.07
492.781	7.12
493.215	7.19
493.648	7.25
494.082	7.32
494.515	7.38
494.948	7.45
495.382	7.53
495.815	7.62
496.248	7.72
496.681	7.81
497.114	7.89
497.547	8
497.98	8.11
498.413	8.2
498.846	8.32
499.279	8.46
499.711	8.59
500.144	8.71
500.577	8.82
501.009	8.96
501.442	9.11
501.874	9.27
502.306	9.42
502.739	9.57
503.171	9.75
503.603	9.93
504.036	10.11
504.468	10.32
504.9	10.54
505.332	10.76
505.764	10.97
506.196	11.2
506.627	11.45
507.059	11.7
507.491	11.97
507.923	12.24
508.354	12.51
508.786	12.79
509.217	13.06
509.649	13.37
510.08	13.68
510.512	13.99
510.943	14.3
511.374	14.62
511.805	14.95
512.237	15.29
512.668	15.62
513.099	15.99
513.53	16.33
513.961	16.69
514.391	17.04
514.822	17.4
515.253	17.77
515.684	18.14
516.114	18.51
516.545	18.89
516.975	19.26
517.406	19.64
517.836	20
518.267	20.39
518.697	20.77
519.127	21.15
519.558	21.52
519.988	21.9
520.418	22.25
520.848	22.6
521.278	22.95
521.708	23.14
522.138	23.47
522.567	23.8
522.997	24.11
523.427	24.43
523.857	24.72
524.286	25.04
524.716	25.31
525.145	25.59
525.575	25.87
526.004	26.16
526.433	26.57
526.863	26.83
527.292	27.06
527.721	27.32
528.15	27.54
528.579	27.77
529.008	27.98
529.437	28.19
529.866	28.37
530.295	28.57
530.724	28.76
531.152	28.93
531.581	29.1
532.01	29.26
532.438	29.39
532.867	29.52
533.295	29.64
533.723	29.74
534.152	29.86
534.58	29.96
535.008	30.02
535.436	30.08
535.865	30.14
536.293	30.2
536.721	30.28
537.149	30.34
537.576	30.39
538.004	30.45
538.432	30.5
538.86	30.56
539.287	30.64
539.715	30.7
540.143	30.73
540.57	30.76
540.998	30.8
541.425	30.83
541.852	30.86
542.28	30.89
542.707	30.92
543.134	30.95
543.561	30.97
543.988	30.99
544.415	31.03
544.842	31.09
545.269	31.14
545.696	31.19
546.123	31.22
546.549	31.27
546.976	31.32
547.403	31.37
547.829	31.4
548.256	31.42
548.682	31.43
549.108	31.46
549.535	31.48
549.961	31.49
550.387	31.5
550.813	31.49
551.24	31.48
551.666	31.5
552.092	31.49
552.518	31.49
552.943	31.5
553.369	31.51
553.795	31.49
554.221	31.47
554.646	31.45
555.072	31.42
555.498	31.4
555.923	31.37
556.349	31.28
556.774	31.22
557.199	31.16
557.625	31.09
558.05	30.99
558.475	30.9
558.9	30.81
559.325	30.7
559.75	30.58
560.175	30.47
560.6	30.35
561.025	30.22
561.449	30.1
561.874	29.96
562.299	29.81
562.723	29.68
563.148	29.55
563.572	29.4
563.997	29.23
564.421	29.07
564.846	28.9
565.27	28.72
565.694	28.55
566.118	28.37
566.542	28.18
566.966	28
567.39	27.8
567.814	27.59
568.238	27.37
568.662	27.19
569.086	27
569.509	26.79
569.933	26.59
570.357	26.39
570.78	26.18
571.204	25.97
571.627	25.75
572.05	25.58
572.474	25.4
572.897	25.21
573.32	25.03
573.743	24.84
574.166	24.68
574.589	24.53
575.012	24.38
575.435	24.24
575.858	24.13
576.281	24
576.704	23.86
577.126	23.74
577.549	23.63
577.972	23.51
578.394	23.37
578.817	23.25
579.239	23.14
579.661	23.04
580.084	22.93
580.506	22.81
580.928	22.72
581.35	22.61
581.772	22.51
582.194	22.4
582.616	22.32
583.038	22.26
583.46	22.18
583.882	22.08
584.303	22
584.725	21.9
585.147	21.79
585.568	21.7
585.99	21.61
586.411	21.52
586.833	21.46
587.254	21.38
587.675	21.3
588.096	21.21
588.518	21.14
588.939	21.06
589.36	20.99
589.781	20.95
590.202	20.88
590.623	20.82
591.043	20.78
591.464	20.69
591.885	20.63
592.305	20.57
592.726	20.52
593.147	20.48
593.567	20.43
593.987	20.4
594.408	20.37
594.828	20.33
595.248	20.28
595.669	20.24
596.089	20.2
596.509	20.15
596.929	20.1
597.349	20.05
597.769	19.99
598.189	19.94
598.608	19.88
599.028	19.81
599.448	19.77
599.867	19.72
600.287	19.65
600.706	19.6
601.126	19.54
601.545	19.48
601.965	19.43
602.384	19.37
602.803	19.3
603.222	19.22
603.641	19.15
604.061	19.08
604.48	19
604.898	18.94
605.317	18.85
605.736	18.77
606.155	18.69
606.574	18.62
606.992	18.52
607.411	18.45
607.829	18.34
608.248	18.26
608.666	18.16
609.085	18.08
609.503	17.98
609.921	17.9
610.339	17.81
610.758	17.73
611.176	17.62
611.594	17.53
612.012	17.44
612.43	17.38
612.847	17.29
613.265	17.21
613.683	17.1
614.101	17.01
614.518	16.91
614.936	16.82
615.353	16.73
615.771	16.63
616.188	16.57
616.606	16.48
617.023	16.41
617.44	16.33
617.857	16.26
618.274	16.19
618.691	16.13
619.108	16.07
619.525	16.01
619.942	15.98
620.359	15.94
620.776	15.9
621.192	15.87
621.609	15.84
622.026	15.81
622.442	15.76
622.859	15.75
623.275	15.75
623.691	15.73
624.108	15.72
624.524	15.68
624.94	15.66
625.356	15.64
625.772	15.62
626.188	15.61
626.604	15.58
627.02	15.55
627.436	15.53
627.852	15.49
628.268	15.47
628.683	15.45
629.099	15.44
629.514	15.41
629.93	15.37
630.345	15.31
630.761	15.24
631.176	15.2
631.591	15.15
632.007	15.08
632.422	15.01
632.837	14.93
633.252	14.82
633.667	14.71
634.082	14.6
634.497	14.47
634.911	14.34
635.326	14.21
635.741	14.06
636.155	13.91
636.57	13.75
636.984	13.58
637.399	13.4
637.813	13.23
638.228	13.06
638.642	12.89
639.056	12.74
639.47	12.57
639.884	12.38
640.298	12.23
640.712	12.05
641.126	11.9
641.54	11.73
641.954	11.59
642.368	11.41
642.781	11.24
643.195	11.08
643.609	10.94
644.022	10.79
644.436	10.66
644.849	10.52
645.262	10.41
645.676	10.27
646.089	10.15
646.502	10.02
646.915	9.95
647.328	9.87
647.741	9.78
648.154	9.71
648.567	9.64
648.98	9.57
649.393	9.52
649.805	9.45
650.218	9.41
650.631	9.37
651.043	9.33
651.456	9.28
651.868	9.22
652.28	9.19
652.693	9.14
653.105	9.09
653.517	9.03
653.929	8.98
654.341	8.93
654.753	8.87
655.165	8.81
655.577	8.73
655.989	8.66
656.401	8.58
656.813	8.49
657.224	8.41
657.636	8.33
658.047	8.25
658.459	8.15
658.87	8.05
659.282	7.96
659.693	7.85
660.104	7.77
660.515	7.68
660.926	7.59
661.338	7.51
661.749	7.42
662.159	7.32
662.57	7.24
662.981	7.17
663.392	7.08
663.803	7.01
664.213	6.94
664.624	6.88
665.035	6.82
665.445	6.77
665.855	6.71
666.266	6.66
666.676	6.61
667.086	6.58
667.497	6.52
667.907	6.5
668.317	6.47
668.727	6.44
669.137	6.41
669.547	6.4
669.956	6.38
670.366	6.37
670.776	6.36
671.186	6.36
671.595	6.37
672.005	6.39
672.414	6.4
672.824	6.41
673.233	6.44
673.642	6.45
674.052	6.46
674.461	6.49
674.87	6.53
675.279	6.56
675.688	6.58
676.097	6.63
676.506	6.66
676.915	6.7
677.323	6.76
677.732	6.82
678.141	6.89
678.549	6.97
678.958	7.05
679.366	7.12
679.775	7.21
680.183	7.32
680.592	7.43
681	7.56
681.408	7.7
681.816	7.83
682.224	8
682.632	8.17
683.04	8.36
683.448	8.57
683.856	8.83
684.264	9.08
684.671	9.38
685.079	9.69
685.487	10.04
685.894	10.42
686.302	10.82
686.709	11.25
687.116	11.72
687.524	12.22
687.931	12.74
688.338	13.29
688.745	13.9
689.152	14.51
689.559	15.17
689.966	15.85
690.373	16.55
690.78	17.27
691.187	17.99
691.593	18.72
692	19.48
692.407	20.24
692.813	21.01
693.22	21.77
693.626	22.55
694.032	23.33
694.439	24.13
694.845	24.92
695.251	25.7
695.657	26.48
696.063	27.28
696.469	28.05
696.875	28.82
697.281	29.56
697.687	30.33
698.093	31.07
698.498	31.79
698.904	32.48
699.31	33.17
699.715	33.86
700.12	34.53
700.526	35.18
700.931	35.82
701.337	36.45
701.742	37.06
702.147	37.66
702.552	38.25
702.957	38.83
703.362	39.4
703.767	39.96
704.172	40.5
704.577	41.04
704.981	41.57
705.386	42.1
705.791	42.61
706.195	43.12
706.6	43.61
707.004	44.09
707.408	44.56
707.813	45.01
708.217	45.43
708.621	45.89
709.025	46.29
709.43	46.68
709.834	47.12
710.237	47.51
710.641	47.91
711.045	48.27
711.449	48.64
711.853	49.02
712.256	49.38
712.66	49.76
713.064	50.12
713.467	50.47
713.87	50.84
714.274	51.14
714.677	51.47
715.08	51.78
715.484	52.14
715.887	52.47
716.29	52.77
716.693	53.08
717.096	53.41
717.499	53.67
717.901	53.92
718.304	54.19
718.707	54.46
719.109	54.75
719.512	55.02
719.915	55.23
720.317	55.46
720.719	55.7
721.122	55.91
721.524	56.12
721.926	56.38
722.328	56.64
722.731	56.84
723.133	57.07
723.535	57.26
723.937	57.44
724.338	57.63
724.74	57.8
725.142	57.9
725.544	58.03
725.945	58.18
726.347	58.33
726.748	58.43
727.15	58.6
727.551	58.71
727.952	58.84
728.354	58.99
728.755	59.13
729.156	59.26
729.557	59.48
729.958	59.65
730.359	59.77
730.76	59.85
731.161	60.01
731.562	60.1
731.962	60.22
732.363	60.3
732.763	60.38
733.164	60.42
733.564	60.51
733.965	60.56
734.365	60.59
734.766	60.65
735.166	60.68
735.566	60.7
735.966	60.73
736.366	60.77
736.766	60.8
737.166	60.89
737.566	60.95
737.966	60.98
738.365	61.03
738.765	61.1
739.165	61.12
739.564	61.2
739.964	61.21
740.363	61.26
740.763	61.27
741.162	61.29
741.561	61.29
741.96	61.34
742.36	61.37
742.759	61.35
743.158	61.34
743.557	61.39
743.955	61.45
744.354	61.55
744.753	61.62
745.152	61.61
745.55	61.66
745.949	61.68
746.348	61.74
746.746	61.78
747.144	61.87
747.543	61.92
747.941	61.96
748.339	62.01
748.737	62.04
749.136	62.06
749.534	62.16
749.932	62.2
750.33	62.23
750.727	62.21
751.125	62.23
751.523	62.22
751.921	62.2
752.318	62.18
752.716	62.12
753.113	62.1
753.511	62.05
753.908	61.99
754.305	61.95
754.703	61.91
755.1	61.9
755.497	61.9
755.894	61.89
756.291	61.86
756.688	61.85
757.085	61.84
757.482	61.8
757.878	61.82
758.275	61.85
758.672	61.87
759.068	61.88
759.465	61.88
759.861	61.84
760.258	61.81
760.654	61.82
761.05	61.83
761.447	61.82
761.843	61.81
762.239	61.77
762.635	61.72
763.031	61.68
763.427	61.66
763.822	61.62
764.218	61.59
764.614	61.59
765.01	61.58
765.405	61.55
765.801	61.54
766.196	61.52
766.592	61.55
766.987	61.56
767.382	61.55
767.778	61.57
768.173	61.58
768.568	61.61
768.963	61.59
769.358	61.58
769.753	61.58
770.148	61.61
770.542	61.58
770.937	61.54
771.332	61.55
771.726	61.53
772.121	61.51
772.515	61.5
772.91	61.51
773.304	61.52
773.699	61.52
774.093	61.51
774.487	61.51
774.881	61.55
775.275	61.58
775.669	61.57
776.063	61.61
776.457	61.6
776.851	61.57
777.245	61.59
777.638	61.57
778.032	61.58
778.425	61.59
778.819	61.57
779.212	61.57
779.606	61.56
779.999	61.55
780.392	61.53
780.786	61.56
781.179	61.63
781.572	61.59
781.965	61.63
782.358	61.61
782.751	61.61
783.143	61.61
783.536	61.62
783.929	61.63
784.322	61.64
784.714	61.64
785.107	61.64
785.499	61.63
785.891	61.63
786.284	61.6
786.676	61.69
787.068	61.72
787.46	61.71
787.852	61.69
788.245	61.7
788.636	61.69
789.028	61.69
789.42	61.68
789.812	61.66
790.204	61.63
790.595	61.62
790.987	61.56
791.378	61.57
791.77	61.62
792.161	61.61
792.553	61.63
792.944	61.68
793.335	61.74
793.726	61.73
794.117	61.7
794.508	61.76
794.899	61.79
795.29	61.8
795.681	61.81
796.072	61.79
796.463	61.78
796.853	61.77
797.244	61.75
797.634	61.72
798.025	61.78
798.415	61.8
798.806	61.81
799.196	61.84
799.586	61.85
799.976	61.84
800.366	61.89
800.756	61.91
801.146	61.89
801.536	61.92
801.926	61.94
802.316	61.92
802.706	61.95
803.095	61.96
803.485	61.98
803.874	62
804.264	62.07
804.653	62.07
805.043	62.1
805.432	62.11
805.821	62.08
806.21	62.12
806.599	62.16
806.988	62.19
807.377	62.2
807.766	62.2
808.155	62.23
808.544	62.21
808.933	62.21
809.321	62.26
809.71	62.35
810.098	62.39
810.487	62.4
810.875	62.43
811.264	62.47
811.652	62.53
812.04	62.55
812.428	62.55
812.816	62.59
813.204	62.61
813.592	62.62
813.98	62.6
814.368	62.61
814.756	62.61
815.144	62.63
815.531	62.62
815.919	62.6
816.306	62.61
816.694	62.66
817.081	62.62
817.469	62.67
817.856	62.73
818.243	62.75
818.63	62.82
819.017	62.85
819.404	62.82
819.791	62.84
820.178	62.87
820.565	62.88
820.952	62.87
821.339	62.92
821.725	62.93
822.112	62.94
822.498	62.95
822.885	62.92
823.271	62.95
823.657	62.97
824.044	62.97
824.43	63
824.816	62.99
825.202	63
825.588	63.02
825.974	63
826.36	62.94
826.746	62.99
827.132	62.96
827.517	62.96
827.903	62.98
828.289	62.98
828.674	62.94
829.06	62.97
829.445	62.98
829.83	62.95
830.216	62.94
830.601	62.93
830.986	62.9
831.371	62.94
831.756	62.88
832.141	62.86
832.526	62.82
832.911	62.84
833.295	62.82
833.68	62.79
834.065	62.76
834.449	62.71
834.834	62.69
835.218	62.66
835.603	62.63
835.987	62.65
836.371	62.62
836.755	62.63
837.139	62.59
837.524	62.55
837.908	62.48
838.291	62.48
838.675	62.5
839.059	62.48
839.443	62.47
839.827	62.45
840.21	62.43
840.594	62.4
840.977	62.4
841.361	62.4
841.744	62.41
842.127	62.44
842.511	62.41
842.894	62.37
843.277	62.38
843.66	62.38
844.043	62.39
844.426	62.35
844.809	62.35
845.191	62.33
845.574	62.32
845.957	62.29
846.339	62.3
846.722	62.33
847.104	62.35
847.487	62.38
847.869	62.36
848.252	62.35
848.634	62.39
849.016	62.42
849.398	62.4
849.78	62.41
850.162	62.43
850.544	62.45
850.926	62.41
851.307	62.43
851.689	62.39
852.071	62.42
852.452	62.4
852.834	62.39
853.215	62.36
853.597	62.39
853.978	62.37
854.359	62.32
854.741	62.32
855.122	62.33
855.503	62.31
855.884	62.33
856.265	62.3
856.646	62.31
857.026	62.34
857.407	62.33
857.788	62.31
858.169	62.32
858.549	62.38
858.93	62.35
859.31	62.34
859.69	62.33
860.071	62.33
860.451	62.33
860.831	62.32
861.211	62.27
861.591	62.31
861.971	62.28
862.351	62.29
862.731	62.26
863.111	62.27
863.491	62.28
863.87	62.29
864.25	62.28
864.629	62.27
865.009	62.29
865.388	62.31
865.768	62.29
866.147	62.35
866.526	62.32
866.905	62.31
867.284	62.32
867.663	62.31
868.042	62.28
868.421	62.3
868.8	62.32
869.179	62.3
869.558	62.29
869.936	62.27
870.315	62.23
870.693	62.26
871.072	62.26
871.45	62.24
871.828	62.25
872.207	62.27
872.585	62.27
872.963	62.27
873.341	62.29
873.719	62.28
874.097	62.31
874.475	62.35
874.853	62.34
875.23	62.34
875.608	62.33
875.986	62.33
876.363	62.35
876.741	62.35
877.118	62.36
877.495	62.33
877.873	62.33
878.25	62.27
878.627	62.26
879.004	62.25
879.381	62.25
879.758	62.23
880.135	62.24
880.512	62.24
880.889	62.22
881.265	62.23
881.642	62.24
882.019	62.21
882.395	62.24
882.772	62.22
883.148	62.24
883.524	62.26
883.901	62.25
884.277	62.27
884.653	62.24
885.029	62.25
885.405	62.19
885.781	62.17
886.157	62.18
886.532	62.17
886.908	62.2
887.284	62.19
887.659	62.18
888.035	62.18
888.411	62.14
888.786	62.13
889.161	62.11
889.537	62.15
889.912	62.14
890.287	62.15
890.662	62.16
891.037	62.08
891.412	62.05
891.787	62.01
892.162	61.99
892.536	61.97
892.911	61.95
893.286	61.9
893.66	61.85
894.035	61.83
894.409	61.79
894.784	61.75
895.158	61.75
895.532	61.72
895.906	61.73
896.281	61.73
896.655	61.71
897.029	61.69
897.402	61.69
897.776	61.7
898.15	61.67
898.524	61.66
898.898	61.64
899.271	61.63
899.645	61.59
900.018	61.57
900.392	61.54
900.765	61.55
901.138	61.56
901.511	61.57
901.884	61.56
902.258	61.58
902.631	61.6
903.003	61.6
903.376	61.6
903.749	61.65
904.122	61.67
904.495	61.69
904.867	61.66
905.24	61.64
905.612	61.64
905.985	61.64
906.357	61.63
906.729	61.62
907.102	61.65
907.474	61.67
907.846	61.66
908.218	61.62
908.59	61.6
908.962	61.61
909.334	61.61
909.705	61.6
910.077	61.54
910.449	61.54
910.82	61.54
911.192	61.5
911.563	61.51
911.935	61.5
912.306	61.51
912.677	61.52
913.048	61.5
913.419	61.5
913.79	61.48
914.161	61.47
914.532	61.44
914.903	61.43
915.274	61.44
915.645	61.43
916.015	61.41
916.386	61.4
916.756	61.36
917.127	61.37
917.497	61.38
917.868	61.39
918.238	61.43
918.608	61.47
918.978	61.44
919.348	61.4
919.718	61.38
920.088	61.41
920.458	61.4
920.828	61.45
921.198	61.47
921.567	61.46
921.937	61.45
922.306	61.45
922.676	61.42
923.045	61.39
923.415	61.42
923.784	61.41
924.153	61.39
924.522	61.35
924.891	61.31
925.26	61.28
925.629	61.27
925.998	61.27
926.367	61.27
926.736	61.27
927.104	61.3
927.473	61.32
927.842	61.28
928.21	61.28
928.578	61.28
928.947	61.29
929.315	61.31
929.683	61.31
930.051	61.28
930.42	61.23
930.788	61.2
931.156	61.18
931.523	61.1
931.891	61.04
932.259	60.92
932.627	60.8
932.994	60.76
933.362	60.65
933.729	60.5
934.097	60.45
934.464	60.4
934.831	60.3
935.199	60.18
935.566	60.08
935.933	60.14
936.3	60.11
936.667	60.08
937.034	59.96
937.401	59.88
937.767	59.89
938.134	59.87
938.501	59.81
938.867	59.89
939.234	59.95
939.6	60.02
939.967	60
940.333	60.15
940.699	60.36
941.065	60.56
941.431	60.72
941.798	60.85
942.163	61.03
942.529	61.12
942.895	61.21
943.261	61.29
943.627	61.39
943.992	61.37
944.358	61.39
944.723	61.36
945.089	61.39
945.454	61.52
945.82	61.52
946.185	61.5
946.55	61.6
946.915	61.66
947.28	61.64
947.645	61.62
948.01	61.63
948.375	61.68
948.74	61.65
949.104	61.61
949.469	61.42
949.834	61.38
950.198	61.22
950.562	61.05
950.927	60.99
951.291	60.95
951.655	60.94
952.02	60.99
952.384	60.99
952.748	60.95
953.112	60.91
953.476	60.89
953.839	60.87
954.203	60.86
954.567	60.9
954.931	60.84
955.294	60.85
955.658	60.75
956.021	60.61
956.385	60.58
956.748	60.51
957.111	60.48
957.474	60.55
957.837	60.47
958.2	60.44
958.563	60.37
958.926	60.38
959.289	60.34
959.652	60.32
960.015	60.33
960.377	60.28
960.74	60.23
961.102	60.19
961.465	60.12
961.827	60.06
962.189	60.04
962.552	59.99
962.914	59.95
963.276	59.93
963.638	59.9
964	59.89
964.362	59.87
964.724	59.93
965.085	59.89
965.447	59.78
965.809	59.79
966.17	59.85
966.532	59.88
966.893	59.8
967.255	59.7
967.616	59.74
967.977	59.75
968.338	59.68
968.699	59.54
969.061	59.5
969.421	59.52
969.782	59.46
970.143	59.4
970.504	59.32
970.865	59.26
971.225	59.29
971.586	59.34
971.946	59.3
972.307	59.33
972.667	59.43
973.027	59.5
973.388	59.56
973.748	59.65
974.108	59.65
974.468	59.71
974.828	59.71
975.188	59.77
975.548	59.68
975.907	59.64
976.267	59.64
976.627	59.59
976.986	59.52
977.346	59.54
977.705	59.46
978.064	59.49
978.424	59.52
978.783	59.55
979.142	59.46
979.501	59.39
979.86	59.4
980.219	59.31
980.578	59.27
980.937	59.3
981.296	59.18
981.654	59.29
982.013	59.22
982.371	59.2
982.73	59.2
983.088	59.23
983.447	59.33
983.805	59.37
984.163	59.47
984.521	59.51
984.879	59.51
985.237	59.55
985.595	59.44
985.953	59.52
986.311	59.53
986.669	59.51
987.026	59.43
987.384	59.33
987.741	59.28
988.099	59.3
988.456	59.34
988.814	59.45
989.171	59.5
989.528	59.44
989.885	59.28
990.242	59.24
990.599	59.33
990.956	59.37
991.313	59.5
991.67	59.54
992.027	59.52
992.383	59.59
992.74	59.38
993.096	59.32
993.453	59.33
993.809	59.44
994.165	59.53
994.522	59.51
994.878	59.52
995.234	59.42
995.59	59.34
995.946	59.33
996.302	59.19
996.658	59.33
997.013	59.26
997.369	59.39
997.725	59.44
998.08	59.37
998.436	59.36
998.791	59.38
999.147	59.35
999.502	59.44
999.857	59.32
1000.212	59.33
1000.567	59.36
1000.922	59.44
1001.277	59.37
1001.632	59.3
1001.987	59.29
1002.342	59.41
1002.696	59.42
1003.051	59.52
1003.406	59.56
1003.76	59.72
1004.114	59.81
1004.469	59.77
1004.823	59.77
1005.177	60.06
1005.531	60.03
1005.885	60.13
1006.239	60.1
1006.593	60.18
1006.947	60.08
1007.301	60.19
1007.655	60.04
1008.008	59.89
1008.362	59.95
1008.715	60.03
1009.069	59.65
1009.422	59.69
1009.776	59.51
1010.129	59.46
1010.482	59.39
1010.835	59.51
1011.188	59.23
1011.541	59.13
1011.894	59.22
1012.247	59.07
1012.6	59.09
1012.952	59.24
1013.305	59.29
1013.657	59.43
1014.01	59.45
1014.362	59.68
1014.715	59.55
1015.067	59.68
1015.419	59.7
1015.771	59.94
1016.123	60.05
1016.475	60.2
1016.827	60.31
1017.179	60.31
1017.531	60.39
1017.883	60.53
1018.234	60.24
1018.586	60.39
1018.938	60.37
1019.289	60.52
1019.64	60.4
1019.992	60.65
1020.343	60.39
1020.694	60.41
1021.045	60.53
1021.396	60.48
1021.747	60.37
1022.098	60.7
1022.449	60.73
1022.8	60.71
1023.151	60.82
1023.501	60.99
1023.852	60.81
1024.202	60.97
1024.553	60.77
1024.903	60.64
1025.253	60.8
1025.604	60.91
1025.954	60.65
1026.304	60.77
1026.654	60.77
1027.004	60.61
1027.354	60.48
1027.703	60.29
1028.053	60.09
1028.403	59.91
1028.753	60.32
1029.102	60.05
1029.452	59.83
1029.801	59.8
1030.15	59.54
1030.499	59.7
897.758	528.69
901.051	536.48
904.343	546.12
907.636	532.24
910.928	524.21
914.22	533.89
917.511	522.34
920.803	496.78
924.094	479.71
927.384	485.06
930.675	470.12
933.965	466.98
937.255	469.85
940.544	446.29
943.834	428.34
947.123	421.9
950.411	399.52
953.7	394.62
956.988	384
960.276	368.98
963.563	363.92
966.851	345.72
970.138	338.31
973.424	315.11
976.711	313.7
979.997	306.71
983.283	298.9
986.568	290.03
989.853	282.38
993.138	272.34
996.423	268.54
999.708	261.31
1002.992	261.89
1006.275	253.68
1009.559	252.1
1012.842	244.07
1016.125	236.56
1019.408	233.2
1022.69	231.29
1025.972	227.6
1029.254	223.79
1032.536	219.27
1035.817	212.25
1039.098	208.83
1042.379	207.24
1045.659	204.32
1048.939	202.44
1052.219	199.5
1055.498	195.22
1058.778	192.21
1062.057	190.48
1065.335	189
1068.614	185.35
1071.892	184.52
1075.17	181.62
1078.447	178.45
1081.724	176.67
1085.001	172.54
1088.278	172.42
1091.554	172.08
1094.83	172.23
1098.106	168.65
1101.382	168.37
1104.657	167.91
1107.932	166.97
1111.206	165.42
1114.481	165.37
1117.755	164
1121.029	164.76
1124.302	161.91
1127.575	160.53
1130.848	158.65
1134.121	157.26
1137.393	155.91
1140.665	155.34
1143.937	153.97
1147.208	152.29
1150.48	149.77
1153.75	149.82
1157.021	147.38
1160.291	146.6
1163.561	146.28
1166.831	145.39
1170.101	144.83
1173.37	144.25
1176.639	142.95
1179.907	142.79
1183.176	142.16
1186.444	142.75
1189.711	140.94
1192.979	142.55
1196.246	142.75
1199.513	142.07
1202.78	141.94
1206.046	141.95
1209.312	143.06
1212.578	144.12
1215.843	146.29
1219.108	146.96
1222.373	148.42
1225.638	151.25
1228.902	153.74
1232.166	158.5
1235.43	159.92
1238.693	163.66
1241.956	168.1
1245.219	171.14
1248.482	171.89
1251.744	170.4
1255.006	171.61
1258.268	168.78
1261.529	167.35
1264.79	163.31
1268.051	159.73
1271.312	159.62
1274.572	156.06
1277.832	152.47
1281.092	150.45
1284.351	147.67
1287.61	147.76
1290.869	147.96
1294.128	147.13
1297.386	145.72
1300.644	144.96
1303.902	143.88
1307.159	142.16
1310.416	144.2
1313.673	145.4
1316.93	146.43
1320.186	148.55
1323.442	149.37
1326.697	150.99
1329.953	153.09
1333.208	157.61
1336.463	163.66
1339.717	167.2
1342.972	175.1
1346.226	179.01
1349.479	180.34
1352.733	187.19
1355.986	190.34
1359.238	194.35
1362.491	195.36
1365.743	201.04
1368.995	202.51
1372.247	203.74
1375.498	202.7
1378.749	207.61
1382	206.71
1385.251	206
1388.501	205.05
1391.751	206.9
1395	205.01
1398.25	207.61
1401.499	204.67
1404.748	203.93
1407.996	197.66
1411.244	197.86
1414.492	194.02
1417.74	188.98
1420.987	184.52
1424.234	181.5
1427.481	174.93
1430.728	170.31
1433.974	164.08
1437.22	158.69
1440.465	154.06
1443.711	150.12
1446.956	145.06
1450.201	139.63
1453.445	133.47
1456.689	130.19
1459.933	125.64
1463.177	120.38
1466.42	118.49
1469.663	115.6
1472.906	112.86
1476.148	109.69
1479.391	107.13
1482.633	105.48
1485.874	104.35
1489.115	103.52
1492.356	101.09
1495.597	99.67
1498.838	100.38
1502.078	99.33
1505.318	98.65
1508.557	97.86
1511.797	97
1515.036	96.88
1518.274	96.66
1521.513	95.34
1524.751	94.97
1527.989	96.47
1531.227	96.43
1534.464	95.78
1537.701	95.52
1540.938	95.06
1544.174	95.92
1547.41	96.21
1550.646	96.23
1553.882	96.83
1557.117	96.72
1560.352	96.75
1563.587	95.93
1566.821	96.19
1570.055	95.38
1573.289	95.6
1576.523	95.67
1579.756	95.01
1582.989	95.31
1586.222	95.33
1589.454	94.67
1592.686	95.45
1595.918	95.17
1599.15	95.2
1602.381	95.3
1605.612	95.79
1608.843	95.58
1612.073	96
1615.303	96.17
1618.533	95.68
1621.762	95.98
1624.992	96.22
1628.221	95.36
1631.449	95.99
1634.678	96.21
1637.906	95.95
1641.134	96.05
1644.361	96.23
1647.588	96.38
1650.815	96.63
1654.042	96.91
1657.269	96.25
1660.495	96.72
1663.72	96.87
1666.946	96.72
1670.171	96.98
1673.396	97.68
1676.621	97.82
1679.845	98.49
1683.069	97.99
1686.293	98.07
1689.517	97.76
1692.74	98.14
1695.963	98.38
1699.185	98.85
1702.408	98.48
1705.63	98.68
1708.852	99.13
1712.073	99.32
1715.294	98.85
1718.515	98.92
1721.736	98.88
1724.956	100.17
1728.176	100.17
1731.396	100.42
1734.616	100.66
1737.835	101.15
1741.054	100.36
1744.272	100.01
1747.491	99.7
1750.709	100.19
1753.927	100.84
1757.144	101.03
1760.361	100.27
1763.578	100.7
1766.795	100.87
1770.011	100.47
1773.227	100.77
1776.443	101.93
1779.658	101.46
1782.874	102.24
1786.089	101.57
1789.303	101.66
1792.518	102.52
1795.732	103.13
1798.945	103.88
1802.159	103.95
1805.372	105.51
1808.585	106.14
1811.797	106.65
1815.01	108.03
1818.222	108.62
1821.434	109.86
1824.645	110.13
1827.856	111.19
1831.067	111.57
1834.278	113.07
1837.488	113.68
1840.698	114.37
1843.908	114.74
1847.117	115.81
1850.326	116.21
1853.535	116.85
1856.744	117.71
1859.952	119.75
1863.16	119.17
1866.368	118.28
1869.575	117.84
1872.782	117.32
1875.989	114.99
1879.196	115.88
1882.402	113.1
1885.608	113.44
1888.814	112.77
1892.019	113.21
1895.224	110.67
1898.429	110.49
1901.634	110.96
1904.838	111.85
1908.042	112.89
1911.246	112.29
1914.449	111.31
1917.652	113.44
1920.855	112.95
1924.058	111.45
1927.26	110.46
1930.462	111.36
1933.664	111.86
1936.865	112.09
1940.066	109.99
1943.267	108.38
1946.467	110.83
1949.668	110.66
1952.868	110.2
1956.067	110.2
1959.267	111.49
1962.466	112
1965.665	113.3
1968.863	112.32
1972.061	114.89
1975.259	116.57
1978.457	119.37
1981.654	119.34
1984.852	120.2
1988.048	121.53
1991.245	123.25
1994.441	126.43
1997.637	128.96
2000.833	130.59
2004.028	133.23
2007.223	134.83
2010.418	137.61
2013.613	142.23
2016.807	146.21
2020.001	148.47
2023.194	153.72
2026.388	158.83
2029.581	165.84
2032.774	171.05
2035.966	176.67
2039.158	182.04
2042.35	185.48
2045.542	188.7
2048.733	196.11
2051.924	199.06
2055.115	203.69
2058.306	204.75
2061.496	208.81
2064.686	208.68
2067.875	206.73
2071.065	208.55
2074.254	208.77
2077.442	215.2
2080.631	218.18
2083.819	217.36
2087.007	221.52
2090.195	227.19
2093.382	225.2
2096.569	226
2099.756	228.48
2102.942	233.26
2106.128	238.09
2109.314	241.66
2112.5	241.53
2115.685	238.29
2118.87	239.16
2122.055	240.8
2125.239	243.63
2128.424	252.63
2131.608	251.36
2134.791	252.71
2137.974	253.36
2141.157	255.24
2144.34	256.44
2147.523	260.45
2150.705	269.59
2153.887	265.36
2157.068	267.81
2160.25	270.28
2163.431	270.37
2166.611	273.41
2169.792	276.84
2172.972	283.37
2176.152	282.98
2179.331	289.05
2182.511	288.84
2185.69	291.38
2188.868	305.8
2192.047	311.56
2195.225	315.71
2198.403	317.55
2201.58	314.69
2204.758	329.23
2207.935	328.21
2211.111	336.06
2214.288	336.7
2217.464	342.03
2220.64	343.16
2223.815	342.01
2226.991	340
2230.166	340.63
2233.34	351.23
2236.515	364.31
2239.689	354.09
2242.863	362.11
2246.036	358.57
2249.209	367.02
2252.382	364.1
2255.555	376.22
2258.727	380.45
2261.9	391.08
2265.071	397.56
2268.243	393.98
2271.414	403.15
2274.585	414.93
2277.756	412.27
2280.926	426.89
2284.096	432.17
2287.266	436.88
2290.436	428
2293.605	438.4
2296.774	453.44
2299.942	451.63
2303.111	467.54
2306.279	473.45
2309.447	474.63
2312.614	478.28
2315.781	490.66
2318.948	490.6
2322.115	500.18
2325.281	529.61
2328.447	523.49
2331.613	522.9
2334.779	531.42
2337.944	537.28
2341.109	546.76
2344.274	551.97
2347.438	563.18
2350.602	570.64
2353.766	612.52
2356.929	614.9
2360.092	620.75
2363.255	623.91
2366.418	633.89
2369.58	648.78
2372.742	649.23
2375.904	648.78
2379.066	667.09
2382.227	709.87
2385.388	710.48
2388.548	668.72
2391.709	662.05
2394.869	690.14
2398.029	688.28
2401.188	690.88
2404.347	709.42
2407.506	733.52
2410.665	709.41
2413.823	710.42
2416.981	708.83
2420.139	680.56
2423.296	737.56
2426.453	780.24
2429.61	737.3
2432.767	790.2
2435.923	814.45
2439.079	790.51
2442.235	805.85
2445.391	826.52
2448.546	823.23
2451.701	865.41
2454.855	916.86
2458.009	810.76
2461.163	829.21
2464.317	842.7
2467.471	825.85
2470.624	851.44
2473.777	841.98
2476.929	814.1
2480.082	862.32
2483.234	902.83
2486.385	919.83
2489.537	941.41
2492.688	1030.54
2495.839	1019.45
2498.989	1044.62
2502.14	1048.98
2505.29	1003.01
2508.439	1100.23
2511.589	1130.17
2514.738	1105.29
2517.887	1094.53
2521.035	1025.87
2524.183	1002.5
2527.331	994.34
2530.479	964.06
2533.627	985.82
