Data from N_3_hir_il_4n_Splice17_08.txt Node
Date: Sat Feb 29 15:13:02 EST 2020
User: sa697716
Spectrometer: FLMS03696
Trigger mode: 0
Integration Time (sec): 3.180400E-1
Scans to average: 20
Electric dark correction enabled: true
Nonlinearity correction enabled: true
Boxcar width: 5
XAxis mode: Wavelengths
Number of Pixels in Spectrum: 2048
>>>>>Begin Spectral Data<<<<<
187.83	106.42
188.298	107.14
188.766	104.31
189.233	102.24
189.701	109.9
190.169	108.74
190.636	109.51
191.104	102.52
191.571	309.34
192.039	191.34
192.506	344.75
192.974	3818.29
193.441	-47.77
193.908	133.07
194.375	111.43
194.842	175.83
195.31	109.39
195.777	88.05
196.244	22.83
196.711	14.83
197.177	8.27
197.644	6.45
198.111	7.33
198.578	7.41
199.045	7.59
199.511	8.53
199.978	9.19
200.445	9.34
200.911	9.63
201.378	9.75
201.844	10.04
202.31	10.93
202.777	11.28
203.243	11.53
203.709	12.08
204.176	11.78
204.642	11.89
205.108	11.88
205.574	12.12
206.04	12
206.506	11.9
206.972	11.78
207.438	11.83
207.903	12.27
208.369	12.28
208.835	12.23
209.301	12.57
209.766	12.8
210.232	12.98
210.697	13.03
211.163	13.79
211.628	13.64
212.094	13.67
212.559	13.17
213.024	12.95
213.49	12.91
213.955	13.03
214.42	12.84
214.885	12.6
215.35	12.61
215.815	12.51
216.28	12.27
216.745	12.47
217.21	12.44
217.675	12.66
218.14	12.49
218.604	12.37
219.069	12.26
219.534	12.14
219.998	11.98
220.463	11.83
220.927	11.74
221.392	11.53
221.856	11.33
222.32	11.16
222.785	11.06
223.249	11
223.713	10.89
224.177	10.76
224.642	10.69
225.106	10.64
225.57	10.51
226.034	10.39
226.497	10.27
226.961	10.15
227.425	10.05
227.889	9.94
228.353	9.8
228.816	9.69
229.28	9.57
229.744	9.45
230.207	9.32
230.671	9.21
231.134	9.08
231.597	8.96
232.061	8.86
232.524	8.77
232.987	8.67
233.45	8.58
233.914	8.49
234.377	8.38
234.84	8.3
235.303	8.21
235.766	8.12
236.229	8.05
236.691	7.98
237.154	7.91
237.617	7.82
238.08	7.74
238.542	7.66
239.005	7.58
239.468	7.5
239.93	7.42
240.393	7.35
240.855	7.28
241.317	7.21
241.78	7.16
242.242	7.11
242.704	7.03
243.166	6.97
243.629	6.9
244.091	6.84
244.553	6.79
245.015	6.74
245.477	6.69
245.939	6.64
246.4	6.57
246.862	6.51
247.324	6.47
247.786	6.42
248.247	6.37
248.709	6.33
249.17	6.3
249.632	6.24
250.093	6.19
250.555	6.14
251.016	6.11
251.477	6.07
251.939	6.03
252.4	5.99
252.861	5.96
253.322	5.93
253.783	5.91
254.244	5.86
254.705	5.83
255.166	5.8
255.627	5.77
256.088	5.72
256.549	5.69
257.009	5.65
257.47	5.63
257.931	5.59
258.391	5.54
258.852	5.5
259.312	5.48
259.773	5.44
260.233	5.4
260.694	5.38
261.154	5.35
261.614	5.32
262.074	5.3
262.534	5.25
262.994	5.22
263.455	5.2
263.915	5.18
264.374	5.14
264.834	5.12
265.294	5.09
265.754	5.06
266.214	5.03
266.673	5
267.133	4.97
267.593	4.95
268.052	4.92
268.512	4.89
268.971	4.87
269.431	4.85
269.89	4.83
270.349	4.82
270.809	4.8
271.268	4.79
271.727	4.77
272.186	4.75
272.645	4.73
273.104	4.72
273.563	4.7
274.022	4.68
274.481	4.66
274.94	4.64
275.399	4.61
275.857	4.59
276.316	4.57
276.775	4.55
277.233	4.53
277.692	4.51
278.15	4.48
278.609	4.46
279.067	4.43
279.525	4.41
279.984	4.39
280.442	4.37
280.9	4.36
281.358	4.33
281.816	4.31
282.274	4.29
282.732	4.27
283.19	4.26
283.648	4.24
284.106	4.22
284.564	4.21
285.021	4.2
285.479	4.19
285.937	4.17
286.394	4.15
286.852	4.14
287.309	4.13
287.767	4.1
288.224	4.09
288.682	4.08
289.139	4.08
289.596	4.06
290.053	4.04
290.511	4.01
290.968	4
291.425	3.98
291.882	3.97
292.339	3.95
292.796	3.94
293.252	3.92
293.709	3.89
294.166	3.87
294.623	3.86
295.079	3.85
295.536	3.84
295.992	3.83
296.449	3.82
296.905	3.8
297.362	3.78
297.818	3.77
298.274	3.76
298.731	3.75
299.187	3.74
299.643	3.72
300.099	3.71
300.555	3.69
301.011	3.68
301.467	3.67
301.923	3.66
302.379	3.65
302.835	3.64
303.291	3.63
303.746	3.62
304.202	3.61
304.658	3.6
305.113	3.59
305.569	3.58
306.024	3.57
306.479	3.55
306.935	3.54
307.39	3.54
307.845	3.54
308.301	3.53
308.756	3.52
309.211	3.51
309.666	3.5
310.121	3.49
310.576	3.48
311.031	3.47
311.486	3.47
311.94	3.46
312.395	3.46
312.85	3.45
313.305	3.44
313.759	3.43
314.214	3.43
314.668	3.42
315.123	3.42
315.577	3.42
316.032	3.41
316.486	3.4
316.94	3.39
317.394	3.37
317.849	3.36
318.303	3.36
318.757	3.35
319.211	3.34
319.665	3.33
320.119	3.32
320.572	3.31
321.026	3.3
321.48	3.29
321.934	3.3
322.387	3.3
322.841	3.28
323.295	3.27
323.748	3.26
324.202	3.25
324.655	3.24
325.108	3.23
325.562	3.22
326.015	3.21
326.468	3.2
326.921	3.18
327.374	3.17
327.827	3.17
328.28	3.16
328.733	3.15
329.186	3.14
329.639	3.13
330.092	3.13
330.545	3.13
330.997	3.13
331.45	3.12
331.903	3.11
332.355	3.11
332.808	3.11
333.26	3.1
333.713	3.11
334.165	3.1
334.617	3.1
335.069	3.09
335.522	3.09
335.974	3.09
336.426	3.09
336.878	3.09
337.33	3.08
337.782	3.08
338.234	3.08
338.686	3.07
339.137	3.08
339.589	3.08
340.041	3.07
340.493	3.05
340.944	3.05
341.396	3.05
341.847	3.05
342.299	3.05
342.75	3.03
343.201	3.01
343.653	3
344.104	2.99
344.555	2.98
345.006	2.97
345.457	2.97
345.908	2.95
346.359	2.94
346.81	2.93
347.261	2.92
347.712	2.92
348.163	2.92
348.613	2.91
349.064	2.89
349.515	2.88
349.965	2.88
350.416	2.87
350.866	2.87
351.317	2.87
351.767	2.85
352.217	2.85
352.668	2.84
353.118	2.83
353.568	2.84
354.018	2.84
354.468	2.84
354.918	2.85
355.368	2.86
355.818	2.85
356.268	2.85
356.718	2.85
357.168	2.83
357.617	2.83
358.067	2.82
358.517	2.81
358.966	2.82
359.416	2.82
359.865	2.8
360.315	2.79
360.764	2.78
361.213	2.77
361.663	2.76
362.112	2.78
362.561	2.78
363.01	2.79
363.459	2.79
363.908	2.77
364.357	2.77
364.806	2.78
365.255	2.79
365.703	2.79
366.152	2.79
366.601	2.8
367.05	2.8
367.498	2.79
367.947	2.78
368.395	2.78
368.844	2.79
369.292	2.78
369.74	2.77
370.189	2.75
370.637	2.76
371.085	2.77
371.533	2.76
371.981	2.76
372.429	2.74
372.877	2.74
373.325	2.74
373.773	2.74
374.221	2.74
374.669	2.74
375.116	2.73
375.564	2.73
376.012	2.73
376.459	2.73
376.907	2.74
377.354	2.75
377.801	2.76
378.249	2.76
378.696	2.77
379.143	2.78
379.591	2.79
380.038	2.81
380.485	2.81
380.932	2.82
381.379	2.82
381.826	2.82
382.273	2.83
382.72	2.84
383.166	2.85
383.613	2.86
384.06	2.88
384.506	2.89
384.953	2.89
385.4	2.91
385.846	2.92
386.292	2.95
386.739	2.96
387.185	2.98
387.631	3.01
388.078	3.03
388.524	3.05
388.97	3.07
389.416	3.09
389.862	3.11
390.308	3.12
390.754	3.15
391.2	3.18
391.645	3.21
392.091	3.23
392.537	3.25
392.983	3.28
393.428	3.31
393.874	3.34
394.319	3.37
394.765	3.4
395.21	3.43
395.655	3.47
396.101	3.49
396.546	3.52
396.991	3.55
397.436	3.56
397.881	3.59
398.326	3.63
398.771	3.66
399.216	3.7
399.661	3.75
400.106	3.8
400.551	3.82
400.995	3.86
401.44	3.88
401.885	3.91
402.329	3.95
402.774	3.97
403.218	4
403.663	4.02
404.107	4.05
404.551	4.08
404.995	4.09
405.44	4.12
405.884	4.15
406.328	4.18
406.772	4.21
407.216	4.26
407.66	4.29
408.104	4.32
408.547	4.35
408.991	4.36
409.435	4.37
409.879	4.41
410.322	4.45
410.766	4.49
411.209	4.52
411.653	4.54
412.096	4.55
412.54	4.57
412.983	4.6
413.426	4.64
413.869	4.66
414.312	4.7
414.756	4.73
415.199	4.75
415.642	4.79
416.085	4.82
416.527	4.86
416.97	4.9
417.413	4.91
417.856	4.93
418.298	4.93
418.741	4.95
419.184	4.95
419.626	4.95
420.069	4.96
420.511	4.97
420.953	4.98
421.396	4.98
421.838	5
422.28	5.03
422.722	5.05
423.164	5.06
423.606	5.08
424.048	5.09
424.49	5.12
424.932	5.14
425.374	5.14
425.816	5.13
426.258	5.13
426.699	5.09
427.141	5.07
427.582	5.05
428.024	5.05
428.465	5.05
428.907	5.05
429.348	5.06
429.789	5.05
430.231	5.04
430.672	5.06
431.113	5.07
431.554	5.12
431.995	5.14
432.436	5.16
432.877	5.15
433.318	5.15
433.759	5.13
434.2	5.12
434.64	5.14
435.081	5.14
435.522	5.15
435.962	5.15
436.403	5.16
436.843	5.17
437.284	5.17
437.724	5.2
438.164	5.21
438.604	5.26
439.045	5.27
439.485	5.28
439.925	5.3
440.365	5.31
440.805	5.32
441.245	5.31
441.685	5.32
442.125	5.33
442.564	5.36
443.004	5.38
443.444	5.39
443.883	5.4
444.323	5.43
444.762	5.45
445.202	5.5
445.641	5.51
446.081	5.56
446.52	5.59
446.959	5.61
447.398	5.65
447.837	5.69
448.276	5.71
448.716	5.74
449.154	5.78
449.593	5.82
450.032	5.85
450.471	5.89
450.91	5.9
451.349	5.92
451.787	5.96
452.226	5.94
452.664	5.91
453.103	5.94
453.541	5.95
453.98	5.94
454.418	5.92
454.856	5.89
455.295	5.87
455.733	5.85
456.171	5.84
456.609	5.82
457.047	5.83
457.485	5.84
457.923	5.83
458.361	5.81
458.798	5.8
459.236	5.8
459.674	5.82
460.111	5.82
460.549	5.82
460.987	5.83
461.424	5.81
461.862	5.8
462.299	5.78
462.736	5.78
463.173	5.78
463.611	5.77
464.048	5.77
464.485	5.75
464.922	5.73
465.359	5.74
465.796	5.71
466.233	5.73
466.67	5.74
467.106	5.75
467.543	5.75
467.98	5.74
468.416	5.75
468.853	5.75
469.29	5.76
469.726	5.79
470.162	5.79
470.599	5.81
471.035	5.83
471.471	5.84
471.907	5.85
472.344	5.86
472.78	5.88
473.216	5.88
473.652	5.89
474.088	5.9
474.523	5.9
474.959	5.91
475.395	5.92
475.831	5.91
476.266	5.91
476.702	5.92
477.138	5.93
477.573	5.92
478.008	5.95
478.444	5.96
478.879	5.97
479.314	5.97
479.75	5.98
480.185	5.97
480.62	5.97
481.055	5.99
481.49	5.98
481.925	5.98
482.36	5.97
482.795	5.96
483.229	5.95
483.664	5.94
484.099	5.94
484.534	5.95
484.968	5.96
485.403	5.96
485.837	5.96
486.271	5.97
486.706	5.98
487.14	6
487.574	6.02
488.009	6.05
488.443	6.06
488.877	6.08
489.311	6.1
489.745	6.13
490.179	6.16
490.613	6.19
491.046	6.22
491.48	6.26
491.914	6.3
492.348	6.33
492.781	6.36
493.215	6.4
493.648	6.45
494.082	6.51
494.515	6.56
494.948	6.62
495.382	6.68
495.815	6.74
496.248	6.81
496.681	6.87
497.114	6.94
497.547	7.02
497.98	7.1
498.413	7.18
498.846	7.26
499.279	7.34
499.711	7.43
500.144	7.52
500.577	7.63
501.009	7.74
501.442	7.86
501.874	7.98
502.306	8.11
502.739	8.24
503.171	8.37
503.603	8.52
504.036	8.67
504.468	8.84
504.9	9
505.332	9.16
505.764	9.33
506.196	9.51
506.627	9.69
507.059	9.88
507.491	10.08
507.923	10.27
508.354	10.49
508.786	10.69
509.217	10.9
509.649	11.14
510.08	11.37
510.512	11.59
510.943	11.85
511.374	12.1
511.805	12.36
512.237	12.62
512.668	12.88
513.099	13.14
513.53	13.41
513.961	13.69
514.391	13.97
514.822	14.25
515.253	14.55
515.684	14.82
516.114	15.1
516.545	15.38
516.975	15.68
517.406	15.98
517.836	16.26
518.267	16.57
518.697	16.85
519.127	17.13
519.558	17.42
519.988	17.69
520.418	17.98
520.848	18.27
521.278	18.56
521.708	18.69
522.138	18.95
522.567	19.24
522.997	19.48
523.427	19.75
523.857	20
524.286	20.23
524.716	20.46
525.145	20.69
525.575	20.9
526.004	21.09
526.433	21.44
526.863	21.65
527.292	21.84
527.721	22.03
528.15	22.2
528.579	22.38
529.008	22.54
529.437	22.71
529.866	22.86
530.295	23.03
530.724	23.18
531.152	23.33
531.581	23.45
532.01	23.56
532.438	23.68
532.867	23.79
533.295	23.89
533.723	23.99
534.152	24.08
534.58	24.15
535.008	24.2
535.436	24.24
535.865	24.3
536.293	24.38
536.721	24.43
537.149	24.47
537.576	24.52
538.004	24.55
538.432	24.58
538.86	24.62
539.287	24.67
539.715	24.72
540.143	24.76
540.57	24.78
540.998	24.8
541.425	24.85
541.852	24.88
542.28	24.89
542.707	24.93
543.134	24.97
543.561	24.98
543.988	25.01
544.415	25.05
544.842	25.08
545.269	25.12
545.696	25.15
546.123	25.16
546.549	25.2
546.976	25.24
547.403	25.25
547.829	25.29
548.256	25.33
548.682	25.36
549.108	25.38
549.535	25.42
549.961	25.43
550.387	25.43
550.813	25.44
551.24	25.45
551.666	25.47
552.092	25.49
552.518	25.45
552.943	25.45
553.369	25.43
553.795	25.42
554.221	25.4
554.646	25.38
555.072	25.37
555.498	25.33
555.923	25.3
556.349	25.26
556.774	25.21
557.199	25.18
557.625	25.13
558.05	25.05
558.475	24.95
558.9	24.88
559.325	24.81
559.75	24.71
560.175	24.64
560.6	24.53
561.025	24.43
561.449	24.31
561.874	24.21
562.299	24.11
562.723	24.01
563.148	23.9
563.572	23.78
563.997	23.65
564.421	23.51
564.846	23.37
565.27	23.25
565.694	23.12
566.118	22.98
566.542	22.84
566.966	22.68
567.39	22.53
567.814	22.36
568.238	22.18
568.662	22
569.086	21.84
569.509	21.68
569.933	21.5
570.357	21.32
570.78	21.16
571.204	21
571.627	20.83
572.05	20.68
572.474	20.55
572.897	20.43
573.32	20.3
573.743	20.16
574.166	20.01
574.589	19.87
575.012	19.76
575.435	19.64
575.858	19.53
576.281	19.43
576.704	19.32
577.126	19.21
577.549	19.11
577.972	19.01
578.394	18.91
578.817	18.82
579.239	18.74
579.661	18.66
580.084	18.58
580.506	18.49
580.928	18.39
581.35	18.31
581.772	18.22
582.194	18.15
582.616	18.08
583.038	18.02
583.46	17.96
583.882	17.89
584.303	17.81
584.725	17.74
585.147	17.67
585.568	17.59
585.99	17.54
586.411	17.48
586.833	17.41
587.254	17.36
587.675	17.29
588.096	17.23
588.518	17.17
588.939	17.12
589.36	17.07
589.781	17.02
590.202	17.01
590.623	16.95
591.043	16.92
591.464	16.86
591.885	16.82
592.305	16.79
592.726	16.77
593.147	16.75
593.567	16.71
593.987	16.7
594.408	16.67
594.828	16.62
595.248	16.61
595.669	16.6
596.089	16.58
596.509	16.55
596.929	16.52
597.349	16.46
597.769	16.43
598.189	16.41
598.608	16.35
599.028	16.32
599.448	16.28
599.867	16.22
600.287	16.17
600.706	16.13
601.126	16.08
601.545	16.03
601.965	15.99
602.384	15.94
602.803	15.87
603.222	15.81
603.641	15.75
604.061	15.68
604.48	15.61
604.898	15.55
605.317	15.46
605.736	15.37
606.155	15.3
606.574	15.23
606.992	15.13
607.411	15.06
607.829	14.93
608.248	14.84
608.666	14.77
609.085	14.69
609.503	14.59
609.921	14.5
610.339	14.43
610.758	14.34
611.176	14.25
611.594	14.18
612.012	14.09
612.43	14.05
612.847	13.97
613.265	13.88
613.683	13.8
614.101	13.73
614.518	13.64
614.936	13.56
615.353	13.48
615.771	13.41
616.188	13.36
616.606	13.3
617.023	13.23
617.44	13.17
617.857	13.11
618.274	13.06
618.691	13.01
619.108	12.97
619.525	12.93
619.942	12.9
620.359	12.88
620.776	12.83
621.192	12.79
621.609	12.76
622.026	12.74
622.442	12.7
622.859	12.68
623.275	12.66
623.691	12.64
624.108	12.62
624.524	12.6
624.94	12.57
625.356	12.54
625.772	12.53
626.188	12.53
626.604	12.5
627.02	12.5
627.436	12.48
627.852	12.45
628.268	12.42
628.683	12.4
629.099	12.39
629.514	12.36
629.93	12.35
630.345	12.31
630.761	12.27
631.176	12.25
631.591	12.22
632.007	12.17
632.422	12.15
632.837	12.1
633.252	12.04
633.667	11.97
634.082	11.92
634.497	11.84
634.911	11.78
635.326	11.7
635.741	11.61
636.155	11.52
636.57	11.42
636.984	11.32
637.399	11.22
637.813	11.12
638.228	11.01
638.642	10.91
639.056	10.8
639.47	10.69
639.884	10.57
640.298	10.46
640.712	10.34
641.126	10.23
641.54	10.13
641.954	10.03
642.368	9.92
642.781	9.82
643.195	9.7
643.609	9.6
644.022	9.5
644.436	9.41
644.849	9.31
645.262	9.22
645.676	9.12
646.089	9.04
646.502	8.94
646.915	8.87
647.328	8.8
647.741	8.71
648.154	8.66
648.567	8.59
648.98	8.53
649.393	8.49
649.805	8.44
650.218	8.4
650.631	8.37
651.043	8.32
651.456	8.27
651.868	8.23
652.28	8.19
652.693	8.14
653.105	8.08
653.517	8.02
653.929	7.96
654.341	7.9
654.753	7.83
655.165	7.77
655.577	7.69
655.989	7.6
656.401	7.51
656.813	7.43
657.224	7.35
657.636	7.27
658.047	7.19
658.459	7.09
658.87	7.01
659.282	6.92
659.693	6.82
660.104	6.73
660.515	6.67
660.926	6.6
661.338	6.52
661.749	6.42
662.159	6.34
662.57	6.27
662.981	6.19
663.392	6.11
663.803	6.03
664.213	5.97
664.624	5.91
665.035	5.85
665.445	5.8
665.855	5.75
666.266	5.71
666.676	5.67
667.086	5.62
667.497	5.59
667.907	5.55
668.317	5.53
668.727	5.5
669.137	5.48
669.547	5.48
669.956	5.45
670.366	5.44
670.776	5.43
671.186	5.42
671.595	5.41
672.005	5.41
672.414	5.42
672.824	5.44
673.233	5.46
673.642	5.46
674.052	5.46
674.461	5.48
674.87	5.49
675.279	5.51
675.688	5.53
676.097	5.54
676.506	5.57
676.915	5.59
677.323	5.61
677.732	5.63
678.141	5.66
678.549	5.7
678.958	5.75
679.366	5.79
679.775	5.84
680.183	5.92
680.592	6
681	6.08
681.408	6.16
681.816	6.24
682.224	6.35
682.632	6.48
683.04	6.61
683.448	6.74
683.856	6.91
684.264	7.09
684.671	7.28
685.079	7.49
685.487	7.73
685.894	7.99
686.302	8.26
686.709	8.56
687.116	8.86
687.524	9.19
687.931	9.54
688.338	9.93
688.745	10.33
689.152	10.76
689.559	11.2
689.966	11.66
690.373	12.14
690.78	12.64
691.187	13.15
691.593	13.68
692	14.23
692.407	14.79
692.813	15.35
693.22	15.93
693.626	16.48
694.032	17.06
694.439	17.66
694.845	18.22
695.251	18.81
695.657	19.41
696.063	19.99
696.469	20.56
696.875	21.11
697.281	21.66
697.687	22.21
698.093	22.76
698.498	23.33
698.904	23.87
699.31	24.4
699.715	24.92
700.12	25.41
700.526	25.94
700.931	26.44
701.337	26.97
701.742	27.44
702.147	27.93
702.552	28.45
702.957	28.89
703.362	29.33
703.767	29.79
704.172	30.24
704.577	30.67
704.981	31.09
705.386	31.5
705.791	31.9
706.195	32.32
706.6	32.69
707.004	33.05
707.408	33.44
707.813	33.81
708.217	34.17
708.621	34.53
709.025	34.91
709.43	35.23
709.834	35.6
710.237	35.93
710.641	36.28
711.045	36.61
711.449	36.93
711.853	37.26
712.256	37.59
712.66	37.9
713.064	38.2
713.467	38.48
713.87	38.79
714.274	39.08
714.677	39.35
715.08	39.62
715.484	39.9
715.887	40.18
716.29	40.43
716.693	40.67
717.096	40.95
717.499	41.21
717.901	41.44
718.304	41.68
718.707	41.89
719.109	42.13
719.512	42.37
719.915	42.59
720.317	42.81
720.719	43.03
721.122	43.23
721.524	43.41
721.926	43.6
722.328	43.82
722.731	44
723.133	44.19
723.535	44.4
723.937	44.55
724.338	44.7
724.74	44.88
725.142	45
725.544	45.17
725.945	45.33
726.347	45.48
726.748	45.58
727.15	45.71
727.551	45.85
727.952	45.92
728.354	46.05
728.755	46.21
729.156	46.31
729.557	46.45
729.958	46.55
730.359	46.67
730.76	46.75
731.161	46.88
731.562	46.97
731.962	47.05
732.363	47.15
732.763	47.25
733.164	47.29
733.564	47.35
733.965	47.4
734.365	47.47
734.766	47.52
735.166	47.6
735.566	47.61
735.966	47.66
736.366	47.7
736.766	47.75
737.166	47.78
737.566	47.82
737.966	47.87
738.365	47.92
738.765	47.95
739.165	47.98
739.564	48
739.964	48.04
740.363	48.06
740.763	48.09
741.162	48.12
741.561	48.15
741.96	48.18
742.36	48.22
742.759	48.21
743.158	48.23
743.557	48.24
743.955	48.27
744.354	48.33
744.753	48.38
745.152	48.4
745.55	48.41
745.949	48.45
746.348	48.48
746.746	48.5
747.144	48.58
747.543	48.62
747.941	48.68
748.339	48.76
748.737	48.79
749.136	48.85
749.534	48.91
749.932	48.94
750.33	48.91
750.727	48.93
751.125	48.91
751.523	48.91
751.921	48.91
752.318	48.9
752.716	48.84
753.113	48.83
753.511	48.78
753.908	48.73
754.305	48.72
754.703	48.72
755.1	48.7
755.497	48.69
755.894	48.66
756.291	48.61
756.688	48.61
757.085	48.61
757.482	48.6
757.878	48.61
758.275	48.63
758.672	48.63
759.068	48.65
759.465	48.64
759.861	48.62
760.258	48.63
760.654	48.65
761.05	48.64
761.447	48.64
761.843	48.63
762.239	48.63
762.635	48.61
763.031	48.62
763.427	48.59
763.822	48.58
764.218	48.58
764.614	48.59
765.01	48.58
765.405	48.55
765.801	48.51
766.196	48.5
766.592	48.5
766.987	48.49
767.382	48.47
767.778	48.48
768.173	48.48
768.568	48.47
768.963	48.43
769.358	48.43
769.753	48.45
770.148	48.48
770.542	48.46
770.937	48.44
771.332	48.44
771.726	48.43
772.121	48.41
772.515	48.41
772.91	48.44
773.304	48.47
773.699	48.47
774.093	48.43
774.487	48.43
774.881	48.47
775.275	48.45
775.669	48.42
776.063	48.42
776.457	48.4
776.851	48.38
777.245	48.36
777.638	48.38
778.032	48.39
778.425	48.41
778.819	48.42
779.212	48.41
779.606	48.43
779.999	48.46
780.392	48.47
780.786	48.51
781.179	48.53
781.572	48.56
781.965	48.55
782.358	48.52
782.751	48.53
783.143	48.55
783.536	48.58
783.929	48.59
784.322	48.59
784.714	48.61
785.107	48.61
785.499	48.64
785.891	48.66
786.284	48.62
786.676	48.68
787.068	48.67
787.46	48.66
787.852	48.62
788.245	48.63
788.636	48.63
789.028	48.64
789.42	48.63
789.812	48.62
790.204	48.57
790.595	48.6
790.987	48.58
791.378	48.59
791.77	48.61
792.161	48.63
792.553	48.59
792.944	48.61
793.335	48.61
793.726	48.6
794.117	48.6
794.508	48.65
794.899	48.66
795.29	48.68
795.681	48.72
796.072	48.73
796.463	48.73
796.853	48.78
797.244	48.82
797.634	48.81
798.025	48.83
798.415	48.87
798.806	48.88
799.196	48.92
799.586	48.9
799.976	48.9
800.366	48.9
800.756	48.9
801.146	48.91
801.536	48.87
801.926	48.87
802.316	48.89
802.706	48.89
803.095	48.88
803.485	48.87
803.874	48.88
804.264	48.91
804.653	48.92
805.043	48.96
805.432	48.94
805.821	48.97
806.21	49.03
806.599	49.03
806.988	49.02
807.377	49.04
807.766	49.04
808.155	49.09
808.544	49.05
808.933	49.08
809.321	49.11
809.71	49.17
810.098	49.19
810.487	49.2
810.875	49.22
811.264	49.26
811.652	49.25
812.04	49.27
812.428	49.27
812.816	49.32
813.204	49.3
813.592	49.28
813.98	49.26
814.368	49.26
814.756	49.27
815.144	49.3
815.531	49.32
815.919	49.34
816.306	49.34
816.694	49.38
817.081	49.37
817.469	49.42
817.856	49.5
818.243	49.48
818.63	49.5
819.017	49.53
819.404	49.49
819.791	49.51
820.178	49.54
820.565	49.55
820.952	49.54
821.339	49.56
821.725	49.59
822.112	49.56
822.498	49.61
822.885	49.63
823.271	49.62
823.657	49.66
824.044	49.64
824.43	49.64
824.816	49.65
825.202	49.66
825.588	49.7
825.974	49.68
826.36	49.68
826.746	49.71
827.132	49.68
827.517	49.7
827.903	49.71
828.289	49.72
828.674	49.69
829.06	49.7
829.445	49.69
829.83	49.67
830.216	49.66
830.601	49.65
830.986	49.62
831.371	49.66
831.756	49.62
832.141	49.6
832.526	49.59
832.911	49.63
833.295	49.62
833.68	49.62
834.065	49.61
834.449	49.6
834.834	49.59
835.218	49.57
835.603	49.53
835.987	49.52
836.371	49.54
836.755	49.52
837.139	49.49
837.524	49.48
837.908	49.45
838.291	49.43
838.675	49.42
839.059	49.41
839.443	49.4
839.827	49.4
840.21	49.42
840.594	49.39
840.977	49.38
841.361	49.37
841.744	49.37
842.127	49.35
842.511	49.33
842.894	49.31
843.277	49.29
843.66	49.29
844.043	49.3
844.426	49.26
844.809	49.25
845.191	49.21
845.574	49.21
845.957	49.18
846.339	49.18
846.722	49.17
847.104	49.18
847.487	49.21
847.869	49.2
848.252	49.17
848.634	49.18
849.016	49.2
849.398	49.23
849.78	49.25
850.162	49.25
850.544	49.28
850.926	49.3
851.307	49.31
851.689	49.27
852.071	49.25
852.452	49.28
852.834	49.27
853.215	49.25
853.597	49.26
853.978	49.23
854.359	49.24
854.741	49.24
855.122	49.24
855.503	49.24
855.884	49.26
856.265	49.27
856.646	49.25
857.026	49.28
857.407	49.25
857.788	49.26
858.169	49.26
858.549	49.28
858.93	49.27
859.31	49.25
859.69	49.23
860.071	49.24
860.451	49.27
860.831	49.27
861.211	49.27
861.591	49.3
861.971	49.27
862.351	49.3
862.731	49.29
863.111	49.32
863.491	49.34
863.87	49.34
864.25	49.35
864.629	49.35
865.009	49.34
865.388	49.32
865.768	49.33
866.147	49.37
866.526	49.34
866.905	49.36
867.284	49.35
867.663	49.34
868.042	49.34
868.421	49.31
868.8	49.28
869.179	49.3
869.558	49.31
869.936	49.27
870.315	49.23
870.693	49.23
871.072	49.21
871.45	49.18
871.828	49.16
872.207	49.2
872.585	49.21
872.963	49.2
873.341	49.2
873.719	49.17
874.097	49.17
874.475	49.16
874.853	49.16
875.23	49.13
875.608	49.14
875.986	49.12
876.363	49.08
876.741	49.07
877.118	49.05
877.495	49.01
877.873	49.01
878.25	49.02
878.627	49.04
879.004	49.03
879.381	49.09
879.758	49.07
880.135	49.1
880.512	49.11
880.889	49.11
881.265	49.17
881.642	49.2
882.019	49.22
882.395	49.23
882.772	49.24
883.148	49.27
883.524	49.25
883.901	49.26
884.277	49.27
884.653	49.28
885.029	49.3
885.405	49.27
885.781	49.26
886.157	49.26
886.532	49.25
886.908	49.24
887.284	49.23
887.659	49.24
888.035	49.24
888.411	49.2
888.786	49.18
889.161	49.17
889.537	49.18
889.912	49.13
890.287	49.11
890.662	49.11
891.037	49.08
891.412	49.03
891.787	48.99
892.162	48.96
892.536	48.97
892.911	48.93
893.286	48.9
893.66	48.86
894.035	48.87
894.409	48.87
894.784	48.84
895.158	48.81
895.532	48.8
895.906	48.78
896.281	48.77
896.655	48.75
897.029	48.74
897.402	48.74
897.776	48.73
898.15	48.72
898.524	48.67
898.898	48.65
899.271	48.64
899.645	48.64
900.018	48.62
900.392	48.62
900.765	48.62
901.138	48.63
901.511	48.62
901.884	48.61
902.258	48.6
902.631	48.6
903.003	48.6
903.376	48.61
903.749	48.62
904.122	48.62
904.495	48.62
904.867	48.62
905.24	48.6
905.612	48.57
905.985	48.56
906.357	48.53
906.729	48.52
907.102	48.51
907.474	48.54
907.846	48.5
908.218	48.5
908.59	48.45
908.962	48.44
909.334	48.45
909.705	48.49
910.077	48.49
910.449	48.53
910.82	48.53
911.192	48.55
911.563	48.5
911.935	48.5
912.306	48.48
912.677	48.53
913.048	48.52
913.419	48.53
913.79	48.49
914.161	48.49
914.532	48.47
914.903	48.47
915.274	48.49
915.645	48.51
916.015	48.53
916.386	48.52
916.756	48.48
917.127	48.46
917.497	48.45
917.868	48.46
918.238	48.49
918.608	48.47
918.978	48.47
919.348	48.42
919.718	48.42
920.088	48.43
920.458	48.48
920.828	48.5
921.198	48.54
921.567	48.51
921.937	48.5
922.306	48.48
922.676	48.5
923.045	48.5
923.415	48.51
923.784	48.52
924.153	48.48
924.522	48.46
924.891	48.45
925.26	48.43
925.629	48.46
925.998	48.49
926.367	48.5
926.736	48.47
927.104	48.47
927.473	48.48
927.842	48.41
928.21	48.43
928.578	48.4
928.947	48.41
929.315	48.38
929.683	48.4
930.051	48.36
930.42	48.33
930.788	48.31
931.156	48.27
931.523	48.25
931.891	48.22
932.259	48.11
932.627	47.99
932.994	47.93
933.362	47.84
933.729	47.69
934.097	47.6
934.464	47.5
934.831	47.43
935.199	47.33
935.566	47.25
935.933	47.2
936.3	47.15
936.667	47.13
937.034	47.05
937.401	46.95
937.767	46.93
938.134	46.83
938.501	46.79
938.867	46.71
939.234	46.71
939.6	46.68
939.967	46.63
940.333	46.75
940.699	46.86
941.065	46.91
941.431	47.06
941.798	47.11
942.163	47.24
942.529	47.25
942.895	47.38
943.261	47.46
943.627	47.57
943.992	47.69
944.358	47.68
944.723	47.57
945.089	47.67
945.454	47.65
945.82	47.67
946.185	47.71
946.55	47.83
946.915	47.86
947.28	47.87
947.645	47.87
948.01	47.88
948.375	47.85
948.74	47.9
949.104	47.91
949.469	47.91
949.834	47.99
950.198	47.92
950.562	47.89
950.927	47.87
951.291	47.83
951.655	47.78
952.02	47.67
952.384	47.74
952.748	47.8
953.112	47.73
953.476	47.71
953.839	47.65
954.203	47.61
954.567	47.54
954.931	47.48
955.294	47.48
955.658	47.5
956.021	47.61
956.385	47.55
956.748	47.49
957.111	47.45
957.474	47.43
957.837	47.44
958.2	47.43
958.563	47.43
958.926	47.38
959.289	47.39
959.652	47.36
960.015	47.25
960.377	47.3
960.74	47.27
961.102	47.27
961.465	47.28
961.827	47.14
962.189	47.17
962.552	47.13
962.914	47.13
963.276	47.1
963.638	47.03
964	47.02
964.362	46.94
964.724	46.92
965.085	46.94
965.447	46.87
965.809	46.89
966.17	46.87
966.532	46.91
966.893	46.88
967.255	46.82
967.616	46.85
967.977	46.81
968.338	46.77
968.699	46.78
969.061	46.69
969.421	46.74
969.782	46.72
970.143	46.74
970.504	46.68
970.865	46.63
971.225	46.65
971.586	46.67
971.946	46.68
972.307	46.66
972.667	46.65
973.027	46.7
973.388	46.65
973.748	46.69
974.108	46.6
974.468	46.63
974.828	46.72
975.188	46.76
975.548	46.72
975.907	46.74
976.267	46.77
976.627	46.74
976.986	46.7
977.346	46.66
977.705	46.66
978.064	46.67
978.424	46.62
978.783	46.53
979.142	46.41
979.501	46.38
979.86	46.39
980.219	46.27
980.578	46.25
980.937	46.28
981.296	46.29
981.654	46.25
982.013	46.21
982.371	46.18
982.73	46.16
983.088	46.14
983.447	46.12
983.805	46.07
984.163	46.16
984.521	46.11
984.879	46.07
985.237	46.12
985.595	46.06
985.953	46.07
986.311	46.1
986.669	46.12
987.026	46.16
987.384	46.16
987.741	46.18
988.099	46.1
988.456	46.15
988.814	46.2
989.171	46.02
989.528	45.95
989.885	45.95
990.242	46.01
990.599	45.98
990.956	45.93
991.313	45.92
991.67	45.88
992.027	45.87
992.383	45.91
992.74	45.87
993.096	45.86
993.453	45.95
993.809	45.98
994.165	45.9
994.522	45.88
994.878	45.86
995.234	45.79
995.59	45.68
995.946	45.75
996.302	45.73
996.658	45.67
997.013	45.87
997.369	45.92
997.725	45.88
998.08	45.82
998.436	45.78
998.791	45.78
999.147	45.82
999.502	45.82
999.857	45.8
1000.212	45.6
1000.567	45.65
1000.922	45.55
1001.277	45.37
1001.632	45.37
1001.987	45.35
1002.342	45.39
1002.696	45.46
1003.051	45.33
1003.406	45.3
1003.76	45.24
1004.114	45.2
1004.469	45.14
1004.823	45.04
1005.177	45.16
1005.531	45.08
1005.885	45.05
1006.239	44.95
1006.593	44.74
1006.947	44.77
1007.301	44.7
1007.655	44.53
1008.008	44.47
1008.362	44.36
1008.715	44.34
1009.069	44.16
1009.422	44.09
1009.776	44
1010.129	43.99
1010.482	44.11
1010.835	44.13
1011.188	44.03
1011.541	44.01
1011.894	44.19
1012.247	44.31
1012.6	44.43
1012.952	44.39
1013.305	44.3
1013.657	44.57
1014.01	44.76
1014.362	44.58
1014.715	44.49
1015.067	44.84
1015.419	45.07
1015.771	45.08
1016.123	44.97
1016.475	44.9
1016.827	45.1
1017.179	45.08
1017.531	44.82
1017.883	44.64
1018.234	44.63
1018.586	44.54
1018.938	44.07
1019.289	43.91
1019.64	43.82
1019.992	43.79
1020.343	43.65
1020.694	43.36
1021.045	43.32
1021.396	43.15
1021.747	42.84
1022.098	42.99
1022.449	42.96
1022.8	42.97
1023.151	42.8
1023.501	42.75
1023.852	42.5
1024.202	42.4
1024.553	42.37
1024.903	42.38
1025.253	42.36
1025.604	42.53
1025.954	42.27
1026.304	42.56
1026.654	42.65
1027.004	42.54
1027.354	42.27
1027.703	42.06
1028.053	41.74
1028.403	41.47
1028.753	41.31
1029.102	40.92
1029.452	40.37
1029.801	39.93
1030.15	39.47
1030.499	39.15
897.758	692.65
901.051	705.95
904.343	705.57
907.636	699.26
910.928	689.45
914.22	696.35
917.511	684.03
920.803	654.44
924.094	627.16
927.384	631.96
930.675	613.37
933.965	607.47
937.255	602.74
940.544	580.34
943.834	553.25
947.123	542.2
950.411	515.69
953.7	506.57
956.988	488.57
960.276	467.21
963.563	459.3
966.851	433.43
970.138	424.87
973.424	395.87
976.711	389.47
979.997	372.06
983.283	365.15
986.568	353.06
989.853	342.83
993.138	330.83
996.423	325.36
999.708	315.45
1002.992	318.03
1006.275	304.26
1009.559	301.53
1012.842	293.08
1016.125	285.36
1019.408	280.38
1022.69	276.38
1025.972	274.62
1029.254	267.43
1032.536	262.01
1035.817	254.94
1039.098	248.64
1042.379	245.51
1045.659	242.48
1048.939	240.86
1052.219	235.35
1055.498	229.64
1058.778	227.06
1062.057	221.03
1065.335	219.98
1068.614	217.41
1071.892	214.62
1075.17	210.45
1078.447	207.47
1081.724	205.66
1085.001	200.12
1088.278	200.5
1091.554	200.29
1094.83	198.12
1098.106	195.92
1101.382	194.88
1104.657	192.92
1107.932	191.46
1111.206	189.88
1114.481	188.29
1117.755	187.3
1121.029	186.97
1124.302	184.79
1127.575	180.62
1130.848	180.31
1134.121	178.54
1137.393	177.41
1140.665	176.76
1143.937	174.88
1147.208	173.49
1150.48	171.3
1153.75	170.2
1157.021	168.23
1160.291	167.15
1163.561	166.78
1166.831	164.84
1170.101	164.08
1173.37	163.39
1176.639	161.24
1179.907	162.03
1183.176	161.36
1186.444	162.18
1189.711	160.4
1192.979	162.52
1196.246	162.61
1199.513	162.54
1202.78	162.77
1206.046	162.93
1209.312	163.29
1212.578	164.87
1215.843	165.69
1219.108	167.56
1222.373	170.24
1225.638	172.88
1228.902	176.38
1232.166	182.11
1235.43	185.35
1238.693	191.27
1241.956	195.53
1245.219	200.37
1248.482	202.6
1251.744	202.72
1255.006	201.5
1258.268	196.86
1261.529	195.59
1264.79	189.65
1268.051	186.54
1271.312	183.27
1274.572	179.75
1277.832	174.43
1281.092	172.34
1284.351	167.72
1287.61	167.34
1290.869	168.41
1294.128	167.22
1297.386	166.24
1300.644	165.96
1303.902	163.93
1307.159	164.01
1310.416	164.61
1313.673	167.83
1316.93	169.05
1320.186	172.02
1323.442	174.45
1326.697	176.78
1329.953	179.19
1333.208	185.69
1336.463	193.56
1339.717	197.88
1342.972	208.62
1346.226	213.7
1349.479	215.23
1352.733	225.21
1355.986	231.3
1359.238	235.77
1362.491	238.84
1365.743	246.94
1368.995	248.09
1372.247	248.53
1375.498	246.93
1378.749	255.03
1382	256
1385.251	256.05
1388.501	255.12
1391.751	257.35
1395	256.42
1398.25	259.19
1401.499	258.61
1404.748	259.77
1407.996	252.25
1411.244	253.97
1414.492	248.42
1417.74	242.04
1420.987	235.95
1424.234	233.14
1427.481	224.03
1430.728	218.75
1433.974	210.92
1437.22	203.67
1440.465	197.03
1443.711	192.14
1446.956	186.99
1450.201	179.93
1453.445	171.57
1456.689	166.59
1459.933	160.52
1463.177	154.03
1466.42	150.61
1469.663	146.34
1472.906	142.86
1476.148	138.48
1479.391	134.88
1482.633	131.68
1485.874	129.58
1489.115	128.65
1492.356	126.34
1495.597	123.77
1498.838	123.25
1502.078	121.97
1505.318	120.98
1508.557	119.97
1511.797	118.56
1515.036	118.63
1518.274	117.92
1521.513	115.02
1524.751	114.68
1527.989	115.32
1531.227	115.68
1534.464	115.01
1537.701	113.54
1540.938	112.87
1544.174	112.74
1547.41	112.08
1550.646	111.94
1553.882	112.08
1557.117	112.68
1560.352	112.16
1563.587	110.54
1566.821	109.93
1570.055	109.16
1573.289	109.68
1576.523	109.52
1579.756	109.08
1582.989	109.54
1586.222	108.59
1589.454	108.97
1592.686	108.48
1595.918	107.98
1599.15	108.29
1602.381	108.8
1605.612	108.97
1608.843	108.57
1612.073	109.01
1615.303	108.92
1618.533	108.33
1621.762	109.23
1624.992	108.3
1628.221	108.29
1631.449	108.74
1634.678	108.37
1637.906	107.98
1641.134	108.3
1644.361	108.08
1647.588	107.96
1650.815	108.18
1654.042	108.56
1657.269	107.85
1660.495	108.21
1663.72	108.74
1666.946	108.74
1670.171	109.54
1673.396	109.76
1676.621	109.8
1679.845	110.09
1683.069	110.53
1686.293	110.56
1689.517	110.73
1692.74	111.21
1695.963	111.4
1699.185	111.8
1702.408	111.93
1705.63	112.17
1708.852	112.81
1712.073	112.5
1715.294	112.74
1718.515	113.45
1721.736	113.59
1724.956	113.56
1728.176	113.31
1731.396	114.08
1734.616	114.46
1737.835	115.02
1741.054	114.64
1744.272	114.75
1747.491	115.39
1750.709	116.15
1753.927	115.74
1757.144	116.16
1760.361	117.02
1763.578	117.44
1766.795	117.73
1770.011	117.32
1773.227	117.87
1776.443	119.3
1779.658	119.61
1782.874	119.78
1786.089	119.91
1789.303	120.31
1792.518	121.74
1795.732	122.2
1798.945	123.48
1802.159	123.45
1805.372	125.66
1808.585	126.47
1811.797	127.09
1815.01	128.2
1818.222	130.27
1821.434	130.78
1824.645	131.92
1827.856	133.81
1831.067	135.03
1834.278	136.42
1837.488	137.96
1840.698	139.22
1843.908	139.59
1847.117	141.47
1850.326	142.94
1853.535	142.11
1856.744	145.05
1859.952	146.48
1863.16	145.79
1866.368	145.89
1869.575	146.94
1872.782	146.4
1875.989	145.35
1879.196	145.03
1882.402	143.72
1885.608	144.05
1888.814	145.36
1892.019	145.93
1895.224	143.73
1898.429	144.97
1901.634	145.32
1904.838	145.57
1908.042	147.47
1911.246	146.92
1914.449	147.98
1917.652	147.69
1920.855	148.12
1924.058	147
1927.26	146.29
1930.462	147.99
1933.664	147.23
1936.865	148.13
1940.066	145.3
1943.267	144.63
1946.467	145.8
1949.668	146.27
1952.868	147.39
1956.067	146.58
1959.267	146.76
1962.466	147.13
1965.665	148.22
1968.863	149.47
1972.061	150.52
1975.259	155.47
1978.457	157.13
1981.654	157.63
1984.852	158.97
1988.048	160.62
1991.245	163
1994.441	166.86
1997.637	171.65
2000.833	172.83
2004.028	174.81
2007.223	178.75
2010.418	181.78
2013.613	187.12
2016.807	193.08
2020.001	197.06
2023.194	202.28
2026.388	210.49
2029.581	221.18
2032.774	225.67
2035.966	233.91
2039.158	240.55
2042.35	246.3
2045.542	250.59
2048.733	260.91
2051.924	263.74
2055.115	267.89
2058.306	270.8
2061.496	275.47
2064.686	273.79
2067.875	272.8
2071.065	274.45
2074.254	274.33
2077.442	281.25
2080.631	285.12
2083.819	286.64
2087.007	292.08
2090.195	296.64
2093.382	297.74
2096.569	296.62
2099.756	303
2102.942	309.8
2106.128	318.86
2109.314	322.21
2112.5	323.05
2115.685	318.56
2118.87	319.16
2122.055	322.15
2125.239	326.6
2128.424	334.52
2131.608	333.48
2134.791	334.23
2137.974	333.32
2141.157	336.91
2144.34	340.05
2147.523	343.4
2150.705	353.12
2153.887	349.41
2157.068	351.07
2160.25	355.65
2163.431	353.75
2166.611	359.36
2169.792	367
2172.972	373.06
2176.152	370.6
2179.331	377.97
2182.511	379.74
2185.69	385.35
2188.868	401.63
2192.047	412.99
2195.225	417.34
2198.403	424.03
2201.58	419.6
2204.758	432.3
2207.935	436.44
2211.111	448.87
2214.288	449
2217.464	455.18
2220.64	453.19
2223.815	455.74
2226.991	446.08
2230.166	453.09
2233.34	462.61
2236.515	481.74
2239.689	473.67
2242.863	479.31
2246.036	473.05
2249.209	491.27
2252.382	489.93
2255.555	508.96
2258.727	510.12
2261.9	531.36
2265.071	536.23
2268.243	532.43
2271.414	541.77
2274.585	553.59
2277.756	555.57
2280.926	581.68
2284.096	576.8
2287.266	579.47
2290.436	569.85
2293.605	582.52
2296.774	602.63
2299.942	602.9
2303.111	621.26
2306.279	632.29
2309.447	637.85
2312.614	639.83
2315.781	650.74
2318.948	657.19
2322.115	671.92
2325.281	711.98
2328.447	703.41
2331.613	702.8
2334.779	713.96
2337.944	727.74
2341.109	742.36
2344.274	751.13
2347.438	771.18
2350.602	782.06
2353.766	830.9
2356.929	832.46
2360.092	838.53
2363.255	849.55
2366.418	861.47
2369.58	878.08
2372.742	878.83
2375.904	875.22
2379.066	897.14
2382.227	942.42
2385.388	941.93
2388.548	898.07
2391.709	887.96
2394.869	922.81
2398.029	917.82
2401.188	918.93
2404.347	952.48
2407.506	984.09
2410.665	948.99
2413.823	953.82
2416.981	961.65
2420.139	906.53
2423.296	981.24
2426.453	1046.56
2429.61	987.46
2432.767	1062
2435.923	1092.12
2439.079	1052.62
2442.235	1075.07
2445.391	1100.13
2448.546	1091.16
2451.701	1151.15
2454.855	1240.93
2458.009	1093.1
2461.163	1112.15
2464.317	1132.73
2467.471	1102.67
2470.624	1147.54
2473.777	1126.6
2476.929	1090.05
2480.082	1170.67
2483.234	1225.18
2486.385	1247.29
2489.537	1277.35
2492.688	1408.99
2495.839	1379.11
2498.989	1419.92
2502.14	1435.63
2505.29	1367.7
2508.439	1512.96
2511.589	1555.37
2514.738	1491.32
2517.887	1481.81
2521.035	1387.34
2524.183	1359.48
2527.331	1346.76
2530.479	1321.47
2533.627	1349.15
