Data from N_3_div_il_4n_Splice17_10.txt Node
Date: Sat Feb 29 14:59:46 EST 2020
User: sa697716
Spectrometer: FLMS03696
Trigger mode: 0
Integration Time (sec): 3.180400E-1
Scans to average: 20
Electric dark correction enabled: true
Nonlinearity correction enabled: true
Boxcar width: 5
XAxis mode: Wavelengths
Number of Pixels in Spectrum: 2048
>>>>>Begin Spectral Data<<<<<
187.83	80.76
188.298	84.89
188.766	90.22
189.233	84.26
189.701	86.02
190.169	82.79
190.636	85.4
191.104	70.99
191.571	310.72
192.039	304.32
192.506	-368.74
192.974	3661.13
193.441	-531.02
193.908	177.16
194.375	204.29
194.842	239.68
195.31	168.93
195.777	163.04
196.244	75.43
196.711	61.67
197.177	58.7
197.644	57.98
198.111	56.86
198.578	56.06
199.045	56.08
199.511	55.97
199.978	57.14
200.445	56.66
200.911	56.75
201.378	56.76
201.844	57.23
202.31	57.31
202.777	57.19
203.243	57.59
203.709	58.33
204.176	57.92
204.642	58.09
205.108	57.26
205.574	57.56
206.04	57.16
206.506	56.52
206.972	56.05
207.438	56
207.903	55.95
208.369	54.51
208.835	53.2
209.301	52.62
209.766	51.78
210.232	50.51
210.697	49.37
211.163	48.43
211.628	47.22
212.094	46.03
212.559	44.75
213.024	43.52
213.49	42.54
213.955	41.56
214.42	40.26
214.885	38.58
215.35	37.11
215.815	34.67
216.28	32.23
216.745	29.86
217.21	27.26
217.675	24.66
218.14	22.05
218.604	19.9
219.069	18.08
219.534	16.47
219.998	15.24
220.463	14.11
220.927	13.26
221.392	12.5
221.856	11.82
222.32	11.2
222.785	10.66
223.249	10.25
223.713	9.87
224.177	9.49
224.642	9.22
225.106	8.94
225.57	8.69
226.034	8.43
226.497	8.19
226.961	7.94
227.425	7.71
227.889	7.52
228.353	7.34
228.816	7.2
229.28	7.02
229.744	6.86
230.207	6.71
230.671	6.55
231.134	6.42
231.597	6.3
232.061	6.2
232.524	6.12
232.987	6.01
233.45	5.9
233.914	5.79
234.377	5.73
234.84	5.64
235.303	5.56
235.766	5.49
236.229	5.42
236.691	5.35
237.154	5.3
237.617	5.23
238.08	5.18
238.542	5.13
239.005	5.08
239.468	5.02
239.93	4.95
240.393	4.9
240.855	4.84
241.317	4.8
241.78	4.75
242.242	4.69
242.704	4.65
243.166	4.59
243.629	4.54
244.091	4.48
244.553	4.44
245.015	4.4
245.477	4.35
245.939	4.3
246.4	4.26
246.862	4.22
247.324	4.19
247.786	4.14
248.247	4.12
248.709	4.09
249.17	4.07
249.632	4.02
250.093	3.98
250.555	3.95
251.016	3.92
251.477	3.88
251.939	3.85
252.4	3.81
252.861	3.77
253.322	3.73
253.783	3.7
254.244	3.67
254.705	3.64
255.166	3.63
255.627	3.61
256.088	3.57
256.549	3.53
257.009	3.5
257.47	3.47
257.931	3.44
258.391	3.41
258.852	3.37
259.312	3.33
259.773	3.3
260.233	3.25
260.694	3.22
261.154	3.19
261.614	3.16
262.074	3.13
262.534	3.08
262.994	3.06
263.455	3.04
263.915	3.01
264.374	2.99
264.834	2.96
265.294	2.94
265.754	2.92
266.214	2.9
266.673	2.88
267.133	2.85
267.593	2.85
268.052	2.82
268.512	2.8
268.971	2.78
269.431	2.76
269.89	2.75
270.349	2.73
270.809	2.72
271.268	2.72
271.727	2.7
272.186	2.69
272.645	2.68
273.104	2.68
273.563	2.67
274.022	2.66
274.481	2.65
274.94	2.64
275.399	2.64
275.857	2.63
276.316	2.61
276.775	2.6
277.233	2.59
277.692	2.59
278.15	2.58
278.609	2.57
279.067	2.56
279.525	2.55
279.984	2.54
280.442	2.54
280.9	2.54
281.358	2.54
281.816	2.54
282.274	2.53
282.732	2.52
283.19	2.51
283.648	2.51
284.106	2.5
284.564	2.51
285.021	2.51
285.479	2.5
285.937	2.49
286.394	2.49
286.852	2.49
287.309	2.49
287.767	2.48
288.224	2.46
288.682	2.46
289.139	2.45
289.596	2.43
290.053	2.41
290.511	2.4
290.968	2.38
291.425	2.37
291.882	2.35
292.339	2.33
292.796	2.32
293.252	2.31
293.709	2.3
294.166	2.29
294.623	2.28
295.079	2.27
295.536	2.26
295.992	2.25
296.449	2.25
296.905	2.24
297.362	2.23
297.818	2.22
298.274	2.22
298.731	2.21
299.187	2.21
299.643	2.21
300.099	2.2
300.555	2.19
301.011	2.19
301.467	2.18
301.923	2.18
302.379	2.18
302.835	2.18
303.291	2.18
303.746	2.17
304.202	2.16
304.658	2.16
305.113	2.16
305.569	2.17
306.024	2.17
306.479	2.17
306.935	2.17
307.39	2.17
307.845	2.16
308.301	2.17
308.756	2.17
309.211	2.17
309.666	2.18
310.121	2.17
310.576	2.17
311.031	2.17
311.486	2.17
311.94	2.17
312.395	2.17
312.85	2.17
313.305	2.17
313.759	2.17
314.214	2.16
314.668	2.16
315.123	2.16
315.577	2.16
316.032	2.16
316.486	2.15
316.94	2.14
317.394	2.14
317.849	2.14
318.303	2.13
318.757	2.13
319.211	2.12
319.665	2.11
320.119	2.1
320.572	2.1
321.026	2.09
321.48	2.09
321.934	2.09
322.387	2.09
322.841	2.07
323.295	2.07
323.748	2.06
324.202	2.07
324.655	2.06
325.108	2.06
325.562	2.05
326.015	2.05
326.468	2.03
326.921	2.03
327.374	2.03
327.827	2.03
328.28	2.03
328.733	2.02
329.186	2.02
329.639	2.02
330.092	2.01
330.545	2.01
330.997	2.02
331.45	2.02
331.903	2.02
332.355	2.03
332.808	2.03
333.26	2.04
333.713	2.04
334.165	2.05
334.617	2.06
335.069	2.07
335.522	2.07
335.974	2.07
336.426	2.08
336.878	2.08
337.33	2.07
337.782	2.07
338.234	2.07
338.686	2.07
339.137	2.07
339.589	2.06
340.041	2.06
340.493	2.05
340.944	2.04
341.396	2.04
341.847	2.03
342.299	2.02
342.75	2
343.201	1.99
343.653	1.98
344.104	1.97
344.555	1.95
345.006	1.94
345.457	1.94
345.908	1.93
346.359	1.93
346.81	1.93
347.261	1.92
347.712	1.93
348.163	1.92
348.613	1.92
349.064	1.9
349.515	1.9
349.965	1.9
350.416	1.89
350.866	1.89
351.317	1.89
351.767	1.89
352.217	1.89
352.668	1.89
353.118	1.89
353.568	1.9
354.018	1.91
354.468	1.91
354.918	1.93
355.368	1.93
355.818	1.93
356.268	1.94
356.718	1.94
357.168	1.95
357.617	1.95
358.067	1.96
358.517	1.96
358.966	1.97
359.416	1.98
359.865	1.99
360.315	2.01
360.764	2.01
361.213	2.01
361.663	2.02
362.112	2.04
362.561	2.05
363.01	2.07
363.459	2.08
363.908	2.09
364.357	2.1
364.806	2.11
365.255	2.13
365.703	2.15
366.152	2.18
366.601	2.21
367.05	2.23
367.498	2.25
367.947	2.27
368.395	2.3
368.844	2.32
369.292	2.34
369.74	2.37
370.189	2.39
370.637	2.41
371.085	2.44
371.533	2.46
371.981	2.48
372.429	2.49
372.877	2.51
373.325	2.52
373.773	2.55
374.221	2.58
374.669	2.59
375.116	2.61
375.564	2.64
376.012	2.66
376.459	2.68
376.907	2.7
377.354	2.73
377.801	2.77
378.249	2.8
378.696	2.83
379.143	2.86
379.591	2.89
380.038	2.93
380.485	2.95
380.932	2.98
381.379	2.99
381.826	3.02
382.273	3.05
382.72	3.08
383.166	3.1
383.613	3.13
384.06	3.14
384.506	3.16
384.953	3.18
385.4	3.2
385.846	3.21
386.292	3.25
386.739	3.27
387.185	3.29
387.631	3.31
388.078	3.33
388.524	3.32
388.97	3.34
389.416	3.36
389.862	3.36
390.308	3.37
390.754	3.39
391.2	3.41
391.645	3.42
392.091	3.42
392.537	3.44
392.983	3.46
393.428	3.47
393.874	3.5
394.319	3.51
394.765	3.53
395.21	3.55
395.655	3.56
396.101	3.57
396.546	3.58
396.991	3.58
397.436	3.57
397.881	3.58
398.326	3.61
398.771	3.61
399.216	3.61
399.661	3.62
400.106	3.64
400.551	3.62
400.995	3.61
401.44	3.6
401.885	3.61
402.329	3.62
402.774	3.6
403.218	3.59
403.663	3.58
404.107	3.58
404.551	3.59
404.995	3.58
405.44	3.58
405.884	3.58
406.328	3.58
406.772	3.58
407.216	3.58
407.66	3.58
408.104	3.58
408.547	3.59
408.991	3.58
409.435	3.57
409.879	3.57
410.322	3.59
410.766	3.59
411.209	3.59
411.653	3.58
412.096	3.58
412.54	3.58
412.983	3.58
413.426	3.59
413.869	3.6
414.312	3.62
414.756	3.62
415.199	3.62
415.642	3.63
416.085	3.64
416.527	3.66
416.97	3.66
417.413	3.66
417.856	3.65
418.298	3.64
418.741	3.63
419.184	3.64
419.626	3.63
420.069	3.63
420.511	3.63
420.953	3.62
421.396	3.62
421.838	3.65
422.28	3.66
422.722	3.67
423.164	3.68
423.606	3.69
424.048	3.68
424.49	3.69
424.932	3.68
425.374	3.67
425.816	3.66
426.258	3.65
426.699	3.61
427.141	3.59
427.582	3.57
428.024	3.57
428.465	3.57
428.907	3.58
429.348	3.55
429.789	3.56
430.231	3.56
430.672	3.57
431.113	3.58
431.554	3.58
431.995	3.6
432.436	3.61
432.877	3.59
433.318	3.58
433.759	3.57
434.2	3.59
434.64	3.59
435.081	3.6
435.522	3.62
435.962	3.63
436.403	3.67
436.843	3.68
437.284	3.69
437.724	3.73
438.164	3.74
438.604	3.77
439.045	3.76
439.485	3.78
439.925	3.77
440.365	3.75
440.805	3.75
441.245	3.73
441.685	3.73
442.125	3.73
442.564	3.73
443.004	3.73
443.444	3.74
443.883	3.74
444.323	3.72
444.762	3.75
445.202	3.78
445.641	3.78
446.081	3.82
446.52	3.81
446.959	3.81
447.398	3.85
447.837	3.86
448.276	3.86
448.716	3.88
449.154	3.91
449.593	3.92
450.032	3.93
450.471	3.95
450.91	3.94
451.349	3.94
451.787	3.95
452.226	3.9
452.664	3.88
453.103	3.87
453.541	3.87
453.98	3.86
454.418	3.83
454.856	3.81
455.295	3.77
455.733	3.77
456.171	3.75
456.609	3.73
457.047	3.72
457.485	3.71
457.923	3.71
458.361	3.7
458.798	3.7
459.236	3.71
459.674	3.72
460.111	3.73
460.549	3.72
460.987	3.72
461.424	3.73
461.862	3.73
462.299	3.73
462.736	3.72
463.173	3.72
463.611	3.71
464.048	3.71
464.485	3.71
464.922	3.71
465.359	3.71
465.796	3.69
466.233	3.69
466.67	3.69
467.106	3.69
467.543	3.69
467.98	3.69
468.416	3.71
468.853	3.7
469.29	3.72
469.726	3.72
470.162	3.71
470.599	3.73
471.035	3.74
471.471	3.75
471.907	3.76
472.344	3.76
472.78	3.75
473.216	3.73
473.652	3.74
474.088	3.72
474.523	3.72
474.959	3.7
475.395	3.68
475.831	3.67
476.266	3.67
476.702	3.66
477.138	3.65
477.573	3.64
478.008	3.63
478.444	3.6
478.879	3.59
479.314	3.57
479.75	3.58
480.185	3.57
480.62	3.57
481.055	3.55
481.49	3.54
481.925	3.52
482.36	3.51
482.795	3.48
483.229	3.48
483.664	3.47
484.099	3.47
484.534	3.46
484.968	3.46
485.403	3.46
485.837	3.46
486.271	3.45
486.706	3.44
487.14	3.46
487.574	3.47
488.009	3.48
488.443	3.49
488.877	3.49
489.311	3.5
489.745	3.51
490.179	3.51
490.613	3.52
491.046	3.53
491.48	3.56
491.914	3.56
492.348	3.58
492.781	3.59
493.215	3.6
493.648	3.63
494.082	3.65
494.515	3.66
494.948	3.69
495.382	3.72
495.815	3.76
496.248	3.78
496.681	3.81
497.114	3.83
497.547	3.87
497.98	3.91
498.413	3.95
498.846	3.99
499.279	4.04
499.711	4.09
500.144	4.14
500.577	4.18
501.009	4.23
501.442	4.3
501.874	4.36
502.306	4.43
502.739	4.48
503.171	4.55
503.603	4.64
504.036	4.73
504.468	4.83
504.9	4.92
505.332	5.03
505.764	5.13
506.196	5.24
506.627	5.35
507.059	5.45
507.491	5.57
507.923	5.7
508.354	5.81
508.786	5.92
509.217	6.02
509.649	6.14
510.08	6.27
510.512	6.39
510.943	6.52
511.374	6.66
511.805	6.81
512.237	6.96
512.668	7.09
513.099	7.26
513.53	7.42
513.961	7.59
514.391	7.75
514.822	7.9
515.253	8.08
515.684	8.23
516.114	8.4
516.545	8.56
516.975	8.75
517.406	8.92
517.836	9.09
518.267	9.26
518.697	9.44
519.127	9.63
519.558	9.8
519.988	9.98
520.418	10.15
520.848	10.33
521.278	10.51
521.708	10.66
522.138	10.82
522.567	10.97
522.997	11.12
523.427	11.27
523.857	11.4
524.286	11.56
524.716	11.71
525.145	11.85
525.575	11.99
526.004	12.11
526.433	12.25
526.863	12.38
527.292	12.51
527.721	12.63
528.15	12.74
528.579	12.86
529.008	12.97
529.437	13.06
529.866	13.15
530.295	13.23
530.724	13.33
531.152	13.42
531.581	13.5
532.01	13.57
532.438	13.65
532.867	13.7
533.295	13.77
533.723	13.84
534.152	13.9
534.58	13.96
535.008	14
535.436	14.03
535.865	14.06
536.293	14.1
536.721	14.12
537.149	14.13
537.576	14.17
538.004	14.19
538.432	14.21
538.86	14.22
539.287	14.24
539.715	14.27
540.143	14.29
540.57	14.31
540.998	14.34
541.425	14.37
541.852	14.41
542.28	14.41
542.707	14.44
543.134	14.46
543.561	14.47
543.988	14.5
544.415	14.52
544.842	14.55
545.269	14.57
545.696	14.58
546.123	14.59
546.549	14.61
546.976	14.64
547.403	14.64
547.829	14.66
548.256	14.69
548.682	14.7
549.108	14.7
549.535	14.71
549.961	14.72
550.387	14.71
550.813	14.72
551.24	14.72
551.666	14.73
552.092	14.73
552.518	14.72
552.943	14.72
553.369	14.71
553.795	14.7
554.221	14.68
554.646	14.67
555.072	14.65
555.498	14.62
555.923	14.6
556.349	14.55
556.774	14.52
557.199	14.49
557.625	14.43
558.05	14.38
558.475	14.33
558.9	14.28
559.325	14.22
559.75	14.16
560.175	14.1
560.6	14.04
561.025	13.99
561.449	13.91
561.874	13.84
562.299	13.76
562.723	13.67
563.148	13.59
563.572	13.51
563.997	13.43
564.421	13.34
564.846	13.25
565.27	13.15
565.694	13.04
566.118	12.94
566.542	12.84
566.966	12.75
567.39	12.66
567.814	12.55
568.238	12.45
568.662	12.33
569.086	12.23
569.509	12.12
569.933	12.02
570.357	11.91
570.78	11.81
571.204	11.69
571.627	11.59
572.05	11.48
572.474	11.38
572.897	11.28
573.32	11.19
573.743	11.1
574.166	11.02
574.589	10.95
575.012	10.88
575.435	10.8
575.858	10.74
576.281	10.69
576.704	10.64
577.126	10.57
577.549	10.51
577.972	10.45
578.394	10.38
578.817	10.32
579.239	10.25
579.661	10.19
580.084	10.14
580.506	10.08
580.928	10.01
581.35	9.95
581.772	9.93
582.194	9.88
582.616	9.84
583.038	9.8
583.46	9.77
583.882	9.73
584.303	9.68
584.725	9.65
585.147	9.59
585.568	9.55
585.99	9.51
586.411	9.47
586.833	9.44
587.254	9.4
587.675	9.37
588.096	9.34
588.518	9.32
588.939	9.29
589.36	9.27
589.781	9.26
590.202	9.23
590.623	9.21
591.043	9.19
591.464	9.15
591.885	9.13
592.305	9.12
592.726	9.09
593.147	9.08
593.567	9.07
593.987	9.05
594.408	9.03
594.828	9.01
595.248	8.99
595.669	8.97
596.089	8.95
596.509	8.92
596.929	8.87
597.349	8.84
597.769	8.8
598.189	8.77
598.608	8.75
599.028	8.72
599.448	8.7
599.867	8.67
600.287	8.63
600.706	8.6
601.126	8.59
601.545	8.55
601.965	8.53
602.384	8.5
602.803	8.46
603.222	8.41
603.641	8.38
604.061	8.34
604.48	8.3
604.898	8.26
605.317	8.21
605.736	8.15
606.155	8.12
606.574	8.06
606.992	8
607.411	7.96
607.829	7.88
608.248	7.83
608.666	7.79
609.085	7.75
609.503	7.69
609.921	7.64
610.339	7.61
610.758	7.58
611.176	7.54
611.594	7.5
612.012	7.45
612.43	7.45
612.847	7.4
613.265	7.36
613.683	7.31
614.101	7.28
614.518	7.24
614.936	7.18
615.353	7.13
615.771	7.09
616.188	7.06
616.606	7.02
617.023	6.98
617.44	6.94
617.857	6.89
618.274	6.87
618.691	6.84
619.108	6.8
619.525	6.79
619.942	6.77
620.359	6.76
620.776	6.73
621.192	6.71
621.609	6.7
622.026	6.68
622.442	6.68
622.859	6.66
623.275	6.65
623.691	6.65
624.108	6.65
624.524	6.63
624.94	6.61
625.356	6.6
625.772	6.6
626.188	6.59
626.604	6.58
627.02	6.57
627.436	6.58
627.852	6.56
628.268	6.55
628.683	6.53
629.099	6.54
629.514	6.54
629.93	6.53
630.345	6.5
630.761	6.49
631.176	6.49
631.591	6.46
632.007	6.42
632.422	6.42
632.837	6.39
633.252	6.36
633.667	6.31
634.082	6.26
634.497	6.23
634.911	6.19
635.326	6.14
635.741	6.08
636.155	6.04
636.57	5.99
636.984	5.92
637.399	5.85
637.813	5.8
638.228	5.75
638.642	5.69
639.056	5.64
639.47	5.58
639.884	5.52
640.298	5.46
640.712	5.4
641.126	5.35
641.54	5.3
641.954	5.25
642.368	5.2
642.781	5.13
643.195	5.07
643.609	5.02
644.022	4.97
644.436	4.93
644.849	4.88
645.262	4.84
645.676	4.79
646.089	4.75
646.502	4.71
646.915	4.68
647.328	4.65
647.741	4.62
648.154	4.59
648.567	4.56
648.98	4.53
649.393	4.51
649.805	4.47
650.218	4.45
650.631	4.44
651.043	4.41
651.456	4.38
651.868	4.35
652.28	4.34
652.693	4.31
653.105	4.29
653.517	4.26
653.929	4.23
654.341	4.22
654.753	4.19
655.165	4.16
655.577	4.11
655.989	4.07
656.401	4.04
656.813	3.99
657.224	3.96
657.636	3.94
658.047	3.9
658.459	3.85
658.87	3.8
659.282	3.76
659.693	3.72
660.104	3.69
660.515	3.67
660.926	3.62
661.338	3.6
661.749	3.56
662.159	3.52
662.57	3.49
662.981	3.46
663.392	3.42
663.803	3.4
664.213	3.38
664.624	3.37
665.035	3.34
665.445	3.33
665.855	3.32
666.266	3.31
666.676	3.28
667.086	3.27
667.497	3.26
667.907	3.26
668.317	3.24
668.727	3.22
669.137	3.21
669.547	3.21
669.956	3.21
670.366	3.21
670.776	3.2
671.186	3.21
671.595	3.23
672.005	3.24
672.414	3.24
672.824	3.26
673.233	3.27
673.642	3.27
674.052	3.28
674.461	3.28
674.87	3.31
675.279	3.33
675.688	3.34
676.097	3.35
676.506	3.37
676.915	3.4
677.323	3.41
677.732	3.43
678.141	3.46
678.549	3.5
678.958	3.54
679.366	3.56
679.775	3.59
680.183	3.64
680.592	3.68
681	3.71
681.408	3.76
681.816	3.81
682.224	3.87
682.632	3.93
683.04	3.97
683.448	4.03
683.856	4.11
684.264	4.19
684.671	4.29
685.079	4.38
685.487	4.51
685.894	4.62
686.302	4.76
686.709	4.91
687.116	5.08
687.524	5.27
687.931	5.45
688.338	5.66
688.745	5.87
689.152	6.09
689.559	6.33
689.966	6.58
690.373	6.87
690.78	7.15
691.187	7.45
691.593	7.75
692	8.06
692.407	8.4
692.813	8.74
693.22	9.08
693.626	9.45
694.032	9.82
694.439	10.18
694.845	10.56
695.251	10.92
695.657	11.28
696.063	11.64
696.469	12.03
696.875	12.39
697.281	12.74
697.687	13.09
698.093	13.46
698.498	13.82
698.904	14.17
699.31	14.5
699.715	14.88
700.12	15.23
700.526	15.57
700.931	15.9
701.337	16.25
701.742	16.58
702.147	16.93
702.552	17.25
702.957	17.57
703.362	17.91
703.767	18.21
704.172	18.5
704.577	18.8
704.981	19.1
705.386	19.39
705.791	19.7
706.195	20.01
706.6	20.3
707.004	20.59
707.408	20.86
707.813	21.11
708.217	21.39
708.621	21.68
709.025	21.96
709.43	22.24
709.834	22.51
710.237	22.74
710.641	23.01
711.045	23.24
711.449	23.48
711.853	23.73
712.256	23.99
712.66	24.23
713.064	24.46
713.467	24.67
713.87	24.87
714.274	25.08
714.677	25.3
715.08	25.46
715.484	25.67
715.887	25.85
716.29	26.05
716.693	26.24
717.096	26.44
717.499	26.65
717.901	26.83
718.304	27.04
718.707	27.25
719.109	27.44
719.512	27.65
719.915	27.85
720.317	28.06
720.719	28.22
721.122	28.37
721.524	28.55
721.926	28.7
722.328	28.85
722.731	29
723.133	29.13
723.535	29.28
723.937	29.43
724.338	29.55
724.74	29.66
725.142	29.71
725.544	29.82
725.945	29.9
726.347	30.01
726.748	30.1
727.15	30.21
727.551	30.32
727.952	30.4
728.354	30.51
728.755	30.59
729.156	30.71
729.557	30.88
729.958	30.97
730.359	31.08
730.76	31.14
731.161	31.25
731.562	31.33
731.962	31.41
732.363	31.48
732.763	31.54
733.164	31.62
733.564	31.68
733.965	31.75
734.365	31.81
734.766	31.86
735.166	31.93
735.566	31.96
735.966	31.98
736.366	31.98
736.766	32.03
737.166	32.07
737.566	32.12
737.966	32.13
738.365	32.13
738.765	32.18
739.165	32.2
739.564	32.2
739.964	32.23
740.363	32.28
740.763	32.33
741.162	32.35
741.561	32.39
741.96	32.4
742.36	32.44
742.759	32.46
743.158	32.47
743.557	32.5
743.955	32.58
744.354	32.61
744.753	32.65
745.152	32.67
745.55	32.71
745.949	32.75
746.348	32.79
746.746	32.78
747.144	32.84
747.543	32.86
747.941	32.9
748.339	32.92
748.737	32.95
749.136	32.96
749.534	32.99
749.932	32.96
750.33	32.94
750.727	32.96
751.125	32.96
751.523	32.93
751.921	32.98
752.318	32.97
752.716	32.93
753.113	32.93
753.511	32.93
753.908	32.9
754.305	32.89
754.703	32.85
755.1	32.83
755.497	32.84
755.894	32.85
756.291	32.81
756.688	32.78
757.085	32.76
757.482	32.74
757.878	32.74
758.275	32.73
758.672	32.73
759.068	32.75
759.465	32.73
759.861	32.72
760.258	32.7
760.654	32.69
761.05	32.71
761.447	32.72
761.843	32.72
762.239	32.69
762.635	32.69
763.031	32.72
763.427	32.74
763.822	32.74
764.218	32.74
764.614	32.75
765.01	32.77
765.405	32.76
765.801	32.77
766.196	32.78
766.592	32.84
766.987	32.86
767.382	32.86
767.778	32.89
768.173	32.89
768.568	32.88
768.963	32.87
769.358	32.88
769.753	32.91
770.148	32.9
770.542	32.89
770.937	32.88
771.332	32.87
771.726	32.88
772.121	32.84
772.515	32.86
772.91	32.88
773.304	32.9
773.699	32.88
774.093	32.87
774.487	32.89
774.881	32.92
775.275	32.9
775.669	32.94
776.063	32.9
776.457	32.93
776.851	32.92
777.245	32.94
777.638	32.94
778.032	32.92
778.425	32.94
778.819	32.94
779.212	32.92
779.606	32.88
779.999	32.88
780.392	32.9
780.786	32.9
781.179	32.89
781.572	32.85
781.965	32.87
782.358	32.87
782.751	32.86
783.143	32.87
783.536	32.91
783.929	32.97
784.322	32.98
784.714	32.99
785.107	33.04
785.499	33.08
785.891	33.12
786.284	33.1
786.676	33.16
787.068	33.14
787.46	33.11
787.852	33.11
788.245	33.1
788.636	33.11
789.028	33.08
789.42	33.05
789.812	33.01
790.204	33
790.595	33.03
790.987	33
791.378	33.05
791.77	33.1
792.161	33.07
792.553	33.05
792.944	33.06
793.335	33.09
793.726	33.09
794.117	33.1
794.508	33.09
794.899	33.08
795.29	33.09
795.681	33.07
796.072	33.05
796.463	33.03
796.853	33.04
797.244	33.02
797.634	33.01
798.025	33.05
798.415	33.03
798.806	33.05
799.196	33.09
799.586	33.08
799.976	33.1
800.366	33.08
800.756	33.1
801.146	33.11
801.536	33.12
801.926	33.12
802.316	33.13
802.706	33.16
803.095	33.19
803.485	33.16
803.874	33.17
804.264	33.19
804.653	33.21
805.043	33.22
805.432	33.22
805.821	33.23
806.21	33.25
806.599	33.26
806.988	33.28
807.377	33.26
807.766	33.25
808.155	33.27
808.544	33.24
808.933	33.23
809.321	33.21
809.71	33.23
810.098	33.23
810.487	33.23
810.875	33.2
811.264	33.2
811.652	33.2
812.04	33.21
812.428	33.19
812.816	33.21
813.204	33.24
813.592	33.25
813.98	33.25
814.368	33.25
814.756	33.27
815.144	33.31
815.531	33.31
815.919	33.3
816.306	33.27
816.694	33.32
817.081	33.3
817.469	33.3
817.856	33.34
818.243	33.32
818.63	33.35
819.017	33.32
819.404	33.29
819.791	33.29
820.178	33.31
820.565	33.33
820.952	33.3
821.339	33.33
821.725	33.33
822.112	33.29
822.498	33.29
822.885	33.3
823.271	33.3
823.657	33.31
824.044	33.3
824.43	33.29
824.816	33.25
825.202	33.25
825.588	33.24
825.974	33.24
826.36	33.23
826.746	33.24
827.132	33.17
827.517	33.15
827.903	33.16
828.289	33.16
828.674	33.12
829.06	33.15
829.445	33.14
829.83	33.11
830.216	33.08
830.601	33.07
830.986	33.05
831.371	33.08
831.756	33.05
832.141	33.04
832.526	33.02
832.911	33.06
833.295	33.04
833.68	33.03
834.065	33.04
834.449	33.03
834.834	33.02
835.218	33.02
835.603	32.99
835.987	33.02
836.371	33.01
836.755	32.99
837.139	32.96
837.524	32.97
837.908	32.94
838.291	32.94
838.675	32.94
839.059	32.94
839.443	32.92
839.827	32.91
840.21	32.91
840.594	32.88
840.977	32.9
841.361	32.89
841.744	32.88
842.127	32.88
842.511	32.87
842.894	32.86
843.277	32.88
843.66	32.89
844.043	32.85
844.426	32.83
844.809	32.85
845.191	32.83
845.574	32.83
845.957	32.81
846.339	32.8
846.722	32.78
847.104	32.78
847.487	32.75
847.869	32.72
848.252	32.75
848.634	32.75
849.016	32.74
849.398	32.74
849.78	32.72
850.162	32.7
850.544	32.71
850.926	32.7
851.307	32.71
851.689	32.69
852.071	32.71
852.452	32.7
852.834	32.7
853.215	32.7
853.597	32.71
853.978	32.7
854.359	32.7
854.741	32.7
855.122	32.7
855.503	32.71
855.884	32.72
856.265	32.7
856.646	32.69
857.026	32.71
857.407	32.67
857.788	32.67
858.169	32.69
858.549	32.71
858.93	32.71
859.31	32.72
859.69	32.72
860.071	32.74
860.451	32.73
860.831	32.73
861.211	32.72
861.591	32.77
861.971	32.78
862.351	32.77
862.731	32.77
863.111	32.77
863.491	32.78
863.87	32.78
864.25	32.8
864.629	32.83
865.009	32.83
865.388	32.84
865.768	32.83
866.147	32.83
866.526	32.83
866.905	32.8
867.284	32.82
867.663	32.81
868.042	32.81
868.421	32.78
868.8	32.79
869.179	32.81
869.558	32.8
869.936	32.8
870.315	32.8
870.693	32.79
871.072	32.79
871.45	32.77
871.828	32.78
872.207	32.78
872.585	32.78
872.963	32.76
873.341	32.74
873.719	32.73
874.097	32.72
874.475	32.72
874.853	32.74
875.23	32.74
875.608	32.76
875.986	32.75
876.363	32.74
876.741	32.73
877.118	32.74
877.495	32.74
877.873	32.74
878.25	32.72
878.627	32.75
879.004	32.73
879.381	32.74
879.758	32.72
880.135	32.73
880.512	32.75
880.889	32.75
881.265	32.76
881.642	32.76
882.019	32.79
882.395	32.8
882.772	32.79
883.148	32.79
883.524	32.77
883.901	32.78
884.277	32.76
884.653	32.75
885.029	32.73
885.405	32.72
885.781	32.7
886.157	32.71
886.532	32.7
886.908	32.69
887.284	32.7
887.659	32.7
888.035	32.7
888.411	32.71
888.786	32.67
889.161	32.68
889.537	32.67
889.912	32.64
890.287	32.6
890.662	32.58
891.037	32.55
891.412	32.52
891.787	32.5
892.162	32.46
892.536	32.43
892.911	32.42
893.286	32.39
893.66	32.37
894.035	32.38
894.409	32.38
894.784	32.38
895.158	32.38
895.532	32.35
895.906	32.35
896.281	32.36
896.655	32.35
897.029	32.35
897.402	32.35
897.776	32.37
898.15	32.36
898.524	32.36
898.898	32.37
899.271	32.38
899.645	32.38
900.018	32.39
900.392	32.4
900.765	32.43
901.138	32.45
901.511	32.45
901.884	32.46
902.258	32.46
902.631	32.45
903.003	32.47
903.376	32.45
903.749	32.48
904.122	32.48
904.495	32.48
904.867	32.49
905.24	32.51
905.612	32.54
905.985	32.5
906.357	32.5
906.729	32.51
907.102	32.51
907.474	32.57
907.846	32.56
908.218	32.55
908.59	32.54
908.962	32.56
909.334	32.55
909.705	32.53
910.077	32.58
910.449	32.62
910.82	32.66
911.192	32.66
911.563	32.64
911.935	32.65
912.306	32.68
912.677	32.71
913.048	32.72
913.419	32.7
913.79	32.72
914.161	32.68
914.532	32.65
914.903	32.61
915.274	32.61
915.645	32.63
916.015	32.67
916.386	32.66
916.756	32.66
917.127	32.66
917.497	32.67
917.868	32.66
918.238	32.7
918.608	32.71
918.978	32.73
919.348	32.71
919.718	32.69
920.088	32.65
920.458	32.7
920.828	32.7
921.198	32.7
921.567	32.71
921.937	32.71
922.306	32.71
922.676	32.76
923.045	32.77
923.415	32.77
923.784	32.78
924.153	32.81
924.522	32.76
924.891	32.75
925.26	32.74
925.629	32.74
925.998	32.76
926.367	32.77
926.736	32.74
927.104	32.72
927.473	32.75
927.842	32.74
928.21	32.71
928.578	32.73
928.947	32.74
929.315	32.75
929.683	32.75
930.051	32.71
930.42	32.71
930.788	32.7
931.156	32.7
931.523	32.66
931.891	32.66
932.259	32.65
932.627	32.56
932.994	32.53
933.362	32.46
933.729	32.41
934.097	32.38
934.464	32.33
934.831	32.32
935.199	32.32
935.566	32.33
935.933	32.42
936.3	32.41
936.667	32.48
937.034	32.47
937.401	32.52
937.767	32.57
938.134	32.59
938.501	32.63
938.867	32.7
939.234	32.79
939.6	32.84
939.967	32.74
940.333	32.83
940.699	32.96
941.065	33.11
941.431	33.18
941.798	33.26
942.163	33.37
942.529	33.45
942.895	33.54
943.261	33.49
943.627	33.58
943.992	33.63
944.358	33.64
944.723	33.61
945.089	33.62
945.454	33.69
945.82	33.71
946.185	33.78
946.55	33.82
946.915	33.81
947.28	33.84
947.645	33.84
948.01	33.82
948.375	33.85
948.74	33.81
949.104	33.87
949.469	33.85
949.834	33.83
950.198	33.7
950.562	33.65
950.927	33.58
951.291	33.58
951.655	33.54
952.02	33.47
952.384	33.46
952.748	33.4
953.112	33.27
953.476	33.2
953.839	33.18
954.203	33.18
954.567	33.14
954.931	33.09
955.294	33.04
955.658	32.96
956.021	32.97
956.385	32.94
956.748	33.02
957.111	33.05
957.474	33.04
957.837	33.02
958.2	32.94
958.563	32.97
958.926	32.94
959.289	32.89
959.652	32.91
960.015	32.93
960.377	32.9
960.74	32.81
961.102	32.76
961.465	32.74
961.827	32.64
962.189	32.7
962.552	32.67
962.914	32.7
963.276	32.7
963.638	32.63
964	32.54
964.362	32.5
964.724	32.53
965.085	32.54
965.447	32.53
965.809	32.55
966.17	32.51
966.532	32.46
966.893	32.42
967.255	32.44
967.616	32.5
967.977	32.55
968.338	32.48
968.699	32.45
969.061	32.44
969.421	32.44
969.782	32.5
970.143	32.51
970.504	32.53
970.865	32.48
971.225	32.43
971.586	32.47
971.946	32.58
972.307	32.68
972.667	32.71
973.027	32.78
973.388	32.76
973.748	32.75
974.108	32.79
974.468	32.87
974.828	33.01
975.188	33.07
975.548	33.07
975.907	33.03
976.267	33.01
976.627	33.08
976.986	32.96
977.346	33.01
977.705	33.08
978.064	33.12
978.424	33.08
978.783	33.12
979.142	33.11
979.501	33.08
979.86	32.96
980.219	32.94
980.578	32.91
980.937	32.98
981.296	33.01
981.654	33.01
982.013	32.98
982.371	32.93
982.73	32.79
983.088	32.77
983.447	32.83
983.805	32.85
984.163	32.91
984.521	32.87
984.879	32.96
985.237	32.97
985.595	32.95
985.953	32.93
986.311	33.03
986.669	33.16
987.026	33.21
987.384	33.25
987.741	33.37
988.099	33.45
988.456	33.55
988.814	33.51
989.171	33.54
989.528	33.49
989.885	33.52
990.242	33.56
990.599	33.58
990.956	33.66
991.313	33.61
991.67	33.62
992.027	33.53
992.383	33.47
992.74	33.43
993.096	33.37
993.453	33.4
993.809	33.44
994.165	33.48
994.522	33.37
994.878	33.36
995.234	33.46
995.59	33.37
995.946	33.48
996.302	33.5
996.658	33.55
997.013	33.58
997.369	33.68
997.725	33.76
998.08	33.69
998.436	33.94
998.791	33.88
999.147	33.87
999.502	34
999.857	34.01
1000.212	34.01
1000.567	34.09
1000.922	34.18
1001.277	34.19
1001.632	34.17
1001.987	34.26
1002.342	34.2
1002.696	34.32
1003.051	34.2
1003.406	34.16
1003.76	34.19
1004.114	34.33
1004.469	34.36
1004.823	34.47
1005.177	34.65
1005.531	34.68
1005.885	34.67
1006.239	34.67
1006.593	34.67
1006.947	34.74
1007.301	34.85
1007.655	35.1
1008.008	35.14
1008.362	35.16
1008.715	35.19
1009.069	35.01
1009.422	34.96
1009.776	35.17
1010.129	35.11
1010.482	35.43
1010.835	35.48
1011.188	35.47
1011.541	35.08
1011.894	35.06
1012.247	35.16
1012.6	35.15
1012.952	35.34
1013.305	35.35
1013.657	35.24
1014.01	35.54
1014.362	35.31
1014.715	35.27
1015.067	35.54
1015.419	35.74
1015.771	35.89
1016.123	35.95
1016.475	36.05
1016.827	36.11
1017.179	36.28
1017.531	36.34
1017.883	36.39
1018.234	36.57
1018.586	36.75
1018.938	36.38
1019.289	36.47
1019.64	36.77
1019.992	36.84
1020.343	36.73
1020.694	36.8
1021.045	37.06
1021.396	37.27
1021.747	37.12
1022.098	37.17
1022.449	37.47
1022.8	37.47
1023.151	37.58
1023.501	37.53
1023.852	37.54
1024.202	38.09
1024.553	38.1
1024.903	37.97
1025.253	37.87
1025.604	38.25
1025.954	38.29
1026.304	38.85
1026.654	39.29
1027.004	39.53
1027.354	39.62
1027.703	39.63
1028.053	39.36
1028.403	39.47
1028.753	40.01
1029.102	40.11
1029.452	39.9
1029.801	39.87
1030.15	39.34
1030.499	39.45
897.758	467.66
901.051	482.9
904.343	484.23
907.636	475.72
910.928	468.26
914.22	475.29
917.511	463.04
920.803	445.17
924.094	429.41
927.384	431.21
930.675	418.25
933.965	415.15
937.255	408.57
940.544	392.52
943.834	376.79
947.123	370.46
950.411	351.56
953.7	348.21
956.988	333.8
960.276	318.13
963.563	315.78
966.851	298.75
970.138	292.22
973.424	274.09
976.711	271.04
979.997	260.79
983.283	252.95
986.568	244.04
989.853	238.4
993.138	232.13
996.423	227.92
999.708	219.38
1002.992	219.96
1006.275	214.76
1009.559	211.45
1012.842	204.13
1016.125	196.96
1019.408	195.54
1022.69	193.43
1025.972	190.35
1029.254	185.95
1032.536	182.31
1035.817	177.7
1039.098	174.48
1042.379	168.64
1045.659	167.87
1048.939	166.12
1052.219	164.17
1055.498	161.3
1058.778	158.71
1062.057	154.55
1065.335	153.94
1068.614	151.35
1071.892	148.83
1075.17	145.66
1078.447	144.29
1081.724	142.3
1085.001	139.36
1088.278	139.58
1091.554	137.23
1094.83	136.54
1098.106	134.82
1101.382	133.38
1104.657	132.89
1107.932	131.97
1111.206	131.1
1114.481	130.53
1117.755	129.57
1121.029	129.4
1124.302	126.71
1127.575	125.63
1130.848	124.6
1134.121	123.75
1137.393	122.82
1140.665	122.78
1143.937	122
1147.208	120.16
1150.48	118.74
1153.75	117.71
1157.021	116.73
1160.291	116.41
1163.561	116.08
1166.831	115.32
1170.101	115.08
1173.37	114.37
1176.639	112.26
1179.907	112.23
1183.176	112.09
1186.444	112.75
1189.711	111.49
1192.979	112.18
1196.246	112.52
1199.513	111.42
1202.78	112.39
1206.046	112.12
1209.312	113.71
1212.578	114.44
1215.843	116.33
1219.108	116.86
1222.373	118.25
1225.638	120.94
1228.902	123.29
1232.166	126.99
1235.43	129.66
1238.693	132.52
1241.956	135.71
1245.219	137.96
1248.482	139.35
1251.744	138.47
1255.006	140.6
1258.268	136.22
1261.529	135.44
1264.79	131.52
1268.051	129.02
1271.312	128.89
1274.572	125.98
1277.832	123.47
1281.092	120.58
1284.351	118.28
1287.61	117.9
1290.869	116
1294.128	116.1
1297.386	115.23
1300.644	115.3
1303.902	113.76
1307.159	112.37
1310.416	112.72
1313.673	113.61
1316.93	115.68
1320.186	117.85
1323.442	119.05
1326.697	121.67
1329.953	123.24
1333.208	128.06
1336.463	133.55
1339.717	136.42
1342.972	144.03
1346.226	148.28
1349.479	149.65
1352.733	156.3
1355.986	159.31
1359.238	162.76
1362.491	165.65
1365.743	172.06
1368.995	172.03
1372.247	172.1
1375.498	172.63
1378.749	177.84
1382	180.18
1385.251	177.21
1388.501	177.31
1391.751	179.13
1395	177.59
1398.25	179.52
1401.499	178.1
1404.748	178.4
1407.996	173.86
1411.244	173.51
1414.492	169.46
1417.74	163.72
1420.987	161.98
1424.234	159.27
1427.481	152.98
1430.728	150.5
1433.974	144.23
1437.22	139.89
1440.465	134.53
1443.711	130.54
1446.956	125.75
1450.201	122.34
1453.445	116.54
1456.689	112.83
1459.933	108.48
1463.177	104.92
1466.42	102.03
1469.663	98.75
1472.906	96.01
1476.148	93.11
1479.391	91.55
1482.633	90.56
1485.874	87.57
1489.115	87.04
1492.356	85.91
1495.597	83.9
1498.838	83.64
1502.078	83
1505.318	82.75
1508.557	81.57
1511.797	81.53
1515.036	80.48
1518.274	80.28
1521.513	79.69
1524.751	78.62
1527.989	79.08
1531.227	79.62
1534.464	78.78
1537.701	77.99
1540.938	77.67
1544.174	78.1
1547.41	77.91
1550.646	77.8
1553.882	76.99
1557.117	77.19
1560.352	77.13
1563.587	76.42
1566.821	76.09
1570.055	75.73
1573.289	75.99
1576.523	75.73
1579.756	75.39
1582.989	75.04
1586.222	74.72
1589.454	75.95
1592.686	75.42
1595.918	75.34
1599.15	74.94
1602.381	75.17
1605.612	75.22
1608.843	74.81
1612.073	75.08
1615.303	75.14
1618.533	74.72
1621.762	75.13
1624.992	74.1
1628.221	73.64
1631.449	74.08
1634.678	74.09
1637.906	74.17
1641.134	73.96
1644.361	74.02
1647.588	74.64
1650.815	74.5
1654.042	75.41
1657.269	74.74
1660.495	75.17
1663.72	75.77
1666.946	75.82
1670.171	76.5
1673.396	77.23
1676.621	77.28
1679.845	77.32
1683.069	77.13
1686.293	77.18
1689.517	76.82
1692.74	77.54
1695.963	77.33
1699.185	77.35
1702.408	76.93
1705.63	76.95
1708.852	76.86
1712.073	77.37
1715.294	77.5
1718.515	77.86
1721.736	78.07
1724.956	78.66
1728.176	78.65
1731.396	78.92
1734.616	79.44
1737.835	80.11
1741.054	79.98
1744.272	79.95
1747.491	80.39
1750.709	80.85
1753.927	80.81
1757.144	80.84
1760.361	81.04
1763.578	81.8
1766.795	82.29
1770.011	82.15
1773.227	82.49
1776.443	83.28
1779.658	83.03
1782.874	83.56
1786.089	83.03
1789.303	83.29
1792.518	84.37
1795.732	84.73
1798.945	85.52
1802.159	85.09
1805.372	86.26
1808.585	86.75
1811.797	87.68
1815.01	88.32
1818.222	88.81
1821.434	90.44
1824.645	90.87
1827.856	92.42
1831.067	92.77
1834.278	93.78
1837.488	95.41
1840.698	96.03
1843.908	96.29
1847.117	97.31
1850.326	98.89
1853.535	99.41
1856.744	100.29
1859.952	102.29
1863.16	101.5
1866.368	101.25
1869.575	102.24
1872.782	101.92
1875.989	100.44
1879.196	101.25
1882.402	100.01
1885.608	99.99
1888.814	99.94
1892.019	100.99
1895.224	98.38
1898.429	99.21
1901.634	99.99
1904.838	99.11
1908.042	100.07
1911.246	101.15
1914.449	100.65
1917.652	100.03
1920.855	100.09
1924.058	99.31
1927.26	97.95
1930.462	99.37
1933.664	99.05
1936.865	99.43
1940.066	98.8
1943.267	96.57
1946.467	97.75
1949.668	97.94
1952.868	99.19
1956.067	98.81
1959.267	99.79
1962.466	100.53
1965.665	101.87
1968.863	101.37
1972.061	101.98
1975.259	103.67
1978.457	106.53
1981.654	106.26
1984.852	107.69
1988.048	109.06
1991.245	111.02
1994.441	113.19
1997.637	115.59
2000.833	117.14
2004.028	118.99
2007.223	123.24
2010.418	125.33
2013.613	129.89
2016.807	133.69
2020.001	135.67
2023.194	138.92
2026.388	143.56
2029.581	150.95
2032.774	155.32
2035.966	159.29
2039.158	164.07
2042.35	165.61
2045.542	169.02
2048.733	176.54
2051.924	177.19
2055.115	180.25
2058.306	182.77
2061.496	186.09
2064.686	183.84
2067.875	184.49
2071.065	187.08
2074.254	187
2077.442	192.38
2080.631	195.38
2083.819	194.58
2087.007	201
2090.195	203.39
2093.382	204.24
2096.569	204.78
2099.756	208.44
2102.942	212.41
2106.128	216.59
2109.314	219.03
2112.5	219.44
2115.685	216.12
2118.87	216.73
2122.055	216.1
2125.239	219.54
2128.424	225.01
2131.608	224.7
2134.791	225.52
2137.974	226.74
2141.157	227.6
2144.34	229.72
2147.523	234.76
2150.705	242
2153.887	239.55
2157.068	243.08
2160.25	244.95
2163.431	244.45
2166.611	247.49
2169.792	251.15
2172.972	253.38
2176.152	252.7
2179.331	257.2
2182.511	256.34
2185.69	258.91
2188.868	269.11
2192.047	278.02
2195.225	284.16
2198.403	283.73
2201.58	280.99
2204.758	294.33
2207.935	294.74
2211.111	304.44
2214.288	306.3
2217.464	310.67
2220.64	310.31
2223.815	310.61
2226.991	305.24
2230.166	307.62
2233.34	319.13
2236.515	329.9
2239.689	319.89
2242.863	328.29
2246.036	325.5
2249.209	333.02
2252.382	328.74
2255.555	343.12
2258.727	346.03
2261.9	356.48
2265.071	360.44
2268.243	358.18
2271.414	366.76
2274.585	376.37
2277.756	376.15
2280.926	387.06
2284.096	392.48
2287.266	396.65
2290.436	391.49
2293.605	398.69
2296.774	413.18
2299.942	410.06
2303.111	422.42
2306.279	431.35
2309.447	428.94
2312.614	431.54
2315.781	442.01
2318.948	440.39
2322.115	451.48
2325.281	474.26
2328.447	471.79
2331.613	473.26
2334.779	481.19
2337.944	487.71
2341.109	495.12
2344.274	504.47
2347.438	517.18
2350.602	523.23
2353.766	558.86
2356.929	557.65
2360.092	569.63
2363.255	570.05
2366.418	574.21
2369.58	589.31
2372.742	597.42
2375.904	593.59
2379.066	611.8
2382.227	648.64
2385.388	647.61
2388.548	618.95
2391.709	615.89
2394.869	623.65
2398.029	633.61
2401.188	636.62
2404.347	653.73
2407.506	669.19
2410.665	647.94
2413.823	649.87
2416.981	645.43
2420.139	613.96
2423.296	664.63
2426.453	703.51
2429.61	672.09
2432.767	713.19
2435.923	732.06
2439.079	718.15
2442.235	730.94
2445.391	745.84
2448.546	744.03
2451.701	782.9
2454.855	841.27
2458.009	743.49
2461.163	754.35
2464.317	764.15
2467.471	752.56
2470.624	779.8
2473.777	755.47
2476.929	738.12
2480.082	781.8
2483.234	816.81
2486.385	827.93
2489.537	852.25
2492.688	939.26
2495.839	921.75
2498.989	956.22
2502.14	954.71
2505.29	917.06
2508.439	1006.25
2511.589	1021.85
2514.738	1003.15
2517.887	987.83
2521.035	937.51
2524.183	921.92
2527.331	910.58
2530.479	897.11
2533.627	911.43
