Data from N_3_ofc_oh_4n_Splice17_19.txt Node
Date: Sat Feb 29 15:06:32 EST 2020
User: sa697716
Spectrometer: FLMS03696
Trigger mode: 0
Integration Time (sec): 3.180400E-1
Scans to average: 20
Electric dark correction enabled: true
Nonlinearity correction enabled: true
Boxcar width: 5
XAxis mode: Wavelengths
Number of Pixels in Spectrum: 2048
>>>>>Begin Spectral Data<<<<<
187.83	134.19
188.298	134.39
188.766	115.25
189.233	92.08
189.701	99.99
190.169	89.27
190.636	99.23
191.104	74.88
191.571	106.74
192.039	78.91
192.506	987.11
192.974	17885.68
193.441	-1415.9
193.908	155.56
194.375	-28.79
194.842	-7.42
195.31	-18.44
195.777	-10.83
196.244	58.38
196.711	83.31
197.177	86.78
197.644	86.9
198.111	88.2
198.578	89.44
199.045	90.81
199.511	91.94
199.978	92.94
200.445	92.52
200.911	92.99
201.378	92.97
201.844	93.73
202.31	93.55
202.777	94.03
203.243	94.21
203.709	93.76
204.176	93.35
204.642	93.1
205.108	92.23
205.574	92.73
206.04	92.45
206.506	91.77
206.972	90.86
207.438	90.61
207.903	89.23
208.369	87.66
208.835	86.62
209.301	85.68
209.766	83.79
210.232	82.83
210.697	81.25
211.163	79.46
211.628	78
212.094	76.64
212.559	74.85
213.024	73.64
213.49	72.11
213.955	70.71
214.42	68.73
214.885	66.98
215.35	64.42
215.815	61.07
216.28	57.89
216.745	54.15
217.21	50.08
217.675	46.36
218.14	42.75
218.604	39.66
219.069	36.96
219.534	34.74
219.998	32.89
220.463	31.29
220.927	29.98
221.392	28.75
221.856	27.72
222.32	26.85
222.785	26.06
223.249	25.44
223.713	24.86
224.177	24.33
224.642	23.85
225.106	23.33
225.57	22.85
226.034	22.44
226.497	22.02
226.961	21.64
227.425	21.26
227.889	20.93
228.353	20.55
228.816	20.23
229.28	19.86
229.744	19.56
230.207	19.29
230.671	18.99
231.134	18.69
231.597	18.44
232.061	18.19
232.524	17.98
232.987	17.73
233.45	17.52
233.914	17.3
234.377	17.1
234.84	16.89
235.303	16.71
235.766	16.54
236.229	16.36
236.691	16.2
237.154	16.05
237.617	15.89
238.08	15.75
238.542	15.6
239.005	15.48
239.468	15.35
239.93	15.23
240.393	15.08
240.855	14.94
241.317	14.81
241.78	14.68
242.242	14.52
242.704	14.39
243.166	14.27
243.629	14.15
244.091	14.01
244.553	13.89
245.015	13.78
245.477	13.65
245.939	13.56
246.4	13.44
246.862	13.33
247.324	13.24
247.786	13.14
248.247	13.03
248.709	12.92
249.17	12.84
249.632	12.73
250.093	12.6
250.555	12.51
251.016	12.41
251.477	12.32
251.939	12.22
252.4	12.13
252.861	12.03
253.322	11.95
253.783	11.88
254.244	11.78
254.705	11.7
255.166	11.65
255.627	11.58
256.088	11.51
256.549	11.44
257.009	11.36
257.47	11.3
257.931	11.23
258.391	11.13
258.852	11.05
259.312	10.98
259.773	10.9
260.233	10.81
260.694	10.72
261.154	10.63
261.614	10.55
262.074	10.48
262.534	10.39
262.994	10.32
263.455	10.25
263.915	10.17
264.374	10.09
264.834	10.04
265.294	9.98
265.754	9.91
266.214	9.85
266.673	9.8
267.133	9.74
267.593	9.69
268.052	9.63
268.512	9.59
268.971	9.55
269.431	9.51
269.89	9.46
270.349	9.43
270.809	9.39
271.268	9.36
271.727	9.33
272.186	9.29
272.645	9.27
273.104	9.24
273.563	9.21
274.022	9.17
274.481	9.14
274.94	9.1
275.399	9.06
275.857	9.02
276.316	8.98
276.775	8.95
277.233	8.91
277.692	8.87
278.15	8.84
278.609	8.8
279.067	8.76
279.525	8.74
279.984	8.72
280.442	8.71
280.9	8.69
281.358	8.68
281.816	8.66
282.274	8.65
282.732	8.64
283.19	8.62
283.648	8.61
284.106	8.59
284.564	8.6
285.021	8.59
285.479	8.58
285.937	8.57
286.394	8.56
286.852	8.55
287.309	8.53
287.767	8.52
288.224	8.49
288.682	8.46
289.139	8.44
289.596	8.38
290.053	8.33
290.511	8.28
290.968	8.24
291.425	8.19
291.882	8.14
292.339	8.09
292.796	8.05
293.252	8.02
293.709	7.99
294.166	7.95
294.623	7.92
295.079	7.9
295.536	7.87
295.992	7.84
296.449	7.82
296.905	7.8
297.362	7.78
297.818	7.77
298.274	7.74
298.731	7.72
299.187	7.7
299.643	7.68
300.099	7.67
300.555	7.65
301.011	7.63
301.467	7.61
301.923	7.59
302.379	7.57
302.835	7.55
303.291	7.54
303.746	7.53
304.202	7.51
304.658	7.5
305.113	7.49
305.569	7.49
306.024	7.49
306.479	7.48
306.935	7.47
307.39	7.47
307.845	7.47
308.301	7.47
308.756	7.49
309.211	7.49
309.666	7.49
310.121	7.49
310.576	7.49
311.031	7.5
311.486	7.51
311.94	7.52
312.395	7.53
312.85	7.53
313.305	7.54
313.759	7.54
314.214	7.54
314.668	7.55
315.123	7.56
315.577	7.56
316.032	7.55
316.486	7.54
316.94	7.53
317.394	7.51
317.849	7.49
318.303	7.47
318.757	7.44
319.211	7.42
319.665	7.4
320.119	7.37
320.572	7.36
321.026	7.35
321.48	7.33
321.934	7.31
322.387	7.3
322.841	7.29
323.295	7.29
323.748	7.27
324.202	7.27
324.655	7.25
325.108	7.24
325.562	7.21
326.015	7.2
326.468	7.18
326.921	7.17
327.374	7.16
327.827	7.15
328.28	7.13
328.733	7.13
329.186	7.12
329.639	7.12
330.092	7.12
330.545	7.12
330.997	7.12
331.45	7.13
331.903	7.13
332.355	7.14
332.808	7.14
333.26	7.15
333.713	7.16
334.165	7.16
334.617	7.17
335.069	7.18
335.522	7.2
335.974	7.2
336.426	7.21
336.878	7.22
337.33	7.22
337.782	7.24
338.234	7.25
338.686	7.24
339.137	7.24
339.589	7.24
340.041	7.23
340.493	7.21
340.944	7.21
341.396	7.2
341.847	7.18
342.299	7.14
342.75	7.12
343.201	7.08
343.653	7.06
344.104	7.03
344.555	7.01
345.006	6.98
345.457	6.96
345.908	6.92
346.359	6.9
346.81	6.89
347.261	6.88
347.712	6.87
348.163	6.86
348.613	6.85
349.064	6.83
349.515	6.82
349.965	6.82
350.416	6.82
350.866	6.83
351.317	6.82
351.767	6.83
352.217	6.82
352.668	6.81
353.118	6.82
353.568	6.82
354.018	6.85
354.468	6.85
354.918	6.85
355.368	6.86
355.818	6.86
356.268	6.87
356.718	6.87
357.168	6.88
357.617	6.89
358.067	6.88
358.517	6.88
358.966	6.88
359.416	6.89
359.865	6.89
360.315	6.88
360.764	6.88
361.213	6.87
361.663	6.86
362.112	6.86
362.561	6.87
363.01	6.88
363.459	6.88
363.908	6.88
364.357	6.87
364.806	6.87
365.255	6.88
365.703	6.88
366.152	6.88
366.601	6.89
367.05	6.88
367.498	6.88
367.947	6.88
368.395	6.88
368.844	6.87
369.292	6.86
369.74	6.87
370.189	6.87
370.637	6.87
371.085	6.88
371.533	6.89
371.981	6.89
372.429	6.88
372.877	6.88
373.325	6.88
373.773	6.88
374.221	6.89
374.669	6.88
375.116	6.88
375.564	6.86
376.012	6.86
376.459	6.87
376.907	6.9
377.354	6.91
377.801	6.93
378.249	6.94
378.696	6.95
379.143	6.96
379.591	6.99
380.038	7
380.485	7.03
380.932	7.05
381.379	7.05
381.826	7.06
382.273	7.06
382.72	7.06
383.166	7.07
383.613	7.08
384.06	7.08
384.506	7.07
384.953	7.07
385.4	7.09
385.846	7.09
386.292	7.11
386.739	7.11
387.185	7.14
387.631	7.16
388.078	7.17
388.524	7.17
388.97	7.2
389.416	7.22
389.862	7.25
390.308	7.26
390.754	7.29
391.2	7.32
391.645	7.34
392.091	7.37
392.537	7.4
392.983	7.44
393.428	7.48
393.874	7.51
394.319	7.55
394.765	7.56
395.21	7.57
395.655	7.61
396.101	7.63
396.546	7.65
396.991	7.67
397.436	7.68
397.881	7.7
398.326	7.73
398.771	7.75
399.216	7.79
399.661	7.83
400.106	7.86
400.551	7.87
400.995	7.87
401.44	7.87
401.885	7.87
402.329	7.88
402.774	7.86
403.218	7.86
403.663	7.85
404.107	7.87
404.551	7.88
404.995	7.87
405.44	7.86
405.884	7.87
406.328	7.87
406.772	7.89
407.216	7.91
407.66	7.94
408.104	7.94
408.547	7.95
408.991	7.94
409.435	7.93
409.879	7.94
410.322	7.98
410.766	8
411.209	8.04
411.653	8.03
412.096	8.04
412.54	8.05
412.983	8.07
413.426	8.1
413.869	8.13
414.312	8.17
414.756	8.21
415.199	8.24
415.642	8.27
416.085	8.29
416.527	8.32
416.97	8.35
417.413	8.35
417.856	8.35
418.298	8.33
418.741	8.31
419.184	8.31
419.626	8.28
420.069	8.26
420.511	8.27
420.953	8.26
421.396	8.25
421.838	8.25
422.28	8.28
422.722	8.31
423.164	8.33
423.606	8.37
424.048	8.36
424.49	8.39
424.932	8.4
425.374	8.39
425.816	8.37
426.258	8.36
426.699	8.33
427.141	8.3
427.582	8.29
428.024	8.31
428.465	8.33
428.907	8.36
429.348	8.37
429.789	8.39
430.231	8.41
430.672	8.46
431.113	8.51
431.554	8.58
431.995	8.63
432.436	8.67
432.877	8.69
433.318	8.7
433.759	8.72
434.2	8.74
434.64	8.8
435.081	8.82
435.522	8.84
435.962	8.88
436.403	8.92
436.843	8.95
437.284	8.99
437.724	9.05
438.164	9.08
438.604	9.13
439.045	9.16
439.485	9.17
439.925	9.18
440.365	9.22
440.805	9.23
441.245	9.24
441.685	9.3
442.125	9.31
442.564	9.36
443.004	9.39
443.444	9.42
443.883	9.48
444.323	9.52
444.762	9.59
445.202	9.66
445.641	9.72
446.081	9.79
446.52	9.8
446.959	9.85
447.398	9.91
447.837	9.98
448.276	10.03
448.716	10.06
449.154	10.12
449.593	10.17
450.032	10.19
450.471	10.22
450.91	10.23
451.349	10.29
451.787	10.3
452.226	10.27
452.664	10.25
453.103	10.25
453.541	10.26
453.98	10.24
454.418	10.23
454.856	10.21
455.295	10.18
455.733	10.17
456.171	10.15
456.609	10.15
457.047	10.14
457.485	10.14
457.923	10.14
458.361	10.12
458.798	10.13
459.236	10.13
459.674	10.13
460.111	10.13
460.549	10.12
460.987	10.11
461.424	10.1
461.862	10.09
462.299	10.09
462.736	10.08
463.173	10.09
463.611	10.09
464.048	10.1
464.485	10.09
464.922	10.1
465.359	10.12
465.796	10.13
466.233	10.15
466.67	10.18
467.106	10.2
467.543	10.21
467.98	10.21
468.416	10.21
468.853	10.19
469.29	10.21
469.726	10.23
470.162	10.25
470.599	10.26
471.035	10.27
471.471	10.27
471.907	10.26
472.344	10.27
472.78	10.29
473.216	10.29
473.652	10.32
474.088	10.33
474.523	10.32
474.959	10.28
475.395	10.28
475.831	10.27
476.266	10.26
476.702	10.26
477.138	10.25
477.573	10.22
478.008	10.21
478.444	10.18
478.879	10.17
479.314	10.17
479.75	10.18
480.185	10.17
480.62	10.17
481.055	10.17
481.49	10.15
481.925	10.13
482.36	10.13
482.795	10.11
483.229	10.12
483.664	10.1
484.099	10.08
484.534	10.07
484.968	10.06
485.403	10.05
485.837	10.03
486.271	10.03
486.706	10.03
487.14	10.04
487.574	10.06
488.009	10.06
488.443	10.08
488.877	10.1
489.311	10.11
489.745	10.14
490.179	10.16
490.613	10.19
491.046	10.23
491.48	10.28
491.914	10.31
492.348	10.36
492.781	10.39
493.215	10.44
493.648	10.48
494.082	10.55
494.515	10.6
494.948	10.67
495.382	10.74
495.815	10.8
496.248	10.87
496.681	10.93
497.114	10.99
497.547	11.08
497.98	11.16
498.413	11.24
498.846	11.32
499.279	11.42
499.711	11.52
500.144	11.62
500.577	11.72
501.009	11.84
501.442	11.97
501.874	12.1
502.306	12.23
502.739	12.36
503.171	12.53
503.603	12.69
504.036	12.85
504.468	13.03
504.9	13.22
505.332	13.41
505.764	13.6
506.196	13.82
506.627	14.04
507.059	14.27
507.491	14.51
507.923	14.76
508.354	15.02
508.786	15.28
509.217	15.53
509.649	15.83
510.08	16.13
510.512	16.44
510.943	16.76
511.374	17.08
511.805	17.41
512.237	17.77
512.668	18.1
513.099	18.45
513.53	18.81
513.961	19.2
514.391	19.54
514.822	19.92
515.253	20.3
515.684	20.68
516.114	21.07
516.545	21.47
516.975	21.87
517.406	22.28
517.836	22.69
518.267	23.1
518.697	23.51
519.127	23.91
519.558	24.3
519.988	24.7
520.418	25.08
520.848	25.47
521.278	25.86
521.708	26.3
522.138	26.67
522.567	27.03
522.997	27.38
523.427	27.76
523.857	28.11
524.286	28.45
524.716	28.78
525.145	29.12
525.575	29.45
526.004	29.75
526.433	30.01
526.863	30.3
527.292	30.6
527.721	30.89
528.15	31.13
528.579	31.39
529.008	31.65
529.437	31.88
529.866	32.09
530.295	32.31
530.724	32.55
531.152	32.76
531.581	32.93
532.01	33.1
532.438	33.27
532.867	33.44
533.295	33.59
533.723	33.75
534.152	33.87
534.58	33.99
535.008	34.08
535.436	34.18
535.865	34.24
536.293	34.34
536.721	34.44
537.149	34.51
537.576	34.58
538.004	34.64
538.432	34.7
538.86	34.78
539.287	34.84
539.715	34.93
540.143	34.97
540.57	35.04
540.998	35.1
541.425	35.12
541.852	35.16
542.28	35.18
542.707	35.25
543.134	35.29
543.561	35.3
543.988	35.35
544.415	35.39
544.842	35.42
545.269	35.45
545.696	35.48
546.123	35.55
546.549	35.59
546.976	35.65
547.403	35.69
547.829	35.75
548.256	35.81
548.682	35.82
549.108	35.86
549.535	35.9
549.961	35.93
550.387	35.94
550.813	35.97
551.24	35.97
551.666	35.99
552.092	35.99
552.518	35.98
552.943	35.98
553.369	35.98
553.795	35.97
554.221	35.94
554.646	35.92
555.072	35.9
555.498	35.82
555.923	35.78
556.349	35.72
556.774	35.65
557.199	35.57
557.625	35.49
558.05	35.42
558.475	35.28
558.9	35.19
559.325	35.06
559.75	34.94
560.175	34.83
560.6	34.69
561.025	34.55
561.449	34.41
561.874	34.26
562.299	34.11
562.723	33.93
563.148	33.79
563.572	33.62
563.997	33.45
564.421	33.24
564.846	33.02
565.27	32.82
565.694	32.62
566.118	32.39
566.542	32.18
566.966	31.95
567.39	31.71
567.814	31.47
568.238	31.22
568.662	30.98
569.086	30.75
569.509	30.52
569.933	30.28
570.357	30.04
570.78	29.82
571.204	29.59
571.627	29.37
572.05	29.18
572.474	28.96
572.897	28.76
573.32	28.57
573.743	28.39
574.166	28.2
574.589	28.02
575.012	27.86
575.435	27.67
575.858	27.5
576.281	27.35
576.704	27.19
577.126	27.06
577.549	26.94
577.972	26.8
578.394	26.65
578.817	26.53
579.239	26.43
579.661	26.32
580.084	26.23
580.506	26.12
580.928	25.99
581.35	25.88
581.772	25.78
582.194	25.66
582.616	25.57
583.038	25.49
583.46	25.41
583.882	25.3
584.303	25.2
584.725	25.1
585.147	25
585.568	24.93
585.99	24.84
586.411	24.75
586.833	24.68
587.254	24.58
587.675	24.5
588.096	24.41
588.518	24.34
588.939	24.27
589.36	24.2
589.781	24.15
590.202	24.08
590.623	24.01
591.043	23.94
591.464	23.87
591.885	23.82
592.305	23.76
592.726	23.69
593.147	23.65
593.567	23.59
593.987	23.54
594.408	23.46
594.828	23.4
595.248	23.36
595.669	23.31
596.089	23.27
596.509	23.2
596.929	23.14
597.349	23.08
597.769	23
598.189	22.97
598.608	22.91
599.028	22.85
599.448	22.8
599.867	22.72
600.287	22.66
600.706	22.6
601.126	22.55
601.545	22.49
601.965	22.44
602.384	22.39
602.803	22.29
603.222	22.22
603.641	22.14
604.061	22.06
604.48	21.98
604.898	21.9
605.317	21.82
605.736	21.72
606.155	21.63
606.574	21.53
606.992	21.43
607.411	21.36
607.829	21.24
608.248	21.15
608.666	21.05
609.085	20.95
609.503	20.86
609.921	20.75
610.339	20.67
610.758	20.57
611.176	20.47
611.594	20.38
612.012	20.26
612.43	20.2
612.847	20.1
613.265	20
613.683	19.9
614.101	19.79
614.518	19.69
614.936	19.59
615.353	19.51
615.771	19.43
616.188	19.34
616.606	19.27
617.023	19.19
617.44	19.12
617.857	19.04
618.274	19
618.691	18.95
619.108	18.9
619.525	18.86
619.942	18.81
620.359	18.76
620.776	18.73
621.192	18.68
621.609	18.65
622.026	18.61
622.442	18.59
622.859	18.54
623.275	18.52
623.691	18.5
624.108	18.47
624.524	18.46
624.94	18.43
625.356	18.41
625.772	18.41
626.188	18.4
626.604	18.36
627.02	18.34
627.436	18.32
627.852	18.27
628.268	18.24
628.683	18.21
629.099	18.18
629.514	18.14
629.93	18.08
630.345	18.02
630.761	17.95
631.176	17.93
631.591	17.85
632.007	17.79
632.422	17.74
632.837	17.65
633.252	17.58
633.667	17.47
634.082	17.38
634.497	17.27
634.911	17.14
635.326	17.02
635.741	16.89
636.155	16.77
636.57	16.62
636.984	16.46
637.399	16.29
637.813	16.13
638.228	15.96
638.642	15.79
639.056	15.62
639.47	15.46
639.884	15.28
640.298	15.1
640.712	14.92
641.126	14.75
641.54	14.57
641.954	14.43
642.368	14.26
642.781	14.1
643.195	13.94
643.609	13.8
644.022	13.67
644.436	13.52
644.849	13.41
645.262	13.3
645.676	13.18
646.089	13.08
646.502	12.96
646.915	12.86
647.328	12.79
647.741	12.71
648.154	12.64
648.567	12.58
648.98	12.54
649.393	12.47
649.805	12.4
650.218	12.36
650.631	12.31
651.043	12.27
651.456	12.23
651.868	12.18
652.28	12.15
652.693	12.11
653.105	12.06
653.517	11.99
653.929	11.95
654.341	11.92
654.753	11.87
655.165	11.83
655.577	11.77
655.989	11.7
656.401	11.61
656.813	11.52
657.224	11.44
657.636	11.36
658.047	11.29
658.459	11.21
658.87	11.13
659.282	11.06
659.693	10.95
660.104	10.85
660.515	10.77
660.926	10.7
661.338	10.64
661.749	10.55
662.159	10.47
662.57	10.39
662.981	10.31
663.392	10.23
663.803	10.13
664.213	10.07
664.624	10.01
665.035	9.94
665.445	9.89
665.855	9.83
666.266	9.79
666.676	9.75
667.086	9.71
667.497	9.66
667.907	9.63
668.317	9.59
668.727	9.56
669.137	9.56
669.547	9.55
669.956	9.52
670.366	9.52
670.776	9.51
671.186	9.51
671.595	9.5
672.005	9.5
672.414	9.51
672.824	9.53
673.233	9.53
673.642	9.51
674.052	9.52
674.461	9.54
674.87	9.55
675.279	9.57
675.688	9.59
676.097	9.61
676.506	9.63
676.915	9.66
677.323	9.68
677.732	9.74
678.141	9.81
678.549	9.87
678.958	9.92
679.366	9.97
679.775	10.05
680.183	10.15
680.592	10.26
681	10.36
681.408	10.47
681.816	10.6
682.224	10.73
682.632	10.88
683.04	11.05
683.448	11.25
683.856	11.47
684.264	11.7
684.671	11.96
685.079	12.23
685.487	12.55
685.894	12.93
686.302	13.31
686.709	13.73
687.116	14.19
687.524	14.66
687.931	15.2
688.338	15.75
688.745	16.36
689.152	16.99
689.559	17.64
689.966	18.31
690.373	19.02
690.78	19.75
691.187	20.49
691.593	21.27
692	22.09
692.407	22.92
692.813	23.78
693.22	24.61
693.626	25.46
694.032	26.34
694.439	27.24
694.845	28.12
695.251	29.01
695.657	29.87
696.063	30.78
696.469	31.65
696.875	32.5
697.281	33.33
697.687	34.18
698.093	35.02
698.498	35.88
698.904	36.7
699.31	37.51
699.715	38.34
700.12	39.15
700.526	39.93
700.931	40.7
701.337	41.48
701.742	42.24
702.147	43
702.552	43.76
702.957	44.43
703.362	45.15
703.767	45.86
704.172	46.53
704.577	47.21
704.981	47.85
705.386	48.49
705.791	49.13
706.195	49.74
706.6	50.33
707.004	50.93
707.408	51.54
707.813	52.12
708.217	52.66
708.621	53.2
709.025	53.76
709.43	54.29
709.834	54.87
710.237	55.34
710.641	55.88
711.045	56.37
711.449	56.83
711.853	57.32
712.256	57.8
712.66	58.27
713.064	58.75
713.467	59.18
713.87	59.65
714.274	60.09
714.677	60.56
715.08	60.94
715.484	61.39
715.887	61.8
716.29	62.2
716.693	62.58
717.096	62.98
717.499	63.36
717.901	63.69
718.304	64.02
718.707	64.33
719.109	64.7
719.512	65.08
719.915	65.42
720.317	65.74
720.719	66.08
721.122	66.38
721.524	66.7
721.926	67
722.328	67.34
722.731	67.66
723.133	67.96
723.535	68.23
723.937	68.47
724.338	68.7
724.74	68.95
725.142	69.16
725.544	69.37
725.945	69.58
726.347	69.81
726.748	69.99
727.15	70.17
727.551	70.33
727.952	70.48
728.354	70.69
728.755	70.9
729.156	71.05
729.557	71.27
729.958	71.46
730.359	71.59
730.76	71.72
731.161	71.86
731.562	72.04
731.962	72.2
732.363	72.31
732.763	72.44
733.164	72.51
733.564	72.64
733.965	72.67
734.365	72.76
734.766	72.87
735.166	72.98
735.566	73.04
735.966	73.06
736.366	73.09
736.766	73.18
737.166	73.23
737.566	73.32
737.966	73.37
738.365	73.47
738.765	73.55
739.165	73.56
739.564	73.59
739.964	73.65
740.363	73.71
740.763	73.75
741.162	73.79
741.561	73.86
741.96	73.92
742.36	74.02
742.759	74.03
743.158	74.04
743.557	74.15
743.955	74.23
744.354	74.31
744.753	74.41
745.152	74.48
745.55	74.56
745.949	74.59
746.348	74.63
746.746	74.62
747.144	74.72
747.543	74.79
747.941	74.81
748.339	74.87
748.737	74.92
749.136	74.96
749.534	75.01
749.932	75.02
750.33	75.06
750.727	75.06
751.125	75.06
751.523	75.01
751.921	75.03
752.318	75.04
752.716	74.99
753.113	74.95
753.511	74.89
753.908	74.84
754.305	74.78
754.703	74.74
755.1	74.7
755.497	74.71
755.894	74.74
756.291	74.71
756.688	74.68
757.085	74.67
757.482	74.69
757.878	74.74
758.275	74.8
758.672	74.85
759.068	74.86
759.465	74.87
759.861	74.86
760.258	74.82
760.654	74.8
761.05	74.82
761.447	74.83
761.843	74.76
762.239	74.7
762.635	74.64
763.031	74.62
763.427	74.6
763.822	74.6
764.218	74.58
764.614	74.57
765.01	74.58
765.405	74.56
765.801	74.55
766.196	74.56
766.592	74.57
766.987	74.58
767.382	74.61
767.778	74.6
768.173	74.61
768.568	74.56
768.963	74.58
769.358	74.58
769.753	74.6
770.148	74.56
770.542	74.51
770.937	74.47
771.332	74.49
771.726	74.42
772.121	74.43
772.515	74.42
772.91	74.5
773.304	74.49
773.699	74.51
774.093	74.49
774.487	74.55
774.881	74.6
775.275	74.66
775.669	74.66
776.063	74.7
776.457	74.73
776.851	74.71
777.245	74.71
777.638	74.74
778.032	74.74
778.425	74.76
778.819	74.7
779.212	74.71
779.606	74.69
779.999	74.69
780.392	74.7
780.786	74.67
781.179	74.71
781.572	74.69
781.965	74.7
782.358	74.66
782.751	74.65
783.143	74.7
783.536	74.75
783.929	74.76
784.322	74.77
784.714	74.78
785.107	74.81
785.499	74.82
785.891	74.87
786.284	74.8
786.676	74.85
787.068	74.88
787.46	74.89
787.852	74.89
788.245	74.91
788.636	74.91
789.028	74.9
789.42	74.87
789.812	74.86
790.204	74.81
790.595	74.84
790.987	74.84
791.378	74.83
791.77	74.85
792.161	74.86
792.553	74.83
792.944	74.86
793.335	74.86
793.726	74.87
794.117	74.87
794.508	74.9
794.899	74.91
795.29	74.89
795.681	74.91
796.072	74.91
796.463	74.87
796.853	74.89
797.244	74.87
797.634	74.88
798.025	74.94
798.415	74.95
798.806	75
799.196	75.04
799.586	75.09
799.976	75.12
800.366	75.12
800.756	75.14
801.146	75.17
801.536	75.23
801.926	75.24
802.316	75.25
802.706	75.28
803.095	75.31
803.485	75.33
803.874	75.36
804.264	75.41
804.653	75.43
805.043	75.47
805.432	75.45
805.821	75.43
806.21	75.51
806.599	75.58
806.988	75.56
807.377	75.56
807.766	75.57
808.155	75.57
808.544	75.52
808.933	75.56
809.321	75.59
809.71	75.65
810.098	75.65
810.487	75.65
810.875	75.63
811.264	75.7
811.652	75.74
812.04	75.75
812.428	75.78
812.816	75.83
813.204	75.79
813.592	75.79
813.98	75.78
814.368	75.81
814.756	75.79
815.144	75.79
815.531	75.77
815.919	75.75
816.306	75.8
816.694	75.79
817.081	75.75
817.469	75.8
817.856	75.87
818.243	75.86
818.63	75.91
819.017	75.96
819.404	75.95
819.791	75.95
820.178	76.02
820.565	76.03
820.952	76.03
821.339	76.08
821.725	76.13
822.112	76.06
822.498	76.08
822.885	76.05
823.271	76.05
823.657	76.04
824.044	76.03
824.43	76.01
824.816	75.98
825.202	75.96
825.588	75.99
825.974	75.93
826.36	75.95
826.746	75.97
827.132	75.92
827.517	75.88
827.903	75.88
828.289	75.84
828.674	75.78
829.06	75.79
829.445	75.81
829.83	75.75
830.216	75.75
830.601	75.73
830.986	75.69
831.371	75.74
831.756	75.72
832.141	75.72
832.526	75.74
832.911	75.74
833.295	75.74
833.68	75.69
834.065	75.7
834.449	75.66
834.834	75.6
835.218	75.59
835.603	75.57
835.987	75.54
836.371	75.54
836.755	75.51
837.139	75.49
837.524	75.45
837.908	75.41
838.291	75.37
838.675	75.37
839.059	75.39
839.443	75.37
839.827	75.3
840.21	75.31
840.594	75.28
840.977	75.22
841.361	75.2
841.744	75.18
842.127	75.17
842.511	75.16
842.894	75.1
843.277	75.06
843.66	75.03
844.043	75.03
844.426	75.02
844.809	74.98
845.191	74.97
845.574	74.92
845.957	74.88
846.339	74.86
846.722	74.87
847.104	74.9
847.487	74.93
847.869	74.92
848.252	74.91
848.634	74.92
849.016	74.96
849.398	74.96
849.78	74.98
850.162	75
850.544	75.04
850.926	75.02
851.307	75.03
851.689	74.99
852.071	75
852.452	74.99
852.834	74.96
853.215	74.92
853.597	74.95
853.978	74.94
854.359	74.9
854.741	74.88
855.122	74.89
855.503	74.88
855.884	74.9
856.265	74.89
856.646	74.88
857.026	74.89
857.407	74.86
857.788	74.86
858.169	74.86
858.549	74.92
858.93	74.92
859.31	74.89
859.69	74.9
860.071	74.87
860.451	74.89
860.831	74.89
861.211	74.89
861.591	74.92
861.971	74.9
862.351	74.92
862.731	74.88
863.111	74.88
863.491	74.89
863.87	74.87
864.25	74.91
864.629	74.88
865.009	74.86
865.388	74.85
865.768	74.83
866.147	74.84
866.526	74.82
866.905	74.83
867.284	74.86
867.663	74.88
868.042	74.84
868.421	74.83
868.8	74.84
869.179	74.89
869.558	74.88
869.936	74.9
870.315	74.92
870.693	74.94
871.072	74.91
871.45	74.86
871.828	74.86
872.207	74.94
872.585	74.89
872.963	74.85
873.341	74.84
873.719	74.85
874.097	74.82
874.475	74.81
874.853	74.81
875.23	74.84
875.608	74.88
875.986	74.86
876.363	74.82
876.741	74.85
877.118	74.88
877.495	74.87
877.873	74.84
878.25	74.89
878.627	74.87
879.004	74.84
879.381	74.81
879.758	74.77
880.135	74.78
880.512	74.79
880.889	74.82
881.265	74.86
881.642	74.87
882.019	74.88
882.395	74.86
882.772	74.85
883.148	74.87
883.524	74.89
883.901	74.86
884.277	74.84
884.653	74.83
885.029	74.82
885.405	74.73
885.781	74.68
886.157	74.66
886.532	74.62
886.908	74.59
887.284	74.57
887.659	74.54
888.035	74.53
888.411	74.48
888.786	74.39
889.161	74.37
889.537	74.39
889.912	74.33
890.287	74.31
890.662	74.29
891.037	74.22
891.412	74.15
891.787	74.08
892.162	73.99
892.536	73.96
892.911	73.93
893.286	73.87
893.66	73.81
894.035	73.8
894.409	73.75
894.784	73.72
895.158	73.72
895.532	73.73
895.906	73.69
896.281	73.73
896.655	73.73
897.029	73.73
897.402	73.72
897.776	73.75
898.15	73.74
898.524	73.74
898.898	73.7
899.271	73.74
899.645	73.71
900.018	73.73
900.392	73.74
900.765	73.74
901.138	73.76
901.511	73.74
901.884	73.72
902.258	73.75
902.631	73.76
903.003	73.83
903.376	73.81
903.749	73.85
904.122	73.87
904.495	73.87
904.867	73.86
905.24	73.87
905.612	73.88
905.985	73.87
906.357	73.83
906.729	73.83
907.102	73.8
907.474	73.79
907.846	73.78
908.218	73.8
908.59	73.78
908.962	73.84
909.334	73.88
909.705	73.9
910.077	73.9
910.449	73.92
910.82	73.97
911.192	73.99
911.563	73.99
911.935	74.01
912.306	74
912.677	74.04
913.048	74.01
913.419	74
913.79	73.99
914.161	74.04
914.532	74.04
914.903	74.02
915.274	73.98
915.645	74.03
916.015	74.04
916.386	74.05
916.756	74.01
917.127	74.05
917.497	73.99
917.868	74
918.238	74.01
918.608	74.01
918.978	73.94
919.348	73.9
919.718	73.87
920.088	73.88
920.458	73.93
920.828	73.94
921.198	73.95
921.567	74
921.937	74.02
922.306	74
922.676	74.02
923.045	74.01
923.415	74.07
923.784	74.08
924.153	74.03
924.522	73.98
924.891	73.99
925.26	73.94
925.629	73.92
925.998	73.95
926.367	73.94
926.736	73.91
927.104	73.96
927.473	73.99
927.842	73.97
928.21	74.05
928.578	74.03
928.947	73.99
929.315	73.99
929.683	74.04
930.051	73.96
930.42	73.94
930.788	73.98
931.156	73.95
931.523	73.86
931.891	73.78
932.259	73.65
932.627	73.55
932.994	73.54
933.362	73.46
933.729	73.3
934.097	73.24
934.464	73.15
934.831	73.08
935.199	73.04
935.566	73
935.933	73.03
936.3	73.03
936.667	73.04
937.034	73.07
937.401	73.11
937.767	73.17
938.134	73.24
938.501	73.25
938.867	73.34
939.234	73.46
939.6	73.63
939.967	73.65
940.333	73.79
940.699	73.96
941.065	74.07
941.431	74.24
941.798	74.38
942.163	74.58
942.529	74.69
942.895	74.74
943.261	74.8
943.627	74.86
943.992	75.02
944.358	75.06
944.723	75.07
945.089	75.09
945.454	75.09
945.82	75.13
946.185	75.15
946.55	75.23
946.915	75.25
947.28	75.19
947.645	75.15
948.01	75.13
948.375	75.18
948.74	75.15
949.104	75.1
949.469	74.92
949.834	74.83
950.198	74.65
950.562	74.55
950.927	74.5
951.291	74.41
951.655	74.38
952.02	74.28
952.384	74.22
952.748	74.1
953.112	74.03
953.476	74.06
953.839	74.01
954.203	73.94
954.567	73.87
954.931	73.86
955.294	73.89
955.658	73.77
956.021	73.76
956.385	73.69
956.748	73.74
957.111	73.67
957.474	73.64
957.837	73.63
958.2	73.56
958.563	73.49
958.926	73.37
959.289	73.35
959.652	73.36
960.015	73.23
960.377	73.14
960.74	73.07
961.102	73.03
961.465	73.02
961.827	72.85
962.189	72.81
962.552	72.78
962.914	72.83
963.276	72.77
963.638	72.68
964	72.72
964.362	72.69
964.724	72.64
965.085	72.74
965.447	72.64
965.809	72.66
966.17	72.76
966.532	72.76
966.893	72.72
967.255	72.62
967.616	72.66
967.977	72.62
968.338	72.66
968.699	72.7
969.061	72.59
969.421	72.69
969.782	72.7
970.143	72.64
970.504	72.63
970.865	72.58
971.225	72.6
971.586	72.63
971.946	72.7
972.307	72.64
972.667	72.63
973.027	72.67
973.388	72.63
973.748	72.66
974.108	72.71
974.468	72.78
974.828	72.81
975.188	72.81
975.548	72.77
975.907	72.77
976.267	72.81
976.627	72.82
976.986	72.8
977.346	72.81
977.705	72.87
978.064	72.88
978.424	72.87
978.783	72.83
979.142	72.82
979.501	72.85
979.86	72.86
980.219	72.87
980.578	72.86
980.937	72.91
981.296	72.92
981.654	73.03
982.013	73.12
982.371	73.11
982.73	73.18
983.088	73.24
983.447	73.29
983.805	73.31
984.163	73.29
984.521	73.29
984.879	73.34
985.237	73.32
985.595	73.25
985.953	73.26
986.311	73.36
986.669	73.36
987.026	73.34
987.384	73.38
987.741	73.4
988.099	73.49
988.456	73.49
988.814	73.39
989.171	73.5
989.528	73.55
989.885	73.45
990.242	73.41
990.599	73.43
990.956	73.55
991.313	73.56
991.67	73.67
992.027	73.62
992.383	73.85
992.74	73.97
993.096	73.86
993.453	73.8
993.809	73.84
994.165	73.93
994.522	74.02
994.878	74.04
995.234	74.04
995.59	73.88
995.946	74.03
996.302	73.77
996.658	73.76
997.013	73.89
997.369	74.08
997.725	74.31
998.08	74.33
998.436	74.34
998.791	74.23
999.147	74.28
999.502	74.3
999.857	74.33
1000.212	74.48
1000.567	74.52
1000.922	74.59
1001.277	74.45
1001.632	74.37
1001.987	74.27
1002.342	74.42
1002.696	74.68
1003.051	74.5
1003.406	74.63
1003.76	74.66
1004.114	74.84
1004.469	74.69
1004.823	74.67
1005.177	74.88
1005.531	74.78
1005.885	74.99
1006.239	75.03
1006.593	75.11
1006.947	75.27
1007.301	75.2
1007.655	75.35
1008.008	75.19
1008.362	75.4
1008.715	75.41
1009.069	75.12
1009.422	75.13
1009.776	75.08
1010.129	74.9
1010.482	74.97
1010.835	75.31
1011.188	75.45
1011.541	75.23
1011.894	75.39
1012.247	75.45
1012.6	75.64
1012.952	76
1013.305	76.16
1013.657	76.3
1014.01	76.71
1014.362	76.7
1014.715	76.49
1015.067	76.75
1015.419	77.18
1015.771	77.56
1016.123	77.67
1016.475	77.84
1016.827	78.32
1017.179	78.31
1017.531	78.35
1017.883	78.67
1018.234	78.8
1018.586	78.86
1018.938	78.83
1019.289	78.67
1019.64	78.75
1019.992	78.88
1020.343	78.73
1020.694	78.43
1021.045	78.52
1021.396	78.61
1021.747	78.17
1022.098	78.22
1022.449	78.43
1022.8	78.69
1023.151	78.91
1023.501	78.95
1023.852	79.26
1024.202	79.43
1024.553	79.31
1024.903	79.6
1025.253	79.93
1025.604	79.92
1025.954	80.1
1026.304	80.53
1026.654	80.32
1027.004	80.46
1027.354	80.36
1027.703	80.11
1028.053	80.02
1028.403	79.8
1028.753	80.23
1029.102	80.44
1029.452	81.15
1029.801	81.45
1030.15	81.26
1030.499	81.5
897.758	616.04
901.051	634.28
904.343	639.94
907.636	627.19
910.928	616.91
914.22	632.41
917.511	614.93
920.803	589.65
924.094	567.96
927.384	574.12
930.675	556.6
933.965	552.38
937.255	550.67
940.544	526.97
943.834	508.04
947.123	501.06
950.411	471.29
953.7	465.96
956.988	454.32
960.276	433.6
963.563	425.73
966.851	404.18
970.138	399.04
973.424	371.15
976.711	366.48
979.997	351.29
983.283	344.54
986.568	334.25
989.853	326.79
993.138	314.4
996.423	310.37
999.708	303.55
1002.992	306.01
1006.275	294.49
1009.559	293.23
1012.842	285.19
1016.125	279.53
1019.408	274.86
1022.69	271.13
1025.972	268.63
1029.254	262.95
1032.536	258.28
1035.817	251.14
1039.098	246.34
1042.379	242.64
1045.659	239.33
1048.939	237.78
1052.219	233
1055.498	228.75
1058.778	226.24
1062.057	222.3
1065.335	220.71
1068.614	217.32
1071.892	214.52
1075.17	210.32
1078.447	208.06
1081.724	205.58
1085.001	201.9
1088.278	202.79
1091.554	201.02
1094.83	199.87
1098.106	197.55
1101.382	196.35
1104.657	196.04
1107.932	195.06
1111.206	194.53
1114.481	192.67
1117.755	192.08
1121.029	190.81
1124.302	187.87
1127.575	185.35
1130.848	184.58
1134.121	182.14
1137.393	182.33
1140.665	181.18
1143.937	179.99
1147.208	177.89
1150.48	176.06
1153.75	174.01
1157.021	173.35
1160.291	172.66
1163.561	172.15
1166.831	170.22
1170.101	169.9
1173.37	168.54
1176.639	166.69
1179.907	166.27
1183.176	166.42
1186.444	166.98
1189.711	166.34
1192.979	167.39
1196.246	167.1
1199.513	167.39
1202.78	168.36
1206.046	168.22
1209.312	168.93
1212.578	169.71
1215.843	172.02
1219.108	172.34
1222.373	174.98
1225.638	177.82
1228.902	180.49
1232.166	185.69
1235.43	188.72
1238.693	192.53
1241.956	197.22
1245.219	201.69
1248.482	204.16
1251.744	203.11
1255.006	203.11
1258.268	198.06
1261.529	196.97
1264.79	192.7
1268.051	189.28
1271.312	187.01
1274.572	184.24
1277.832	179.21
1281.092	176.93
1284.351	172.87
1287.61	172.68
1290.869	173.03
1294.128	172.68
1297.386	171.36
1300.644	170.44
1303.902	168.91
1307.159	167.29
1310.416	168.33
1313.673	171.01
1316.93	171.28
1320.186	174.21
1323.442	176.15
1326.697	179.08
1329.953	180.27
1333.208	185.53
1336.463	193.39
1339.717	197.57
1342.972	206.98
1346.226	210.6
1349.479	211.69
1352.733	221.01
1355.986	226.73
1359.238	230.8
1362.491	231
1365.743	239.26
1368.995	240.39
1372.247	239.27
1375.498	238.45
1378.749	245.83
1382	245.83
1385.251	244.25
1388.501	244.51
1391.751	245.2
1395	243.6
1398.25	245.72
1401.499	244.75
1404.748	244.35
1407.996	238.08
1411.244	237.97
1414.492	233.83
1417.74	227.84
1420.987	222.55
1424.234	218.33
1427.481	209.05
1430.728	204.07
1433.974	197.97
1437.22	190.74
1440.465	184.89
1443.711	179.74
1446.956	174.46
1450.201	167.7
1453.445	160.33
1456.689	156.14
1459.933	151
1463.177	146.11
1466.42	143.13
1469.663	139.3
1472.906	135.99
1476.148	133.08
1479.391	129.86
1482.633	127.7
1485.874	126.15
1489.115	125.54
1492.356	123.2
1495.597	121.45
1498.838	120.98
1502.078	120.19
1505.318	119.74
1508.557	119
1511.797	117.34
1515.036	117.83
1518.274	117.61
1521.513	115.67
1524.751	115.08
1527.989	117.09
1531.227	116.9
1534.464	116.99
1537.701	115.54
1540.938	114.74
1544.174	115.11
1547.41	115.01
1550.646	114.64
1553.882	114.76
1557.117	115.19
1560.352	115.28
1563.587	113.97
1566.821	113.95
1570.055	112.99
1573.289	113.62
1576.523	114.01
1579.756	113.5
1582.989	114.12
1586.222	113.47
1589.454	113.95
1592.686	114.19
1595.918	114.16
1599.15	113.74
1602.381	114.17
1605.612	114.62
1608.843	114.54
1612.073	114.81
1615.303	115.16
1618.533	114.65
1621.762	115.49
1624.992	114.72
1628.221	114.09
1631.449	114.62
1634.678	114.83
1637.906	114.42
1641.134	114.47
1644.361	114.54
1647.588	114.88
1650.815	114.95
1654.042	114.77
1657.269	113.8
1660.495	114.2
1663.72	114.59
1666.946	114.56
1670.171	115.03
1673.396	115.66
1676.621	116.2
1679.845	116.34
1683.069	116.05
1686.293	115.55
1689.517	116.35
1692.74	117.25
1695.963	117.1
1699.185	117.56
1702.408	117.07
1705.63	117.14
1708.852	117.69
1712.073	117.12
1715.294	117.02
1718.515	116.93
1721.736	117.41
1724.956	117.53
1728.176	117.45
1731.396	118.02
1734.616	117.93
1737.835	118.5
1741.054	118.14
1744.272	117.84
1747.491	118.55
1750.709	119.16
1753.927	119.56
1757.144	119.69
1760.361	119.95
1763.578	120.54
1766.795	120.42
1770.011	120.89
1773.227	121.21
1776.443	122.42
1779.658	122.09
1782.874	121.95
1786.089	122.09
1789.303	122.46
1792.518	123.42
1795.732	123.83
1798.945	124.76
1802.159	125.36
1805.372	126.53
1808.585	127.12
1811.797	128.01
1815.01	128.8
1818.222	130.17
1821.434	130.69
1824.645	131.72
1827.856	133.32
1831.067	133.86
1834.278	134.91
1837.488	135.63
1840.698	136.29
1843.908	136.74
1847.117	137.59
1850.326	139.37
1853.535	139.52
1856.744	140.74
1859.952	141.9
1863.16	141.47
1866.368	140.09
1869.575	140.64
1872.782	140.42
1875.989	138.62
1879.196	137.79
1882.402	136.15
1885.608	135.25
1888.814	134.6
1892.019	135.14
1895.224	132.12
1898.429	132.48
1901.634	133.37
1904.838	132.87
1908.042	132.98
1911.246	133.47
1914.449	133.78
1917.652	133.52
1920.855	134.34
1924.058	132.87
1927.26	132.01
1930.462	133.81
1933.664	133.1
1936.865	134.43
1940.066	132.22
1943.267	129.86
1946.467	131.84
1949.668	131.8
1952.868	132.4
1956.067	131.81
1959.267	131.7
1962.466	132.16
1965.665	133.89
1968.863	133.78
1972.061	134.71
1975.259	137.78
1978.457	141.64
1981.654	140.66
1984.852	142.03
1988.048	143.82
1991.245	146.16
1994.441	150.65
1997.637	153.27
2000.833	154.55
2004.028	157.49
2007.223	161.32
2010.418	164.45
2013.613	169.79
2016.807	175.34
2020.001	178.86
2023.194	183.45
2026.388	189.05
2029.581	198.61
2032.774	206.04
2035.966	211.61
2039.158	217.68
2042.35	220.54
2045.542	225.03
2048.733	235.99
2051.924	237.55
2055.115	242.23
2058.306	244.68
2061.496	250.37
2064.686	248.49
2067.875	245.41
2071.065	247.18
2074.254	248.02
2077.442	254.4
2080.631	257.76
2083.819	255.56
2087.007	263.78
2090.195	265.77
2093.382	266.3
2096.569	266.85
2099.756	271.94
2102.942	278.69
2106.128	286.52
2109.314	287.05
2112.5	287.79
2115.685	286.23
2118.87	286.8
2122.055	284.47
2125.239	291.66
2128.424	300.24
2131.608	296.61
2134.791	299.2
2137.974	299.33
2141.157	300.31
2144.34	304.74
2147.523	311.85
2150.705	318.72
2153.887	316.59
2157.068	320.89
2160.25	323.14
2163.431	321.79
2166.611	329.18
2169.792	331.73
2172.972	337.08
2176.152	336.37
2179.331	343.48
2182.511	341.7
2185.69	344.7
2188.868	357.05
2192.047	366.51
2195.225	370.44
2198.403	377.26
2201.58	370.63
2204.758	386.26
2207.935	388.52
2211.111	398.99
2214.288	400.97
2217.464	405.77
2220.64	409.02
2223.815	411.41
2226.991	404.62
2230.166	408.65
2233.34	417.49
2236.515	432.99
2239.689	424.96
2242.863	431.88
2246.036	428.05
2249.209	440.2
2252.382	436.27
2255.555	451.77
2258.727	452.74
2261.9	473.26
2265.071	478.79
2268.243	471.27
2271.414	484.45
2274.585	495.61
2277.756	493.62
2280.926	515.18
2284.096	514.43
2287.266	522.17
2290.436	511.97
2293.605	523.64
2296.774	536.24
2299.942	536.54
2303.111	555.38
2306.279	564.12
2309.447	563.35
2312.614	566.06
2315.781	577.3
2318.948	580.14
2322.115	589.41
2325.281	619.85
2328.447	613.14
2331.613	617.45
2334.779	624.19
2337.944	640.27
2341.109	649.31
2344.274	657.87
2347.438	677.26
2350.602	684.78
2353.766	734.97
2356.929	736.13
2360.092	741.82
2363.255	749.67
2366.418	754.79
2369.58	770.57
2372.742	765.18
2375.904	763.49
2379.066	785.25
2382.227	833.28
2385.388	832.05
2388.548	782.35
2391.709	778.96
2394.869	804.27
2398.029	802.53
2401.188	807.5
2404.347	832.92
2407.506	856.96
2410.665	823.66
2413.823	830.3
2416.981	824.8
2420.139	786.19
2423.296	847.73
2426.453	906.58
2429.61	862.15
2432.767	926.62
2435.923	950.14
2439.079	927.76
2442.235	951.49
2445.391	975.88
2448.546	962.25
2451.701	1015.5
2454.855	1085.77
2458.009	959.94
2461.163	972.23
2464.317	991.33
2467.471	964.79
2470.624	1001.94
2473.777	972.72
2476.929	936.02
2480.082	1002.02
2483.234	1052.22
2486.385	1076.67
2489.537	1098.71
2492.688	1222.62
2495.839	1193.98
2498.989	1225.9
2502.14	1235.55
2505.29	1174.99
2508.439	1317.25
2511.589	1353.53
2514.738	1306.96
2517.887	1292.3
2521.035	1203.42
2524.183	1189.26
2527.331	1171.4
2530.479	1148.12
2533.627	1175.08
