Data from N_3_hir_wi_4n_Splice17_17.txt Node
Date: Sat Feb 29 14:54:34 EST 2020
User: sa697716
Spectrometer: FLMS03696
Trigger mode: 0
Integration Time (sec): 3.180400E-1
Scans to average: 20
Electric dark correction enabled: true
Nonlinearity correction enabled: true
Boxcar width: 5
XAxis mode: Wavelengths
Number of Pixels in Spectrum: 2048
>>>>>Begin Spectral Data<<<<<
187.83	29.16
188.298	26.18
188.766	39.13
189.233	42.8
189.701	43.34
190.169	47.54
190.636	61.79
191.104	52.03
191.571	262.15
192.039	213.68
192.506	-140.39
192.974	1954.64
193.441	27.73
193.908	104.8
194.375	237.29
194.842	211.05
195.31	125.05
195.777	175.11
196.244	65.76
196.711	53.37
197.177	49.4
197.644	48.69
198.111	49.03
198.578	49.51
199.045	49.53
199.511	48.99
199.978	49.51
200.445	49.47
200.911	49.55
201.378	49.75
201.844	50.57
202.31	51.06
202.777	51.19
203.243	51.52
203.709	51.81
204.176	51.22
204.642	51.22
205.108	50.66
205.574	51.37
206.04	51.05
206.506	50.96
206.972	50.12
207.438	49.92
207.903	49.88
208.369	48.68
208.835	48.01
209.301	47.98
209.766	47.18
210.232	46.93
210.697	45.38
211.163	44.46
211.628	43.29
212.094	42.87
212.559	41.62
213.024	40.66
213.49	40.26
213.955	39.28
214.42	38.03
214.885	37.18
215.35	35.78
215.815	34.34
216.28	32.45
216.745	30.53
217.21	28.32
217.675	26.54
218.14	24.48
218.604	22.74
219.069	21.42
219.534	20.24
219.998	19.18
220.463	18.33
220.927	17.56
221.392	16.91
221.856	16.33
222.32	15.84
222.785	15.39
223.249	15.03
223.713	14.67
224.177	14.35
224.642	14.04
225.106	13.73
225.57	13.42
226.034	13.17
226.497	12.92
226.961	12.69
227.425	12.46
227.889	12.27
228.353	12.08
228.816	11.87
229.28	11.63
229.744	11.45
230.207	11.28
230.671	11.12
231.134	10.94
231.597	10.8
232.061	10.64
232.524	10.49
232.987	10.33
233.45	10.18
233.914	10.07
234.377	9.95
234.84	9.83
235.303	9.74
235.766	9.62
236.229	9.53
236.691	9.44
237.154	9.35
237.617	9.27
238.08	9.17
238.542	9.07
239.005	8.98
239.468	8.87
239.93	8.8
240.393	8.71
240.855	8.62
241.317	8.54
241.78	8.46
242.242	8.36
242.704	8.28
243.166	8.21
243.629	8.15
244.091	8.08
244.553	8.03
245.015	7.96
245.477	7.88
245.939	7.81
246.4	7.73
246.862	7.66
247.324	7.61
247.786	7.53
248.247	7.46
248.709	7.39
249.17	7.34
249.632	7.28
250.093	7.2
250.555	7.15
251.016	7.11
251.477	7.06
251.939	7
252.4	6.95
252.861	6.91
253.322	6.86
253.783	6.82
254.244	6.76
254.705	6.71
255.166	6.69
255.627	6.65
256.088	6.59
256.549	6.56
257.009	6.53
257.47	6.49
257.931	6.45
258.391	6.41
258.852	6.36
259.312	6.33
259.773	6.29
260.233	6.24
260.694	6.2
261.154	6.16
261.614	6.12
262.074	6.08
262.534	6.03
262.994	5.99
263.455	5.96
263.915	5.94
264.374	5.9
264.834	5.86
265.294	5.83
265.754	5.8
266.214	5.78
266.673	5.74
267.133	5.71
267.593	5.69
268.052	5.67
268.512	5.64
268.971	5.62
269.431	5.6
269.89	5.58
270.349	5.56
270.809	5.54
271.268	5.53
271.727	5.52
272.186	5.51
272.645	5.49
273.104	5.47
273.563	5.46
274.022	5.44
274.481	5.42
274.94	5.4
275.399	5.39
275.857	5.37
276.316	5.35
276.775	5.33
277.233	5.31
277.692	5.3
278.15	5.28
278.609	5.27
279.067	5.25
279.525	5.23
279.984	5.22
280.442	5.2
280.9	5.18
281.358	5.16
281.816	5.14
282.274	5.11
282.732	5.1
283.19	5.09
283.648	5.08
284.106	5.06
284.564	5.07
285.021	5.06
285.479	5.06
285.937	5.05
286.394	5.04
286.852	5.04
287.309	5.04
287.767	5.03
288.224	5.01
288.682	4.99
289.139	4.98
289.596	4.95
290.053	4.92
290.511	4.89
290.968	4.87
291.425	4.85
291.882	4.83
292.339	4.81
292.796	4.79
293.252	4.77
293.709	4.75
294.166	4.73
294.623	4.71
295.079	4.7
295.536	4.69
295.992	4.68
296.449	4.66
296.905	4.64
297.362	4.62
297.818	4.61
298.274	4.6
298.731	4.58
299.187	4.58
299.643	4.56
300.099	4.56
300.555	4.54
301.011	4.53
301.467	4.52
301.923	4.51
302.379	4.5
302.835	4.5
303.291	4.49
303.746	4.49
304.202	4.47
304.658	4.46
305.113	4.46
305.569	4.45
306.024	4.45
306.479	4.45
306.935	4.44
307.39	4.44
307.845	4.43
308.301	4.44
308.756	4.43
309.211	4.44
309.666	4.43
310.121	4.43
310.576	4.43
311.031	4.42
311.486	4.42
311.94	4.42
312.395	4.41
312.85	4.41
313.305	4.4
313.759	4.4
314.214	4.4
314.668	4.39
315.123	4.39
315.577	4.38
316.032	4.39
316.486	4.38
316.94	4.37
317.394	4.36
317.849	4.35
318.303	4.34
318.757	4.33
319.211	4.31
319.665	4.3
320.119	4.29
320.572	4.29
321.026	4.26
321.48	4.25
321.934	4.26
322.387	4.25
322.841	4.23
323.295	4.23
323.748	4.23
324.202	4.22
324.655	4.21
325.108	4.2
325.562	4.18
326.015	4.18
326.468	4.16
326.921	4.15
327.374	4.14
327.827	4.13
328.28	4.12
328.733	4.1
329.186	4.1
329.639	4.09
330.092	4.09
330.545	4.09
330.997	4.1
331.45	4.09
331.903	4.08
332.355	4.08
332.808	4.09
333.26	4.1
333.713	4.11
334.165	4.11
334.617	4.12
335.069	4.12
335.522	4.12
335.974	4.12
336.426	4.13
336.878	4.14
337.33	4.14
337.782	4.14
338.234	4.13
338.686	4.12
339.137	4.13
339.589	4.12
340.041	4.12
340.493	4.1
340.944	4.08
341.396	4.07
341.847	4.06
342.299	4.04
342.75	4.02
343.201	4
343.653	3.99
344.104	3.97
344.555	3.95
345.006	3.93
345.457	3.91
345.908	3.91
346.359	3.91
346.81	3.91
347.261	3.91
347.712	3.91
348.163	3.91
348.613	3.9
349.064	3.89
349.515	3.89
349.965	3.89
350.416	3.89
350.866	3.88
351.317	3.87
351.767	3.86
352.217	3.86
352.668	3.85
353.118	3.85
353.568	3.86
354.018	3.88
354.468	3.88
354.918	3.88
355.368	3.89
355.818	3.9
356.268	3.9
356.718	3.92
357.168	3.91
357.617	3.93
358.067	3.94
358.517	3.94
358.966	3.94
359.416	3.96
359.865	3.96
360.315	3.96
360.764	3.98
361.213	3.99
361.663	3.99
362.112	4.01
362.561	4.03
363.01	4.03
363.459	4.04
363.908	4.05
364.357	4.06
364.806	4.07
365.255	4.1
365.703	4.11
366.152	4.13
366.601	4.15
367.05	4.18
367.498	4.2
367.947	4.21
368.395	4.23
368.844	4.26
369.292	4.29
369.74	4.32
370.189	4.34
370.637	4.37
371.085	4.4
371.533	4.42
371.981	4.45
372.429	4.46
372.877	4.5
373.325	4.53
373.773	4.56
374.221	4.6
374.669	4.62
375.116	4.65
375.564	4.69
376.012	4.72
376.459	4.76
376.907	4.81
377.354	4.84
377.801	4.88
378.249	4.93
378.696	4.97
379.143	5.01
379.591	5.05
380.038	5.1
380.485	5.14
380.932	5.17
381.379	5.2
381.826	5.24
382.273	5.28
382.72	5.32
383.166	5.35
383.613	5.38
384.06	5.42
384.506	5.45
384.953	5.48
385.4	5.51
385.846	5.54
386.292	5.57
386.739	5.61
387.185	5.65
387.631	5.68
388.078	5.72
388.524	5.73
388.97	5.75
389.416	5.77
389.862	5.79
390.308	5.81
390.754	5.83
391.2	5.86
391.645	5.88
392.091	5.9
392.537	5.92
392.983	5.94
393.428	5.96
393.874	5.99
394.319	6.02
394.765	6.04
395.21	6.06
395.655	6.08
396.101	6.08
396.546	6.09
396.991	6.1
397.436	6.09
397.881	6.11
398.326	6.13
398.771	6.15
399.216	6.16
399.661	6.19
400.106	6.22
400.551	6.22
400.995	6.22
401.44	6.2
401.885	6.2
402.329	6.21
402.774	6.2
403.218	6.2
403.663	6.19
404.107	6.2
404.551	6.2
404.995	6.18
405.44	6.18
405.884	6.19
406.328	6.21
406.772	6.23
407.216	6.25
407.66	6.26
408.104	6.27
408.547	6.27
408.991	6.25
409.435	6.24
409.879	6.24
410.322	6.24
410.766	6.25
411.209	6.25
411.653	6.24
412.096	6.23
412.54	6.23
412.983	6.23
413.426	6.23
413.869	6.25
414.312	6.29
414.756	6.29
415.199	6.32
415.642	6.33
416.085	6.37
416.527	6.38
416.97	6.39
417.413	6.38
417.856	6.38
418.298	6.36
418.741	6.35
419.184	6.33
419.626	6.34
420.069	6.34
420.511	6.33
420.953	6.32
421.396	6.31
421.838	6.32
422.28	6.35
422.722	6.38
423.164	6.4
423.606	6.42
424.048	6.42
424.49	6.42
424.932	6.43
425.374	6.44
425.816	6.42
426.258	6.41
426.699	6.38
427.141	6.35
427.582	6.34
428.024	6.34
428.465	6.35
428.907	6.38
429.348	6.37
429.789	6.37
430.231	6.36
430.672	6.37
431.113	6.4
431.554	6.44
431.995	6.47
432.436	6.47
432.877	6.47
433.318	6.47
433.759	6.46
434.2	6.48
434.64	6.48
435.081	6.48
435.522	6.5
435.962	6.52
436.403	6.55
436.843	6.58
437.284	6.61
437.724	6.64
438.164	6.67
438.604	6.69
439.045	6.69
439.485	6.71
439.925	6.72
440.365	6.73
440.805	6.75
441.245	6.74
441.685	6.74
442.125	6.75
442.564	6.77
443.004	6.8
443.444	6.81
443.883	6.83
444.323	6.85
444.762	6.89
445.202	6.95
445.641	6.97
446.081	7
446.52	7.01
446.959	7.05
447.398	7.11
447.837	7.13
448.276	7.15
448.716	7.18
449.154	7.23
449.593	7.25
450.032	7.27
450.471	7.29
450.91	7.3
451.349	7.32
451.787	7.31
452.226	7.28
452.664	7.25
453.103	7.25
453.541	7.26
453.98	7.24
454.418	7.22
454.856	7.17
455.295	7.15
455.733	7.15
456.171	7.15
456.609	7.15
457.047	7.14
457.485	7.15
457.923	7.16
458.361	7.15
458.798	7.16
459.236	7.16
459.674	7.17
460.111	7.18
460.549	7.16
460.987	7.16
461.424	7.15
461.862	7.14
462.299	7.12
462.736	7.11
463.173	7.09
463.611	7.07
464.048	7.07
464.485	7.05
464.922	7.02
465.359	7.04
465.796	7.03
466.233	7.03
466.67	7.04
467.106	7.05
467.543	7.05
467.98	7.07
468.416	7.08
468.853	7.09
469.29	7.11
469.726	7.14
470.162	7.14
470.599	7.15
471.035	7.16
471.471	7.15
471.907	7.16
472.344	7.17
472.78	7.17
473.216	7.18
473.652	7.18
474.088	7.19
474.523	7.19
474.959	7.18
475.395	7.18
475.831	7.17
476.266	7.18
476.702	7.19
477.138	7.19
477.573	7.18
478.008	7.16
478.444	7.14
478.879	7.13
479.314	7.12
479.75	7.13
480.185	7.11
480.62	7.11
481.055	7.1
481.49	7.07
481.925	7.05
482.36	7.04
482.795	7.03
483.229	7.04
483.664	7.03
484.099	7.03
484.534	7.02
484.968	7.04
485.403	7.04
485.837	7.04
486.271	7.04
486.706	7.04
487.14	7.06
487.574	7.07
488.009	7.08
488.443	7.1
488.877	7.13
489.311	7.13
489.745	7.14
490.179	7.16
490.613	7.19
491.046	7.23
491.48	7.27
491.914	7.3
492.348	7.34
492.781	7.36
493.215	7.39
493.648	7.43
494.082	7.49
494.515	7.54
494.948	7.59
495.382	7.63
495.815	7.69
496.248	7.75
496.681	7.81
497.114	7.87
497.547	7.95
497.98	8.03
498.413	8.09
498.846	8.17
499.279	8.25
499.711	8.33
500.144	8.41
500.577	8.5
501.009	8.58
501.442	8.69
501.874	8.78
502.306	8.89
502.739	8.99
503.171	9.11
503.603	9.24
504.036	9.37
504.468	9.52
504.9	9.67
505.332	9.81
505.764	9.98
506.196	10.14
506.627	10.29
507.059	10.47
507.491	10.65
507.923	10.81
508.354	10.98
508.786	11.15
509.217	11.33
509.649	11.53
510.08	11.73
510.512	11.93
510.943	12.13
511.374	12.36
511.805	12.55
512.237	12.78
512.668	13.01
513.099	13.24
513.53	13.48
513.961	13.72
514.391	13.94
514.822	14.17
515.253	14.41
515.684	14.64
516.114	14.88
516.545	15.13
516.975	15.37
517.406	15.61
517.836	15.85
518.267	16.08
518.697	16.33
519.127	16.57
519.558	16.81
519.988	17.05
520.418	17.28
520.848	17.51
521.278	17.73
521.708	17.78
522.138	17.97
522.567	18.16
522.997	18.37
523.427	18.56
523.857	18.74
524.286	18.91
524.716	19.09
525.145	19.26
525.575	19.44
526.004	19.62
526.433	19.94
526.863	20.12
527.292	20.28
527.721	20.4
528.15	20.53
528.579	20.67
529.008	20.8
529.437	20.92
529.866	21.04
530.295	21.13
530.724	21.25
531.152	21.37
531.581	21.46
532.01	21.57
532.438	21.67
532.867	21.77
533.295	21.86
533.723	21.93
534.152	22
534.58	22.07
535.008	22.12
535.436	22.15
535.865	22.19
536.293	22.24
536.721	22.27
537.149	22.3
537.576	22.34
538.004	22.38
538.432	22.42
538.86	22.45
539.287	22.48
539.715	22.51
540.143	22.54
540.57	22.58
540.998	22.61
541.425	22.65
541.852	22.67
542.28	22.69
542.707	22.7
543.134	22.71
543.561	22.73
543.988	22.77
544.415	22.8
544.842	22.83
545.269	22.84
545.696	22.85
546.123	22.88
546.549	22.92
546.976	22.96
547.403	23
547.829	23.01
548.256	23.03
548.682	23.02
549.108	23.04
549.535	23.05
549.961	23.06
550.387	23.08
550.813	23.07
551.24	23.06
551.666	23.06
552.092	23.06
552.518	23.08
552.943	23.09
553.369	23.11
553.795	23.1
554.221	23.08
554.646	23.09
555.072	23.06
555.498	23.05
555.923	23.03
556.349	22.98
556.774	22.95
557.199	22.91
557.625	22.85
558.05	22.79
558.475	22.75
558.9	22.69
559.325	22.62
559.75	22.55
560.175	22.48
560.6	22.39
561.025	22.32
561.449	22.25
561.874	22.17
562.299	22.09
562.723	22.01
563.148	21.92
563.572	21.83
563.997	21.75
564.421	21.66
564.846	21.55
565.27	21.45
565.694	21.34
566.118	21.2
566.542	21.08
566.966	20.96
567.39	20.82
567.814	20.67
568.238	20.52
568.662	20.37
569.086	20.23
569.509	20.09
569.933	19.96
570.357	19.81
570.78	19.69
571.204	19.54
571.627	19.41
572.05	19.29
572.474	19.17
572.897	19.08
573.32	18.96
573.743	18.85
574.166	18.73
574.589	18.62
575.012	18.55
575.435	18.43
575.858	18.35
576.281	18.27
576.704	18.2
577.126	18.11
577.549	18.04
577.972	17.96
578.394	17.89
578.817	17.83
579.239	17.76
579.661	17.68
580.084	17.63
580.506	17.57
580.928	17.52
581.35	17.45
581.772	17.41
582.194	17.34
582.616	17.29
583.038	17.24
583.46	17.17
583.882	17.12
584.303	17.07
584.725	17.03
585.147	16.96
585.568	16.89
585.99	16.82
586.411	16.75
586.833	16.69
587.254	16.63
587.675	16.58
588.096	16.54
588.518	16.49
588.939	16.46
589.36	16.39
589.781	16.35
590.202	16.32
590.623	16.3
591.043	16.27
591.464	16.25
591.885	16.23
592.305	16.21
592.726	16.18
593.147	16.14
593.567	16.1
593.987	16.09
594.408	16.08
594.828	16.06
595.248	16.03
595.669	16.01
596.089	15.99
596.509	15.96
596.929	15.91
597.349	15.89
597.769	15.86
598.189	15.84
598.608	15.79
599.028	15.74
599.448	15.71
599.867	15.66
600.287	15.62
600.706	15.56
601.126	15.53
601.545	15.49
601.965	15.45
602.384	15.41
602.803	15.37
603.222	15.32
603.641	15.27
604.061	15.21
604.48	15.17
604.898	15.11
605.317	15.04
605.736	14.98
606.155	14.9
606.574	14.84
606.992	14.79
607.411	14.72
607.829	14.61
608.248	14.55
608.666	14.47
609.085	14.4
609.503	14.33
609.921	14.26
610.339	14.2
610.758	14.14
611.176	14.07
611.594	14
612.012	13.91
612.43	13.89
612.847	13.84
613.265	13.78
613.683	13.72
614.101	13.67
614.518	13.61
614.936	13.54
615.353	13.49
615.771	13.43
616.188	13.38
616.606	13.34
617.023	13.28
617.44	13.22
617.857	13.17
618.274	13.12
618.691	13.08
619.108	13.04
619.525	13.01
619.942	12.98
620.359	12.94
620.776	12.9
621.192	12.87
621.609	12.85
622.026	12.84
622.442	12.81
622.859	12.78
623.275	12.79
623.691	12.78
624.108	12.77
624.524	12.74
624.94	12.73
625.356	12.72
625.772	12.71
626.188	12.7
626.604	12.68
627.02	12.69
627.436	12.69
627.852	12.66
628.268	12.64
628.683	12.62
629.099	12.62
629.514	12.6
629.93	12.58
630.345	12.55
630.761	12.51
631.176	12.5
631.591	12.44
632.007	12.39
632.422	12.35
632.837	12.31
633.252	12.26
633.667	12.18
634.082	12.13
634.497	12.07
634.911	12
635.326	11.94
635.741	11.85
636.155	11.78
636.57	11.7
636.984	11.6
637.399	11.49
637.813	11.4
638.228	11.3
638.642	11.2
639.056	11.09
639.47	10.99
639.884	10.88
640.298	10.78
640.712	10.67
641.126	10.55
641.54	10.44
641.954	10.37
642.368	10.25
642.781	10.16
643.195	10.05
643.609	9.95
644.022	9.86
644.436	9.78
644.849	9.69
645.262	9.6
645.676	9.52
646.089	9.45
646.502	9.36
646.915	9.3
647.328	9.25
647.741	9.18
648.154	9.14
648.567	9.09
648.98	9.04
649.393	9
649.805	8.95
650.218	8.93
650.631	8.89
651.043	8.86
651.456	8.82
651.868	8.79
652.28	8.76
652.693	8.71
653.105	8.66
653.517	8.62
653.929	8.57
654.341	8.55
654.753	8.5
655.165	8.45
655.577	8.39
655.989	8.33
656.401	8.26
656.813	8.19
657.224	8.14
657.636	8.1
658.047	8.03
658.459	7.95
658.87	7.86
659.282	7.79
659.693	7.71
660.104	7.64
660.515	7.57
660.926	7.51
661.338	7.44
661.749	7.36
662.159	7.27
662.57	7.21
662.981	7.16
663.392	7.1
663.803	7.03
664.213	6.97
664.624	6.93
665.035	6.87
665.445	6.82
665.855	6.79
666.266	6.75
666.676	6.72
667.086	6.68
667.497	6.64
667.907	6.6
668.317	6.57
668.727	6.55
669.137	6.52
669.547	6.51
669.956	6.48
670.366	6.48
670.776	6.47
671.186	6.48
671.595	6.49
672.005	6.5
672.414	6.52
672.824	6.55
673.233	6.57
673.642	6.57
674.052	6.58
674.461	6.61
674.87	6.62
675.279	6.64
675.688	6.64
676.097	6.66
676.506	6.67
676.915	6.69
677.323	6.71
677.732	6.74
678.141	6.79
678.549	6.85
678.958	6.91
679.366	6.96
679.775	7.02
680.183	7.09
680.592	7.17
681	7.25
681.408	7.34
681.816	7.43
682.224	7.54
682.632	7.67
683.04	7.78
683.448	7.9
683.856	8.04
684.264	8.22
684.671	8.43
685.079	8.63
685.487	8.87
685.894	9.13
686.302	9.39
686.709	9.67
687.116	9.97
687.524	10.3
687.931	10.65
688.338	11.02
688.745	11.4
689.152	11.78
689.559	12.18
689.966	12.6
690.373	13.05
690.78	13.52
691.187	13.99
691.593	14.46
692	14.94
692.407	15.44
692.813	15.93
693.22	16.44
693.626	16.96
694.032	17.48
694.439	18.01
694.845	18.51
695.251	18.99
695.657	19.48
696.063	19.98
696.469	20.47
696.875	20.95
697.281	21.42
697.687	21.89
698.093	22.32
698.498	22.76
698.904	23.21
699.31	23.63
699.715	24.07
700.12	24.49
700.526	24.92
700.931	25.32
701.337	25.73
701.742	26.12
702.147	26.5
702.552	26.9
702.957	27.27
703.362	27.61
703.767	27.96
704.172	28.31
704.577	28.64
704.981	28.97
705.386	29.31
705.791	29.61
706.195	29.93
706.6	30.22
707.004	30.51
707.408	30.79
707.813	31.09
708.217	31.36
708.621	31.63
709.025	31.91
709.43	32.13
709.834	32.39
710.237	32.63
710.641	32.86
711.045	33.09
711.449	33.31
711.853	33.55
712.256	33.79
712.66	34.02
713.064	34.22
713.467	34.41
713.87	34.66
714.274	34.88
714.677	35.09
715.08	35.27
715.484	35.5
715.887	35.7
716.29	35.9
716.693	36.06
717.096	36.23
717.499	36.43
717.901	36.6
718.304	36.73
718.707	36.89
719.109	37.06
719.512	37.23
719.915	37.36
720.317	37.52
720.719	37.66
721.122	37.8
721.524	37.97
721.926	38.1
722.328	38.24
722.731	38.38
723.133	38.49
723.535	38.63
723.937	38.74
724.338	38.88
724.74	38.98
725.142	39
725.544	39.1
725.945	39.17
726.347	39.27
726.748	39.35
727.15	39.46
727.551	39.57
727.952	39.65
728.354	39.76
728.755	39.81
729.156	39.9
729.557	40.09
729.958	40.2
730.359	40.3
730.76	40.34
731.161	40.42
731.562	40.47
731.962	40.51
732.363	40.55
732.763	40.6
733.164	40.68
733.564	40.74
733.965	40.73
734.365	40.73
734.766	40.77
735.166	40.8
735.566	40.85
735.966	40.87
736.366	40.9
736.766	40.91
737.166	40.91
737.566	40.9
737.966	40.92
738.365	41
738.765	41.05
739.165	41.05
739.564	41.08
739.964	41.08
740.363	41.12
740.763	41.16
741.162	41.21
741.561	41.25
741.96	41.31
742.36	41.34
742.759	41.29
743.158	41.3
743.557	41.34
743.955	41.4
744.354	41.45
744.753	41.48
745.152	41.47
745.55	41.5
745.949	41.51
746.348	41.51
746.746	41.52
747.144	41.61
747.543	41.64
747.941	41.66
748.339	41.66
748.737	41.68
749.136	41.68
749.534	41.74
749.932	41.74
750.33	41.76
750.727	41.8
751.125	41.8
751.523	41.75
751.921	41.75
752.318	41.71
752.716	41.7
753.113	41.7
753.511	41.66
753.908	41.63
754.305	41.6
754.703	41.58
755.1	41.52
755.497	41.51
755.894	41.49
756.291	41.47
756.688	41.47
757.085	41.42
757.482	41.4
757.878	41.4
758.275	41.39
758.672	41.37
759.068	41.34
759.465	41.36
759.861	41.36
760.258	41.35
760.654	41.34
761.05	41.35
761.447	41.36
761.843	41.35
762.239	41.34
762.635	41.33
763.031	41.34
763.427	41.36
763.822	41.34
764.218	41.34
764.614	41.37
765.01	41.37
765.405	41.35
765.801	41.37
766.196	41.39
766.592	41.4
766.987	41.4
767.382	41.4
767.778	41.41
768.173	41.41
768.568	41.37
768.963	41.35
769.358	41.39
769.753	41.4
770.148	41.38
770.542	41.34
770.937	41.36
771.332	41.37
771.726	41.37
772.121	41.36
772.515	41.37
772.91	41.37
773.304	41.37
773.699	41.34
774.093	41.33
774.487	41.34
774.881	41.37
775.275	41.32
775.669	41.33
776.063	41.3
776.457	41.29
776.851	41.31
777.245	41.33
777.638	41.33
778.032	41.35
778.425	41.35
778.819	41.36
779.212	41.35
779.606	41.36
779.999	41.36
780.392	41.39
780.786	41.44
781.179	41.44
781.572	41.44
781.965	41.44
782.358	41.43
782.751	41.46
783.143	41.51
783.536	41.51
783.929	41.52
784.322	41.53
784.714	41.54
785.107	41.51
785.499	41.51
785.891	41.5
786.284	41.5
786.676	41.52
787.068	41.51
787.46	41.48
787.852	41.47
788.245	41.49
788.636	41.48
789.028	41.47
789.42	41.48
789.812	41.49
790.204	41.47
790.595	41.47
790.987	41.45
791.378	41.44
791.77	41.49
792.161	41.5
792.553	41.47
792.944	41.49
793.335	41.5
793.726	41.49
794.117	41.49
794.508	41.54
794.899	41.57
795.29	41.56
795.681	41.55
796.072	41.51
796.463	41.46
796.853	41.48
797.244	41.48
797.634	41.48
798.025	41.49
798.415	41.48
798.806	41.47
799.196	41.48
799.586	41.53
799.976	41.56
800.366	41.58
800.756	41.62
801.146	41.65
801.536	41.64
801.926	41.64
802.316	41.66
802.706	41.68
803.095	41.69
803.485	41.72
803.874	41.71
804.264	41.73
804.653	41.74
805.043	41.75
805.432	41.74
805.821	41.75
806.21	41.8
806.599	41.82
806.988	41.86
807.377	41.87
807.766	41.86
808.155	41.87
808.544	41.84
808.933	41.86
809.321	41.86
809.71	41.92
810.098	41.92
810.487	41.89
810.875	41.86
811.264	41.85
811.652	41.84
812.04	41.85
812.428	41.84
812.816	41.84
813.204	41.83
813.592	41.83
813.98	41.8
814.368	41.84
814.756	41.85
815.144	41.89
815.531	41.87
815.919	41.9
816.306	41.9
816.694	41.92
817.081	41.94
817.469	41.95
817.856	41.99
818.243	42.02
818.63	42.04
819.017	42.07
819.404	42.05
819.791	42.08
820.178	42.05
820.565	42.07
820.952	42.05
821.339	42.07
821.725	42.09
822.112	42.07
822.498	42.05
822.885	42.01
823.271	42.03
823.657	42.03
824.044	42.01
824.43	42.04
824.816	42
825.202	41.99
825.588	41.99
825.974	41.97
826.36	41.95
826.746	41.96
827.132	41.93
827.517	41.9
827.903	41.9
828.289	41.92
828.674	41.88
829.06	41.89
829.445	41.92
829.83	41.89
830.216	41.9
830.601	41.91
830.986	41.91
831.371	41.93
831.756	41.89
832.141	41.88
832.526	41.84
832.911	41.88
833.295	41.84
833.68	41.82
834.065	41.82
834.449	41.8
834.834	41.76
835.218	41.74
835.603	41.72
835.987	41.72
836.371	41.72
836.755	41.72
837.139	41.68
837.524	41.69
837.908	41.67
838.291	41.67
838.675	41.67
839.059	41.69
839.443	41.7
839.827	41.69
840.21	41.71
840.594	41.71
840.977	41.71
841.361	41.7
841.744	41.71
842.127	41.72
842.511	41.7
842.894	41.66
843.277	41.66
843.66	41.65
844.043	41.63
844.426	41.59
844.809	41.57
845.191	41.57
845.574	41.56
845.957	41.52
846.339	41.47
846.722	41.48
847.104	41.5
847.487	41.48
847.869	41.44
848.252	41.44
848.634	41.49
849.016	41.48
849.398	41.47
849.78	41.46
850.162	41.49
850.544	41.53
850.926	41.51
851.307	41.53
851.689	41.51
852.071	41.54
852.452	41.54
852.834	41.51
853.215	41.52
853.597	41.52
853.978	41.52
854.359	41.5
854.741	41.48
855.122	41.47
855.503	41.46
855.884	41.47
856.265	41.47
856.646	41.49
857.026	41.5
857.407	41.45
857.788	41.45
858.169	41.45
858.549	41.48
858.93	41.48
859.31	41.49
859.69	41.49
860.071	41.52
860.451	41.52
860.831	41.49
861.211	41.48
861.591	41.53
861.971	41.51
862.351	41.55
862.731	41.53
863.111	41.54
863.491	41.55
863.87	41.54
864.25	41.54
864.629	41.51
865.009	41.53
865.388	41.51
865.768	41.51
866.147	41.55
866.526	41.53
866.905	41.53
867.284	41.52
867.663	41.52
868.042	41.52
868.421	41.5
868.8	41.53
869.179	41.54
869.558	41.52
869.936	41.51
870.315	41.47
870.693	41.48
871.072	41.48
871.45	41.5
871.828	41.48
872.207	41.48
872.585	41.49
872.963	41.47
873.341	41.44
873.719	41.46
874.097	41.45
874.475	41.48
874.853	41.46
875.23	41.46
875.608	41.45
875.986	41.45
876.363	41.46
876.741	41.43
877.118	41.41
877.495	41.44
877.873	41.44
878.25	41.46
878.627	41.43
879.004	41.45
879.381	41.44
879.758	41.43
880.135	41.43
880.512	41.43
880.889	41.46
881.265	41.5
881.642	41.49
882.019	41.49
882.395	41.49
882.772	41.51
883.148	41.51
883.524	41.52
883.901	41.52
884.277	41.51
884.653	41.49
885.029	41.48
885.405	41.48
885.781	41.44
886.157	41.46
886.532	41.46
886.908	41.46
887.284	41.45
887.659	41.44
888.035	41.44
888.411	41.45
888.786	41.45
889.161	41.44
889.537	41.42
889.912	41.44
890.287	41.4
890.662	41.39
891.037	41.34
891.412	41.29
891.787	41.29
892.162	41.25
892.536	41.24
892.911	41.22
893.286	41.18
893.66	41.17
894.035	41.15
894.409	41.13
894.784	41.11
895.158	41.11
895.532	41.12
895.906	41.08
896.281	41.08
896.655	41.06
897.029	41.03
897.402	41.03
897.776	41.03
898.15	40.99
898.524	40.99
898.898	40.98
899.271	40.97
899.645	40.99
900.018	41.01
900.392	40.99
900.765	41
901.138	41.02
901.511	41.03
901.884	41.03
902.258	41.06
902.631	41.08
903.003	41.07
903.376	41.07
903.749	41.06
904.122	41.09
904.495	41.1
904.867	41.15
905.24	41.18
905.612	41.16
905.985	41.14
906.357	41.13
906.729	41.14
907.102	41.16
907.474	41.19
907.846	41.16
908.218	41.16
908.59	41.16
908.962	41.14
909.334	41.13
909.705	41.17
910.077	41.15
910.449	41.18
910.82	41.16
911.192	41.17
911.563	41.16
911.935	41.16
912.306	41.14
912.677	41.16
913.048	41.13
913.419	41.11
913.79	41.09
914.161	41.13
914.532	41.12
914.903	41.09
915.274	41.06
915.645	41.08
916.015	41.13
916.386	41.18
916.756	41.14
917.127	41.16
917.497	41.18
917.868	41.19
918.238	41.22
918.608	41.25
918.978	41.29
919.348	41.27
919.718	41.25
920.088	41.23
920.458	41.23
920.828	41.26
921.198	41.27
921.567	41.25
921.937	41.26
922.306	41.24
922.676	41.25
923.045	41.21
923.415	41.26
923.784	41.3
924.153	41.3
924.522	41.3
924.891	41.29
925.26	41.3
925.629	41.33
925.998	41.35
926.367	41.33
926.736	41.28
927.104	41.32
927.473	41.31
927.842	41.27
928.21	41.27
928.578	41.25
928.947	41.23
929.315	41.2
929.683	41.2
930.051	41.14
930.42	41.12
930.788	41.13
931.156	41.12
931.523	41.07
931.891	41.02
932.259	40.96
932.627	40.89
932.994	40.92
933.362	40.88
933.729	40.79
934.097	40.73
934.464	40.69
934.831	40.63
935.199	40.61
935.566	40.59
935.933	40.69
936.3	40.68
936.667	40.68
937.034	40.59
937.401	40.57
937.767	40.59
938.134	40.62
938.501	40.61
938.867	40.65
939.234	40.69
939.6	40.67
939.967	40.61
940.333	40.71
940.699	40.79
941.065	40.9
941.431	40.98
941.798	41.03
942.163	41.18
942.529	41.32
942.895	41.46
943.261	41.45
943.627	41.65
943.992	41.68
944.358	41.69
944.723	41.77
945.089	41.81
945.454	41.89
945.82	41.91
946.185	41.9
946.55	41.87
946.915	41.78
947.28	41.81
947.645	41.78
948.01	41.78
948.375	41.86
948.74	41.77
949.104	41.76
949.469	41.64
949.834	41.55
950.198	41.49
950.562	41.51
950.927	41.53
951.291	41.55
951.655	41.52
952.02	41.45
952.384	41.41
952.748	41.35
953.112	41.32
953.476	41.38
953.839	41.41
954.203	41.34
954.567	41.29
954.931	41.18
955.294	41.08
955.658	40.96
956.021	41
956.385	40.96
956.748	40.95
957.111	40.92
957.474	40.93
957.837	40.94
958.2	40.94
958.563	40.93
958.926	40.91
959.289	40.91
959.652	40.95
960.015	40.91
960.377	40.89
960.74	40.86
961.102	40.81
961.465	40.74
961.827	40.6
962.189	40.61
962.552	40.54
962.914	40.61
963.276	40.58
963.638	40.53
964	40.48
964.362	40.43
964.724	40.41
965.085	40.48
965.447	40.42
965.809	40.45
966.17	40.41
966.532	40.43
966.893	40.4
967.255	40.42
967.616	40.44
967.977	40.48
968.338	40.48
968.699	40.47
969.061	40.39
969.421	40.48
969.782	40.59
970.143	40.64
970.504	40.6
970.865	40.54
971.225	40.54
971.586	40.56
971.946	40.49
972.307	40.49
972.667	40.6
973.027	40.66
973.388	40.62
973.748	40.57
974.108	40.53
974.468	40.54
974.828	40.63
975.188	40.61
975.548	40.63
975.907	40.72
976.267	40.72
976.627	40.64
976.986	40.61
977.346	40.63
977.705	40.62
978.064	40.67
978.424	40.67
978.783	40.64
979.142	40.64
979.501	40.66
979.86	40.61
980.219	40.59
980.578	40.67
980.937	40.71
981.296	40.7
981.654	40.8
982.013	40.79
982.371	40.79
982.73	40.83
983.088	40.78
983.447	40.79
983.805	40.81
984.163	40.88
984.521	40.8
984.879	40.87
985.237	40.92
985.595	40.92
985.953	40.96
986.311	41.06
986.669	41.04
987.026	41.12
987.384	41.1
987.741	41.2
988.099	41.13
988.456	41.2
988.814	41.11
989.171	41.11
989.528	41.06
989.885	40.93
990.242	40.88
990.599	40.96
990.956	41.07
991.313	41.12
991.67	41
992.027	40.95
992.383	41.06
992.74	41.11
993.096	41.07
993.453	41.02
993.809	41.03
994.165	41.08
994.522	40.91
994.878	40.83
995.234	40.83
995.59	40.81
995.946	41
996.302	40.84
996.658	40.97
997.013	40.93
997.369	41.01
997.725	41.18
998.08	41.14
998.436	41.44
998.791	41.47
999.147	41.48
999.502	41.7
999.857	41.81
1000.212	41.9
1000.567	41.74
1000.922	41.75
1001.277	41.76
1001.632	41.86
1001.987	42.01
1002.342	41.93
1002.696	41.92
1003.051	41.98
1003.406	41.87
1003.76	41.81
1004.114	41.88
1004.469	41.83
1004.823	41.93
1005.177	42.09
1005.531	42.04
1005.885	42.11
1006.239	42
1006.593	41.97
1006.947	41.92
1007.301	42.01
1007.655	42.13
1008.008	42.15
1008.362	42.3
1008.715	42.44
1009.069	42.29
1009.422	42.19
1009.776	42.11
1010.129	42.2
1010.482	42.4
1010.835	42.42
1011.188	42.41
1011.541	42.23
1011.894	42.32
1012.247	42.25
1012.6	42.33
1012.952	42.45
1013.305	42.64
1013.657	42.81
1014.01	42.98
1014.362	43.02
1014.715	42.91
1015.067	42.99
1015.419	43.13
1015.771	43.1
1016.123	43.21
1016.475	43.24
1016.827	43.4
1017.179	43.32
1017.531	43.06
1017.883	43.27
1018.234	43.17
1018.586	43.47
1018.938	43.35
1019.289	43.16
1019.64	43.29
1019.992	43.55
1020.343	43.37
1020.694	43.19
1021.045	43.27
1021.396	43.39
1021.747	43.25
1022.098	43.31
1022.449	43.25
1022.8	43.34
1023.151	43.65
1023.501	43.75
1023.852	43.89
1024.202	44.01
1024.553	44.05
1024.903	43.9
1025.253	44.04
1025.604	44
1025.954	44.07
1026.304	44.6
1026.654	44.76
1027.004	44.79
1027.354	44.7
1027.703	44.3
1028.053	44.41
1028.403	44.59
1028.753	45.35
1029.102	45.39
1029.452	45.3
1029.801	45.25
1030.15	44.94
1030.499	44.96
897.758	461.08
901.051	470.93
904.343	474.65
907.636	468.43
910.928	462.65
914.22	464.54
917.511	456.1
920.803	436.43
924.094	417.33
927.384	423.54
930.675	410.75
933.965	406.91
937.255	404.53
940.544	387.63
943.834	371.96
947.123	366.53
950.411	350.3
953.7	343.89
956.988	336.32
960.276	324.07
963.563	318.76
966.851	300.97
970.138	296.68
973.424	277.79
976.711	272.5
979.997	262.36
983.283	255.63
986.568	248.67
989.853	242.73
993.138	234.14
996.423	229.54
999.708	225.25
1002.992	226.13
1006.275	217.9
1009.559	216.96
1012.842	212.48
1016.125	206.72
1019.408	202.81
1022.69	200.94
1025.972	198.5
1029.254	194.17
1032.536	191.02
1035.817	184.53
1039.098	182.13
1042.379	178.85
1045.659	175.88
1048.939	173.62
1052.219	171.81
1055.498	169.7
1058.778	166.57
1062.057	163.36
1065.335	161.88
1068.614	158.85
1071.892	157.09
1075.17	154.78
1078.447	152.64
1081.724	151.71
1085.001	148.53
1088.278	147.78
1091.554	146.75
1094.83	146.29
1098.106	144.71
1101.382	144.26
1104.657	144.46
1107.932	143.39
1111.206	142.3
1114.481	141.86
1117.755	139.82
1121.029	139.92
1124.302	137.79
1127.575	135.41
1130.848	134.75
1134.121	133.44
1137.393	132.75
1140.665	131.9
1143.937	130.3
1147.208	129.1
1150.48	127.31
1153.75	127.2
1157.021	126.54
1160.291	125.9
1163.561	125.9
1166.831	125.36
1170.101	124.55
1173.37	124.14
1176.639	123.36
1179.907	123.63
1183.176	122.13
1186.444	122.65
1189.711	121.91
1192.979	121.63
1196.246	122.01
1199.513	122.14
1202.78	121.77
1206.046	121.65
1209.312	121.58
1212.578	121.98
1215.843	123.51
1219.108	125.03
1222.373	126.33
1225.638	128.46
1228.902	131.74
1232.166	136.02
1235.43	136.4
1238.693	140.22
1241.956	143.54
1245.219	148.01
1248.482	148.35
1251.744	147.97
1255.006	148.99
1258.268	145.42
1261.529	144.49
1264.79	139.98
1268.051	136.94
1271.312	137
1274.572	133.41
1277.832	131.15
1281.092	128.39
1284.351	126.26
1287.61	126.25
1290.869	125.39
1294.128	125.14
1297.386	125
1300.644	124.68
1303.902	123.81
1307.159	121.98
1310.416	123.65
1313.673	124.43
1316.93	125.86
1320.186	128
1323.442	128.85
1326.697	131.09
1329.953	132.46
1333.208	135.72
1336.463	141.69
1339.717	144.06
1342.972	152.18
1346.226	154.51
1349.479	155.72
1352.733	161.18
1355.986	163.99
1359.238	167.28
1362.491	168.62
1365.743	173.89
1368.995	174.35
1372.247	174.64
1375.498	174.17
1378.749	177.99
1382	178.76
1385.251	177.05
1388.501	176.54
1391.751	178.03
1395	176.5
1398.25	177
1401.499	176.22
1404.748	175.75
1407.996	170.07
1411.244	169.81
1414.492	167.44
1417.74	161.82
1420.987	158.54
1424.234	156.62
1427.481	149.89
1430.728	147.02
1433.974	141.32
1437.22	136.83
1440.465	132.05
1443.711	128.68
1446.956	124.32
1450.201	119.53
1453.445	114.42
1456.689	111.22
1459.933	107.76
1463.177	103.66
1466.42	101.36
1469.663	98.84
1472.906	96.02
1476.148	93.12
1479.391	91.46
1482.633	89.81
1485.874	87.61
1489.115	87.18
1492.356	85.93
1495.597	83.76
1498.838	84.01
1502.078	83.01
1505.318	82.8
1508.557	82.03
1511.797	82.09
1515.036	81.14
1518.274	81.05
1521.513	80.6
1524.751	80.16
1527.989	80.91
1531.227	81.22
1534.464	80.61
1537.701	80.62
1540.938	79.95
1544.174	79.73
1547.41	79.92
1550.646	79.88
1553.882	80.2
1557.117	80.17
1560.352	79.74
1563.587	79.23
1566.821	78.92
1570.055	78.96
1573.289	78.76
1576.523	79.18
1579.756	79.48
1582.989	78.87
1586.222	79.04
1589.454	78.82
1592.686	79.03
1595.918	79.12
1599.15	79.07
1602.381	79.48
1605.612	79.54
1608.843	79.19
1612.073	79.44
1615.303	79.79
1618.533	79.99
1621.762	79.7
1624.992	80.26
1628.221	79.82
1631.449	80.39
1634.678	80.43
1637.906	80.68
1641.134	81
1644.361	80.92
1647.588	81.81
1650.815	81.68
1654.042	81.67
1657.269	81.79
1660.495	82.01
1663.72	81.99
1666.946	82.18
1670.171	82.5
1673.396	82.71
1676.621	82.4
1679.845	83.34
1683.069	82.09
1686.293	82.24
1689.517	82.76
1692.74	83
1695.963	82.52
1699.185	83.29
1702.408	82.41
1705.63	82.79
1708.852	83.23
1712.073	83.04
1715.294	82.45
1718.515	83.6
1721.736	83.52
1724.956	83.63
1728.176	83.52
1731.396	84.38
1734.616	84.18
1737.835	85.05
1741.054	84.44
1744.272	84.3
1747.491	84.27
1750.709	85.21
1753.927	84.64
1757.144	84.65
1760.361	84.35
1763.578	85.28
1766.795	85.09
1770.011	84.62
1773.227	84.87
1776.443	85.77
1779.658	85.06
1782.874	86.46
1786.089	85.5
1789.303	85.87
1792.518	86.85
1795.732	87
1798.945	87.18
1802.159	87.62
1805.372	88.82
1808.585	89.73
1811.797	89.98
1815.01	91.6
1818.222	91.65
1821.434	92.97
1824.645	92.85
1827.856	93.82
1831.067	95.02
1834.278	95.21
1837.488	95.8
1840.698	97.05
1843.908	96.47
1847.117	97.72
1850.326	97.4
1853.535	98.88
1856.744	99.39
1859.952	101.48
1863.16	101.14
1866.368	100.57
1869.575	101.37
1872.782	100.5
1875.989	98.57
1879.196	99.68
1882.402	97.89
1885.608	98.45
1888.814	96.9
1892.019	98.33
1895.224	95.97
1898.429	96.09
1901.634	96.05
1904.838	96.93
1908.042	97.62
1911.246	98.41
1914.449	97.85
1917.652	98.53
1920.855	98.25
1924.058	97.3
1927.26	95.52
1930.462	96.54
1933.664	96.88
1936.865	97.15
1940.066	94.74
1943.267	94.7
1946.467	95.43
1949.668	95.45
1952.868	94.94
1956.067	94.85
1959.267	95.93
1962.466	96.23
1965.665	97.47
1968.863	97.61
1972.061	99.25
1975.259	101.74
1978.457	102.5
1981.654	102.24
1984.852	103.23
1988.048	104.87
1991.245	107.08
1994.441	108.97
1997.637	111.35
2000.833	112.85
2004.028	115.15
2007.223	116.89
2010.418	119.22
2013.613	123.75
2016.807	127.9
2020.001	129.36
2023.194	133.71
2026.388	137.56
2029.581	145.34
2032.774	150.18
2035.966	153.57
2039.158	156.79
2042.35	159.17
2045.542	162.74
2048.733	171.7
2051.924	172.48
2055.115	175.8
2058.306	177.31
2061.496	179.45
2064.686	178.73
2067.875	176.15
2071.065	182.07
2074.254	182.05
2077.442	187.35
2080.631	189.31
2083.819	186.48
2087.007	192.89
2090.195	196.1
2093.382	195.96
2096.569	197.64
2099.756	200.41
2102.942	206.32
2106.128	207.3
2109.314	209.95
2112.5	210.77
2115.685	209.77
2118.87	211.22
2122.055	211.86
2125.239	217.52
2128.424	221.45
2131.608	218.65
2134.791	219.75
2137.974	220.21
2141.157	222.82
2144.34	223.07
2147.523	229.64
2150.705	235.16
2153.887	229.37
2157.068	230.7
2160.25	231.13
2163.431	234.35
2166.611	238.08
2169.792	242.65
2172.972	246.78
2176.152	246.56
2179.331	251.88
2182.511	249.88
2185.69	252.01
2188.868	264.7
2192.047	271.8
2195.225	277.86
2198.403	277.35
2201.58	277.54
2204.758	285.11
2207.935	284.92
2211.111	291.07
2214.288	293.18
2217.464	297.49
2220.64	299.53
2223.815	300.24
2226.991	297.47
2230.166	298.09
2233.34	307.54
2236.515	315.63
2239.689	309.9
2242.863	318.09
2246.036	314.22
2249.209	320.9
2252.382	317.13
2255.555	329.84
2258.727	331.86
2261.9	341.9
2265.071	347.83
2268.243	344.73
2271.414	353.6
2274.585	362.92
2277.756	361.3
2280.926	373.82
2284.096	380.39
2287.266	388.75
2290.436	379.2
2293.605	389.32
2296.774	399.5
2299.942	398.74
2303.111	411.78
2306.279	421.38
2309.447	422.89
2312.614	423.11
2315.781	436.7
2318.948	438.02
2322.115	442.4
2325.281	465.58
2328.447	458.44
2331.613	462.23
2334.779	469.47
2337.944	470.99
2341.109	478.15
2344.274	484.53
2347.438	498.76
2350.602	504.79
2353.766	532.63
2356.929	534.42
2360.092	548.28
2363.255	554.02
2366.418	559.63
2369.58	571.64
2372.742	580.34
2375.904	576.72
2379.066	592.5
2382.227	625.7
2385.388	630.91
2388.548	596.31
2391.709	592.86
2394.869	605.38
2398.029	606.89
2401.188	614.85
2404.347	627.51
2407.506	649.19
2410.665	624.45
2413.823	626.44
2416.981	628.51
2420.139	592.58
2423.296	643.24
2426.453	683.65
2429.61	648.34
2432.767	692.92
2435.923	704.7
2439.079	690.72
2442.235	708.54
2445.391	722.53
2448.546	712.89
2451.701	747.99
2454.855	799.83
2458.009	713.28
2461.163	722.51
2464.317	734.05
2467.471	724.85
2470.624	748.49
2473.777	735.62
2476.929	711.15
2480.082	758.67
2483.234	799.08
2486.385	815.84
2489.537	834.23
2492.688	924.4
2495.839	901.45
2498.989	936.63
2502.14	933.83
2505.29	895.42
2508.439	990.12
2511.589	1009.62
2514.738	979.57
2517.887	974.04
2521.035	914.06
2524.183	904.9
2527.331	892.61
2530.479	883.58
2533.627	897.26
