Data from N_3_dec_on_6n_Splice17_20.txt Node
Date: Sat Feb 29 15:09:57 EST 2020
User: sa697716
Spectrometer: FLMS03696
Trigger mode: 0
Integration Time (sec): 3.180400E-1
Scans to average: 20
Electric dark correction enabled: true
Nonlinearity correction enabled: true
Boxcar width: 5
XAxis mode: Wavelengths
Number of Pixels in Spectrum: 2048
>>>>>Begin Spectral Data<<<<<
187.83	93.89
188.298	92.08
188.766	99.33
189.233	92.19
189.701	95.19
190.169	94.67
190.636	88.66
191.104	89.14
191.571	182.3
192.039	256.59
192.506	-394.95
192.974	-831.04
193.441	331.22
193.908	87.83
194.375	94.1
194.842	160.57
195.31	115.35
195.777	95.95
196.244	90.04
196.711	80.68
197.177	77.41
197.644	76.6
198.111	76.64
198.578	76.86
199.045	77.02
199.511	76.92
199.978	77.08
200.445	77.2
200.911	77.18
201.378	76.73
201.844	77.41
202.31	78.36
202.777	78.69
203.243	78.68
203.709	78.59
204.176	78.13
204.642	77.65
205.108	77.22
205.574	77.13
206.04	77.01
206.506	76.84
206.972	75.65
207.438	74.88
207.903	73.69
208.369	72.47
208.835	71.68
209.301	70.77
209.766	69.67
210.232	68.71
210.697	67.13
211.163	65.69
211.628	64.34
212.094	63.34
212.559	62.1
213.024	60.98
213.49	59.78
213.955	58.22
214.42	56.74
214.885	55.04
215.35	52.86
215.815	50.27
216.28	47.62
216.745	44.4
217.21	40.99
217.675	37.83
218.14	34.89
218.604	32.28
219.069	30.13
219.534	28.21
219.998	26.57
220.463	25.24
220.927	24.14
221.392	23.11
221.856	22.26
222.32	21.55
222.785	20.89
223.249	20.39
223.713	19.93
224.177	19.42
224.642	19.01
225.106	18.65
225.57	18.29
226.034	17.96
226.497	17.6
226.961	17.29
227.425	16.95
227.889	16.64
228.353	16.34
228.816	16.08
229.28	15.8
229.744	15.55
230.207	15.29
230.671	15.04
231.134	14.8
231.597	14.59
232.061	14.36
232.524	14.19
232.987	14
233.45	13.81
233.914	13.6
234.377	13.46
234.84	13.3
235.303	13.17
235.766	13.02
236.229	12.88
236.691	12.76
237.154	12.62
237.617	12.49
238.08	12.37
238.542	12.25
239.005	12.15
239.468	12.03
239.93	11.92
240.393	11.79
240.855	11.67
241.317	11.58
241.78	11.49
242.242	11.38
242.704	11.29
243.166	11.2
243.629	11.1
244.091	11.02
244.553	10.93
245.015	10.86
245.477	10.77
245.939	10.69
246.4	10.59
246.862	10.52
247.324	10.48
247.786	10.39
248.247	10.32
248.709	10.24
249.17	10.18
249.632	10.09
250.093	10
250.555	9.93
251.016	9.88
251.477	9.82
251.939	9.74
252.4	9.66
252.861	9.6
253.322	9.54
253.783	9.5
254.244	9.44
254.705	9.41
255.166	9.37
255.627	9.32
256.088	9.26
256.549	9.21
257.009	9.15
257.47	9.11
257.931	9.05
258.391	8.99
258.852	8.93
259.312	8.88
259.773	8.82
260.233	8.77
260.694	8.72
261.154	8.68
261.614	8.63
262.074	8.59
262.534	8.53
262.994	8.49
263.455	8.46
263.915	8.42
264.374	8.37
264.834	8.34
265.294	8.31
265.754	8.27
266.214	8.24
266.673	8.21
267.133	8.19
267.593	8.17
268.052	8.15
268.512	8.13
268.971	8.11
269.431	8.09
269.89	8.07
270.349	8.06
270.809	8.04
271.268	8.03
271.727	8.01
272.186	7.99
272.645	7.97
273.104	7.94
273.563	7.93
274.022	7.91
274.481	7.89
274.94	7.87
275.399	7.85
275.857	7.83
276.316	7.8
276.775	7.78
277.233	7.75
277.692	7.73
278.15	7.71
278.609	7.68
279.067	7.66
279.525	7.63
279.984	7.62
280.442	7.6
280.9	7.58
281.358	7.57
281.816	7.56
282.274	7.55
282.732	7.54
283.19	7.54
283.648	7.53
284.106	7.52
284.564	7.52
285.021	7.51
285.479	7.5
285.937	7.5
286.394	7.49
286.852	7.47
287.309	7.46
287.767	7.44
288.224	7.43
288.682	7.43
289.139	7.42
289.596	7.39
290.053	7.37
290.511	7.33
290.968	7.31
291.425	7.29
291.882	7.27
292.339	7.24
292.796	7.21
293.252	7.18
293.709	7.15
294.166	7.13
294.623	7.11
295.079	7.1
295.536	7.08
295.992	7.05
296.449	7.04
296.905	7.02
297.362	7.01
297.818	7
298.274	6.99
298.731	6.97
299.187	6.95
299.643	6.94
300.099	6.93
300.555	6.92
301.011	6.91
301.467	6.9
301.923	6.89
302.379	6.88
302.835	6.87
303.291	6.86
303.746	6.85
304.202	6.84
304.658	6.82
305.113	6.81
305.569	6.81
306.024	6.8
306.479	6.79
306.935	6.79
307.39	6.8
307.845	6.79
308.301	6.8
308.756	6.81
309.211	6.82
309.666	6.83
310.121	6.83
310.576	6.82
311.031	6.83
311.486	6.84
311.94	6.83
312.395	6.83
312.85	6.83
313.305	6.83
313.759	6.82
314.214	6.82
314.668	6.82
315.123	6.82
315.577	6.82
316.032	6.82
316.486	6.8
316.94	6.79
317.394	6.77
317.849	6.76
318.303	6.74
318.757	6.72
319.211	6.69
319.665	6.68
320.119	6.66
320.572	6.64
321.026	6.62
321.48	6.61
321.934	6.6
322.387	6.6
322.841	6.59
323.295	6.59
323.748	6.57
324.202	6.57
324.655	6.56
325.108	6.54
325.562	6.53
326.015	6.51
326.468	6.49
326.921	6.48
327.374	6.48
327.827	6.46
328.28	6.45
328.733	6.44
329.186	6.43
329.639	6.41
330.092	6.41
330.545	6.42
330.997	6.42
331.45	6.42
331.903	6.42
332.355	6.42
332.808	6.41
333.26	6.42
333.713	6.42
334.165	6.42
334.617	6.44
335.069	6.44
335.522	6.45
335.974	6.45
336.426	6.46
336.878	6.46
337.33	6.45
337.782	6.46
338.234	6.45
338.686	6.44
339.137	6.44
339.589	6.43
340.041	6.41
340.493	6.39
340.944	6.37
341.396	6.36
341.847	6.35
342.299	6.32
342.75	6.3
343.201	6.28
343.653	6.26
344.104	6.23
344.555	6.21
345.006	6.2
345.457	6.19
345.908	6.18
346.359	6.15
346.81	6.15
347.261	6.15
347.712	6.14
348.163	6.14
348.613	6.13
349.064	6.11
349.515	6.1
349.965	6.08
350.416	6.07
350.866	6.06
351.317	6.06
351.767	6.04
352.217	6.03
352.668	6.02
353.118	6.02
353.568	6.02
354.018	6.04
354.468	6.04
354.918	6.06
355.368	6.07
355.818	6.06
356.268	6.07
356.718	6.08
357.168	6.08
357.617	6.09
358.067	6.08
358.517	6.08
358.966	6.09
359.416	6.1
359.865	6.09
360.315	6.08
360.764	6.1
361.213	6.09
361.663	6.09
362.112	6.1
362.561	6.11
363.01	6.13
363.459	6.14
363.908	6.15
364.357	6.15
364.806	6.17
365.255	6.18
365.703	6.19
366.152	6.21
366.601	6.25
367.05	6.26
367.498	6.27
367.947	6.28
368.395	6.32
368.844	6.33
369.292	6.36
369.74	6.38
370.189	6.41
370.637	6.45
371.085	6.48
371.533	6.5
371.981	6.54
372.429	6.56
372.877	6.6
373.325	6.62
373.773	6.67
374.221	6.72
374.669	6.76
375.116	6.81
375.564	6.84
376.012	6.88
376.459	6.94
376.907	6.99
377.354	7.05
377.801	7.11
378.249	7.17
378.696	7.23
379.143	7.28
379.591	7.35
380.038	7.41
380.485	7.48
380.932	7.54
381.379	7.59
381.826	7.66
382.273	7.71
382.72	7.76
383.166	7.82
383.613	7.87
384.06	7.92
384.506	7.95
384.953	8
385.4	8.04
385.846	8.09
386.292	8.14
386.739	8.17
387.185	8.23
387.631	8.29
388.078	8.33
388.524	8.35
388.97	8.38
389.416	8.4
389.862	8.44
390.308	8.48
390.754	8.49
391.2	8.53
391.645	8.56
392.091	8.58
392.537	8.6
392.983	8.63
393.428	8.66
393.874	8.71
394.319	8.75
394.765	8.76
395.21	8.77
395.655	8.8
396.101	8.81
396.546	8.83
396.991	8.84
397.436	8.83
397.881	8.83
398.326	8.85
398.771	8.85
399.216	8.88
399.661	8.89
400.106	8.91
400.551	8.92
400.995	8.9
401.44	8.87
401.885	8.86
402.329	8.85
402.774	8.84
403.218	8.83
403.663	8.82
404.107	8.8
404.551	8.78
404.995	8.76
405.44	8.74
405.884	8.73
406.328	8.73
406.772	8.73
407.216	8.74
407.66	8.73
408.104	8.71
408.547	8.7
408.991	8.69
409.435	8.66
409.879	8.65
410.322	8.64
410.766	8.64
411.209	8.64
411.653	8.61
412.096	8.58
412.54	8.58
412.983	8.58
413.426	8.59
413.869	8.59
414.312	8.62
414.756	8.63
415.199	8.64
415.642	8.66
416.085	8.67
416.527	8.7
416.97	8.72
417.413	8.71
417.856	8.7
418.298	8.66
418.741	8.63
419.184	8.61
419.626	8.59
420.069	8.57
420.511	8.55
420.953	8.53
421.396	8.5
421.838	8.51
422.28	8.52
422.722	8.55
423.164	8.56
423.606	8.57
424.048	8.57
424.49	8.56
424.932	8.57
425.374	8.57
425.816	8.55
426.258	8.53
426.699	8.46
427.141	8.41
427.582	8.38
428.024	8.37
428.465	8.38
428.907	8.39
429.348	8.38
429.789	8.37
430.231	8.35
430.672	8.34
431.113	8.37
431.554	8.41
431.995	8.42
432.436	8.41
432.877	8.39
433.318	8.38
433.759	8.38
434.2	8.39
434.64	8.39
435.081	8.39
435.522	8.42
435.962	8.41
436.403	8.43
436.843	8.46
437.284	8.5
437.724	8.53
438.164	8.53
438.604	8.56
439.045	8.56
439.485	8.56
439.925	8.58
440.365	8.58
440.805	8.6
441.245	8.6
441.685	8.62
442.125	8.63
442.564	8.65
443.004	8.69
443.444	8.72
443.883	8.75
444.323	8.77
444.762	8.8
445.202	8.86
445.641	8.9
446.081	8.95
446.52	8.98
446.959	9.01
447.398	9.05
447.837	9.08
448.276	9.1
448.716	9.15
449.154	9.2
449.593	9.24
450.032	9.25
450.471	9.26
450.91	9.25
451.349	9.27
451.787	9.28
452.226	9.27
452.664	9.24
453.103	9.22
453.541	9.19
453.98	9.16
454.418	9.13
454.856	9.09
455.295	9.07
455.733	9.06
456.171	9.03
456.609	9.01
457.047	8.99
457.485	9
457.923	8.98
458.361	8.97
458.798	8.97
459.236	8.96
459.674	8.96
460.111	8.95
460.549	8.93
460.987	8.92
461.424	8.91
461.862	8.89
462.299	8.87
462.736	8.87
463.173	8.87
463.611	8.84
464.048	8.86
464.485	8.86
464.922	8.85
465.359	8.86
465.796	8.86
466.233	8.88
466.67	8.89
467.106	8.91
467.543	8.92
467.98	8.92
468.416	8.94
468.853	8.93
469.29	8.93
469.726	8.96
470.162	8.96
470.599	8.98
471.035	8.98
471.471	9
471.907	9.01
472.344	9.02
472.78	9.02
473.216	9.02
473.652	9.02
474.088	9.03
474.523	9.03
474.959	9.02
475.395	9.02
475.831	9.03
476.266	9.04
476.702	9.03
477.138	9.01
477.573	9.01
478.008	9
478.444	9.01
478.879	9
479.314	8.99
479.75	8.98
480.185	8.97
480.62	8.95
481.055	8.93
481.49	8.91
481.925	8.91
482.36	8.9
482.795	8.9
483.229	8.88
483.664	8.89
484.099	8.89
484.534	8.89
484.968	8.9
485.403	8.9
485.837	8.9
486.271	8.91
486.706	8.92
487.14	8.94
487.574	8.95
488.009	8.98
488.443	9
488.877	9.02
489.311	9.05
489.745	9.08
490.179	9.12
490.613	9.16
491.046	9.22
491.48	9.27
491.914	9.33
492.348	9.39
492.781	9.44
493.215	9.49
493.648	9.57
494.082	9.64
494.515	9.71
494.948	9.79
495.382	9.86
495.815	9.94
496.248	10.03
496.681	10.11
497.114	10.2
497.547	10.31
497.98	10.41
498.413	10.5
498.846	10.61
499.279	10.73
499.711	10.86
500.144	10.99
500.577	11.12
501.009	11.25
501.442	11.41
501.874	11.56
502.306	11.71
502.739	11.88
503.171	12.06
503.603	12.25
504.036	12.44
504.468	12.63
504.9	12.83
505.332	13.04
505.764	13.25
506.196	13.46
506.627	13.69
507.059	13.93
507.491	14.16
507.923	14.41
508.354	14.67
508.786	14.93
509.217	15.18
509.649	15.45
510.08	15.73
510.512	16
510.943	16.3
511.374	16.58
511.805	16.87
512.237	17.17
512.668	17.47
513.099	17.78
513.53	18.09
513.961	18.41
514.391	18.72
514.822	19.04
515.253	19.34
515.684	19.66
516.114	19.99
516.545	20.33
516.975	20.64
517.406	20.96
517.836	21.27
518.267	21.58
518.697	21.9
519.127	22.2
519.558	22.51
519.988	22.84
520.418	23.13
520.848	23.41
521.278	23.68
521.708	23.88
522.138	24.15
522.567	24.42
522.997	24.68
523.427	24.94
523.857	25.18
524.286	25.42
524.716	25.65
525.145	25.88
525.575	26.1
526.004	26.31
526.433	26.63
526.863	26.84
527.292	27.06
527.721	27.26
528.15	27.44
528.579	27.64
529.008	27.84
529.437	28.02
529.866	28.17
530.295	28.34
530.724	28.51
531.152	28.65
531.581	28.76
532.01	28.87
532.438	28.98
532.867	29.1
533.295	29.2
533.723	29.28
534.152	29.36
534.58	29.44
535.008	29.49
535.436	29.55
535.865	29.6
536.293	29.68
536.721	29.73
537.149	29.79
537.576	29.83
538.004	29.85
538.432	29.9
538.86	29.94
539.287	29.97
539.715	30.02
540.143	30.02
540.57	30.06
540.998	30.08
541.425	30.1
541.852	30.13
542.28	30.15
542.707	30.21
543.134	30.24
543.561	30.23
543.988	30.26
544.415	30.31
544.842	30.35
545.269	30.39
545.696	30.4
546.123	30.45
546.549	30.48
546.976	30.54
547.403	30.55
547.829	30.58
548.256	30.65
548.682	30.67
549.108	30.69
549.535	30.71
549.961	30.72
550.387	30.76
550.813	30.75
551.24	30.76
551.666	30.77
552.092	30.79
552.518	30.8
552.943	30.8
553.369	30.8
553.795	30.79
554.221	30.78
554.646	30.78
555.072	30.75
555.498	30.73
555.923	30.7
556.349	30.65
556.774	30.58
557.199	30.53
557.625	30.47
558.05	30.39
558.475	30.33
558.9	30.26
559.325	30.19
559.75	30.1
560.175	30
560.6	29.91
561.025	29.81
561.449	29.71
561.874	29.6
562.299	29.49
562.723	29.4
563.148	29.29
563.572	29.17
563.997	29.05
564.421	28.92
564.846	28.8
565.27	28.67
565.694	28.53
566.118	28.38
566.542	28.24
566.966	28.1
567.39	27.91
567.814	27.74
568.238	27.57
568.662	27.39
569.086	27.21
569.509	27.05
569.933	26.88
570.357	26.72
570.78	26.57
571.204	26.39
571.627	26.23
572.05	26.08
572.474	25.92
572.897	25.79
573.32	25.64
573.743	25.53
574.166	25.39
574.589	25.25
575.012	25.14
575.435	25
575.858	24.9
576.281	24.78
576.704	24.68
577.126	24.57
577.549	24.48
577.972	24.39
578.394	24.28
578.817	24.19
579.239	24.11
579.661	24
580.084	23.92
580.506	23.83
580.928	23.76
581.35	23.69
581.772	23.63
582.194	23.54
582.616	23.47
583.038	23.41
583.46	23.31
583.882	23.24
584.303	23.18
584.725	23.11
585.147	23.04
585.568	22.96
585.99	22.89
586.411	22.81
586.833	22.74
587.254	22.69
587.675	22.64
588.096	22.59
588.518	22.54
588.939	22.48
589.36	22.44
589.781	22.38
590.202	22.33
590.623	22.28
591.043	22.23
591.464	22.19
591.885	22.14
592.305	22.08
592.726	22.05
593.147	22.03
593.567	21.97
593.987	21.94
594.408	21.91
594.828	21.89
595.248	21.86
595.669	21.83
596.089	21.8
596.509	21.75
596.929	21.71
597.349	21.66
597.769	21.6
598.189	21.58
598.608	21.53
599.028	21.47
599.448	21.42
599.867	21.37
600.287	21.32
600.706	21.26
601.126	21.21
601.545	21.16
601.965	21.11
602.384	21.05
602.803	20.99
603.222	20.92
603.641	20.86
604.061	20.79
604.48	20.71
604.898	20.64
605.317	20.59
605.736	20.53
606.155	20.45
606.574	20.37
606.992	20.3
607.411	20.22
607.829	20.11
608.248	20.03
608.666	19.96
609.085	19.87
609.503	19.79
609.921	19.69
610.339	19.62
610.758	19.54
611.176	19.45
611.594	19.37
612.012	19.3
612.43	19.27
612.847	19.2
613.265	19.12
613.683	19.07
614.101	18.97
614.518	18.89
614.936	18.82
615.353	18.75
615.771	18.67
616.188	18.61
616.606	18.54
617.023	18.46
617.44	18.38
617.857	18.31
618.274	18.26
618.691	18.21
619.108	18.18
619.525	18.14
619.942	18.09
620.359	18.06
620.776	18.03
621.192	18
621.609	17.97
622.026	17.95
622.442	17.92
622.859	17.89
623.275	17.88
623.691	17.84
624.108	17.82
624.524	17.8
624.94	17.8
625.356	17.78
625.772	17.77
626.188	17.76
626.604	17.74
627.02	17.73
627.436	17.72
627.852	17.69
628.268	17.67
628.683	17.64
629.099	17.62
629.514	17.58
629.93	17.54
630.345	17.49
630.761	17.43
631.176	17.39
631.591	17.34
632.007	17.29
632.422	17.23
632.837	17.18
633.252	17.1
633.667	17
634.082	16.92
634.497	16.82
634.911	16.72
635.326	16.61
635.741	16.5
636.155	16.38
636.57	16.25
636.984	16.11
637.399	15.96
637.813	15.82
638.228	15.69
638.642	15.54
639.056	15.39
639.47	15.25
639.884	15.1
640.298	14.94
640.712	14.78
641.126	14.61
641.54	14.47
641.954	14.34
642.368	14.19
642.781	14.04
643.195	13.87
643.609	13.76
644.022	13.61
644.436	13.48
644.849	13.36
645.262	13.24
645.676	13.12
646.089	13.01
646.502	12.9
646.915	12.81
647.328	12.73
647.741	12.66
648.154	12.58
648.567	12.52
648.98	12.46
649.393	12.4
649.805	12.35
650.218	12.29
650.631	12.25
651.043	12.21
651.456	12.16
651.868	12.11
652.28	12.07
652.693	12.02
653.105	11.96
653.517	11.92
653.929	11.87
654.341	11.81
654.753	11.75
655.165	11.69
655.577	11.6
655.989	11.51
656.401	11.43
656.813	11.34
657.224	11.26
657.636	11.17
658.047	11.07
658.459	10.96
658.87	10.86
659.282	10.76
659.693	10.65
660.104	10.57
660.515	10.48
660.926	10.39
661.338	10.29
661.749	10.18
662.159	10.09
662.57	9.99
662.981	9.91
663.392	9.82
663.803	9.73
664.213	9.64
664.624	9.56
665.035	9.47
665.445	9.4
665.855	9.34
666.266	9.3
666.676	9.24
667.086	9.19
667.497	9.12
667.907	9.08
668.317	9.07
668.727	9.04
669.137	9.01
669.547	9
669.956	8.97
670.366	8.97
670.776	8.93
671.186	8.92
671.595	8.93
672.005	8.93
672.414	8.92
672.824	8.92
673.233	8.93
673.642	8.94
674.052	8.95
674.461	8.97
674.87	8.98
675.279	9.01
675.688	9.02
676.097	9.05
676.506	9.09
676.915	9.15
677.323	9.2
677.732	9.26
678.141	9.32
678.549	9.39
678.958	9.48
679.366	9.55
679.775	9.66
680.183	9.78
680.592	9.91
681	10.03
681.408	10.16
681.816	10.32
682.224	10.49
682.632	10.67
683.04	10.88
683.448	11.12
683.856	11.37
684.264	11.64
684.671	11.94
685.079	12.24
685.487	12.58
685.894	12.95
686.302	13.31
686.709	13.73
687.116	14.16
687.524	14.62
687.931	15.1
688.338	15.61
688.745	16.13
689.152	16.67
689.559	17.23
689.966	17.82
690.373	18.44
690.78	19.06
691.187	19.68
691.593	20.31
692	20.94
692.407	21.58
692.813	22.22
693.22	22.88
693.626	23.53
694.032	24.21
694.439	24.87
694.845	25.51
695.251	26.15
695.657	26.78
696.063	27.42
696.469	28.03
696.875	28.61
697.281	29.17
697.687	29.75
698.093	30.31
698.498	30.85
698.904	31.37
699.31	31.87
699.715	32.4
700.12	32.89
700.526	33.39
700.931	33.88
701.337	34.4
701.742	34.86
702.147	35.32
702.552	35.77
702.957	36.2
703.362	36.66
703.767	37.09
704.172	37.49
704.577	37.9
704.981	38.28
705.386	38.66
705.791	39.03
706.195	39.4
706.6	39.74
707.004	40.09
707.408	40.44
707.813	40.77
708.217	41.08
708.621	41.4
709.025	41.71
709.43	42
709.834	42.32
710.237	42.57
710.641	42.87
711.045	43.13
711.449	43.37
711.853	43.64
712.256	43.91
712.66	44.16
713.064	44.41
713.467	44.66
713.87	44.91
714.274	45.14
714.677	45.41
715.08	45.61
715.484	45.86
715.887	46.09
716.29	46.29
716.693	46.48
717.096	46.72
717.499	46.92
717.901	47.12
718.304	47.32
718.707	47.48
719.109	47.68
719.512	47.9
719.915	48.08
720.317	48.28
720.719	48.46
721.122	48.63
721.524	48.79
721.926	48.96
722.328	49.1
722.731	49.23
723.133	49.41
723.535	49.55
723.937	49.67
724.338	49.82
724.74	49.95
725.142	50.02
725.544	50.15
725.945	50.25
726.347	50.34
726.748	50.44
727.15	50.57
727.551	50.65
727.952	50.76
728.354	50.85
728.755	50.95
729.156	51.04
729.557	51.16
729.958	51.26
730.359	51.33
730.76	51.4
731.161	51.52
731.562	51.59
731.962	51.66
732.363	51.69
732.763	51.77
733.164	51.81
733.564	51.83
733.965	51.86
734.365	51.88
734.766	51.93
735.166	51.95
735.566	51.93
735.966	51.97
736.366	51.98
736.766	52.02
737.166	52.04
737.566	52.09
737.966	52.15
738.365	52.24
738.765	52.29
739.165	52.3
739.564	52.34
739.964	52.4
740.363	52.43
740.763	52.46
741.162	52.48
741.561	52.49
741.96	52.51
742.36	52.52
742.759	52.48
743.158	52.46
743.557	52.52
743.955	52.57
744.354	52.6
744.753	52.61
745.152	52.65
745.55	52.69
745.949	52.7
746.348	52.71
746.746	52.73
747.144	52.8
747.543	52.83
747.941	52.88
748.339	52.92
748.737	52.94
749.136	52.95
749.534	52.96
749.932	52.96
750.33	52.97
750.727	52.98
751.125	52.98
751.523	52.92
751.921	52.96
752.318	52.93
752.716	52.9
753.113	52.9
753.511	52.87
753.908	52.85
754.305	52.84
754.703	52.83
755.1	52.8
755.497	52.8
755.894	52.84
756.291	52.78
756.688	52.73
757.085	52.72
757.482	52.69
757.878	52.69
758.275	52.7
758.672	52.71
759.068	52.72
759.465	52.72
759.861	52.71
760.258	52.66
760.654	52.67
761.05	52.68
761.447	52.65
761.843	52.63
762.239	52.59
762.635	52.57
763.031	52.53
763.427	52.5
763.822	52.47
764.218	52.43
764.614	52.44
765.01	52.44
765.405	52.42
765.801	52.41
766.196	52.42
766.592	52.48
766.987	52.46
767.382	52.46
767.778	52.45
768.173	52.47
768.568	52.45
768.963	52.46
769.358	52.43
769.753	52.46
770.148	52.47
770.542	52.45
770.937	52.42
771.332	52.43
771.726	52.43
772.121	52.44
772.515	52.44
772.91	52.48
773.304	52.46
773.699	52.49
774.093	52.46
774.487	52.49
774.881	52.51
775.275	52.52
775.669	52.52
776.063	52.53
776.457	52.5
776.851	52.48
777.245	52.51
777.638	52.51
778.032	52.5
778.425	52.53
778.819	52.55
779.212	52.53
779.606	52.5
779.999	52.52
780.392	52.52
780.786	52.55
781.179	52.58
781.572	52.56
781.965	52.59
782.358	52.59
782.751	52.56
783.143	52.55
783.536	52.6
783.929	52.63
784.322	52.65
784.714	52.63
785.107	52.65
785.499	52.66
785.891	52.69
786.284	52.7
786.676	52.72
787.068	52.72
787.46	52.74
787.852	52.74
788.245	52.75
788.636	52.74
789.028	52.77
789.42	52.77
789.812	52.76
790.204	52.7
790.595	52.68
790.987	52.68
791.378	52.7
791.77	52.72
792.161	52.71
792.553	52.74
792.944	52.79
793.335	52.82
793.726	52.78
794.117	52.82
794.508	52.85
794.899	52.87
795.29	52.89
795.681	52.89
796.072	52.9
796.463	52.88
796.853	52.85
797.244	52.82
797.634	52.79
798.025	52.86
798.415	52.83
798.806	52.86
799.196	52.89
799.586	52.86
799.976	52.87
800.366	52.87
800.756	52.92
801.146	52.92
801.536	52.94
801.926	52.95
802.316	52.97
802.706	53.01
803.095	53
803.485	53.02
803.874	53.08
804.264	53.13
804.653	53.14
805.043	53.16
805.432	53.15
805.821	53.16
806.21	53.22
806.599	53.26
806.988	53.28
807.377	53.3
807.766	53.32
808.155	53.31
808.544	53.3
808.933	53.31
809.321	53.33
809.71	53.39
810.098	53.41
810.487	53.38
810.875	53.36
811.264	53.38
811.652	53.42
812.04	53.4
812.428	53.41
812.816	53.43
813.204	53.43
813.592	53.43
813.98	53.44
814.368	53.44
814.756	53.48
815.144	53.5
815.531	53.5
815.919	53.51
816.306	53.51
816.694	53.54
817.081	53.54
817.469	53.57
817.856	53.59
818.243	53.56
818.63	53.61
819.017	53.6
819.404	53.58
819.791	53.57
820.178	53.57
820.565	53.58
820.952	53.58
821.339	53.61
821.725	53.65
822.112	53.67
822.498	53.7
822.885	53.68
823.271	53.68
823.657	53.69
824.044	53.7
824.43	53.69
824.816	53.71
825.202	53.71
825.588	53.69
825.974	53.65
826.36	53.63
826.746	53.66
827.132	53.62
827.517	53.61
827.903	53.63
828.289	53.62
828.674	53.6
829.06	53.57
829.445	53.59
829.83	53.57
830.216	53.58
830.601	53.55
830.986	53.51
831.371	53.53
831.756	53.48
832.141	53.46
832.526	53.46
832.911	53.49
833.295	53.49
833.68	53.45
834.065	53.44
834.449	53.42
834.834	53.39
835.218	53.39
835.603	53.36
835.987	53.38
836.371	53.36
836.755	53.32
837.139	53.31
837.524	53.29
837.908	53.25
838.291	53.23
838.675	53.21
839.059	53.19
839.443	53.18
839.827	53.2
840.21	53.22
840.594	53.19
840.977	53.17
841.361	53.14
841.744	53.14
842.127	53.17
842.511	53.16
842.894	53.14
843.277	53.16
843.66	53.16
844.043	53.15
844.426	53.1
844.809	53.09
845.191	53.09
845.574	53.05
845.957	53.02
846.339	53
846.722	52.99
847.104	52.99
847.487	52.99
847.869	52.97
848.252	52.97
848.634	53.01
849.016	53.03
849.398	53.05
849.78	53.07
850.162	53.09
850.544	53.12
850.926	53.11
851.307	53.11
851.689	53.09
852.071	53.08
852.452	53.07
852.834	53.03
853.215	53.01
853.597	53.01
853.978	52.97
854.359	52.95
854.741	52.96
855.122	52.98
855.503	53
855.884	53.01
856.265	53.02
856.646	53.03
857.026	53.04
857.407	53.04
857.788	53.04
858.169	53.05
858.549	53.06
858.93	53.05
859.31	53.04
859.69	53.02
860.071	53
860.451	52.99
860.831	52.99
861.211	52.99
861.591	53.05
861.971	53.05
862.351	53.08
862.731	53.09
863.111	53.06
863.491	53.07
863.87	53.06
864.25	53.1
864.629	53.1
865.009	53.1
865.388	53.09
865.768	53.06
866.147	53.05
866.526	53.03
866.905	53.04
867.284	53.07
867.663	53.08
868.042	53.06
868.421	53.03
868.8	53.03
869.179	53
869.558	53.02
869.936	53
870.315	53.02
870.693	53.01
871.072	53
871.45	52.98
871.828	53
872.207	53.03
872.585	53.03
872.963	53.02
873.341	53.04
873.719	53.01
874.097	53.01
874.475	52.98
874.853	52.97
875.23	52.98
875.608	52.98
875.986	52.94
876.363	52.96
876.741	52.96
877.118	52.97
877.495	52.94
877.873	52.96
878.25	52.96
878.627	52.96
879.004	52.96
879.381	52.94
879.758	52.92
880.135	52.93
880.512	52.91
880.889	52.9
881.265	52.91
881.642	52.93
882.019	52.94
882.395	52.96
882.772	52.93
883.148	52.92
883.524	52.91
883.901	52.89
884.277	52.87
884.653	52.85
885.029	52.84
885.405	52.8
885.781	52.76
886.157	52.71
886.532	52.7
886.908	52.73
887.284	52.76
887.659	52.76
888.035	52.8
888.411	52.77
888.786	52.75
889.161	52.75
889.537	52.75
889.912	52.73
890.287	52.69
890.662	52.66
891.037	52.61
891.412	52.53
891.787	52.5
892.162	52.44
892.536	52.41
892.911	52.39
893.286	52.32
893.66	52.3
894.035	52.29
894.409	52.31
894.784	52.31
895.158	52.3
895.532	52.29
895.906	52.28
896.281	52.27
896.655	52.28
897.029	52.27
897.402	52.34
897.776	52.31
898.15	52.32
898.524	52.3
898.898	52.27
899.271	52.26
899.645	52.29
900.018	52.31
900.392	52.34
900.765	52.35
901.138	52.38
901.511	52.32
901.884	52.35
902.258	52.35
902.631	52.38
903.003	52.37
903.376	52.38
903.749	52.36
904.122	52.33
904.495	52.33
904.867	52.3
905.24	52.29
905.612	52.31
905.985	52.29
906.357	52.26
906.729	52.26
907.102	52.3
907.474	52.31
907.846	52.31
908.218	52.33
908.59	52.28
908.962	52.28
909.334	52.29
909.705	52.28
910.077	52.28
910.449	52.33
910.82	52.31
911.192	52.31
911.563	52.31
911.935	52.3
912.306	52.31
912.677	52.38
913.048	52.4
913.419	52.38
913.79	52.37
914.161	52.37
914.532	52.34
914.903	52.35
915.274	52.33
915.645	52.32
916.015	52.35
916.386	52.36
916.756	52.34
917.127	52.36
917.497	52.4
917.868	52.41
918.238	52.45
918.608	52.48
918.978	52.46
919.348	52.47
919.718	52.47
920.088	52.47
920.458	52.51
920.828	52.52
921.198	52.53
921.567	52.49
921.937	52.52
922.306	52.47
922.676	52.46
923.045	52.48
923.415	52.47
923.784	52.47
924.153	52.48
924.522	52.47
924.891	52.44
925.26	52.42
925.629	52.42
925.998	52.4
926.367	52.45
926.736	52.43
927.104	52.46
927.473	52.49
927.842	52.5
928.21	52.52
928.578	52.5
928.947	52.5
929.315	52.55
929.683	52.56
930.051	52.56
930.42	52.55
930.788	52.55
931.156	52.49
931.523	52.46
931.891	52.41
932.259	52.34
932.627	52.25
932.994	52.22
933.362	52.12
933.729	52.03
934.097	51.95
934.464	51.89
934.831	51.84
935.199	51.82
935.566	51.76
935.933	51.72
936.3	51.69
936.667	51.72
937.034	51.7
937.401	51.67
937.767	51.75
938.134	51.8
938.501	51.79
938.867	51.88
939.234	51.94
939.6	51.96
939.967	52.04
940.333	52.23
940.699	52.37
941.065	52.49
941.431	52.71
941.798	52.83
942.163	52.95
942.529	53.02
942.895	53.11
943.261	53.19
943.627	53.36
943.992	53.43
944.358	53.37
944.723	53.37
945.089	53.39
945.454	53.39
945.82	53.38
946.185	53.41
946.55	53.47
946.915	53.47
947.28	53.44
947.645	53.46
948.01	53.42
948.375	53.41
948.74	53.38
949.104	53.33
949.469	53.16
949.834	53.11
950.198	53.01
950.562	52.93
950.927	52.87
951.291	52.81
951.655	52.74
952.02	52.75
952.384	52.78
952.748	52.79
953.112	52.79
953.476	52.78
953.839	52.69
954.203	52.63
954.567	52.59
954.931	52.58
955.294	52.59
955.658	52.5
956.021	52.44
956.385	52.36
956.748	52.31
957.111	52.19
957.474	52.21
957.837	52.25
958.2	52.22
958.563	52.18
958.926	52.07
959.289	52.04
959.652	52.03
960.015	52.02
960.377	52.04
960.74	51.94
961.102	51.99
961.465	51.97
961.827	51.87
962.189	51.82
962.552	51.81
962.914	51.78
963.276	51.76
963.638	51.7
964	51.64
964.362	51.59
964.724	51.64
965.085	51.57
965.447	51.49
965.809	51.48
966.17	51.53
966.532	51.54
966.893	51.57
967.255	51.52
967.616	51.58
967.977	51.62
968.338	51.58
968.699	51.54
969.061	51.48
969.421	51.5
969.782	51.6
970.143	51.58
970.504	51.54
970.865	51.5
971.225	51.54
971.586	51.57
971.946	51.63
972.307	51.62
972.667	51.71
973.027	51.84
973.388	51.83
973.748	51.72
974.108	51.73
974.468	51.74
974.828	51.81
975.188	51.75
975.548	51.65
975.907	51.56
976.267	51.66
976.627	51.61
976.986	51.54
977.346	51.62
977.705	51.74
978.064	51.77
978.424	51.71
978.783	51.72
979.142	51.83
979.501	51.82
979.86	51.86
980.219	51.71
980.578	51.68
980.937	51.73
981.296	51.75
981.654	51.77
982.013	51.73
982.371	51.83
982.73	51.81
983.088	51.76
983.447	51.84
983.805	51.83
984.163	51.88
984.521	51.76
984.879	51.78
985.237	51.81
985.595	51.79
985.953	51.77
986.311	51.77
986.669	51.8
987.026	51.77
987.384	51.71
987.741	51.74
988.099	51.81
988.456	52.02
988.814	52.09
989.171	52.13
989.528	52.03
989.885	52.11
990.242	52.2
990.599	52.31
990.956	52.39
991.313	52.44
991.67	52.41
992.027	52.47
992.383	52.51
992.74	52.44
993.096	52.37
993.453	52.49
993.809	52.55
994.165	52.49
994.522	52.41
994.878	52.46
995.234	52.57
995.59	52.62
995.946	52.6
996.302	52.55
996.658	52.58
997.013	52.69
997.369	52.69
997.725	52.67
998.08	52.78
998.436	52.88
998.791	52.87
999.147	52.97
999.502	53.05
999.857	53.02
1000.212	52.99
1000.567	53.06
1000.922	53
1001.277	52.95
1001.632	53.03
1001.987	52.95
1002.342	52.88
1002.696	52.88
1003.051	52.78
1003.406	52.77
1003.76	52.82
1004.114	53.2
1004.469	53.22
1004.823	53.32
1005.177	53.54
1005.531	53.49
1005.885	53.75
1006.239	53.88
1006.593	54.05
1006.947	54.3
1007.301	54.37
1007.655	54.47
1008.008	54.3
1008.362	54.36
1008.715	54.44
1009.069	54.36
1009.422	54.4
1009.776	54.26
1010.129	54.3
1010.482	54.31
1010.835	54.44
1011.188	54.55
1011.541	54.5
1011.894	54.49
1012.247	54.43
1012.6	54.4
1012.952	54.55
1013.305	54.64
1013.657	54.83
1014.01	55.17
1014.362	55.28
1014.715	54.93
1015.067	55.02
1015.419	55.32
1015.771	55.71
1016.123	56.13
1016.475	56.38
1016.827	56.68
1017.179	57.05
1017.531	57.17
1017.883	57.04
1018.234	57.3
1018.586	57.42
1018.938	57.41
1019.289	57.55
1019.64	57.56
1019.992	57.68
1020.343	57.56
1020.694	57.44
1021.045	57.35
1021.396	57.46
1021.747	57.36
1022.098	57.42
1022.449	57.82
1022.8	57.97
1023.151	57.98
1023.501	57.95
1023.852	57.96
1024.202	58.27
1024.553	58.55
1024.903	58.52
1025.253	58.75
1025.604	59.13
1025.954	58.99
1026.304	59.36
1026.654	59.66
1027.004	60.07
1027.354	60.25
1027.703	60.22
1028.053	60.1
1028.403	59.75
1028.753	60.1
1029.102	60.11
1029.452	60.13
1029.801	60.36
1030.15	60.11
1030.499	60.02
897.758	643.64
901.051	654.39
904.343	661.05
907.636	648.48
910.928	639.4
914.22	647.82
917.511	632.41
920.803	602.59
924.094	577.17
927.384	582.34
930.675	567.26
933.965	561.02
937.255	559.79
940.544	533.9
943.834	511.56
947.123	502.68
950.411	474.7
953.7	467.59
956.988	451.55
960.276	434.14
963.563	426.59
966.851	403.54
970.138	395.19
973.424	368.02
976.711	364.36
979.997	349.33
983.283	341.38
986.568	331.73
989.853	321.56
993.138	311.99
996.423	304.96
999.708	298.45
1002.992	298.33
1006.275	288.85
1009.559	286.26
1012.842	277.76
1016.125	271.56
1019.408	267.48
1022.69	262.74
1025.972	261.74
1029.254	255.21
1032.536	250.65
1035.817	242.49
1039.098	237.2
1042.379	233.79
1045.659	229.6
1048.939	227.26
1052.219	222.83
1055.498	217.32
1058.778	215.44
1062.057	211.27
1065.335	209.61
1068.614	206.5
1071.892	203.4
1075.17	200.32
1078.447	196.27
1081.724	196.08
1085.001	191.13
1088.278	191.54
1091.554	190.97
1094.83	189.21
1098.106	185.83
1101.382	184.68
1104.657	183.34
1107.932	182.08
1111.206	181.16
1114.481	180.09
1117.755	177.84
1121.029	177.76
1124.302	174.37
1127.575	170.96
1130.848	170.42
1134.121	168.64
1137.393	167.96
1140.665	167.88
1143.937	166.34
1147.208	165.11
1150.48	163.42
1153.75	162.4
1157.021	161.49
1160.291	160.66
1163.561	161.03
1166.831	159.37
1170.101	158.73
1173.37	157.44
1176.639	155.66
1179.907	155.82
1183.176	154.72
1186.444	154.79
1189.711	153.87
1192.979	154.61
1196.246	154.72
1199.513	154.39
1202.78	154.66
1206.046	154.99
1209.312	155.88
1212.578	157.16
1215.843	158.65
1219.108	159.47
1222.373	162.35
1225.638	165.53
1228.902	168.18
1232.166	174.11
1235.43	176.83
1238.693	181.29
1241.956	185.82
1245.219	190.1
1248.482	190.71
1251.744	190.33
1255.006	191.48
1258.268	186.18
1261.529	183.99
1264.79	179.18
1268.051	176.47
1271.312	174.73
1274.572	171.68
1277.832	166.27
1281.092	164.8
1284.351	161.61
1287.61	161.74
1290.869	160.64
1294.128	160.37
1297.386	159.81
1300.644	160.41
1303.902	158.1
1307.159	156.6
1310.416	157.37
1313.673	160.48
1316.93	161.75
1320.186	164.23
1323.442	165.93
1326.697	169.73
1329.953	170.72
1333.208	176.72
1336.463	183.18
1339.717	187.02
1342.972	197.01
1346.226	201.72
1349.479	203.09
1352.733	210.57
1355.986	217.08
1359.238	221.73
1362.491	222.11
1365.743	232.15
1368.995	233.15
1372.247	235.13
1375.498	233.24
1378.749	242.01
1382	242.59
1385.251	241.59
1388.501	240.94
1391.751	242.77
1395	240.48
1398.25	243.78
1401.499	242.11
1404.748	242.07
1407.996	235.22
1411.244	237.21
1414.492	232.03
1417.74	227.9
1420.987	222.03
1424.234	218.5
1427.481	209.94
1430.728	205.07
1433.974	197.63
1437.22	191.27
1440.465	184.63
1443.711	178.84
1446.956	173.68
1450.201	166.33
1453.445	157.87
1456.689	153.25
1459.933	148.68
1463.177	142.33
1466.42	139.93
1469.663	136.05
1472.906	132.34
1476.148	128.86
1479.391	125.44
1482.633	122.56
1485.874	120.65
1489.115	119.43
1492.356	118.19
1495.597	115.69
1498.838	115.71
1502.078	114.22
1505.318	113.74
1508.557	112.93
1511.797	111.03
1515.036	111.46
1518.274	110.66
1521.513	108.88
1524.751	108.22
1527.989	108.69
1531.227	108.83
1534.464	107.86
1537.701	107.09
1540.938	106.38
1544.174	106.44
1547.41	105.89
1550.646	106.16
1553.882	106.17
1557.117	106.09
1560.352	106.02
1563.587	104.92
1566.821	104.69
1570.055	103.84
1573.289	103.72
1576.523	103.99
1579.756	103.28
1582.989	104.03
1586.222	103.11
1589.454	102.72
1592.686	103.04
1595.918	102.56
1599.15	102.33
1602.381	102.74
1605.612	103.11
1608.843	103.05
1612.073	103.05
1615.303	103.12
1618.533	103.12
1621.762	103.28
1624.992	103.97
1628.221	103.23
1631.449	104.01
1634.678	104.07
1637.906	103.98
1641.134	104.2
1644.361	104.14
1647.588	103.86
1650.815	104.3
1654.042	104.19
1657.269	103.9
1660.495	104.22
1663.72	104.99
1666.946	104.75
1670.171	105.17
1673.396	105.71
1676.621	105.49
1679.845	105.76
1683.069	105.89
1686.293	105.61
1689.517	106.13
1692.74	106.47
1695.963	106.59
1699.185	106.71
1702.408	106.61
1705.63	106.67
1708.852	107
1712.073	107.23
1715.294	107.09
1718.515	108.25
1721.736	108.42
1724.956	108.49
1728.176	108.31
1731.396	108.49
1734.616	108.41
1737.835	109
1741.054	108.77
1744.272	108.61
1747.491	108.94
1750.709	110.23
1753.927	109.9
1757.144	110.18
1760.361	110.54
1763.578	111.45
1766.795	111.73
1770.011	111.7
1773.227	111.98
1776.443	113.23
1779.658	113.3
1782.874	113.35
1786.089	112.67
1789.303	113.19
1792.518	115.02
1795.732	115.42
1798.945	115.85
1802.159	116.72
1805.372	118.9
1808.585	120.24
1811.797	120.52
1815.01	121.66
1818.222	123.36
1821.434	124.53
1824.645	125.04
1827.856	126.53
1831.067	127.57
1834.278	128.78
1837.488	129.41
1840.698	130.39
1843.908	130.31
1847.117	132.31
1850.326	133.41
1853.535	134.01
1856.744	135.96
1859.952	137.85
1863.16	137.4
1866.368	136.62
1869.575	137.91
1872.782	136.97
1875.989	136.27
1879.196	136.33
1882.402	134.84
1885.608	135.22
1888.814	135.02
1892.019	135.75
1895.224	133.47
1898.429	133.77
1901.634	134.63
1904.838	135.07
1908.042	136.76
1911.246	136.82
1914.449	137.03
1917.652	137.7
1920.855	137.26
1924.058	137.13
1927.26	136.84
1930.462	137.85
1933.664	137.91
1936.865	138.97
1940.066	136.56
1943.267	134.87
1946.467	136.7
1949.668	136.62
1952.868	136.8
1956.067	136.96
1959.267	136.92
1962.466	136.61
1965.665	139.03
1968.863	139.68
1972.061	140.54
1975.259	143.15
1978.457	145.32
1981.654	145.02
1984.852	147.28
1988.048	149.29
1991.245	150.82
1994.441	153.5
1997.637	156.7
2000.833	158.22
2004.028	160.25
2007.223	164.71
2010.418	168.66
2013.613	175.86
2016.807	180.79
2020.001	183.62
2023.194	188.61
2026.388	195.52
2029.581	206.51
2032.774	213.38
2035.966	218.56
2039.158	224.62
2042.35	227.23
2045.542	231.83
2048.733	241.24
2051.924	242.86
2055.115	247.35
2058.306	249.72
2061.496	255.78
2064.686	252.72
2067.875	251.07
2071.065	253.78
2074.254	254.58
2077.442	261.41
2080.631	264.27
2083.819	263.64
2087.007	270.5
2090.195	273.37
2093.382	274.26
2096.569	273.18
2099.756	280.7
2102.942	287.24
2106.128	294.42
2109.314	296.75
2112.5	297.24
2115.685	294.85
2118.87	295.12
2122.055	294.32
2125.239	301.7
2128.424	307.81
2131.608	307.26
2134.791	306.2
2137.974	306.54
2141.157	309.01
2144.34	311
2147.523	316.39
2150.705	324.31
2153.887	321.89
2157.068	326.3
2160.25	327.39
2163.431	327.95
2166.611	333.96
2169.792	339.61
2172.972	345.15
2176.152	344.75
2179.331	352.09
2182.511	353.24
2185.69	355.6
2188.868	371.61
2192.047	378.7
2195.225	384.89
2198.403	391.32
2201.58	386.22
2204.758	399.05
2207.935	400.6
2211.111	411.59
2214.288	413.94
2217.464	419.25
2220.64	423.08
2223.815	422.46
2226.991	416.62
2230.166	421.08
2233.34	432.12
2236.515	444.7
2239.689	437.15
2242.863	446.17
2246.036	438.43
2249.209	450.73
2252.382	447.41
2255.555	465.82
2258.727	467.35
2261.9	487.54
2265.071	491.91
2268.243	487.61
2271.414	499.51
2274.585	513.11
2277.756	512.19
2280.926	533.2
2284.096	532.48
2287.266	536.45
2290.436	525.41
2293.605	540.31
2296.774	553.67
2299.942	557.49
2303.111	572.31
2306.279	585.65
2309.447	583.18
2312.614	583.79
2315.781	598.4
2318.948	602.39
2322.115	616.28
2325.281	646.14
2328.447	637.93
2331.613	644.63
2334.779	650.48
2337.944	665.01
2341.109	673.51
2344.274	683.71
2347.438	702.77
2350.602	713.46
2353.766	766.56
2356.929	767.4
2360.092	779.3
2363.255	786.72
2366.418	797.22
2369.58	810.4
2372.742	810.25
2375.904	810.76
2379.066	834.53
2382.227	890
2385.388	884.4
2388.548	830.79
2391.709	822.84
2394.869	850.27
2398.029	854.9
2401.188	848.57
2404.347	883.12
2407.506	908.91
2410.665	872.37
2413.823	875.53
2416.981	872.26
2420.139	830.07
2423.296	903.27
2426.453	965.21
2429.61	916.03
2432.767	975.22
2435.923	1009.32
2439.079	974.67
2442.235	996.1
2445.391	1022.45
2448.546	1015.62
2451.701	1070.51
2454.855	1149.48
2458.009	1010.25
2461.163	1025.65
2464.317	1044.94
2467.471	1019.93
2470.624	1060.4
2473.777	1033.29
2476.929	1000.7
2480.082	1072.44
2483.234	1125.09
2486.385	1142.67
2489.537	1168.48
2492.688	1294.7
2495.839	1271.18
2498.989	1302.39
2502.14	1313.48
2505.29	1248.93
2508.439	1387.24
2511.589	1423.75
2514.738	1368.94
2517.887	1357.86
2521.035	1272.16
2524.183	1255.7
2527.331	1240.62
2530.479	1210.88
2533.627	1238.41
