Data from N_3_div_il_4n_Splice17_06.txt Node
Date: Sat Feb 29 14:59:37 EST 2020
User: sa697716
Spectrometer: FLMS03696
Trigger mode: 0
Integration Time (sec): 3.180400E-1
Scans to average: 20
Electric dark correction enabled: true
Nonlinearity correction enabled: true
Boxcar width: 5
XAxis mode: Wavelengths
Number of Pixels in Spectrum: 2048
>>>>>Begin Spectral Data<<<<<
187.83	99.53
188.298	97.47
188.766	90.8
189.233	86.79
189.701	92.58
190.169	87.36
190.636	105.08
191.104	132.55
191.571	582.74
192.039	491.72
192.506	-368.96
192.974	-6092.3
193.441	1020.67
193.908	-32.22
194.375	-37.49
194.842	45.09
195.31	35.97
195.777	61.16
196.244	51.88
196.711	53.41
197.177	55.69
197.644	56.19
198.111	56.47
198.578	57.17
199.045	56.82
199.511	56.7
199.978	56.78
200.445	56.24
200.911	56.25
201.378	56.46
201.844	57.4
202.31	57.86
202.777	57.86
203.243	57.98
203.709	57.82
204.176	57.87
204.642	57.19
205.108	56.52
205.574	56.88
206.04	56.47
206.506	55.85
206.972	54.74
207.438	53.98
207.903	53.38
208.369	52.17
208.835	51.09
209.301	49.97
209.766	49.14
210.232	48.26
210.697	47.28
211.163	46.07
211.628	44.89
212.094	43.9
212.559	42.91
213.024	41.94
213.49	41
213.955	40.17
214.42	39.09
214.885	37.56
215.35	35.81
215.815	33.36
216.28	31.23
216.745	28.91
217.21	26.38
217.675	23.85
218.14	21.51
218.604	19.52
219.069	17.76
219.534	16.28
219.998	15.08
220.463	14.06
220.927	13.25
221.392	12.5
221.856	11.83
222.32	11.28
222.785	10.79
223.249	10.38
223.713	10.03
224.177	9.69
224.642	9.39
225.106	9.12
225.57	8.86
226.034	8.62
226.497	8.39
226.961	8.17
227.425	7.94
227.889	7.73
228.353	7.53
228.816	7.35
229.28	7.16
229.744	7
230.207	6.83
230.671	6.68
231.134	6.52
231.597	6.38
232.061	6.25
232.524	6.17
232.987	6.06
233.45	5.95
233.914	5.86
234.377	5.79
234.84	5.7
235.303	5.63
235.766	5.55
236.229	5.5
236.691	5.45
237.154	5.38
237.617	5.3
238.08	5.23
238.542	5.18
239.005	5.13
239.468	5.07
239.93	5.01
240.393	4.96
240.855	4.91
241.317	4.85
241.78	4.8
242.242	4.74
242.704	4.71
243.166	4.67
243.629	4.61
244.091	4.56
244.553	4.51
245.015	4.47
245.477	4.41
245.939	4.37
246.4	4.31
246.862	4.27
247.324	4.25
247.786	4.2
248.247	4.17
248.709	4.13
249.17	4.09
249.632	4.06
250.093	4.01
250.555	3.98
251.016	3.95
251.477	3.92
251.939	3.88
252.4	3.84
252.861	3.81
253.322	3.78
253.783	3.76
254.244	3.74
254.705	3.7
255.166	3.69
255.627	3.66
256.088	3.63
256.549	3.61
257.009	3.58
257.47	3.57
257.931	3.53
258.391	3.49
258.852	3.45
259.312	3.42
259.773	3.39
260.233	3.34
260.694	3.3
261.154	3.27
261.614	3.23
262.074	3.21
262.534	3.16
262.994	3.14
263.455	3.11
263.915	3.08
264.374	3.06
264.834	3.03
265.294	3.01
265.754	2.98
266.214	2.96
266.673	2.94
267.133	2.91
267.593	2.9
268.052	2.88
268.512	2.87
268.971	2.86
269.431	2.84
269.89	2.83
270.349	2.81
270.809	2.81
271.268	2.8
271.727	2.79
272.186	2.78
272.645	2.76
273.104	2.75
273.563	2.74
274.022	2.73
274.481	2.72
274.94	2.71
275.399	2.7
275.857	2.69
276.316	2.68
276.775	2.67
277.233	2.66
277.692	2.66
278.15	2.65
278.609	2.64
279.067	2.63
279.525	2.62
279.984	2.62
280.442	2.61
280.9	2.61
281.358	2.61
281.816	2.6
282.274	2.6
282.732	2.6
283.19	2.59
283.648	2.6
284.106	2.59
284.564	2.59
285.021	2.59
285.479	2.59
285.937	2.58
286.394	2.57
286.852	2.56
287.309	2.55
287.767	2.54
288.224	2.54
288.682	2.52
289.139	2.52
289.596	2.5
290.053	2.48
290.511	2.47
290.968	2.45
291.425	2.44
291.882	2.43
292.339	2.41
292.796	2.39
293.252	2.38
293.709	2.37
294.166	2.36
294.623	2.35
295.079	2.35
295.536	2.34
295.992	2.33
296.449	2.33
296.905	2.32
297.362	2.31
297.818	2.31
298.274	2.29
298.731	2.28
299.187	2.28
299.643	2.27
300.099	2.26
300.555	2.25
301.011	2.25
301.467	2.24
301.923	2.24
302.379	2.24
302.835	2.23
303.291	2.23
303.746	2.23
304.202	2.23
304.658	2.23
305.113	2.22
305.569	2.23
306.024	2.23
306.479	2.22
306.935	2.22
307.39	2.22
307.845	2.22
308.301	2.23
308.756	2.23
309.211	2.24
309.666	2.24
310.121	2.24
310.576	2.24
311.031	2.24
311.486	2.25
311.94	2.24
312.395	2.25
312.85	2.24
313.305	2.23
313.759	2.23
314.214	2.23
314.668	2.23
315.123	2.22
315.577	2.22
316.032	2.21
316.486	2.2
316.94	2.19
317.394	2.18
317.849	2.18
318.303	2.18
318.757	2.17
319.211	2.15
319.665	2.15
320.119	2.14
320.572	2.14
321.026	2.13
321.48	2.12
321.934	2.12
322.387	2.12
322.841	2.12
323.295	2.11
323.748	2.12
324.202	2.11
324.655	2.1
325.108	2.09
325.562	2.08
326.015	2.08
326.468	2.07
326.921	2.07
327.374	2.07
327.827	2.07
328.28	2.07
328.733	2.06
329.186	2.06
329.639	2.06
330.092	2.06
330.545	2.07
330.997	2.08
331.45	2.08
331.903	2.07
332.355	2.07
332.808	2.07
333.26	2.07
333.713	2.08
334.165	2.09
334.617	2.09
335.069	2.1
335.522	2.1
335.974	2.1
336.426	2.1
336.878	2.1
337.33	2.11
337.782	2.11
338.234	2.11
338.686	2.11
339.137	2.11
339.589	2.1
340.041	2.09
340.493	2.08
340.944	2.07
341.396	2.07
341.847	2.06
342.299	2.04
342.75	2.03
343.201	2.01
343.653	2.01
344.104	2
344.555	1.99
345.006	1.98
345.457	1.98
345.908	1.98
346.359	1.98
346.81	1.98
347.261	1.98
347.712	1.98
348.163	1.98
348.613	1.97
349.064	1.95
349.515	1.95
349.965	1.94
350.416	1.94
350.866	1.93
351.317	1.92
351.767	1.91
352.217	1.92
352.668	1.91
353.118	1.92
353.568	1.93
354.018	1.95
354.468	1.95
354.918	1.97
355.368	1.97
355.818	1.97
356.268	1.98
356.718	1.99
357.168	1.98
357.617	1.99
358.067	1.98
358.517	1.97
358.966	1.98
359.416	1.99
359.865	1.99
360.315	2.01
360.764	2.01
361.213	2.02
361.663	2.03
362.112	2.04
362.561	2.06
363.01	2.08
363.459	2.09
363.908	2.1
364.357	2.12
364.806	2.13
365.255	2.14
365.703	2.16
366.152	2.17
366.601	2.19
367.05	2.21
367.498	2.22
367.947	2.24
368.395	2.26
368.844	2.28
369.292	2.29
369.74	2.32
370.189	2.34
370.637	2.37
371.085	2.42
371.533	2.43
371.981	2.46
372.429	2.48
372.877	2.5
373.325	2.52
373.773	2.55
374.221	2.57
374.669	2.58
375.116	2.6
375.564	2.61
376.012	2.63
376.459	2.65
376.907	2.67
377.354	2.69
377.801	2.71
378.249	2.74
378.696	2.77
379.143	2.8
379.591	2.83
380.038	2.87
380.485	2.89
380.932	2.9
381.379	2.93
381.826	2.96
382.273	2.98
382.72	3.01
383.166	3.04
383.613	3.06
384.06	3.07
384.506	3.1
384.953	3.11
385.4	3.15
385.846	3.16
386.292	3.18
386.739	3.2
387.185	3.23
387.631	3.24
388.078	3.26
388.524	3.26
388.97	3.28
389.416	3.29
389.862	3.3
390.308	3.31
390.754	3.33
391.2	3.34
391.645	3.37
392.091	3.37
392.537	3.39
392.983	3.4
393.428	3.42
393.874	3.43
394.319	3.45
394.765	3.46
395.21	3.46
395.655	3.47
396.101	3.49
396.546	3.48
396.991	3.5
397.436	3.48
397.881	3.49
398.326	3.51
398.771	3.53
399.216	3.55
399.661	3.56
400.106	3.57
400.551	3.57
400.995	3.56
401.44	3.56
401.885	3.55
402.329	3.56
402.774	3.55
403.218	3.53
403.663	3.51
404.107	3.51
404.551	3.51
404.995	3.51
405.44	3.51
405.884	3.51
406.328	3.51
406.772	3.51
407.216	3.51
407.66	3.52
408.104	3.53
408.547	3.53
408.991	3.52
409.435	3.49
409.879	3.49
410.322	3.5
410.766	3.49
411.209	3.5
411.653	3.48
412.096	3.48
412.54	3.48
412.983	3.48
413.426	3.49
413.869	3.5
414.312	3.53
414.756	3.54
415.199	3.55
415.642	3.57
416.085	3.59
416.527	3.61
416.97	3.64
417.413	3.62
417.856	3.62
418.298	3.61
418.741	3.61
419.184	3.6
419.626	3.59
420.069	3.58
420.511	3.58
420.953	3.56
421.396	3.57
421.838	3.58
422.28	3.61
422.722	3.61
423.164	3.62
423.606	3.63
424.048	3.63
424.49	3.64
424.932	3.64
425.374	3.64
425.816	3.62
426.258	3.61
426.699	3.57
427.141	3.54
427.582	3.53
428.024	3.53
428.465	3.54
428.907	3.54
429.348	3.53
429.789	3.53
430.231	3.53
430.672	3.55
431.113	3.54
431.554	3.55
431.995	3.56
432.436	3.57
432.877	3.56
433.318	3.56
433.759	3.55
434.2	3.56
434.64	3.57
435.081	3.57
435.522	3.58
435.962	3.62
436.403	3.63
436.843	3.64
437.284	3.65
437.724	3.67
438.164	3.66
438.604	3.68
439.045	3.68
439.485	3.68
439.925	3.68
440.365	3.67
440.805	3.68
441.245	3.66
441.685	3.67
442.125	3.66
442.564	3.68
443.004	3.68
443.444	3.69
443.883	3.7
444.323	3.71
444.762	3.72
445.202	3.75
445.641	3.75
446.081	3.79
446.52	3.78
446.959	3.8
447.398	3.82
447.837	3.86
448.276	3.84
448.716	3.85
449.154	3.89
449.593	3.9
450.032	3.89
450.471	3.87
450.91	3.86
451.349	3.89
451.787	3.87
452.226	3.83
452.664	3.81
453.103	3.81
453.541	3.8
453.98	3.77
454.418	3.75
454.856	3.74
455.295	3.73
455.733	3.71
456.171	3.69
456.609	3.69
457.047	3.68
457.485	3.66
457.923	3.65
458.361	3.62
458.798	3.62
459.236	3.61
459.674	3.61
460.111	3.61
460.549	3.6
460.987	3.59
461.424	3.58
461.862	3.59
462.299	3.59
462.736	3.59
463.173	3.61
463.611	3.59
464.048	3.59
464.485	3.58
464.922	3.58
465.359	3.57
465.796	3.57
466.233	3.58
466.67	3.58
467.106	3.58
467.543	3.6
467.98	3.59
468.416	3.6
468.853	3.61
469.29	3.63
469.726	3.63
470.162	3.63
470.599	3.65
471.035	3.65
471.471	3.64
471.907	3.64
472.344	3.63
472.78	3.63
473.216	3.63
473.652	3.62
474.088	3.63
474.523	3.63
474.959	3.62
475.395	3.61
475.831	3.6
476.266	3.61
476.702	3.6
477.138	3.59
477.573	3.58
478.008	3.57
478.444	3.56
478.879	3.55
479.314	3.55
479.75	3.54
480.185	3.53
480.62	3.52
481.055	3.51
481.49	3.5
481.925	3.47
482.36	3.46
482.795	3.46
483.229	3.45
483.664	3.43
484.099	3.42
484.534	3.4
484.968	3.4
485.403	3.39
485.837	3.39
486.271	3.38
486.706	3.37
487.14	3.39
487.574	3.38
488.009	3.38
488.443	3.38
488.877	3.38
489.311	3.39
489.745	3.39
490.179	3.39
490.613	3.39
491.046	3.41
491.48	3.44
491.914	3.44
492.348	3.45
492.781	3.47
493.215	3.49
493.648	3.52
494.082	3.54
494.515	3.57
494.948	3.6
495.382	3.63
495.815	3.66
496.248	3.7
496.681	3.73
497.114	3.77
497.547	3.81
497.98	3.84
498.413	3.88
498.846	3.92
499.279	3.96
499.711	4
500.144	4.04
500.577	4.09
501.009	4.14
501.442	4.19
501.874	4.24
502.306	4.3
502.739	4.35
503.171	4.42
503.603	4.48
504.036	4.56
504.468	4.64
504.9	4.73
505.332	4.81
505.764	4.9
506.196	4.99
506.627	5.09
507.059	5.18
507.491	5.29
507.923	5.39
508.354	5.5
508.786	5.61
509.217	5.71
509.649	5.83
510.08	5.95
510.512	6.06
510.943	6.2
511.374	6.34
511.805	6.47
512.237	6.62
512.668	6.76
513.099	6.92
513.53	7.07
513.961	7.24
514.391	7.39
514.822	7.53
515.253	7.69
515.684	7.84
516.114	7.99
516.545	8.16
516.975	8.33
517.406	8.48
517.836	8.62
518.267	8.79
518.697	8.95
519.127	9.11
519.558	9.29
519.988	9.45
520.418	9.63
520.848	9.8
521.278	9.95
521.708	10.1
522.138	10.26
522.567	10.42
522.997	10.56
523.427	10.7
523.857	10.83
524.286	10.96
524.716	11.1
525.145	11.24
525.575	11.37
526.004	11.49
526.433	11.64
526.863	11.77
527.292	11.89
527.721	12
528.15	12.09
528.579	12.21
529.008	12.32
529.437	12.41
529.866	12.48
530.295	12.58
530.724	12.68
531.152	12.75
531.581	12.8
532.01	12.87
532.438	12.95
532.867	13.02
533.295	13.08
533.723	13.14
534.152	13.2
534.58	13.24
535.008	13.25
535.436	13.27
535.865	13.3
536.293	13.34
536.721	13.38
537.149	13.41
537.576	13.44
538.004	13.46
538.432	13.48
538.86	13.51
539.287	13.55
539.715	13.59
540.143	13.63
540.57	13.65
540.998	13.68
541.425	13.7
541.852	13.72
542.28	13.73
542.707	13.75
543.134	13.76
543.561	13.76
543.988	13.77
544.415	13.78
544.842	13.79
545.269	13.82
545.696	13.82
546.123	13.84
546.549	13.85
546.976	13.88
547.403	13.9
547.829	13.91
548.256	13.95
548.682	13.97
549.108	14
549.535	14.01
549.961	14.01
550.387	14.02
550.813	14.02
551.24	14.02
551.666	14.03
552.092	14.01
552.518	14.01
552.943	14
553.369	13.99
553.795	13.97
554.221	13.96
554.646	13.94
555.072	13.93
555.498	13.91
555.923	13.88
556.349	13.84
556.774	13.82
557.199	13.78
557.625	13.75
558.05	13.69
558.475	13.65
558.9	13.6
559.325	13.56
559.75	13.49
560.175	13.43
560.6	13.37
561.025	13.3
561.449	13.23
561.874	13.16
562.299	13.08
562.723	13.02
563.148	12.93
563.572	12.86
563.997	12.78
564.421	12.68
564.846	12.6
565.27	12.52
565.694	12.44
566.118	12.34
566.542	12.25
566.966	12.16
567.39	12.05
567.814	11.95
568.238	11.84
568.662	11.73
569.086	11.64
569.509	11.54
569.933	11.41
570.357	11.29
570.78	11.2
571.204	11.09
571.627	11
572.05	10.92
572.474	10.83
572.897	10.74
573.32	10.65
573.743	10.55
574.166	10.47
574.589	10.42
575.012	10.35
575.435	10.29
575.858	10.22
576.281	10.15
576.704	10.09
577.126	10.03
577.549	9.98
577.972	9.93
578.394	9.88
578.817	9.83
579.239	9.76
579.661	9.72
580.084	9.66
580.506	9.62
580.928	9.57
581.35	9.53
581.772	9.48
582.194	9.43
582.616	9.38
583.038	9.34
583.46	9.3
583.882	9.26
584.303	9.21
584.725	9.18
585.147	9.12
585.568	9.07
585.99	9.03
586.411	8.99
586.833	8.96
587.254	8.95
587.675	8.91
588.096	8.9
588.518	8.87
588.939	8.86
589.36	8.84
589.781	8.81
590.202	8.8
590.623	8.77
591.043	8.75
591.464	8.73
591.885	8.71
592.305	8.69
592.726	8.65
593.147	8.64
593.567	8.62
593.987	8.6
594.408	8.6
594.828	8.57
595.248	8.56
595.669	8.54
596.089	8.51
596.509	8.47
596.929	8.45
597.349	8.43
597.769	8.41
598.189	8.38
598.608	8.36
599.028	8.32
599.448	8.31
599.867	8.28
600.287	8.25
600.706	8.23
601.126	8.19
601.545	8.17
601.965	8.13
602.384	8.08
602.803	8.04
603.222	8
603.641	7.97
604.061	7.92
604.48	7.89
604.898	7.83
605.317	7.8
605.736	7.76
606.155	7.71
606.574	7.68
606.992	7.64
607.411	7.61
607.829	7.52
608.248	7.49
608.666	7.45
609.085	7.4
609.503	7.36
609.921	7.31
610.339	7.28
610.758	7.23
611.176	7.19
611.594	7.15
612.012	7.09
612.43	7.1
612.847	7.05
613.265	7.01
613.683	6.97
614.101	6.94
614.518	6.89
614.936	6.85
615.353	6.82
615.771	6.77
616.188	6.74
616.606	6.73
617.023	6.69
617.44	6.66
617.857	6.62
618.274	6.6
618.691	6.57
619.108	6.54
619.525	6.51
619.942	6.49
620.359	6.49
620.776	6.47
621.192	6.44
621.609	6.41
622.026	6.41
622.442	6.39
622.859	6.39
623.275	6.39
623.691	6.38
624.108	6.38
624.524	6.37
624.94	6.34
625.356	6.32
625.772	6.32
626.188	6.32
626.604	6.3
627.02	6.3
627.436	6.28
627.852	6.26
628.268	6.25
628.683	6.23
629.099	6.23
629.514	6.24
629.93	6.24
630.345	6.2
630.761	6.19
631.176	6.18
631.591	6.16
632.007	6.14
632.422	6.13
632.837	6.1
633.252	6.08
633.667	6.04
634.082	6
634.497	5.96
634.911	5.92
635.326	5.89
635.741	5.84
636.155	5.8
636.57	5.76
636.984	5.69
637.399	5.64
637.813	5.58
638.228	5.52
638.642	5.46
639.056	5.41
639.47	5.36
639.884	5.29
640.298	5.23
640.712	5.17
641.126	5.11
641.54	5.05
641.954	5.02
642.368	4.96
642.781	4.92
643.195	4.87
643.609	4.82
644.022	4.77
644.436	4.73
644.849	4.7
645.262	4.67
645.676	4.62
646.089	4.59
646.502	4.54
646.915	4.5
647.328	4.47
647.741	4.43
648.154	4.42
648.567	4.4
648.98	4.38
649.393	4.35
649.805	4.31
650.218	4.3
650.631	4.28
651.043	4.26
651.456	4.25
651.868	4.24
652.28	4.22
652.693	4.19
653.105	4.16
653.517	4.13
653.929	4.11
654.341	4.09
654.753	4.06
655.165	4.04
655.577	4
655.989	3.95
656.401	3.91
656.813	3.86
657.224	3.83
657.636	3.81
658.047	3.76
658.459	3.72
658.87	3.69
659.282	3.66
659.693	3.61
660.104	3.58
660.515	3.55
660.926	3.53
661.338	3.51
661.749	3.47
662.159	3.44
662.57	3.42
662.981	3.4
663.392	3.37
663.803	3.36
664.213	3.33
664.624	3.32
665.035	3.3
665.445	3.28
665.855	3.26
666.266	3.26
666.676	3.27
667.086	3.25
667.497	3.23
667.907	3.21
668.317	3.18
668.727	3.17
669.137	3.16
669.547	3.18
669.956	3.17
670.366	3.17
670.776	3.17
671.186	3.17
671.595	3.18
672.005	3.2
672.414	3.22
672.824	3.24
673.233	3.27
673.642	3.28
674.052	3.28
674.461	3.3
674.87	3.3
675.279	3.31
675.688	3.32
676.097	3.33
676.506	3.33
676.915	3.36
677.323	3.37
677.732	3.39
678.141	3.42
678.549	3.45
678.958	3.48
679.366	3.5
679.775	3.54
680.183	3.58
680.592	3.63
681	3.67
681.408	3.72
681.816	3.75
682.224	3.8
682.632	3.85
683.04	3.9
683.448	3.97
683.856	4.06
684.264	4.13
684.671	4.23
685.079	4.32
685.487	4.44
685.894	4.54
686.302	4.67
686.709	4.79
687.116	4.94
687.524	5.11
687.931	5.28
688.338	5.47
688.745	5.68
689.152	5.9
689.559	6.13
689.966	6.35
690.373	6.62
690.78	6.89
691.187	7.18
691.593	7.46
692	7.76
692.407	8.07
692.813	8.38
693.22	8.69
693.626	9
694.032	9.32
694.439	9.68
694.845	10.02
695.251	10.37
695.657	10.72
696.063	11.07
696.469	11.43
696.875	11.76
697.281	12.1
697.687	12.46
698.093	12.83
698.498	13.19
698.904	13.53
699.31	13.86
699.715	14.21
700.12	14.52
700.526	14.85
700.931	15.18
701.337	15.52
701.742	15.86
702.147	16.17
702.552	16.48
702.957	16.79
703.362	17.1
703.767	17.41
704.172	17.71
704.577	18.03
704.981	18.34
705.386	18.63
705.791	18.92
706.195	19.2
706.6	19.49
707.004	19.75
707.408	20.02
707.813	20.27
708.217	20.53
708.621	20.78
709.025	21.03
709.43	21.28
709.834	21.55
710.237	21.76
710.641	22.02
711.045	22.25
711.449	22.49
711.853	22.71
712.256	22.96
712.66	23.18
713.064	23.39
713.467	23.59
713.87	23.81
714.274	24
714.677	24.21
715.08	24.38
715.484	24.59
715.887	24.79
716.29	24.99
716.693	25.17
717.096	25.37
717.499	25.58
717.901	25.78
718.304	25.97
718.707	26.15
719.109	26.35
719.512	26.55
719.915	26.71
720.317	26.87
720.719	27.03
721.122	27.2
721.524	27.38
721.926	27.54
722.328	27.68
722.731	27.8
723.133	27.97
723.535	28.12
723.937	28.27
724.338	28.38
724.74	28.48
725.142	28.54
725.544	28.65
725.945	28.74
726.347	28.82
726.748	28.9
727.15	29.01
727.551	29.1
727.952	29.18
728.354	29.27
728.755	29.38
729.156	29.49
729.557	29.65
729.958	29.75
730.359	29.85
730.76	29.94
731.161	30.04
731.562	30.13
731.962	30.19
732.363	30.25
732.763	30.33
733.164	30.4
733.564	30.45
733.965	30.5
734.365	30.57
734.766	30.61
735.166	30.66
735.566	30.7
735.966	30.73
736.366	30.77
736.766	30.82
737.166	30.88
737.566	30.91
737.966	30.97
738.365	30.99
738.765	31.01
739.165	31.02
739.564	31.07
739.964	31.1
740.363	31.13
740.763	31.15
741.162	31.17
741.561	31.18
741.96	31.21
742.36	31.24
742.759	31.23
743.158	31.25
743.557	31.29
743.955	31.31
744.354	31.35
744.753	31.38
745.152	31.4
745.55	31.46
745.949	31.48
746.348	31.5
746.746	31.5
747.144	31.56
747.543	31.61
747.941	31.67
748.339	31.7
748.737	31.72
749.136	31.74
749.534	31.79
749.932	31.77
750.33	31.77
750.727	31.79
751.125	31.82
751.523	31.8
751.921	31.81
752.318	31.8
752.716	31.79
753.113	31.77
753.511	31.76
753.908	31.73
754.305	31.72
754.703	31.71
755.1	31.68
755.497	31.68
755.894	31.66
756.291	31.61
756.688	31.55
757.085	31.54
757.482	31.52
757.878	31.5
758.275	31.48
758.672	31.49
759.068	31.48
759.465	31.49
759.861	31.47
760.258	31.44
760.654	31.47
761.05	31.48
761.447	31.49
761.843	31.5
762.239	31.5
762.635	31.52
763.031	31.55
763.427	31.55
763.822	31.54
764.218	31.56
764.614	31.6
765.01	31.59
765.405	31.59
765.801	31.58
766.196	31.6
766.592	31.61
766.987	31.63
767.382	31.61
767.778	31.64
768.173	31.64
768.568	31.63
768.963	31.65
769.358	31.65
769.753	31.7
770.148	31.71
770.542	31.69
770.937	31.7
771.332	31.7
771.726	31.71
772.121	31.67
772.515	31.69
772.91	31.71
773.304	31.71
773.699	31.73
774.093	31.71
774.487	31.7
774.881	31.74
775.275	31.74
775.669	31.72
776.063	31.73
776.457	31.75
776.851	31.73
777.245	31.73
777.638	31.73
778.032	31.73
778.425	31.72
778.819	31.74
779.212	31.72
779.606	31.72
779.999	31.71
780.392	31.71
780.786	31.72
781.179	31.76
781.572	31.76
781.965	31.74
782.358	31.69
782.751	31.71
783.143	31.72
783.536	31.73
783.929	31.73
784.322	31.77
784.714	31.78
785.107	31.79
785.499	31.8
785.891	31.8
786.284	31.78
786.676	31.84
787.068	31.85
787.46	31.84
787.852	31.85
788.245	31.85
788.636	31.83
789.028	31.82
789.42	31.81
789.812	31.82
790.204	31.8
790.595	31.84
790.987	31.8
791.378	31.81
791.77	31.84
792.161	31.84
792.553	31.85
792.944	31.88
793.335	31.92
793.726	31.94
794.117	31.92
794.508	31.92
794.899	31.94
795.29	31.95
795.681	31.94
796.072	31.91
796.463	31.87
796.853	31.83
797.244	31.83
797.634	31.81
798.025	31.81
798.415	31.8
798.806	31.81
799.196	31.79
799.586	31.8
799.976	31.79
800.366	31.81
800.756	31.85
801.146	31.89
801.536	31.89
801.926	31.89
802.316	31.9
802.706	31.92
803.095	31.94
803.485	31.96
803.874	31.97
804.264	32.02
804.653	31.99
805.043	32
805.432	31.97
805.821	31.97
806.21	31.95
806.599	31.96
806.988	31.95
807.377	31.93
807.766	31.92
808.155	31.94
808.544	31.92
808.933	31.94
809.321	31.94
809.71	31.99
810.098	31.99
810.487	32.01
810.875	32
811.264	32
811.652	32.01
812.04	32.03
812.428	32.02
812.816	32.04
813.204	32.04
813.592	32.03
813.98	32.01
814.368	31.99
814.756	32
815.144	32.03
815.531	32.04
815.919	32.07
816.306	32.05
816.694	32.06
817.081	32.05
817.469	32.06
817.856	32.09
818.243	32.1
818.63	32.13
819.017	32.13
819.404	32.09
819.791	32.1
820.178	32.08
820.565	32.09
820.952	32.07
821.339	32.06
821.725	32.06
822.112	32.03
822.498	32.04
822.885	32.03
823.271	32.01
823.657	32.02
824.044	32
824.43	32.01
824.816	31.98
825.202	31.99
825.588	31.99
825.974	31.99
826.36	31.99
826.746	31.99
827.132	31.98
827.517	31.98
827.903	31.95
828.289	31.95
828.674	31.93
829.06	31.93
829.445	31.94
829.83	31.95
830.216	31.94
830.601	31.94
830.986	31.92
831.371	31.94
831.756	31.89
832.141	31.91
832.526	31.92
832.911	31.94
833.295	31.95
833.68	31.93
834.065	31.92
834.449	31.86
834.834	31.84
835.218	31.83
835.603	31.79
835.987	31.81
836.371	31.8
836.755	31.79
837.139	31.75
837.524	31.74
837.908	31.73
838.291	31.72
838.675	31.76
839.059	31.76
839.443	31.75
839.827	31.73
840.21	31.74
840.594	31.72
840.977	31.71
841.361	31.7
841.744	31.69
842.127	31.68
842.511	31.66
842.894	31.64
843.277	31.64
843.66	31.65
844.043	31.66
844.426	31.64
844.809	31.64
845.191	31.64
845.574	31.63
845.957	31.62
846.339	31.62
846.722	31.63
847.104	31.63
847.487	31.63
847.869	31.63
848.252	31.62
848.634	31.63
849.016	31.63
849.398	31.64
849.78	31.66
850.162	31.64
850.544	31.66
850.926	31.65
851.307	31.65
851.689	31.62
852.071	31.61
852.452	31.61
852.834	31.6
853.215	31.58
853.597	31.57
853.978	31.54
854.359	31.54
854.741	31.5
855.122	31.51
855.503	31.51
855.884	31.5
856.265	31.5
856.646	31.49
857.026	31.51
857.407	31.5
857.788	31.52
858.169	31.53
858.549	31.55
858.93	31.57
859.31	31.57
859.69	31.54
860.071	31.58
860.451	31.59
860.831	31.61
861.211	31.57
861.591	31.58
861.971	31.56
862.351	31.56
862.731	31.55
863.111	31.54
863.491	31.55
863.87	31.57
864.25	31.58
864.629	31.56
865.009	31.54
865.388	31.57
865.768	31.58
866.147	31.6
866.526	31.6
866.905	31.61
867.284	31.62
867.663	31.62
868.042	31.61
868.421	31.6
868.8	31.63
869.179	31.65
869.558	31.65
869.936	31.64
870.315	31.65
870.693	31.65
871.072	31.66
871.45	31.65
871.828	31.65
872.207	31.68
872.585	31.69
872.963	31.66
873.341	31.66
873.719	31.66
874.097	31.65
874.475	31.63
874.853	31.63
875.23	31.64
875.608	31.63
875.986	31.61
876.363	31.59
876.741	31.6
877.118	31.6
877.495	31.59
877.873	31.56
878.25	31.55
878.627	31.54
879.004	31.54
879.381	31.55
879.758	31.54
880.135	31.54
880.512	31.54
880.889	31.52
881.265	31.51
881.642	31.54
882.019	31.57
882.395	31.58
882.772	31.6
883.148	31.6
883.524	31.59
883.901	31.6
884.277	31.62
884.653	31.62
885.029	31.61
885.405	31.59
885.781	31.57
886.157	31.54
886.532	31.52
886.908	31.5
887.284	31.51
887.659	31.5
888.035	31.5
888.411	31.48
888.786	31.46
889.161	31.45
889.537	31.46
889.912	31.44
890.287	31.42
890.662	31.42
891.037	31.4
891.412	31.36
891.787	31.33
892.162	31.3
892.536	31.29
892.911	31.28
893.286	31.26
893.66	31.24
894.035	31.24
894.409	31.22
894.784	31.22
895.158	31.21
895.532	31.19
895.906	31.21
896.281	31.2
896.655	31.2
897.029	31.19
897.402	31.19
897.776	31.21
898.15	31.22
898.524	31.24
898.898	31.22
899.271	31.23
899.645	31.26
900.018	31.25
900.392	31.26
900.765	31.25
901.138	31.26
901.511	31.27
901.884	31.29
902.258	31.28
902.631	31.3
903.003	31.32
903.376	31.33
903.749	31.34
904.122	31.37
904.495	31.38
904.867	31.4
905.24	31.43
905.612	31.46
905.985	31.43
906.357	31.44
906.729	31.45
907.102	31.47
907.474	31.47
907.846	31.45
908.218	31.43
908.59	31.43
908.962	31.4
909.334	31.39
909.705	31.37
910.077	31.35
910.449	31.38
910.82	31.38
911.192	31.37
911.563	31.39
911.935	31.4
912.306	31.42
912.677	31.43
913.048	31.43
913.419	31.42
913.79	31.41
914.161	31.43
914.532	31.42
914.903	31.4
915.274	31.39
915.645	31.4
916.015	31.42
916.386	31.39
916.756	31.38
917.127	31.39
917.497	31.44
917.868	31.46
918.238	31.47
918.608	31.47
918.978	31.47
919.348	31.48
919.718	31.47
920.088	31.43
920.458	31.45
920.828	31.49
921.198	31.49
921.567	31.44
921.937	31.45
922.306	31.43
922.676	31.44
923.045	31.45
923.415	31.44
923.784	31.44
924.153	31.48
924.522	31.5
924.891	31.51
925.26	31.53
925.629	31.55
925.998	31.53
926.367	31.56
926.736	31.52
927.104	31.56
927.473	31.6
927.842	31.57
928.21	31.57
928.578	31.56
928.947	31.57
929.315	31.57
929.683	31.6
930.051	31.58
930.42	31.56
930.788	31.59
931.156	31.53
931.523	31.5
931.891	31.5
932.259	31.45
932.627	31.37
932.994	31.36
933.362	31.29
933.729	31.2
934.097	31.18
934.464	31.16
934.831	31.16
935.199	31.2
935.566	31.17
935.933	31.31
936.3	31.34
936.667	31.42
937.034	31.41
937.401	31.37
937.767	31.45
938.134	31.49
938.501	31.47
938.867	31.5
939.234	31.55
939.6	31.62
939.967	31.52
940.333	31.63
940.699	31.77
941.065	31.86
941.431	32
941.798	32.12
942.163	32.25
942.529	32.36
942.895	32.49
943.261	32.48
943.627	32.58
943.992	32.61
944.358	32.58
944.723	32.52
945.089	32.54
945.454	32.61
945.82	32.53
946.185	32.57
946.55	32.61
946.915	32.51
947.28	32.49
947.645	32.43
948.01	32.34
948.375	32.34
948.74	32.31
949.104	32.23
949.469	32.22
949.834	32.23
950.198	32.17
950.562	32.14
950.927	32.11
951.291	32.1
951.655	32.05
952.02	32.03
952.384	32.05
952.748	31.98
953.112	32.03
953.476	31.95
953.839	31.88
954.203	31.76
954.567	31.77
954.931	31.72
955.294	31.68
955.658	31.68
956.021	31.71
956.385	31.69
956.748	31.74
957.111	31.63
957.474	31.63
957.837	31.65
958.2	31.69
958.563	31.69
958.926	31.7
959.289	31.7
959.652	31.72
960.015	31.72
960.377	31.63
960.74	31.55
961.102	31.61
961.465	31.62
961.827	31.52
962.189	31.53
962.552	31.44
962.914	31.41
963.276	31.4
963.638	31.38
964	31.33
964.362	31.36
964.724	31.4
965.085	31.37
965.447	31.36
965.809	31.38
966.17	31.36
966.532	31.4
966.893	31.4
967.255	31.38
967.616	31.34
967.977	31.3
968.338	31.28
968.699	31.27
969.061	31.23
969.421	31.2
969.782	31.24
970.143	31.19
970.504	31.13
970.865	31.12
971.225	31.11
971.586	31.17
971.946	31.23
972.307	31.27
972.667	31.26
973.027	31.33
973.388	31.33
973.748	31.26
974.108	31.29
974.468	31.33
974.828	31.32
975.188	31.35
975.548	31.34
975.907	31.37
976.267	31.37
976.627	31.38
976.986	31.32
977.346	31.41
977.705	31.55
978.064	31.54
978.424	31.66
978.783	31.69
979.142	31.73
979.501	31.68
979.86	31.63
980.219	31.53
980.578	31.53
980.937	31.6
981.296	31.53
981.654	31.54
982.013	31.64
982.371	31.55
982.73	31.6
983.088	31.63
983.447	31.72
983.805	31.7
984.163	31.83
984.521	31.83
984.879	31.81
985.237	31.88
985.595	31.86
985.953	31.8
986.311	31.82
986.669	31.78
987.026	31.74
987.384	31.76
987.741	31.83
988.099	31.86
988.456	31.92
988.814	31.95
989.171	31.91
989.528	31.94
989.885	31.96
990.242	31.96
990.599	32.04
990.956	32.03
991.313	32.02
991.67	32.04
992.027	32
992.383	32.07
992.74	32.03
993.096	32.02
993.453	32.03
993.809	32.15
994.165	32.24
994.522	32.15
994.878	32.29
995.234	32.33
995.59	32.29
995.946	32.39
996.302	32.3
996.658	32.38
997.013	32.51
997.369	32.49
997.725	32.46
998.08	32.36
998.436	32.55
998.791	32.51
999.147	32.54
999.502	32.74
999.857	32.76
1000.212	32.88
1000.567	32.88
1000.922	32.9
1001.277	33
1001.632	33.23
1001.987	33.33
1002.342	33.3
1002.696	33.31
1003.051	33.34
1003.406	33.17
1003.76	33.18
1004.114	33.21
1004.469	33.26
1004.823	33.38
1005.177	33.43
1005.531	33.25
1005.885	33.31
1006.239	33.4
1006.593	33.39
1006.947	33.53
1007.301	33.7
1007.655	33.74
1008.008	33.59
1008.362	33.66
1008.715	33.67
1009.069	33.63
1009.422	33.6
1009.776	33.67
1010.129	33.63
1010.482	33.79
1010.835	33.63
1011.188	33.61
1011.541	33.57
1011.894	33.75
1012.247	33.72
1012.6	33.62
1012.952	33.8
1013.305	33.88
1013.657	33.8
1014.01	34.04
1014.362	34.16
1014.715	34.26
1015.067	34.42
1015.419	34.77
1015.771	35
1016.123	35.12
1016.475	35.23
1016.827	35.3
1017.179	35.44
1017.531	35.66
1017.883	35.82
1018.234	35.94
1018.586	35.75
1018.938	35.74
1019.289	35.53
1019.64	35.82
1019.992	36.11
1020.343	36.22
1020.694	36.09
1021.045	36.16
1021.396	36.33
1021.747	36.33
1022.098	36.37
1022.449	37.01
1022.8	36.81
1023.151	36.8
1023.501	36.4
1023.852	36.55
1024.202	36.51
1024.553	36.61
1024.903	36.48
1025.253	36.5
1025.604	36.37
1025.954	36.18
1026.304	36.43
1026.654	37.08
1027.004	37.43
1027.354	37.94
1027.703	37.61
1028.053	37.93
1028.403	38.09
1028.753	38.48
1029.102	38.68
1029.452	38.92
1029.801	39.25
1030.15	38.98
1030.499	38.94
897.758	477.24
901.051	491.1
904.343	492.48
907.636	483.12
910.928	474.24
914.22	482.11
917.511	469.6
920.803	449.77
924.094	432.34
927.384	434.2
930.675	423.35
933.965	419.3
937.255	411.46
940.544	394.71
943.834	378.31
947.123	371.71
950.411	350.87
953.7	346.46
956.988	334.11
960.276	320.95
963.563	315.38
966.851	297.39
970.138	290.96
973.424	273.71
976.711	269.54
979.997	256.53
983.283	250.75
986.568	242.3
989.853	238.26
993.138	230.26
996.423	224.46
999.708	218.16
1002.992	217.82
1006.275	212.31
1009.559	210.03
1012.842	203.01
1016.125	197.84
1019.408	194.7
1022.69	192.98
1025.972	188.91
1029.254	184.14
1032.536	181.07
1035.817	176.06
1039.098	172.78
1042.379	167.77
1045.659	165.71
1048.939	164.29
1052.219	162.82
1055.498	159.62
1058.778	156.39
1062.057	152.96
1065.335	152.03
1068.614	149.42
1071.892	147.22
1075.17	144.06
1078.447	142.27
1081.724	140.5
1085.001	137.51
1088.278	137.4
1091.554	135.95
1094.83	135.06
1098.106	132.75
1101.382	132.29
1104.657	130.98
1107.932	129.69
1111.206	129.08
1114.481	127.96
1117.755	127.92
1121.029	127.34
1124.302	124.35
1127.575	123.49
1130.848	122.49
1134.121	121.33
1137.393	119.99
1140.665	120.67
1143.937	119.37
1147.208	117.49
1150.48	116.45
1153.75	114.27
1157.021	114.18
1160.291	113.5
1163.561	112.31
1166.831	111.36
1170.101	111.06
1173.37	110.45
1176.639	108.28
1179.907	108.67
1183.176	109.09
1186.444	108.98
1189.711	108.36
1192.979	108.57
1196.246	109.36
1199.513	108.87
1202.78	109.54
1206.046	109.61
1209.312	110.18
1212.578	111.28
1215.843	113.22
1219.108	113.04
1222.373	115.44
1225.638	117.86
1228.902	120.39
1232.166	124.42
1235.43	126.47
1238.693	130.74
1241.956	133.42
1245.219	136.81
1248.482	137.8
1251.744	136.76
1255.006	138.03
1258.268	134.73
1261.529	133.56
1264.79	129.24
1268.051	126.7
1271.312	126.14
1274.572	123.07
1277.832	121.07
1281.092	118.63
1284.351	116.06
1287.61	116.02
1290.869	115.05
1294.128	114.38
1297.386	113.63
1300.644	113.72
1303.902	112.16
1307.159	111.25
1310.416	111.87
1313.673	112.59
1316.93	114.69
1320.186	116.45
1323.442	117.71
1326.697	120.14
1329.953	121.39
1333.208	126.29
1336.463	131.64
1339.717	134.37
1342.972	143.54
1346.226	146.64
1349.479	147.73
1352.733	154.15
1355.986	157.33
1359.238	160.13
1362.491	162.89
1365.743	169.98
1368.995	171.19
1372.247	171.33
1375.498	171.8
1378.749	175.84
1382	176.86
1385.251	175.33
1388.501	175.42
1391.751	178.1
1395	177.95
1398.25	179.57
1401.499	178.66
1404.748	177.34
1407.996	173.6
1411.244	173.5
1414.492	169.4
1417.74	165.5
1420.987	162.56
1424.234	159.54
1427.481	153.59
1430.728	148.89
1433.974	143.56
1437.22	138.65
1440.465	133.43
1443.711	129.14
1446.956	124.04
1450.201	120.38
1453.445	115.27
1456.689	111.68
1459.933	107.55
1463.177	103.67
1466.42	101.35
1469.663	97.78
1472.906	94.85
1476.148	91.7
1479.391	90.1
1482.633	88.85
1485.874	86.18
1489.115	85
1492.356	83.83
1495.597	81.76
1498.838	81.83
1502.078	81.21
1505.318	80.74
1508.557	79.58
1511.797	79.67
1515.036	78.74
1518.274	78.56
1521.513	77.47
1524.751	76.67
1527.989	76.86
1531.227	77.37
1534.464	76.16
1537.701	75.73
1540.938	75.36
1544.174	75.64
1547.41	75.3
1550.646	75.17
1553.882	74.73
1557.117	74.99
1560.352	74.55
1563.587	74.03
1566.821	73.87
1570.055	73.3
1573.289	73.51
1576.523	73.29
1579.756	72.94
1582.989	72.94
1586.222	72.69
1589.454	73.32
1592.686	72.72
1595.918	72.93
1599.15	72.57
1602.381	72.96
1605.612	73.12
1608.843	72.68
1612.073	73.07
1615.303	73.21
1618.533	72.77
1621.762	73
1624.992	72.53
1628.221	72.16
1631.449	72.42
1634.678	72.76
1637.906	72.46
1641.134	72.23
1644.361	72.19
1647.588	72.81
1650.815	72.68
1654.042	73.22
1657.269	72.63
1660.495	73.1
1663.72	73.69
1666.946	73.51
1670.171	74.05
1673.396	74.51
1676.621	74.86
1679.845	74.75
1683.069	74.83
1686.293	74.68
1689.517	74.65
1692.74	75.29
1695.963	74.96
1699.185	74.99
1702.408	74.98
1705.63	74.65
1708.852	75.26
1712.073	75.12
1715.294	75.31
1718.515	75.33
1721.736	75.82
1724.956	76.2
1728.176	76.13
1731.396	76.39
1734.616	77.08
1737.835	77.57
1741.054	77.43
1744.272	77.35
1747.491	78.27
1750.709	78.89
1753.927	78.51
1757.144	78.94
1760.361	79.09
1763.578	79.75
1766.795	80.21
1770.011	79.46
1773.227	80.35
1776.443	81.32
1779.658	80.71
1782.874	81.18
1786.089	80.26
1789.303	80.99
1792.518	81.58
1795.732	82.17
1798.945	82.88
1802.159	82.83
1805.372	84.3
1808.585	84.56
1811.797	84.81
1815.01	85.95
1818.222	86.29
1821.434	88.67
1824.645	88.66
1827.856	90.15
1831.067	90.89
1834.278	91.32
1837.488	92.85
1840.698	93.89
1843.908	93.88
1847.117	95.45
1850.326	96.44
1853.535	97.7
1856.744	98.02
1859.952	100.41
1863.16	99.68
1866.368	99.54
1869.575	101.14
1872.782	100.57
1875.989	99.31
1879.196	100.38
1882.402	99.83
1885.608	99.56
1888.814	99.03
1892.019	101.23
1895.224	98.7
1898.429	99.94
1901.634	100.08
1904.838	100.23
1908.042	101.41
1911.246	102.32
1914.449	101.79
1917.652	100.8
1920.855	101.59
1924.058	100.83
1927.26	98.95
1930.462	100.12
1933.664	99.91
1936.865	100.57
1940.066	98.96
1943.267	97.14
1946.467	98.14
1949.668	98.44
1952.868	99.66
1956.067	99.15
1959.267	99.26
1962.466	99.8
1965.665	101.31
1968.863	100.98
1972.061	101.05
1975.259	104.01
1978.457	105.97
1981.654	105.92
1984.852	106.84
1988.048	108.06
1991.245	110.02
1994.441	112.96
1997.637	115.59
2000.833	117.15
2004.028	117.74
2007.223	122.12
2010.418	123.36
2013.613	129.03
2016.807	132.46
2020.001	135.46
2023.194	138.91
2026.388	143.41
2029.581	150.48
2032.774	153.53
2035.966	156.7
2039.158	162.57
2042.35	164.31
2045.542	167.47
2048.733	174.47
2051.924	175.8
2055.115	178.89
2058.306	180.52
2061.496	183.92
2064.686	182.81
2067.875	183.25
2071.065	188.65
2074.254	187.92
2077.442	193.1
2080.631	196.33
2083.819	195.5
2087.007	201.51
2090.195	201.82
2093.382	202.82
2096.569	203.81
2099.756	205.6
2102.942	211.03
2106.128	213.01
2109.314	216.65
2112.5	216.68
2115.685	214.42
2118.87	214.25
2122.055	213.25
2125.239	218.01
2128.424	223.41
2131.608	222.65
2134.791	225.36
2137.974	225.84
2141.157	227.16
2144.34	227.39
2147.523	234.34
2150.705	239.88
2153.887	238.21
2157.068	241.96
2160.25	243.55
2163.431	243.79
2166.611	245.78
2169.792	248.94
2172.972	251.86
2176.152	251.94
2179.331	257.35
2182.511	255.58
2185.69	258.24
2188.868	267.51
2192.047	277.37
2195.225	283.03
2198.403	283.8
2201.58	282.61
2204.758	295.43
2207.935	296.3
2211.111	300.94
2214.288	303.43
2217.464	307.33
2220.64	308.76
2223.815	309.69
2226.991	303.37
2230.166	306.18
2233.34	316.44
2236.515	325.44
2239.689	319.17
2242.863	326.04
2246.036	326.01
2249.209	333.95
2252.382	330.03
2255.555	343
2258.727	344.95
2261.9	355.28
2265.071	360.29
2268.243	357.08
2271.414	367.96
2274.585	374.27
2277.756	375
2280.926	385.56
2284.096	389.93
2287.266	393.32
2290.436	387.33
2293.605	396.13
2296.774	410.79
2299.942	406.76
2303.111	420.54
2306.279	426.84
2309.447	425.12
2312.614	428.05
2315.781	440.57
2318.948	442.14
2322.115	452.44
2325.281	473.97
2328.447	471.86
2331.613	471.91
2334.779	480.45
2337.944	486.98
2341.109	494.9
2344.274	500.6
2347.438	511.57
2350.602	518.6
2353.766	551.8
2356.929	550.1
2360.092	565.16
2363.255	564.91
2366.418	570.81
2369.58	584.19
2372.742	589.97
2375.904	587.29
2379.066	606.4
2382.227	645.77
2385.388	646.32
2388.548	612.92
2391.709	613.62
2394.869	623.18
2398.029	633.54
2401.188	631.23
2404.347	650.97
2407.506	668.01
2410.665	642.03
2413.823	651.65
2416.981	645.69
2420.139	613.52
2423.296	666.02
2426.453	704.05
2429.61	673.6
2432.767	713.9
2435.923	739.67
2439.079	721.45
2442.235	734.14
2445.391	750.75
2448.546	745.48
2451.701	786.69
2454.855	845.54
2458.009	741.25
2461.163	752.53
2464.317	764.57
2467.471	750.5
2470.624	777.74
2473.777	754.72
2476.929	732.59
2480.082	781.06
2483.234	809.01
2486.385	826.49
2489.537	846.27
2492.688	937.89
2495.839	922.9
2498.989	946.88
2502.14	949.84
2505.29	913.09
2508.439	1002.08
2511.589	1026.3
2514.738	1003.7
2517.887	995.9
2521.035	929.41
2524.183	916.55
2527.331	908.25
2530.479	890.38
2533.627	908.48
