Data from N_3_dec_wc_4n_Splice17_03.txt Node
Date: Sat Feb 29 14:50:37 EST 2020
User: sa697716
Spectrometer: FLMS03696
Trigger mode: 0
Integration Time (sec): 3.180400E-1
Scans to average: 20
Electric dark correction enabled: true
Nonlinearity correction enabled: true
Boxcar width: 5
XAxis mode: Wavelengths
Number of Pixels in Spectrum: 2048
>>>>>Begin Spectral Data<<<<<
187.83	88.74
188.298	79.92
188.766	67.31
189.233	65.67
189.701	73.17
190.169	77.8
190.636	85.48
191.104	102.94
191.571	361.01
192.039	251.53
192.506	50.14
192.974	5715.92
193.441	-330.63
193.908	60.45
194.375	29.93
194.842	61.34
195.31	57.64
195.777	81.59
196.244	38.71
196.711	37.96
197.177	37.11
197.644	37.72
198.111	37.37
198.578	38.16
199.045	38.69
199.511	39.54
199.978	39.49
200.445	38.72
200.911	38.87
201.378	39.28
201.844	39.81
202.31	40.62
202.777	40.78
203.243	41.26
203.709	40.92
204.176	40.41
204.642	40.32
205.108	40.27
205.574	40.86
206.04	40.87
206.506	40.08
206.972	39.84
207.438	39.14
207.903	38.87
208.369	38.11
208.835	37.71
209.301	37.48
209.766	37.05
210.232	36.73
210.697	36.34
211.163	35.46
211.628	35.11
212.094	34.43
212.559	33.54
213.024	32.87
213.49	32.22
213.955	31.58
214.42	30.67
214.885	29.35
215.35	27.91
215.815	26.32
216.28	24.59
216.745	22.98
217.21	21.25
217.675	19.63
218.14	17.95
218.604	16.59
219.069	15.51
219.534	14.54
219.998	13.64
220.463	13.05
220.927	12.45
221.392	11.94
221.856	11.5
222.32	11.08
222.785	10.73
223.249	10.45
223.713	10.15
224.177	9.83
224.642	9.61
225.106	9.38
225.57	9.11
226.034	8.91
226.497	8.72
226.961	8.49
227.425	8.29
227.889	8.12
228.353	7.94
228.816	7.8
229.28	7.64
229.744	7.52
230.207	7.41
230.671	7.31
231.134	7.18
231.597	7.06
232.061	6.97
232.524	6.9
232.987	6.81
233.45	6.72
233.914	6.62
234.377	6.58
234.84	6.48
235.303	6.41
235.766	6.33
236.229	6.27
236.691	6.22
237.154	6.17
237.617	6.09
238.08	6.03
238.542	5.97
239.005	5.92
239.468	5.82
239.93	5.77
240.393	5.71
240.855	5.65
241.317	5.58
241.78	5.52
242.242	5.47
242.704	5.42
243.166	5.36
243.629	5.3
244.091	5.26
244.553	5.24
245.015	5.19
245.477	5.15
245.939	5.1
246.4	5.05
246.862	5.01
247.324	4.98
247.786	4.93
248.247	4.9
248.709	4.87
249.17	4.82
249.632	4.78
250.093	4.73
250.555	4.69
251.016	4.68
251.477	4.65
251.939	4.63
252.4	4.6
252.861	4.57
253.322	4.53
253.783	4.52
254.244	4.5
254.705	4.48
255.166	4.47
255.627	4.44
256.088	4.4
256.549	4.38
257.009	4.35
257.47	4.33
257.931	4.3
258.391	4.27
258.852	4.24
259.312	4.21
259.773	4.19
260.233	4.15
260.694	4.13
261.154	4.1
261.614	4.08
262.074	4.05
262.534	4.03
262.994	4.01
263.455	3.99
263.915	3.96
264.374	3.94
264.834	3.91
265.294	3.89
265.754	3.87
266.214	3.85
266.673	3.83
267.133	3.81
267.593	3.8
268.052	3.78
268.512	3.77
268.971	3.76
269.431	3.76
269.89	3.75
270.349	3.74
270.809	3.73
271.268	3.73
271.727	3.72
272.186	3.71
272.645	3.7
273.104	3.69
273.563	3.68
274.022	3.68
274.481	3.67
274.94	3.67
275.399	3.66
275.857	3.65
276.316	3.64
276.775	3.62
277.233	3.6
277.692	3.6
278.15	3.58
278.609	3.57
279.067	3.55
279.525	3.54
279.984	3.53
280.442	3.53
280.9	3.52
281.358	3.51
281.816	3.52
282.274	3.52
282.732	3.51
283.19	3.51
283.648	3.51
284.106	3.5
284.564	3.51
285.021	3.5
285.479	3.49
285.937	3.48
286.394	3.47
286.852	3.46
287.309	3.45
287.767	3.44
288.224	3.43
288.682	3.42
289.139	3.41
289.596	3.4
290.053	3.39
290.511	3.37
290.968	3.37
291.425	3.37
291.882	3.35
292.339	3.34
292.796	3.33
293.252	3.32
293.709	3.31
294.166	3.3
294.623	3.3
295.079	3.29
295.536	3.28
295.992	3.27
296.449	3.26
296.905	3.25
297.362	3.24
297.818	3.23
298.274	3.22
298.731	3.22
299.187	3.21
299.643	3.2
300.099	3.2
300.555	3.18
301.011	3.17
301.467	3.16
301.923	3.16
302.379	3.15
302.835	3.15
303.291	3.14
303.746	3.13
304.202	3.13
304.658	3.12
305.113	3.12
305.569	3.13
306.024	3.12
306.479	3.13
306.935	3.12
307.39	3.12
307.845	3.11
308.301	3.11
308.756	3.11
309.211	3.12
309.666	3.12
310.121	3.1
310.576	3.11
311.031	3.11
311.486	3.11
311.94	3.11
312.395	3.11
312.85	3.11
313.305	3.12
313.759	3.12
314.214	3.11
314.668	3.11
315.123	3.11
315.577	3.11
316.032	3.1
316.486	3.1
316.94	3.1
317.394	3.1
317.849	3.1
318.303	3.09
318.757	3.07
319.211	3.06
319.665	3.05
320.119	3.04
320.572	3.04
321.026	3.03
321.48	3.02
321.934	3.02
322.387	3.01
322.841	3
323.295	2.99
323.748	3
324.202	2.99
324.655	2.99
325.108	2.98
325.562	2.97
326.015	2.97
326.468	2.96
326.921	2.94
327.374	2.94
327.827	2.94
328.28	2.94
328.733	2.93
329.186	2.93
329.639	2.93
330.092	2.92
330.545	2.93
330.997	2.93
331.45	2.93
331.903	2.93
332.355	2.92
332.808	2.92
333.26	2.92
333.713	2.93
334.165	2.94
334.617	2.94
335.069	2.94
335.522	2.94
335.974	2.94
336.426	2.95
336.878	2.95
337.33	2.96
337.782	2.96
338.234	2.95
338.686	2.94
339.137	2.95
339.589	2.95
340.041	2.95
340.493	2.94
340.944	2.93
341.396	2.92
341.847	2.91
342.299	2.89
342.75	2.87
343.201	2.86
343.653	2.85
344.104	2.84
344.555	2.82
345.006	2.81
345.457	2.81
345.908	2.8
346.359	2.8
346.81	2.8
347.261	2.8
347.712	2.81
348.163	2.81
348.613	2.8
349.064	2.79
349.515	2.79
349.965	2.79
350.416	2.79
350.866	2.79
351.317	2.78
351.767	2.77
352.217	2.76
352.668	2.76
353.118	2.76
353.568	2.77
354.018	2.78
354.468	2.78
354.918	2.78
355.368	2.78
355.818	2.78
356.268	2.79
356.718	2.79
357.168	2.78
357.617	2.78
358.067	2.79
358.517	2.77
358.966	2.77
359.416	2.77
359.865	2.77
360.315	2.78
360.764	2.78
361.213	2.77
361.663	2.77
362.112	2.79
362.561	2.79
363.01	2.79
363.459	2.79
363.908	2.79
364.357	2.8
364.806	2.8
365.255	2.81
365.703	2.8
366.152	2.81
366.601	2.82
367.05	2.82
367.498	2.83
367.947	2.84
368.395	2.86
368.844	2.86
369.292	2.87
369.74	2.88
370.189	2.88
370.637	2.9
371.085	2.92
371.533	2.92
371.981	2.93
372.429	2.93
372.877	2.94
373.325	2.94
373.773	2.96
374.221	2.97
374.669	2.97
375.116	2.98
375.564	2.98
376.012	2.99
376.459	3.01
376.907	3.03
377.354	3.04
377.801	3.05
378.249	3.08
378.696	3.09
379.143	3.11
379.591	3.14
380.038	3.19
380.485	3.21
380.932	3.23
381.379	3.23
381.826	3.26
382.273	3.28
382.72	3.32
383.166	3.33
383.613	3.36
384.06	3.38
384.506	3.41
384.953	3.43
385.4	3.45
385.846	3.48
386.292	3.54
386.739	3.57
387.185	3.62
387.631	3.67
388.078	3.72
388.524	3.75
388.97	3.78
389.416	3.82
389.862	3.87
390.308	3.93
390.754	4
391.2	4.08
391.645	4.14
392.091	4.2
392.537	4.26
392.983	4.36
393.428	4.49
393.874	4.65
394.319	4.81
394.765	4.97
395.21	5.14
395.655	5.31
396.101	5.5
396.546	5.71
396.991	5.93
397.436	6.14
397.881	6.37
398.326	6.59
398.771	6.79
399.216	7
399.661	7.19
400.106	7.38
400.551	7.51
400.995	7.63
401.44	7.71
401.885	7.81
402.329	7.92
402.774	8.01
403.218	8.12
403.663	8.26
404.107	8.41
404.551	8.57
404.995	8.7
405.44	8.84
405.884	8.97
406.328	9.16
406.772	9.36
407.216	9.57
407.66	9.77
408.104	9.94
408.547	10.08
408.991	10.2
409.435	10.34
409.879	10.49
410.322	10.68
410.766	10.89
411.209	11.07
411.653	11.24
412.096	11.37
412.54	11.5
412.983	11.64
413.426	11.78
413.869	11.94
414.312	12.1
414.756	12.25
415.199	12.39
415.642	12.5
416.085	12.6
416.527	12.69
416.97	12.77
417.413	12.79
417.856	12.76
418.298	12.76
418.741	12.75
419.184	12.76
419.626	12.78
420.069	12.84
420.511	12.88
420.953	12.92
421.396	12.98
421.838	13.09
422.28	13.23
422.722	13.4
423.164	13.53
423.606	13.66
424.048	13.74
424.49	13.79
424.932	13.71
425.374	13.57
425.816	13.34
426.258	13.1
426.699	12.91
427.141	12.87
427.582	12.92
428.024	13.08
428.465	13.22
428.907	13.39
429.348	13.54
429.789	13.75
430.231	14.06
430.672	14.54
431.113	15.09
431.554	15.63
431.995	16.04
432.436	16.31
432.877	16.5
433.318	16.66
433.759	16.81
434.2	17.06
434.64	17.36
435.081	17.67
435.522	17.94
435.962	18.15
436.403	18.32
436.843	18.45
437.284	18.67
437.724	18.87
438.164	19.12
438.604	19.44
439.045	19.71
439.485	19.94
439.925	20.13
440.365	20.28
440.805	20.4
441.245	20.46
441.685	20.59
442.125	20.72
442.564	20.91
443.004	21.1
443.444	21.29
443.883	21.49
444.323	21.7
444.762	21.95
445.202	22.21
445.641	22.54
446.081	22.93
446.52	23.3
446.959	23.63
447.398	23.91
447.837	24.09
448.276	24.15
448.716	24.23
449.154	24.32
449.593	24.39
450.032	24.43
450.471	24.39
450.91	24.34
451.349	24.27
451.787	24.24
452.226	24.22
452.664	24.23
453.103	24.28
453.541	24.29
453.98	24.24
454.418	24.15
454.856	24.06
455.295	23.98
455.733	23.91
456.171	23.83
456.609	23.77
457.047	23.68
457.485	23.64
457.923	23.65
458.361	23.68
458.798	23.78
459.236	23.86
459.674	23.93
460.111	24.01
460.549	24.06
460.987	24.14
461.424	24.19
461.862	24.29
462.299	24.37
462.736	24.44
463.173	24.51
463.611	24.61
464.048	24.76
464.485	24.96
464.922	25.18
465.359	25.41
465.796	25.6
466.233	25.82
466.67	26.03
467.106	26.3
467.543	26.61
467.98	26.93
468.416	27.21
468.853	27.43
469.29	27.67
469.726	27.89
470.162	28.14
470.599	28.4
471.035	28.63
471.471	28.79
471.907	28.9
472.344	28.97
472.78	29.03
473.216	29.13
473.652	29.22
474.088	29.3
474.523	29.35
474.959	29.38
475.395	29.41
475.831	29.43
476.266	29.48
476.702	29.54
477.138	29.54
477.573	29.51
478.008	29.46
478.444	29.36
478.879	29.23
479.314	29.08
479.75	28.91
480.185	28.71
480.62	28.44
481.055	28.05
481.49	27.53
481.925	26.97
482.36	26.47
482.795	26.05
483.229	25.72
483.664	25.48
484.099	25.28
484.534	25.11
484.968	24.97
485.403	24.96
485.837	25.04
486.271	25.25
486.706	25.48
487.14	25.65
487.574	25.73
488.009	25.79
488.443	25.84
488.877	25.88
489.311	25.93
489.745	26
490.179	26.09
490.613	26.18
491.046	26.25
491.48	26.37
491.914	26.55
492.348	26.78
492.781	26.99
493.215	27.17
493.648	27.33
494.082	27.49
494.515	27.64
494.948	27.76
495.382	27.89
495.815	28.03
496.248	28.14
496.681	28.22
497.114	28.3
497.547	28.4
497.98	28.57
498.413	28.79
498.846	29.05
499.279	29.29
499.711	29.51
500.144	29.79
500.577	30.14
501.009	30.58
501.442	31.08
501.874	31.6
502.306	32.14
502.739	32.59
503.171	33.04
503.603	33.51
504.036	34.01
504.468	34.58
504.9	35.16
505.332	35.68
505.764	36.19
506.196	36.71
506.627	37.28
507.059	37.86
507.491	38.5
507.923	39.14
508.354	39.77
508.786	40.37
509.217	40.94
509.649	41.49
510.08	42.09
510.512	42.7
510.943	43.34
511.374	43.94
511.805	44.42
512.237	44.78
512.668	45.1
513.099	45.47
513.53	45.89
513.961	46.36
514.391	46.91
514.822	47.54
515.253	48.25
515.684	48.97
516.114	49.77
516.545	50.69
516.975	51.81
517.406	53.01
517.836	54.18
518.267	55.31
518.697	56.38
519.127	57.48
519.558	58.54
519.988	59.51
520.418	60.46
520.848	61.35
521.278	62.14
521.708	62.61
522.138	63.05
522.567	63.51
522.997	63.98
523.427	64.54
523.857	65.05
524.286	65.61
524.716	66.17
525.145	66.67
525.575	67.17
526.004	67.77
526.433	68.63
526.863	69.48
527.292	70.24
527.721	70.91
528.15	71.36
528.579	71.72
529.008	71.96
529.437	72.18
529.866	72.39
530.295	72.62
530.724	72.84
531.152	73.03
531.581	73.23
532.01	73.37
532.438	73.53
532.867	73.79
533.295	74.05
533.723	74.33
534.152	74.5
534.58	74.66
535.008	74.71
535.436	74.66
535.865	74.55
536.293	74.42
536.721	74.41
537.149	74.47
537.576	74.55
538.004	74.62
538.432	74.67
538.86	74.76
539.287	74.91
539.715	75.15
540.143	75.44
540.57	75.78
540.998	76.15
541.425	76.48
541.852	76.8
542.28	77.07
542.707	77.37
543.134	77.62
543.561	77.84
543.988	78.06
544.415	78.29
544.842	78.52
545.269	78.77
545.696	78.99
546.123	79.22
546.549	79.44
546.976	79.67
547.403	79.88
547.829	80.15
548.256	80.39
548.682	80.57
549.108	80.74
549.535	80.91
549.961	81.04
550.387	81.19
550.813	81.32
551.24	81.44
551.666	81.52
552.092	81.52
552.518	81.46
552.943	81.43
553.369	81.39
553.795	81.26
554.221	81.07
554.646	80.78
555.072	80.47
555.498	80.14
555.923	79.82
556.349	79.52
556.774	79.29
557.199	79.08
557.625	78.8
558.05	78.51
558.475	78.25
558.9	78.02
559.325	77.8
559.75	77.55
560.175	77.29
560.6	76.94
561.025	76.51
561.449	75.99
561.874	75.49
562.299	75.04
562.723	74.57
563.148	74.09
563.572	73.61
563.997	73.08
564.421	72.49
564.846	71.91
565.27	71.38
565.694	70.81
566.118	70.24
566.542	69.63
566.966	69.01
567.39	68.4
567.814	67.83
568.238	67.28
568.662	66.84
569.086	66.45
569.509	66.06
569.933	65.64
570.357	65.25
570.78	64.9
571.204	64.53
571.627	64.2
572.05	63.9
572.474	63.57
572.897	63.21
573.32	62.83
573.743	62.43
574.166	62.01
574.589	61.62
575.012	61.34
575.435	61.08
575.858	60.9
576.281	60.71
576.704	60.53
577.126	60.35
577.549	60.23
577.972	60.14
578.394	60.06
578.817	60.03
579.239	60.03
579.661	59.96
580.084	59.88
580.506	59.74
580.928	59.55
581.35	59.33
581.772	59.1
582.194	58.83
582.616	58.56
583.038	58.33
583.46	58.06
583.882	57.72
584.303	57.27
584.725	56.7
585.147	56.11
585.568	55.62
585.99	55.21
586.411	54.88
586.833	54.56
587.254	54.26
587.675	53.95
588.096	53.66
588.518	53.45
588.939	53.33
589.36	53.35
589.781	53.41
590.202	53.39
590.623	53.31
591.043	53.15
591.464	53
591.885	52.83
592.305	52.65
592.726	52.46
593.147	52.28
593.567	52.07
593.987	51.87
594.408	51.67
594.828	51.48
595.248	51.31
595.669	51.1
596.089	50.88
596.509	50.61
596.929	50.34
597.349	50.04
597.769	49.73
598.189	49.48
598.608	49.22
599.028	49
599.448	48.81
599.867	48.62
600.287	48.46
600.706	48.26
601.126	48.09
601.545	47.89
601.965	47.75
602.384	47.61
602.803	47.44
603.222	47.25
603.641	47.01
604.061	46.72
604.48	46.4
604.898	46.09
605.317	45.78
605.736	45.45
606.155	45.15
606.574	44.83
606.992	44.5
607.411	44.18
607.829	43.83
608.248	43.54
608.666	43.25
609.085	42.94
609.503	42.61
609.921	42.33
610.339	42.06
610.758	41.78
611.176	41.47
611.594	41.14
612.012	40.78
612.43	40.5
612.847	40.17
613.265	39.91
613.683	39.69
614.101	39.47
614.518	39.26
614.936	39.03
615.353	38.83
615.771	38.67
616.188	38.56
616.606	38.44
617.023	38.3
617.44	38.15
617.857	37.98
618.274	37.79
618.691	37.59
619.108	37.39
619.525	37.19
619.942	36.99
620.359	36.75
620.776	36.49
621.192	36.25
621.609	36.02
622.026	35.83
622.442	35.66
622.859	35.46
623.275	35.31
623.691	35.1
624.108	34.92
624.524	34.73
624.94	34.58
625.356	34.43
625.772	34.32
626.188	34.22
626.604	34.1
627.02	33.95
627.436	33.86
627.852	33.75
628.268	33.68
628.683	33.63
629.099	33.59
629.514	33.52
629.93	33.46
630.345	33.39
630.761	33.35
631.176	33.29
631.591	33.23
632.007	33.12
632.422	33.04
632.837	32.93
633.252	32.81
633.667	32.69
634.082	32.58
634.497	32.43
634.911	32.26
635.326	32.01
635.741	31.77
636.155	31.54
636.57	31.3
636.984	31.01
637.399	30.7
637.813	30.39
638.228	30.08
638.642	29.78
639.056	29.46
639.47	29.14
639.884	28.86
640.298	28.56
640.712	28.25
641.126	27.95
641.54	27.67
641.954	27.41
642.368	27.13
642.781	26.81
643.195	26.48
643.609	26.2
644.022	25.91
644.436	25.61
644.849	25.33
645.262	25.07
645.676	24.8
646.089	24.56
646.502	24.35
646.915	24.17
647.328	23.99
647.741	23.85
648.154	23.72
648.567	23.59
648.98	23.48
649.393	23.37
649.805	23.28
650.218	23.19
650.631	23.07
651.043	22.89
651.456	22.63
651.868	22.35
652.28	22.02
652.693	21.71
653.105	21.45
653.517	21.25
653.929	21.08
654.341	20.93
654.753	20.78
655.165	20.68
655.577	20.58
655.989	20.58
656.401	20.61
656.813	20.67
657.224	20.71
657.636	20.69
658.047	20.62
658.459	20.52
658.87	20.36
659.282	20.22
659.693	20.04
660.104	19.89
660.515	19.71
660.926	19.54
661.338	19.37
661.749	19.18
662.159	19.01
662.57	18.81
662.981	18.64
663.392	18.48
663.803	18.33
664.213	18.18
664.624	18.02
665.035	17.89
665.445	17.77
665.855	17.61
666.266	17.48
666.676	17.34
667.086	17.23
667.497	17.1
667.907	16.98
668.317	16.86
668.727	16.75
669.137	16.66
669.547	16.56
669.956	16.45
670.366	16.37
670.776	16.31
671.186	16.26
671.595	16.2
672.005	16.17
672.414	16.13
672.824	16.12
673.233	16.11
673.642	16.08
674.052	16.06
674.461	16.07
674.87	16.07
675.279	16.08
675.688	16.07
676.097	16.09
676.506	16.11
676.915	16.15
677.323	16.18
677.732	16.23
678.141	16.31
678.549	16.39
678.958	16.46
679.366	16.55
679.775	16.64
680.183	16.75
680.592	16.87
681	16.99
681.408	17.15
681.816	17.27
682.224	17.35
682.632	17.33
683.04	17.29
683.448	17.28
683.856	17.32
684.264	17.41
684.671	17.54
685.079	17.72
685.487	17.94
685.894	18.21
686.302	18.56
686.709	19.02
687.116	19.65
687.524	20.37
687.931	21.16
688.338	21.98
688.745	22.81
689.152	23.66
689.559	24.51
689.966	25.39
690.373	26.28
690.78	27.2
691.187	28.1
691.593	29
692	29.95
692.407	30.87
692.813	31.79
693.22	32.71
693.626	33.64
694.032	34.58
694.439	35.51
694.845	36.43
695.251	37.32
695.657	38.19
696.063	39.04
696.469	39.87
696.875	40.62
697.281	41.35
697.687	42.12
698.093	42.84
698.498	43.59
698.904	44.34
699.31	45.06
699.715	45.8
700.12	46.55
700.526	47.31
700.931	48.02
701.337	48.8
701.742	49.55
702.147	50.26
702.552	50.99
702.957	51.69
703.362	52.37
703.767	53.02
704.172	53.69
704.577	54.32
704.981	54.9
705.386	55.48
705.791	56.05
706.195	56.59
706.6	57.15
707.004	57.7
707.408	58.2
707.813	58.67
708.217	59.15
708.621	59.56
709.025	60.01
709.43	60.42
709.834	60.89
710.237	61.26
710.641	61.69
711.045	62.05
711.449	62.39
711.853	62.72
712.256	62.98
712.66	63.13
713.064	63.26
713.467	63.24
713.87	63.18
714.274	63.01
714.677	62.86
715.08	62.62
715.484	62.45
715.887	62.29
716.29	62.19
716.693	62.21
717.096	62.48
717.499	62.82
717.901	63.29
718.304	63.84
718.707	64.41
719.109	64.98
719.512	65.52
719.915	65.99
720.317	66.41
720.719	66.79
721.122	67.07
721.524	67.23
721.926	67.38
722.328	67.49
722.731	67.59
723.133	67.68
723.535	67.78
723.937	67.93
724.338	68.05
724.74	68.18
725.142	68.25
725.544	68.42
725.945	68.56
726.347	68.71
726.748	68.77
727.15	68.88
727.551	69.08
727.952	69.3
728.354	69.58
728.755	69.87
729.156	70.24
729.557	70.63
729.958	71
730.359	71.33
730.76	71.57
731.161	71.87
731.562	72.16
731.962	72.37
732.363	72.52
732.763	72.67
733.164	72.76
733.564	72.82
733.965	72.84
734.365	72.77
734.766	72.71
735.166	72.65
735.566	72.57
735.966	72.51
736.366	72.43
736.766	72.38
737.166	72.28
737.566	72.24
737.966	72.2
738.365	72.17
738.765	72.17
739.165	72.19
739.564	72.26
739.964	72.32
740.363	72.34
740.763	72.35
741.162	72.34
741.561	72.35
741.96	72.38
742.36	72.41
742.759	72.4
743.158	72.41
743.557	72.42
743.955	72.42
744.354	72.41
744.753	72.41
745.152	72.36
745.55	72.36
745.949	72.31
746.348	72.21
746.746	72.1
747.144	72.04
747.543	71.93
747.941	71.87
748.339	71.77
748.737	71.68
749.136	71.57
749.534	71.53
749.932	71.47
750.33	71.42
750.727	71.36
751.125	71.31
751.523	71.23
751.921	71.2
752.318	71.06
752.716	70.93
753.113	70.81
753.511	70.66
753.908	70.48
754.305	70.24
754.703	69.78
755.1	68.95
755.497	67.54
755.894	65.64
756.291	63.38
756.688	61.05
757.085	58.85
757.482	56.78
757.878	54.91
758.275	53
758.672	51.1
759.068	49.38
759.465	48.11
759.861	47.54
760.258	47.56
760.654	48.09
761.05	48.86
761.447	49.68
761.843	50.46
762.239	51.28
762.635	52.28
763.031	53.49
763.427	54.87
763.822	56.27
764.218	57.64
764.614	58.96
765.01	60.16
765.405	61.26
765.801	62.23
766.196	63.13
766.592	63.87
766.987	64.51
767.382	64.92
767.778	65.24
768.173	65.48
768.568	65.62
768.963	65.75
769.358	65.85
769.753	65.92
770.148	65.94
770.542	65.91
770.937	65.81
771.332	65.7
771.726	65.65
772.121	65.57
772.515	65.5
772.91	65.44
773.304	65.35
773.699	65.25
774.093	65.15
774.487	65.07
774.881	65.01
775.275	64.94
775.669	64.84
776.063	64.71
776.457	64.58
776.851	64.42
777.245	64.34
777.638	64.25
778.032	64.15
778.425	64.02
778.819	63.94
779.212	63.78
779.606	63.67
779.999	63.55
780.392	63.49
780.786	63.4
781.179	63.31
781.572	63.15
781.965	63
782.358	62.87
782.751	62.78
783.143	62.63
783.536	62.55
783.929	62.44
784.322	62.33
784.714	62.16
785.107	62.03
785.499	61.89
785.891	61.75
786.284	61.58
786.676	61.42
787.068	61.24
787.46	61.08
787.852	60.89
788.245	60.73
788.636	60.56
789.028	60.33
789.42	60.12
789.812	59.92
790.204	59.75
790.595	59.6
790.987	59.4
791.378	59.2
791.77	59.08
792.161	58.93
792.553	58.78
792.944	58.67
793.335	58.61
793.726	58.53
794.117	58.45
794.508	58.37
794.899	58.26
795.29	58.17
795.681	58.05
796.072	57.9
796.463	57.71
796.853	57.52
797.244	57.37
797.634	57.17
798.025	57.04
798.415	56.88
798.806	56.7
799.196	56.53
799.586	56.34
799.976	56.2
800.366	56.02
800.756	55.91
801.146	55.78
801.536	55.62
801.926	55.5
802.316	55.37
802.706	55.27
803.095	55.13
803.485	55.03
803.874	54.92
804.264	54.79
804.653	54.65
805.043	54.5
805.432	54.3
805.821	54.12
806.21	53.96
806.599	53.79
806.988	53.59
807.377	53.38
807.766	53.15
808.155	52.96
808.544	52.74
808.933	52.52
809.321	52.32
809.71	52.11
810.098	51.87
810.487	51.58
810.875	51.24
811.264	50.9
811.652	50.54
812.04	50.2
812.428	49.85
812.816	49.56
813.204	49.26
813.592	48.97
813.98	48.7
814.368	48.43
814.756	48.21
815.144	48.03
815.531	47.88
815.919	47.75
816.306	47.68
816.694	47.63
817.081	47.54
817.469	47.5
817.856	47.44
818.243	47.3
818.63	47.16
819.017	47
819.404	46.87
819.791	46.75
820.178	46.67
820.565	46.56
820.952	46.42
821.339	46.33
821.725	46.24
822.112	46.12
822.498	46.12
822.885	46.11
823.271	46.1
823.657	46.04
824.044	45.98
824.43	45.88
824.816	45.75
825.202	45.63
825.588	45.5
825.974	45.36
826.36	45.22
826.746	45.07
827.132	44.95
827.517	44.83
827.903	44.7
828.289	44.58
828.674	44.45
829.06	44.38
829.445	44.31
829.83	44.22
830.216	44.11
830.601	44.05
830.986	43.97
831.371	43.89
831.756	43.82
832.141	43.8
832.526	43.77
832.911	43.76
833.295	43.73
833.68	43.68
834.065	43.62
834.449	43.57
834.834	43.48
835.218	43.43
835.603	43.38
835.987	43.34
836.371	43.25
836.755	43.19
837.139	43.11
837.524	43.04
837.908	42.96
838.291	42.89
838.675	42.85
839.059	42.81
839.443	42.74
839.827	42.67
840.21	42.61
840.594	42.56
840.977	42.49
841.361	42.43
841.744	42.39
842.127	42.34
842.511	42.29
842.894	42.21
843.277	42.16
843.66	42.14
844.043	42.1
844.426	42.03
844.809	41.96
845.191	41.89
845.574	41.78
845.957	41.66
846.339	41.6
846.722	41.54
847.104	41.51
847.487	41.45
847.869	41.35
848.252	41.29
848.634	41.24
849.016	41.17
849.398	41.1
849.78	41.02
850.162	40.95
850.544	40.84
850.926	40.74
851.307	40.67
851.689	40.58
852.071	40.54
852.452	40.49
852.834	40.43
853.215	40.4
853.597	40.4
853.978	40.43
854.359	40.45
854.741	40.45
855.122	40.48
855.503	40.46
855.884	40.47
856.265	40.45
856.646	40.42
857.026	40.42
857.407	40.38
857.788	40.35
858.169	40.31
858.549	40.29
858.93	40.27
859.31	40.23
859.69	40.19
860.071	40.15
860.451	40.13
860.831	40.08
861.211	40.01
861.591	39.96
861.971	39.88
862.351	39.81
862.731	39.74
863.111	39.66
863.491	39.62
863.87	39.57
864.25	39.49
864.629	39.43
865.009	39.38
865.388	39.36
865.768	39.37
866.147	39.37
866.526	39.36
866.905	39.34
867.284	39.34
867.663	39.32
868.042	39.32
868.421	39.33
868.8	39.3
869.179	39.29
869.558	39.27
869.936	39.26
870.315	39.25
870.693	39.23
871.072	39.21
871.45	39.18
871.828	39.15
872.207	39.1
872.585	39.08
872.963	39.05
873.341	39.03
873.719	39.02
874.097	38.99
874.475	38.95
874.853	38.93
875.23	38.92
875.608	38.93
875.986	38.9
876.363	38.88
876.741	38.87
877.118	38.86
877.495	38.83
877.873	38.78
878.25	38.73
878.627	38.71
879.004	38.68
879.381	38.67
879.758	38.62
880.135	38.61
880.512	38.63
880.889	38.6
881.265	38.59
881.642	38.57
882.019	38.56
882.395	38.54
882.772	38.5
883.148	38.47
883.524	38.44
883.901	38.41
884.277	38.37
884.653	38.33
885.029	38.29
885.405	38.26
885.781	38.23
886.157	38.22
886.532	38.23
886.908	38.25
887.284	38.25
887.659	38.24
888.035	38.22
888.411	38.21
888.786	38.18
889.161	38.16
889.537	38.14
889.912	38.1
890.287	38.06
890.662	38.02
891.037	37.93
891.412	37.86
891.787	37.79
892.162	37.74
892.536	37.69
892.911	37.61
893.286	37.55
893.66	37.47
894.035	37.4
894.409	37.34
894.784	37.26
895.158	37.19
895.532	37.13
895.906	37.07
896.281	37.01
896.655	36.92
897.029	36.86
897.402	36.82
897.776	36.79
898.15	36.75
898.524	36.68
898.898	36.66
899.271	36.66
899.645	36.68
900.018	36.69
900.392	36.71
900.765	36.79
901.138	36.82
901.511	36.83
901.884	36.83
902.258	36.85
902.631	36.88
903.003	36.89
903.376	36.89
903.749	36.86
904.122	36.83
904.495	36.8
904.867	36.71
905.24	36.71
905.612	36.69
905.985	36.68
906.357	36.62
906.729	36.61
907.102	36.6
907.474	36.59
907.846	36.58
908.218	36.57
908.59	36.55
908.962	36.54
909.334	36.52
909.705	36.49
910.077	36.46
910.449	36.5
910.82	36.47
911.192	36.45
911.563	36.41
911.935	36.37
912.306	36.37
912.677	36.36
913.048	36.36
913.419	36.3
913.79	36.28
914.161	36.27
914.532	36.23
914.903	36.21
915.274	36.21
915.645	36.25
916.015	36.29
916.386	36.3
916.756	36.28
917.127	36.28
917.497	36.35
917.868	36.38
918.238	36.43
918.608	36.44
918.978	36.44
919.348	36.41
919.718	36.39
920.088	36.38
920.458	36.4
920.828	36.42
921.198	36.4
921.567	36.35
921.937	36.35
922.306	36.3
922.676	36.3
923.045	36.3
923.415	36.29
923.784	36.3
924.153	36.27
924.522	36.21
924.891	36.14
925.26	36.15
925.629	36.13
925.998	36.09
926.367	36.03
926.736	35.97
927.104	35.95
927.473	35.9
927.842	35.76
928.21	35.69
928.578	35.62
928.947	35.57
929.315	35.5
929.683	35.44
930.051	35.38
930.42	35.28
930.788	35.16
931.156	35.06
931.523	34.98
931.891	34.94
932.259	34.85
932.627	34.76
932.994	34.71
933.362	34.58
933.729	34.47
934.097	34.35
934.464	34.36
934.831	34.34
935.199	34.35
935.566	34.33
935.933	34.43
936.3	34.41
936.667	34.46
937.034	34.5
937.401	34.55
937.767	34.63
938.134	34.71
938.501	34.73
938.867	34.84
939.234	34.91
939.6	34.99
939.967	34.92
940.333	35.09
940.699	35.19
941.065	35.23
941.431	35.37
941.798	35.43
942.163	35.52
942.529	35.62
942.895	35.72
943.261	35.69
943.627	35.69
943.992	35.77
944.358	35.69
944.723	35.65
945.089	35.72
945.454	35.73
945.82	35.76
946.185	35.75
946.55	35.73
946.915	35.67
947.28	35.69
947.645	35.72
948.01	35.65
948.375	35.67
948.74	35.66
949.104	35.56
949.469	35.51
949.834	35.45
950.198	35.39
950.562	35.4
950.927	35.37
951.291	35.34
951.655	35.19
952.02	35.18
952.384	35.2
952.748	35.15
953.112	35.11
953.476	35.1
953.839	35.05
954.203	34.99
954.567	34.95
954.931	34.89
955.294	34.9
955.658	34.97
956.021	34.94
956.385	34.91
956.748	34.93
957.111	34.92
957.474	34.91
957.837	34.96
958.2	34.98
958.563	34.9
958.926	34.85
959.289	34.81
959.652	34.8
960.015	34.78
960.377	34.77
960.74	34.74
961.102	34.71
961.465	34.66
961.827	34.54
962.189	34.53
962.552	34.61
962.914	34.66
963.276	34.56
963.638	34.47
964	34.46
964.362	34.43
964.724	34.46
965.085	34.48
965.447	34.51
965.809	34.51
966.17	34.53
966.532	34.5
966.893	34.48
967.255	34.52
967.616	34.52
967.977	34.54
968.338	34.56
968.699	34.53
969.061	34.51
969.421	34.53
969.782	34.57
970.143	34.53
970.504	34.5
970.865	34.48
971.225	34.47
971.586	34.56
971.946	34.6
972.307	34.55
972.667	34.61
973.027	34.64
973.388	34.63
973.748	34.65
974.108	34.65
974.468	34.64
974.828	34.7
975.188	34.75
975.548	34.74
975.907	34.68
976.267	34.69
976.627	34.61
976.986	34.59
977.346	34.56
977.705	34.6
978.064	34.5
978.424	34.62
978.783	34.61
979.142	34.59
979.501	34.57
979.86	34.55
980.219	34.45
980.578	34.44
980.937	34.44
981.296	34.47
981.654	34.47
982.013	34.6
982.371	34.47
982.73	34.4
983.088	34.44
983.447	34.47
983.805	34.59
984.163	34.73
984.521	34.79
984.879	34.82
985.237	34.91
985.595	34.92
985.953	34.96
986.311	35.03
986.669	35.12
987.026	35.14
987.384	35.11
987.741	35.2
988.099	35.24
988.456	35.23
988.814	35.22
989.171	35.09
989.528	35.1
989.885	35.05
990.242	35.03
990.599	34.98
990.956	34.94
991.313	34.88
991.67	34.88
992.027	34.89
992.383	34.97
992.74	34.93
993.096	35.07
993.453	35.08
993.809	35.14
994.165	35.19
994.522	35.29
994.878	35.37
995.234	35.53
995.59	35.32
995.946	35.33
996.302	35.32
996.658	35.5
997.013	35.42
997.369	35.39
997.725	35.37
998.08	35.26
998.436	35.33
998.791	35.31
999.147	35.26
999.502	35.3
999.857	35.32
1000.212	35.3
1000.567	35.19
1000.922	35.31
1001.277	35.26
1001.632	35.35
1001.987	35.44
1002.342	35.43
1002.696	35.46
1003.051	35.37
1003.406	35.39
1003.76	35.36
1004.114	35.26
1004.469	35.34
1004.823	35.16
1005.177	35.48
1005.531	35.43
1005.885	35.47
1006.239	35.43
1006.593	35.32
1006.947	35.32
1007.301	35.29
1007.655	35.22
1008.008	35.33
1008.362	35.21
1008.715	35.32
1009.069	34.97
1009.422	34.9
1009.776	34.92
1010.129	34.82
1010.482	35.04
1010.835	35.18
1011.188	35.2
1011.541	35.25
1011.894	35.32
1012.247	35.39
1012.6	35.46
1012.952	35.63
1013.305	35.72
1013.657	35.88
1014.01	36.29
1014.362	36.36
1014.715	36.39
1015.067	36.46
1015.419	36.63
1015.771	36.79
1016.123	36.73
1016.475	37.05
1016.827	37
1017.179	36.99
1017.531	36.9
1017.883	36.66
1018.234	36.52
1018.586	36.52
1018.938	36.31
1019.289	35.98
1019.64	36.07
1019.992	36.41
1020.343	36.21
1020.694	36.14
1021.045	36.12
1021.396	36.38
1021.747	36.54
1022.098	36.71
1022.449	36.8
1022.8	37.26
1023.151	37.46
1023.501	37.31
1023.852	37.12
1024.202	37.06
1024.553	37.79
1024.903	38.03
1025.253	37.98
1025.604	38.11
1025.954	37.99
1026.304	38.51
1026.654	38.59
1027.004	39.06
1027.354	39.22
1027.703	39.51
1028.053	39.43
1028.403	38.73
1028.753	38.77
1029.102	38.66
1029.452	38.33
1029.801	38.36
1030.15	37.93
1030.499	37.86
897.758	533.38
901.051	544.58
904.343	550.88
907.636	541.95
910.928	531.88
914.22	540.44
917.511	530.36
920.803	502.4
924.094	485.67
927.384	492.69
930.675	476.32
933.965	472.7
937.255	470.92
940.544	449.47
943.834	429.94
947.123	423.41
950.411	401.49
953.7	395.22
956.988	386.58
960.276	370.01
963.563	365.37
966.851	348.4
970.138	341.29
973.424	319
976.711	317.19
979.997	308.56
983.283	300.31
986.568	291.53
989.853	283.1
993.138	272.22
996.423	268.89
999.708	262.04
1002.992	261.65
1006.275	254.71
1009.559	253.76
1012.842	243.96
1016.125	236
1019.408	233.11
1022.69	231.19
1025.972	228.12
1029.254	224.77
1032.536	219.75
1035.817	212.52
1039.098	210
1042.379	206.08
1045.659	202.67
1048.939	202.33
1052.219	199.51
1055.498	195.69
1058.778	192.91
1062.057	190.23
1065.335	188.39
1068.614	184.67
1071.892	182.32
1075.17	178.53
1078.447	176.65
1081.724	175.18
1085.001	170.77
1088.278	170.82
1091.554	170
1094.83	169.48
1098.106	166.62
1101.382	165.8
1104.657	166.04
1107.932	165.6
1111.206	164.38
1114.481	163.58
1117.755	162.1
1121.029	162.65
1124.302	160.15
1127.575	158.04
1130.848	156.71
1134.121	155.29
1137.393	154.41
1140.665	154.26
1143.937	152.71
1147.208	151.49
1150.48	149.18
1153.75	148.81
1157.021	147.5
1160.291	146.33
1163.561	145.97
1166.831	144.98
1170.101	144.47
1173.37	144.2
1176.639	142.09
1179.907	142.14
1183.176	141.16
1186.444	141.82
1189.711	140.25
1192.979	140.54
1196.246	140.43
1199.513	141.43
1202.78	140.7
1206.046	140.56
1209.312	141.72
1212.578	142.55
1215.843	144.55
1219.108	145.44
1222.373	147.01
1225.638	149.73
1228.902	152.76
1232.166	159.08
1235.43	159.19
1238.693	163.73
1241.956	167.82
1245.219	170.36
1248.482	172.41
1251.744	171.34
1255.006	172.09
1258.268	169.08
1261.529	168.02
1264.79	163.74
1268.051	159.34
1271.312	158.58
1274.572	155.32
1277.832	152.19
1281.092	149.76
1284.351	146.59
1287.61	146.47
1290.869	146.6
1294.128	145.06
1297.386	144.39
1300.644	143.98
1303.902	143.04
1307.159	141.9
1310.416	143.46
1313.673	144.48
1316.93	146.5
1320.186	148.4
1323.442	149.52
1326.697	151.42
1329.953	152.97
1333.208	156.83
1336.463	163.07
1339.717	166.41
1342.972	175.1
1346.226	179.35
1349.479	180.81
1352.733	187.13
1355.986	190.38
1359.238	194.62
1362.491	195.03
1365.743	202.33
1368.995	204.29
1372.247	205.16
1375.498	204.32
1378.749	209.97
1382	208.43
1385.251	207.06
1388.501	205.48
1391.751	208.25
1395	206.26
1398.25	209.01
1401.499	207.36
1404.748	206.58
1407.996	199.69
1411.244	199.47
1414.492	194.98
1417.74	190.23
1420.987	186.8
1424.234	184.03
1427.481	176.45
1430.728	172.15
1433.974	166.42
1437.22	160.49
1440.465	155.03
1443.711	150.81
1446.956	146.01
1450.201	140.52
1453.445	134.5
1456.689	130.4
1459.933	126.1
1463.177	121.37
1466.42	119.19
1469.663	116.01
1472.906	112.9
1476.148	109.44
1479.391	107.38
1482.633	105.5
1485.874	103.63
1489.115	102.77
1492.356	101.25
1495.597	99.95
1498.838	99.84
1502.078	98.62
1505.318	98.02
1508.557	97.55
1511.797	97.06
1515.036	96.37
1518.274	96.76
1521.513	95.74
1524.751	95.2
1527.989	95.92
1531.227	95.58
1534.464	95.5
1537.701	94.81
1540.938	94.45
1544.174	94.35
1547.41	94.88
1550.646	95.03
1553.882	94.81
1557.117	94.61
1560.352	94.84
1563.587	94.29
1566.821	94.26
1570.055	93.62
1573.289	94.11
1576.523	94.32
1579.756	93.98
1582.989	94.04
1586.222	94.25
1589.454	93.98
1592.686	94.52
1595.918	94.32
1599.15	94.29
1602.381	94.65
1605.612	94.91
1608.843	94.63
1612.073	94.61
1615.303	95.12
1618.533	94.7
1621.762	94.27
1624.992	95.05
1628.221	94.61
1631.449	94.84
1634.678	94.7
1637.906	94.69
1641.134	94.99
1644.361	95.1
1647.588	95.91
1650.815	96.07
1654.042	96.58
1657.269	96.34
1660.495	96.18
1663.72	96.58
1666.946	96.45
1670.171	97.12
1673.396	97.48
1676.621	97.45
1679.845	97.92
1683.069	97.27
1686.293	97.25
1689.517	96.92
1692.74	97.44
1695.963	97.6
1699.185	97.7
1702.408	97.37
1705.63	97.61
1708.852	98
1712.073	98
1715.294	97.98
1718.515	97.78
1721.736	98
1724.956	98.52
1728.176	98.5
1731.396	98.74
1734.616	98.86
1737.835	99.36
1741.054	98.98
1744.272	98.77
1747.491	98.59
1750.709	99.05
1753.927	99.72
1757.144	99.44
1760.361	99.24
1763.578	100.13
1766.795	100.16
1770.011	99.91
1773.227	100.28
1776.443	100.93
1779.658	100.76
1782.874	101.4
1786.089	100.96
1789.303	100.89
1792.518	102.42
1795.732	102.82
1798.945	102.84
1802.159	103.3
1805.372	105.01
1808.585	105.75
1811.797	106.42
1815.01	107.11
1818.222	108.09
1821.434	109.19
1824.645	109.79
1827.856	111
1831.067	111.77
1834.278	113.27
1837.488	113.46
1840.698	114.66
1843.908	114.74
1847.117	115.9
1850.326	116.94
1853.535	117.4
1856.744	118.44
1859.952	119.39
1863.16	118.59
1866.368	117.55
1869.575	117.56
1872.782	117.93
1875.989	115.26
1879.196	115.52
1882.402	112.91
1885.608	113.19
1888.814	112.36
1892.019	112.88
1895.224	111.2
1898.429	110.86
1901.634	111.59
1904.838	112.52
1908.042	112.82
1911.246	112.33
1914.449	112.39
1917.652	113.19
1920.855	113.11
1924.058	112.32
1927.26	110.96
1930.462	111.99
1933.664	112.26
1936.865	112.23
1940.066	109.47
1943.267	108.1
1946.467	110.36
1949.668	110.37
1952.868	110.86
1956.067	110.88
1959.267	111.87
1962.466	112.47
1965.665	113.51
1968.863	112.95
1972.061	115.45
1975.259	117.77
1978.457	120.02
1981.654	120.14
1984.852	120.99
1988.048	122.54
1991.245	123.85
1994.441	127.15
1997.637	128.6
2000.833	131.03
2004.028	134.12
2007.223	135.39
2010.418	138.12
2013.613	143.7
2016.807	147.22
2020.001	149.63
2023.194	154.15
2026.388	160.4
2029.581	166.09
2032.774	173.54
2035.966	178.33
2039.158	182.66
2042.35	187.4
2045.542	190.03
2048.733	197.19
2051.924	199.31
2055.115	204.36
2058.306	206.32
2061.496	208.66
2064.686	209.89
2067.875	207.79
2071.065	210.32
2074.254	210.89
2077.442	216.95
2080.631	221.13
2083.819	220.58
2087.007	226.33
2090.195	229.62
2093.382	229.83
2096.569	231.01
2099.756	233.35
2102.942	238.29
2106.128	242.61
2109.314	245.35
2112.5	244.75
2115.685	242.75
2118.87	242.71
2122.055	242.85
2125.239	248.35
2128.424	255.29
2131.608	253.8
2134.791	255.13
2137.974	256.89
2141.157	259.03
2144.34	260.9
2147.523	266.5
2150.705	273.27
2153.887	269.87
2157.068	273.2
2160.25	273.66
2163.431	272.78
2166.611	276.32
2169.792	281.26
2172.972	284.92
2176.152	284.06
2179.331	290.85
2182.511	289.31
2185.69	292.03
2188.868	305.19
2192.047	312.06
2195.225	316.86
2198.403	319.7
2201.58	318.01
2204.758	328.55
2207.935	328.98
2211.111	337.96
2214.288	338.36
2217.464	342.94
2220.64	345.05
2223.815	345.5
2226.991	340.02
2230.166	342.09
2233.34	352.96
2236.515	363.16
2239.689	353.46
2242.863	363.24
2246.036	358.09
2249.209	365.78
2252.382	364.52
2255.555	377.23
2258.727	380.74
2261.9	395.56
2265.071	402.2
2268.243	397.42
2271.414	409.59
2274.585	423.68
2277.756	421
2280.926	434.94
2284.096	441.06
2287.266	444.85
2290.436	434.98
2293.605	444.56
2296.774	459.88
2299.942	458.71
2303.111	471.74
2306.279	481.03
2309.447	481.66
2312.614	482.73
2315.781	498.53
2318.948	497.66
2322.115	507.06
2325.281	536.33
2328.447	530.19
2331.613	530.35
2334.779	536.68
2337.944	549.45
2341.109	553.85
2344.274	560.39
2347.438	571.86
2350.602	577.62
2353.766	619.15
2356.929	620.22
2360.092	631.97
2363.255	634.74
2366.418	644.73
2369.58	660.77
2372.742	659.64
2375.904	657.48
2379.066	676.23
2382.227	713.27
2385.388	721.58
2388.548	680.71
2391.709	674.63
2394.869	697.43
2398.029	694.96
2401.188	696.26
2404.347	714.14
2407.506	736.39
2410.665	711.11
2413.823	711.62
2416.981	716.47
2420.139	681.19
2423.296	732.88
2426.453	779.37
2429.61	739.91
2432.767	794.81
2435.923	818
2439.079	798.09
2442.235	812.21
2445.391	834.89
2448.546	834.49
2451.701	877.49
2454.855	927.88
2458.009	825.27
2461.163	837.24
2464.317	849.42
2467.471	831.82
2470.624	862.51
2473.777	842.2
2476.929	818.24
2480.082	868.85
2483.234	906.09
2486.385	923.96
2489.537	947.56
2492.688	1045.52
2495.839	1033.8
2498.989	1057.62
2502.14	1062.67
2505.29	1013.42
2508.439	1125.79
2511.589	1153.67
2514.738	1125.25
2517.887	1114.98
2521.035	1046.5
2524.183	1027.28
2527.331	1016.2
2530.479	991.24
2533.627	1012.73
