Data from N_3_div_wi_4n_Splice17_19.txt Node
Date: Sat Feb 29 14:44:24 EST 2020
User: sa697716
Spectrometer: FLMS03696
Trigger mode: 0
Integration Time (sec): 3.180400E-1
Scans to average: 20
Electric dark correction enabled: true
Nonlinearity correction enabled: true
Boxcar width: 5
XAxis mode: Wavelengths
Number of Pixels in Spectrum: 2048
>>>>>Begin Spectral Data<<<<<
187.83	76.11
188.298	92.98
188.766	75.79
189.233	82.67
189.701	89.66
190.169	91.18
190.636	91.89
191.104	87.34
191.571	104.11
192.039	182.3
192.506	-133.78
192.974	-1177.8
193.441	-309.86
193.908	54.19
194.375	82.5
194.842	192.52
195.31	128.23
195.777	191.51
196.244	50.19
196.711	33.68
197.177	30.69
197.644	29.91
198.111	29.43
198.578	28.97
199.045	29.76
199.511	30.35
199.978	30.43
200.445	30.21
200.911	29.86
201.378	30.61
201.844	31.44
202.31	31.91
202.777	32.53
203.243	33.31
203.709	34.08
204.176	34.03
204.642	34.48
205.108	34.39
205.574	34.93
206.04	35.54
206.506	35.39
206.972	34.89
207.438	35.01
207.903	35.22
208.369	35.57
208.835	35.74
209.301	36.04
209.766	36.38
210.232	36.87
210.697	37.21
211.163	37.29
211.628	37.79
212.094	38.3
212.559	38.62
213.024	38.72
213.49	38.56
213.955	38.73
214.42	38.77
214.885	38.36
215.35	38.67
215.815	38.87
216.28	39.39
216.745	39.66
217.21	39.7
217.675	40.02
218.14	40.16
218.604	40.21
219.069	40.33
219.534	40.26
219.998	40.21
220.463	40.15
220.927	40.09
221.392	39.76
221.856	39.49
222.32	39.23
222.785	38.87
223.249	38.54
223.713	38.19
224.177	37.82
224.642	37.44
225.106	37.08
225.57	36.62
226.034	36.19
226.497	35.81
226.961	35.4
227.425	34.97
227.889	34.58
228.353	34.17
228.816	33.78
229.28	33.33
229.744	32.92
230.207	32.53
230.671	32.12
231.134	31.68
231.597	31.25
232.061	30.83
232.524	30.48
232.987	30.09
233.45	29.67
233.914	29.28
234.377	28.89
234.84	28.56
235.303	28.18
235.766	27.83
236.229	27.51
236.691	27.2
237.154	26.89
237.617	26.55
238.08	26.25
238.542	25.96
239.005	25.67
239.468	25.37
239.93	25.07
240.393	24.81
240.855	24.54
241.317	24.27
241.78	24.03
242.242	23.77
242.704	23.53
243.166	23.28
243.629	23.06
244.091	22.82
244.553	22.62
245.015	22.4
245.477	22.18
245.939	21.97
246.4	21.76
246.862	21.54
247.324	21.36
247.786	21.17
248.247	20.99
248.709	20.8
249.17	20.64
249.632	20.45
250.093	20.26
250.555	20.08
251.016	19.95
251.477	19.79
251.939	19.64
252.4	19.49
252.861	19.34
253.322	19.21
253.783	19.1
254.244	18.97
254.705	18.88
255.166	18.8
255.627	18.72
256.088	18.61
256.549	18.53
257.009	18.45
257.47	18.38
257.931	18.3
258.391	18.21
258.852	18.12
259.312	18.05
259.773	17.95
260.233	17.85
260.694	17.76
261.154	17.66
261.614	17.57
262.074	17.48
262.534	17.38
262.994	17.3
263.455	17.21
263.915	17.12
264.374	17.03
264.834	16.95
265.294	16.87
265.754	16.79
266.214	16.72
266.673	16.65
267.133	16.57
267.593	16.51
268.052	16.43
268.512	16.35
268.971	16.29
269.431	16.23
269.89	16.16
270.349	16.1
270.809	16.05
271.268	15.99
271.727	15.93
272.186	15.87
272.645	15.8
273.104	15.73
273.563	15.68
274.022	15.61
274.481	15.55
274.94	15.47
275.399	15.4
275.857	15.33
276.316	15.25
276.775	15.17
277.233	15.1
277.692	15.04
278.15	14.96
278.609	14.89
279.067	14.81
279.525	14.73
279.984	14.67
280.442	14.62
280.9	14.55
281.358	14.48
281.816	14.41
282.274	14.34
282.732	14.29
283.19	14.24
283.648	14.19
284.106	14.14
284.564	14.11
285.021	14.06
285.479	14.02
285.937	13.97
286.394	13.94
286.852	13.92
287.309	13.89
287.767	13.86
288.224	13.81
288.682	13.77
289.139	13.72
289.596	13.65
290.053	13.59
290.511	13.51
290.968	13.44
291.425	13.38
291.882	13.3
292.339	13.22
292.796	13.13
293.252	13.08
293.709	13.01
294.166	12.95
294.623	12.91
295.079	12.86
295.536	12.81
295.992	12.76
296.449	12.7
296.905	12.65
297.362	12.61
297.818	12.57
298.274	12.52
298.731	12.48
299.187	12.43
299.643	12.38
300.099	12.34
300.555	12.3
301.011	12.25
301.467	12.2
301.923	12.16
302.379	12.12
302.835	12.06
303.291	12.02
303.746	11.98
304.202	11.93
304.658	11.89
305.113	11.84
305.569	11.8
306.024	11.77
306.479	11.73
306.935	11.71
307.39	11.68
307.845	11.65
308.301	11.63
308.756	11.61
309.211	11.59
309.666	11.58
310.121	11.56
310.576	11.54
311.031	11.52
311.486	11.5
311.94	11.46
312.395	11.46
312.85	11.44
313.305	11.42
313.759	11.39
314.214	11.37
314.668	11.35
315.123	11.33
315.577	11.31
316.032	11.29
316.486	11.26
316.94	11.23
317.394	11.18
317.849	11.15
318.303	11.12
318.757	11.09
319.211	11.04
319.665	11.01
320.119	10.97
320.572	10.92
321.026	10.88
321.48	10.83
321.934	10.81
322.387	10.78
322.841	10.74
323.295	10.7
323.748	10.66
324.202	10.63
324.655	10.59
325.108	10.56
325.562	10.53
326.015	10.5
326.468	10.47
326.921	10.43
327.374	10.39
327.827	10.35
328.28	10.32
328.733	10.28
329.186	10.25
329.639	10.22
330.092	10.2
330.545	10.17
330.997	10.15
331.45	10.13
331.903	10.11
332.355	10.1
332.808	10.09
333.26	10.07
333.713	10.07
334.165	10.06
334.617	10.05
335.069	10.02
335.522	10.01
335.974	10
336.426	9.99
336.878	9.97
337.33	9.96
337.782	9.94
338.234	9.92
338.686	9.91
339.137	9.89
339.589	9.87
340.041	9.86
340.493	9.82
340.944	9.8
341.396	9.78
341.847	9.75
342.299	9.72
342.75	9.66
343.201	9.62
343.653	9.58
344.104	9.55
344.555	9.52
345.006	9.49
345.457	9.46
345.908	9.42
346.359	9.4
346.81	9.37
347.261	9.35
347.712	9.34
348.163	9.33
348.613	9.3
349.064	9.28
349.515	9.26
349.965	9.24
350.416	9.22
350.866	9.21
351.317	9.2
351.767	9.18
352.217	9.17
352.668	9.14
353.118	9.14
353.568	9.14
354.018	9.15
354.468	9.13
354.918	9.13
355.368	9.13
355.818	9.12
356.268	9.13
356.718	9.14
357.168	9.13
357.617	9.13
358.067	9.13
358.517	9.12
358.966	9.12
359.416	9.13
359.865	9.13
360.315	9.13
360.764	9.14
361.213	9.12
361.663	9.13
362.112	9.15
362.561	9.16
363.01	9.17
363.459	9.17
363.908	9.17
364.357	9.17
364.806	9.18
365.255	9.19
365.703	9.19
366.152	9.22
366.601	9.23
367.05	9.24
367.498	9.26
367.947	9.27
368.395	9.3
368.844	9.32
369.292	9.33
369.74	9.35
370.189	9.37
370.637	9.39
371.085	9.41
371.533	9.42
371.981	9.45
372.429	9.47
372.877	9.5
373.325	9.52
373.773	9.55
374.221	9.59
374.669	9.61
375.116	9.64
375.564	9.67
376.012	9.71
376.459	9.74
376.907	9.78
377.354	9.81
377.801	9.85
378.249	9.88
378.696	9.93
379.143	9.96
379.591	10.01
380.038	10.05
380.485	10.08
380.932	10.11
381.379	10.14
381.826	10.17
382.273	10.2
382.72	10.24
383.166	10.27
383.613	10.29
384.06	10.32
384.506	10.33
384.953	10.35
385.4	10.37
385.846	10.4
386.292	10.44
386.739	10.48
387.185	10.52
387.631	10.54
388.078	10.56
388.524	10.57
388.97	10.58
389.416	10.6
389.862	10.62
390.308	10.64
390.754	10.67
391.2	10.69
391.645	10.7
392.091	10.69
392.537	10.71
392.983	10.73
393.428	10.77
393.874	10.81
394.319	10.82
394.765	10.83
395.21	10.84
395.655	10.83
396.101	10.84
396.546	10.85
396.991	10.86
397.436	10.84
397.881	10.85
398.326	10.86
398.771	10.86
399.216	10.89
399.661	10.9
400.106	10.91
400.551	10.89
400.995	10.88
401.44	10.85
401.885	10.82
402.329	10.81
402.774	10.79
403.218	10.76
403.663	10.74
404.107	10.72
404.551	10.7
404.995	10.68
405.44	10.67
405.884	10.66
406.328	10.66
406.772	10.68
407.216	10.69
407.66	10.69
408.104	10.67
408.547	10.64
408.991	10.61
409.435	10.59
409.879	10.57
410.322	10.56
410.766	10.55
411.209	10.54
411.653	10.52
412.096	10.5
412.54	10.46
412.983	10.45
413.426	10.47
413.869	10.47
414.312	10.49
414.756	10.51
415.199	10.51
415.642	10.53
416.085	10.56
416.527	10.57
416.97	10.58
417.413	10.59
417.856	10.57
418.298	10.54
418.741	10.53
419.184	10.51
419.626	10.48
420.069	10.47
420.511	10.44
420.953	10.41
421.396	10.38
421.838	10.38
422.28	10.38
422.722	10.42
423.164	10.43
423.606	10.43
424.048	10.43
424.49	10.45
424.932	10.46
425.374	10.46
425.816	10.43
426.258	10.42
426.699	10.37
427.141	10.33
427.582	10.28
428.024	10.27
428.465	10.27
428.907	10.28
429.348	10.26
429.789	10.24
430.231	10.22
430.672	10.24
431.113	10.26
431.554	10.29
431.995	10.31
432.436	10.32
432.877	10.31
433.318	10.31
433.759	10.3
434.2	10.31
434.64	10.32
435.081	10.35
435.522	10.36
435.962	10.36
436.403	10.37
436.843	10.4
437.284	10.44
437.724	10.47
438.164	10.48
438.604	10.52
439.045	10.53
439.485	10.54
439.925	10.55
440.365	10.54
440.805	10.57
441.245	10.57
441.685	10.6
442.125	10.6
442.564	10.62
443.004	10.63
443.444	10.66
443.883	10.68
444.323	10.71
444.762	10.77
445.202	10.82
445.641	10.84
446.081	10.87
446.52	10.87
446.959	10.91
447.398	10.98
447.837	11.04
448.276	11.07
448.716	11.12
449.154	11.13
449.593	11.15
450.032	11.18
450.471	11.21
450.91	11.25
451.349	11.28
451.787	11.29
452.226	11.26
452.664	11.25
453.103	11.23
453.541	11.23
453.98	11.24
454.418	11.22
454.856	11.2
455.295	11.19
455.733	11.17
456.171	11.15
456.609	11.14
457.047	11.11
457.485	11.1
457.923	11.08
458.361	11.05
458.798	11.05
459.236	11.05
459.674	11.04
460.111	11.03
460.549	11.01
460.987	11.01
461.424	10.99
461.862	10.99
462.299	10.96
462.736	10.95
463.173	10.95
463.611	10.92
464.048	10.92
464.485	10.91
464.922	10.88
465.359	10.88
465.796	10.85
466.233	10.86
466.67	10.88
467.106	10.88
467.543	10.87
467.98	10.85
468.416	10.88
468.853	10.85
469.29	10.84
469.726	10.85
470.162	10.83
470.599	10.83
471.035	10.83
471.471	10.81
471.907	10.83
472.344	10.85
472.78	10.85
473.216	10.84
473.652	10.84
474.088	10.86
474.523	10.87
474.959	10.88
475.395	10.87
475.831	10.86
476.266	10.87
476.702	10.85
477.138	10.84
477.573	10.82
478.008	10.82
478.444	10.81
478.879	10.8
479.314	10.81
479.75	10.81
480.185	10.82
480.62	10.81
481.055	10.79
481.49	10.78
481.925	10.77
482.36	10.75
482.795	10.73
483.229	10.71
483.664	10.7
484.099	10.7
484.534	10.68
484.968	10.67
485.403	10.67
485.837	10.67
486.271	10.67
486.706	10.67
487.14	10.69
487.574	10.71
488.009	10.73
488.443	10.73
488.877	10.74
489.311	10.77
489.745	10.79
490.179	10.82
490.613	10.85
491.046	10.88
491.48	10.92
491.914	10.95
492.348	10.97
492.781	11.01
493.215	11.05
493.648	11.1
494.082	11.15
494.515	11.2
494.948	11.26
495.382	11.3
495.815	11.37
496.248	11.44
496.681	11.51
497.114	11.59
497.547	11.66
497.98	11.75
498.413	11.84
498.846	11.93
499.279	12.03
499.711	12.12
500.144	12.23
500.577	12.33
501.009	12.45
501.442	12.59
501.874	12.73
502.306	12.88
502.739	13.02
503.171	13.18
503.603	13.35
504.036	13.51
504.468	13.71
504.9	13.92
505.332	14.12
505.764	14.33
506.196	14.54
506.627	14.75
507.059	14.98
507.491	15.23
507.923	15.46
508.354	15.73
508.786	15.99
509.217	16.23
509.649	16.51
510.08	16.8
510.512	17.1
510.943	17.39
511.374	17.69
511.805	18.01
512.237	18.34
512.668	18.68
513.099	19.02
513.53	19.37
513.961	19.75
514.391	20.09
514.822	20.45
515.253	20.81
515.684	21.17
516.114	21.56
516.545	21.92
516.975	22.31
517.406	22.67
517.836	23.05
518.267	23.42
518.697	23.79
519.127	24.17
519.558	24.54
519.988	24.9
520.418	25.29
520.848	25.65
521.278	26.03
521.708	26.35
522.138	26.72
522.567	27.06
522.997	27.37
523.427	27.71
523.857	28.03
524.286	28.35
524.716	28.68
525.145	28.99
525.575	29.29
526.004	29.58
526.433	29.88
526.863	30.15
527.292	30.41
527.721	30.69
528.15	30.92
528.579	31.17
529.008	31.4
529.437	31.61
529.866	31.8
530.295	32
530.724	32.22
531.152	32.42
531.581	32.61
532.01	32.77
532.438	32.94
532.867	33.1
533.295	33.23
533.723	33.39
534.152	33.5
534.58	33.62
535.008	33.73
535.436	33.83
535.865	33.91
536.293	34
536.721	34.07
537.149	34.14
537.576	34.2
538.004	34.28
538.432	34.33
538.86	34.4
539.287	34.46
539.715	34.51
540.143	34.53
540.57	34.56
540.998	34.63
541.425	34.69
541.852	34.73
542.28	34.78
542.707	34.82
543.134	34.85
543.561	34.89
543.988	34.94
544.415	34.99
544.842	35.03
545.269	35.11
545.696	35.15
546.123	35.2
546.549	35.25
546.976	35.28
547.403	35.31
547.829	35.37
548.256	35.41
548.682	35.43
549.108	35.47
549.535	35.53
549.961	35.54
550.387	35.56
550.813	35.54
551.24	35.57
551.666	35.63
552.092	35.63
552.518	35.62
552.943	35.63
553.369	35.61
553.795	35.6
554.221	35.57
554.646	35.54
555.072	35.49
555.498	35.45
555.923	35.41
556.349	35.32
556.774	35.28
557.199	35.25
557.625	35.17
558.05	35.09
558.475	34.99
558.9	34.9
559.325	34.79
559.75	34.69
560.175	34.58
560.6	34.44
561.025	34.31
561.449	34.16
561.874	33.99
562.299	33.85
562.723	33.71
563.148	33.57
563.572	33.41
563.997	33.27
564.421	33.1
564.846	32.93
565.27	32.77
565.694	32.59
566.118	32.41
566.542	32.22
566.966	32.02
567.39	31.79
567.814	31.57
568.238	31.33
568.662	31.1
569.086	30.87
569.509	30.66
569.933	30.42
570.357	30.19
570.78	29.97
571.204	29.75
571.627	29.53
572.05	29.35
572.474	29.15
572.897	28.96
573.32	28.78
573.743	28.6
574.166	28.42
574.589	28.26
575.012	28.12
575.435	27.95
575.858	27.79
576.281	27.66
576.704	27.51
577.126	27.37
577.549	27.25
577.972	27.14
578.394	27
578.817	26.86
579.239	26.73
579.661	26.62
580.084	26.52
580.506	26.44
580.928	26.33
581.35	26.22
581.772	26.13
582.194	26.02
582.616	25.92
583.038	25.85
583.46	25.78
583.882	25.7
584.303	25.6
584.725	25.51
585.147	25.39
585.568	25.29
585.99	25.21
586.411	25.13
586.833	25.04
587.254	24.95
587.675	24.84
588.096	24.75
588.518	24.67
588.939	24.59
589.36	24.52
589.781	24.46
590.202	24.4
590.623	24.32
591.043	24.24
591.464	24.17
591.885	24.11
592.305	24.07
592.726	23.99
593.147	23.94
593.567	23.88
593.987	23.84
594.408	23.78
594.828	23.71
595.248	23.66
595.669	23.64
596.089	23.58
596.509	23.5
596.929	23.45
597.349	23.39
597.769	23.33
598.189	23.29
598.608	23.23
599.028	23.17
599.448	23.11
599.867	23.05
600.287	22.98
600.706	22.92
601.126	22.88
601.545	22.79
601.965	22.75
602.384	22.67
602.803	22.59
603.222	22.51
603.641	22.44
604.061	22.39
604.48	22.3
604.898	22.21
605.317	22.13
605.736	22.06
606.155	21.98
606.574	21.89
606.992	21.81
607.411	21.74
607.829	21.61
608.248	21.52
608.666	21.42
609.085	21.33
609.503	21.23
609.921	21.14
610.339	21.05
610.758	20.97
611.176	20.87
611.594	20.76
612.012	20.67
612.43	20.63
612.847	20.54
613.265	20.47
613.683	20.39
614.101	20.3
614.518	20.21
614.936	20.12
615.353	20.03
615.771	19.94
616.188	19.87
616.606	19.77
617.023	19.68
617.44	19.59
617.857	19.48
618.274	19.41
618.691	19.35
619.108	19.3
619.525	19.24
619.942	19.19
620.359	19.15
620.776	19.1
621.192	19.07
621.609	19.04
622.026	19.01
622.442	18.99
622.859	18.96
623.275	18.95
623.691	18.91
624.108	18.9
624.524	18.86
624.94	18.83
625.356	18.81
625.772	18.8
626.188	18.78
626.604	18.76
627.02	18.73
627.436	18.71
627.852	18.67
628.268	18.63
628.683	18.58
629.099	18.56
629.514	18.51
629.93	18.47
630.345	18.41
630.761	18.35
631.176	18.28
631.591	18.22
632.007	18.16
632.422	18.08
632.837	17.99
633.252	17.91
633.667	17.78
634.082	17.68
634.497	17.55
634.911	17.41
635.326	17.26
635.741	17.11
636.155	16.95
636.57	16.78
636.984	16.6
637.399	16.4
637.813	16.2
638.228	16.02
638.642	15.83
639.056	15.66
639.47	15.46
639.884	15.27
640.298	15.07
640.712	14.86
641.126	14.65
641.54	14.47
641.954	14.31
642.368	14.13
642.781	13.96
643.195	13.77
643.609	13.6
644.022	13.43
644.436	13.27
644.849	13.13
645.262	12.99
645.676	12.87
646.089	12.76
646.502	12.64
646.915	12.55
647.328	12.46
647.741	12.38
648.154	12.31
648.567	12.26
648.98	12.21
649.393	12.16
649.805	12.11
650.218	12.07
650.631	12.02
651.043	11.98
651.456	11.95
651.868	11.9
652.28	11.87
652.693	11.81
653.105	11.78
653.517	11.73
653.929	11.69
654.341	11.65
654.753	11.59
655.165	11.53
655.577	11.46
655.989	11.38
656.401	11.31
656.813	11.23
657.224	11.15
657.636	11.08
658.047	10.99
658.459	10.91
658.87	10.83
659.282	10.74
659.693	10.65
660.104	10.57
660.515	10.48
660.926	10.4
661.338	10.32
661.749	10.24
662.159	10.14
662.57	10.06
662.981	9.98
663.392	9.88
663.803	9.81
664.213	9.74
664.624	9.67
665.035	9.6
665.445	9.54
665.855	9.47
666.266	9.44
666.676	9.39
667.086	9.35
667.497	9.31
667.907	9.27
668.317	9.24
668.727	9.22
669.137	9.21
669.547	9.21
669.956	9.19
670.366	9.2
670.776	9.18
671.186	9.19
671.595	9.19
672.005	9.19
672.414	9.21
672.824	9.23
673.233	9.26
673.642	9.27
674.052	9.28
674.461	9.3
674.87	9.32
675.279	9.35
675.688	9.38
676.097	9.42
676.506	9.47
676.915	9.5
677.323	9.55
677.732	9.6
678.141	9.67
678.549	9.73
678.958	9.82
679.366	9.9
679.775	9.99
680.183	10.09
680.592	10.21
681	10.32
681.408	10.46
681.816	10.6
682.224	10.76
682.632	10.94
683.04	11.15
683.448	11.37
683.856	11.62
684.264	11.88
684.671	12.18
685.079	12.51
685.487	12.88
685.894	13.28
686.302	13.71
686.709	14.17
687.116	14.66
687.524	15.18
687.931	15.74
688.338	16.33
688.745	16.96
689.152	17.61
689.559	18.28
689.966	18.99
690.373	19.72
690.78	20.48
691.187	21.26
691.593	22.05
692	22.86
692.407	23.67
692.813	24.49
693.22	25.31
693.626	26.16
694.032	27.02
694.439	27.88
694.845	28.73
695.251	29.58
695.657	30.41
696.063	31.26
696.469	32.1
696.875	32.93
697.281	33.74
697.687	34.59
698.093	35.39
698.498	36.19
698.904	36.97
699.31	37.75
699.715	38.51
700.12	39.24
700.526	39.97
700.931	40.7
701.337	41.4
701.742	42.09
702.147	42.77
702.552	43.46
702.957	44.13
703.362	44.8
703.767	45.42
704.172	46.03
704.577	46.66
704.981	47.25
705.386	47.84
705.791	48.44
706.195	49
706.6	49.51
707.004	50.04
707.408	50.57
707.813	51.06
708.217	51.54
708.621	52.03
709.025	52.51
709.43	52.96
709.834	53.45
710.237	53.89
710.641	54.36
711.045	54.8
711.449	55.2
711.853	55.6
712.256	56.04
712.66	56.47
713.064	56.86
713.467	57.23
713.87	57.63
714.274	57.97
714.677	58.33
715.08	58.67
715.484	59.07
715.887	59.45
716.29	59.82
716.693	60.1
717.096	60.45
717.499	60.79
717.901	61.12
718.304	61.43
718.707	61.72
719.109	62.04
719.512	62.36
719.915	62.61
720.317	62.85
720.719	63.07
721.122	63.35
721.524	63.6
721.926	63.88
722.328	64.14
722.731	64.38
723.133	64.65
723.535	64.85
723.937	65.07
724.338	65.28
724.74	65.5
725.142	65.66
725.544	65.81
725.945	65.96
726.347	66.13
726.748	66.23
727.15	66.39
727.551	66.54
727.952	66.67
728.354	66.81
728.755	66.98
729.156	67.14
729.557	67.35
729.958	67.52
730.359	67.68
730.76	67.77
731.161	67.9
731.562	68.01
731.962	68.14
732.363	68.27
732.763	68.4
733.164	68.44
733.564	68.5
733.965	68.54
734.365	68.61
734.766	68.67
735.166	68.72
735.566	68.78
735.966	68.84
736.366	68.86
736.766	68.92
737.166	68.98
737.566	69.05
737.966	69.1
738.365	69.18
738.765	69.23
739.165	69.25
739.564	69.27
739.964	69.31
740.363	69.35
740.763	69.39
741.162	69.37
741.561	69.38
741.96	69.45
742.36	69.46
742.759	69.45
743.158	69.45
743.557	69.51
743.955	69.57
744.354	69.63
744.753	69.68
745.152	69.7
745.55	69.76
745.949	69.79
746.348	69.83
746.746	69.88
747.144	69.96
747.543	69.99
747.941	70.04
748.339	70.12
748.737	70.17
749.136	70.2
749.534	70.27
749.932	70.28
750.33	70.28
750.727	70.27
751.125	70.3
751.523	70.26
751.921	70.33
752.318	70.29
752.716	70.22
753.113	70.16
753.511	70.13
753.908	70.07
754.305	70.06
754.703	70.02
755.1	69.99
755.497	69.96
755.894	69.96
756.291	69.91
756.688	69.89
757.085	69.9
757.482	69.94
757.878	69.96
758.275	69.92
758.672	69.95
759.068	69.99
759.465	70
759.861	70.01
760.258	69.98
760.654	69.96
761.05	69.94
761.447	69.92
761.843	69.86
762.239	69.81
762.635	69.81
763.031	69.77
763.427	69.7
763.822	69.65
764.218	69.62
764.614	69.6
765.01	69.58
765.405	69.55
765.801	69.53
766.196	69.52
766.592	69.51
766.987	69.5
767.382	69.48
767.778	69.49
768.173	69.48
768.568	69.44
768.963	69.43
769.358	69.42
769.753	69.47
770.148	69.48
770.542	69.45
770.937	69.43
771.332	69.44
771.726	69.41
772.121	69.4
772.515	69.43
772.91	69.45
773.304	69.46
773.699	69.47
774.093	69.4
774.487	69.4
774.881	69.41
775.275	69.43
775.669	69.43
776.063	69.42
776.457	69.37
776.851	69.35
777.245	69.36
777.638	69.37
778.032	69.36
778.425	69.39
778.819	69.42
779.212	69.4
779.606	69.36
779.999	69.34
780.392	69.35
780.786	69.37
781.179	69.4
781.572	69.37
781.965	69.38
782.358	69.34
782.751	69.31
783.143	69.32
783.536	69.38
783.929	69.41
784.322	69.44
784.714	69.48
785.107	69.49
785.499	69.46
785.891	69.5
786.284	69.45
786.676	69.51
787.068	69.54
787.46	69.51
787.852	69.47
788.245	69.49
788.636	69.48
789.028	69.45
789.42	69.44
789.812	69.48
790.204	69.44
790.595	69.45
790.987	69.44
791.378	69.44
791.77	69.47
792.161	69.52
792.553	69.52
792.944	69.54
793.335	69.57
793.726	69.53
794.117	69.49
794.508	69.53
794.899	69.55
795.29	69.52
795.681	69.55
796.072	69.55
796.463	69.52
796.853	69.48
797.244	69.49
797.634	69.48
798.025	69.54
798.415	69.57
798.806	69.57
799.196	69.59
799.586	69.62
799.976	69.6
800.366	69.58
800.756	69.61
801.146	69.65
801.536	69.65
801.926	69.67
802.316	69.67
802.706	69.7
803.095	69.72
803.485	69.76
803.874	69.77
804.264	69.8
804.653	69.79
805.043	69.8
805.432	69.78
805.821	69.79
806.21	69.84
806.599	69.9
806.988	69.88
807.377	69.9
807.766	69.9
808.155	69.94
808.544	69.93
808.933	69.99
809.321	69.99
809.71	70.02
810.098	70.03
810.487	70.03
810.875	70
811.264	70.04
811.652	70.02
812.04	69.99
812.428	70.02
812.816	70.1
813.204	70.04
813.592	70.07
813.98	70.06
814.368	70.06
814.756	70.07
815.144	70.1
815.531	70.08
815.919	70.12
816.306	70.14
816.694	70.13
817.081	70.08
817.469	70.13
817.856	70.16
818.243	70.21
818.63	70.3
819.017	70.32
819.404	70.29
819.791	70.31
820.178	70.31
820.565	70.33
820.952	70.32
821.339	70.36
821.725	70.38
822.112	70.36
822.498	70.36
822.885	70.33
823.271	70.34
823.657	70.35
824.044	70.35
824.43	70.39
824.816	70.39
825.202	70.41
825.588	70.43
825.974	70.43
826.36	70.4
826.746	70.4
827.132	70.35
827.517	70.35
827.903	70.34
828.289	70.34
828.674	70.3
829.06	70.33
829.445	70.33
829.83	70.3
830.216	70.29
830.601	70.33
830.986	70.32
831.371	70.34
831.756	70.31
832.141	70.33
832.526	70.31
832.911	70.33
833.295	70.26
833.68	70.25
834.065	70.21
834.449	70.17
834.834	70.12
835.218	70.09
835.603	70.11
835.987	70.09
836.371	70.09
836.755	70.08
837.139	70.04
837.524	70.05
837.908	69.98
838.291	69.96
838.675	69.98
839.059	69.98
839.443	69.95
839.827	69.89
840.21	69.9
840.594	69.86
840.977	69.83
841.361	69.84
841.744	69.85
842.127	69.85
842.511	69.84
842.894	69.79
843.277	69.82
843.66	69.86
844.043	69.85
844.426	69.8
844.809	69.78
845.191	69.76
845.574	69.73
845.957	69.7
846.339	69.68
846.722	69.72
847.104	69.75
847.487	69.73
847.869	69.69
848.252	69.67
848.634	69.7
849.016	69.7
849.398	69.71
849.78	69.69
850.162	69.69
850.544	69.71
850.926	69.65
851.307	69.64
851.689	69.61
852.071	69.61
852.452	69.62
852.834	69.61
853.215	69.62
853.597	69.64
853.978	69.64
854.359	69.64
854.741	69.63
855.122	69.68
855.503	69.69
855.884	69.67
856.265	69.66
856.646	69.64
857.026	69.64
857.407	69.58
857.788	69.57
858.169	69.56
858.549	69.58
858.93	69.58
859.31	69.55
859.69	69.53
860.071	69.56
860.451	69.6
860.831	69.6
861.211	69.58
861.591	69.64
861.971	69.61
862.351	69.62
862.731	69.6
863.111	69.58
863.491	69.58
863.87	69.6
864.25	69.59
864.629	69.56
865.009	69.54
865.388	69.54
865.768	69.52
866.147	69.57
866.526	69.56
866.905	69.56
867.284	69.55
867.663	69.57
868.042	69.55
868.421	69.53
868.8	69.52
869.179	69.53
869.558	69.53
869.936	69.53
870.315	69.5
870.693	69.52
871.072	69.47
871.45	69.46
871.828	69.46
872.207	69.48
872.585	69.48
872.963	69.47
873.341	69.47
873.719	69.45
874.097	69.45
874.475	69.44
874.853	69.4
875.23	69.43
875.608	69.48
875.986	69.43
876.363	69.42
876.741	69.39
877.118	69.36
877.495	69.37
877.873	69.38
878.25	69.35
878.627	69.38
879.004	69.41
879.381	69.41
879.758	69.37
880.135	69.38
880.512	69.36
880.889	69.4
881.265	69.44
881.642	69.4
882.019	69.4
882.395	69.42
882.772	69.39
883.148	69.37
883.524	69.39
883.901	69.37
884.277	69.38
884.653	69.41
885.029	69.39
885.405	69.36
885.781	69.35
886.157	69.36
886.532	69.35
886.908	69.35
887.284	69.38
887.659	69.35
888.035	69.35
888.411	69.31
888.786	69.27
889.161	69.26
889.537	69.26
889.912	69.25
890.287	69.23
890.662	69.22
891.037	69.18
891.412	69.12
891.787	69.07
892.162	69.02
892.536	69.03
892.911	69.02
893.286	68.95
893.66	68.92
894.035	68.9
894.409	68.86
894.784	68.82
895.158	68.79
895.532	68.78
895.906	68.76
896.281	68.76
896.655	68.7
897.029	68.67
897.402	68.7
897.776	68.67
898.15	68.66
898.524	68.63
898.898	68.62
899.271	68.63
899.645	68.61
900.018	68.58
900.392	68.57
900.765	68.57
901.138	68.59
901.511	68.55
901.884	68.54
902.258	68.53
902.631	68.57
903.003	68.54
903.376	68.54
903.749	68.55
904.122	68.59
904.495	68.61
904.867	68.6
905.24	68.55
905.612	68.56
905.985	68.59
906.357	68.58
906.729	68.53
907.102	68.53
907.474	68.53
907.846	68.49
908.218	68.48
908.59	68.46
908.962	68.47
909.334	68.49
909.705	68.49
910.077	68.43
910.449	68.44
910.82	68.43
911.192	68.43
911.563	68.4
911.935	68.42
912.306	68.4
912.677	68.38
913.048	68.39
913.419	68.36
913.79	68.31
914.161	68.32
914.532	68.29
914.903	68.29
915.274	68.26
915.645	68.3
916.015	68.29
916.386	68.24
916.756	68.22
917.127	68.22
917.497	68.22
917.868	68.21
918.238	68.18
918.608	68.2
918.978	68.16
919.348	68.13
919.718	68.07
920.088	68.07
920.458	68.13
920.828	68.14
921.198	68.13
921.567	68.1
921.937	68.13
922.306	68.15
922.676	68.17
923.045	68.16
923.415	68.16
923.784	68.21
924.153	68.2
924.522	68.16
924.891	68.15
925.26	68.07
925.629	68.07
925.998	68.08
926.367	68.03
926.736	67.96
927.104	67.98
927.473	67.98
927.842	67.89
928.21	67.89
928.578	67.89
928.947	67.83
929.315	67.84
929.683	67.84
930.051	67.76
930.42	67.75
930.788	67.74
931.156	67.65
931.523	67.6
931.891	67.51
932.259	67.42
932.627	67.31
932.994	67.3
933.362	67.23
933.729	67.14
934.097	67.09
934.464	67.02
934.831	66.89
935.199	66.85
935.566	66.76
935.933	66.89
936.3	66.75
936.667	66.65
937.034	66.52
937.401	66.45
937.767	66.4
938.134	66.34
938.501	66.25
938.867	66.25
939.234	66.3
939.6	66.32
939.967	66.13
940.333	66.27
940.699	66.39
941.065	66.48
941.431	66.57
941.798	66.61
942.163	66.7
942.529	66.77
942.895	66.85
943.261	66.87
943.627	66.92
943.992	66.98
944.358	67.03
944.723	66.98
945.089	67.04
945.454	67.06
945.82	67.08
946.185	67.1
946.55	67.2
946.915	67.27
947.28	67.32
947.645	67.37
948.01	67.36
948.375	67.37
948.74	67.29
949.104	67.35
949.469	67.2
949.834	67.16
950.198	67.04
950.562	66.95
950.927	66.8
951.291	66.76
951.655	66.67
952.02	66.72
952.384	66.71
952.748	66.74
953.112	66.62
953.476	66.67
953.839	66.63
954.203	66.65
954.567	66.56
954.931	66.6
955.294	66.54
955.658	66.5
956.021	66.41
956.385	66.39
956.748	66.39
957.111	66.34
957.474	66.34
957.837	66.36
958.2	66.31
958.563	66.36
958.926	66.29
959.289	66.27
959.652	66.33
960.015	66.26
960.377	66.17
960.74	66.08
961.102	66.1
961.465	66.09
961.827	65.92
962.189	65.92
962.552	65.83
962.914	65.82
963.276	65.82
963.638	65.72
964	65.75
964.362	65.8
964.724	65.86
965.085	65.78
965.447	65.72
965.809	65.81
966.17	65.79
966.532	65.83
966.893	65.92
967.255	65.87
967.616	65.89
967.977	65.81
968.338	65.73
968.699	65.65
969.061	65.62
969.421	65.6
969.782	65.61
970.143	65.63
970.504	65.64
970.865	65.45
971.225	65.42
971.586	65.48
971.946	65.52
972.307	65.46
972.667	65.5
973.027	65.6
973.388	65.6
973.748	65.62
974.108	65.53
974.468	65.54
974.828	65.63
975.188	65.67
975.548	65.56
975.907	65.5
976.267	65.52
976.627	65.45
976.986	65.36
977.346	65.34
977.705	65.29
978.064	65.32
978.424	65.25
978.783	65.21
979.142	65.18
979.501	65.07
979.86	65.13
980.219	65.03
980.578	64.97
980.937	65.05
981.296	65.06
981.654	65.09
982.013	65.1
982.371	65.08
982.73	65.02
983.088	64.98
983.447	65.04
983.805	64.99
984.163	65.15
984.521	65.11
984.879	65.09
985.237	65.06
985.595	65.01
985.953	65.01
986.311	65.04
986.669	65.13
987.026	65.11
987.384	65.08
987.741	65.09
988.099	65.08
988.456	65.19
988.814	65.1
989.171	65.1
989.528	65.03
989.885	64.96
990.242	65.01
990.599	65
990.956	64.9
991.313	64.99
991.67	65
992.027	64.88
992.383	64.89
992.74	64.93
993.096	64.94
993.453	64.96
993.809	65.05
994.165	64.94
994.522	64.92
994.878	64.91
995.234	64.9
995.59	64.78
995.946	64.79
996.302	64.56
996.658	64.53
997.013	64.49
997.369	64.54
997.725	64.51
998.08	64.61
998.436	64.59
998.791	64.66
999.147	64.55
999.502	64.59
999.857	64.64
1000.212	64.84
1000.567	64.86
1000.922	64.9
1001.277	64.78
1001.632	64.74
1001.987	64.52
1002.342	64.52
1002.696	64.51
1003.051	64.34
1003.406	64.33
1003.76	64.2
1004.114	64.17
1004.469	64
1004.823	64.03
1005.177	64.25
1005.531	64.19
1005.885	64.32
1006.239	64.22
1006.593	64.18
1006.947	64.28
1007.301	64.2
1007.655	64.29
1008.008	64.22
1008.362	64.28
1008.715	64.06
1009.069	63.68
1009.422	63.52
1009.776	63.43
1010.129	63.32
1010.482	63.36
1010.835	63.62
1011.188	63.49
1011.541	63.22
1011.894	62.96
1012.247	62.9
1012.6	62.9
1012.952	62.98
1013.305	62.99
1013.657	63.02
1014.01	63.2
1014.362	63.25
1014.715	62.82
1015.067	62.9
1015.419	63.07
1015.771	63.42
1016.123	63.21
1016.475	63.3
1016.827	63.46
1017.179	63.37
1017.531	63.21
1017.883	63.33
1018.234	63.18
1018.586	63.09
1018.938	62.9
1019.289	62.55
1019.64	62.66
1019.992	62.94
1020.343	62.59
1020.694	62.21
1021.045	62.07
1021.396	61.99
1021.747	61.54
1022.098	61.6
1022.449	61.55
1022.8	61.71
1023.151	61.84
1023.501	61.45
1023.852	61.22
1024.202	61.42
1024.553	61.59
1024.903	61.67
1025.253	61.55
1025.604	61.91
1025.954	61.72
1026.304	62.39
1026.654	62.18
1027.004	62.47
1027.354	62.27
1027.703	62.08
1028.053	62.02
1028.403	61.81
1028.753	61.91
1029.102	61.62
1029.452	60.9
1029.801	60.43
1030.15	59.79
1030.499	59.74
897.758	581.5
901.051	593.54
904.343	597.78
907.636	589.77
910.928	577.59
914.22	588.25
917.511	579.01
920.803	556.42
924.094	534.11
927.384	538.1
930.675	523.33
933.965	516.81
937.255	514.15
940.544	493.16
943.834	472.01
947.123	467.18
950.411	441.58
953.7	432.71
956.988	418.52
960.276	402.7
963.563	396.62
966.851	375.77
970.138	369.4
973.424	347.02
976.711	343.85
979.997	330.78
983.283	322.84
986.568	313.47
989.853	305.27
993.138	294.7
996.423	288.92
999.708	281.68
1002.992	283.48
1006.275	273.94
1009.559	271.57
1012.842	261.35
1016.125	254.32
1019.408	250.42
1022.69	250.28
1025.972	247.14
1029.254	243.01
1032.536	238.98
1035.817	230.88
1039.098	227.48
1042.379	223.72
1045.659	220.74
1048.939	220.31
1052.219	217.22
1055.498	213.44
1058.778	208.42
1062.057	206.55
1065.335	204.34
1068.614	201.14
1071.892	199.39
1075.17	196
1078.447	193.34
1081.724	191.49
1085.001	187.1
1088.278	187.73
1091.554	186.19
1094.83	185.45
1098.106	181.43
1101.382	181.25
1104.657	181.2
1107.932	180.5
1111.206	178.57
1114.481	177.07
1117.755	176.68
1121.029	176.6
1124.302	173.54
1127.575	170.19
1130.848	169.33
1134.121	168.36
1137.393	167.38
1140.665	166.78
1143.937	164.94
1147.208	162.98
1150.48	162.28
1153.75	160.63
1157.021	159.13
1160.291	158.52
1163.561	158.75
1166.831	157.67
1170.101	156.82
1173.37	155.69
1176.639	153.69
1179.907	153.74
1183.176	153.5
1186.444	153.81
1189.711	152.35
1192.979	154.22
1196.246	153.67
1199.513	153.84
1202.78	153.74
1206.046	153.59
1209.312	154.9
1212.578	155.3
1215.843	157.27
1219.108	158.26
1222.373	160.35
1225.638	163.54
1228.902	165.92
1232.166	171.24
1235.43	172.87
1238.693	177.06
1241.956	181.27
1245.219	185.17
1248.482	186.46
1251.744	185.73
1255.006	187.32
1258.268	182.86
1261.529	180.79
1264.79	175.94
1268.051	173.46
1271.312	172.46
1274.572	169.84
1277.832	165.91
1281.092	162.62
1284.351	159.94
1287.61	160.06
1290.869	159.21
1294.128	158.45
1297.386	157.79
1300.644	157.13
1303.902	155.44
1307.159	154.78
1310.416	155.18
1313.673	156.48
1316.93	158.67
1320.186	161.1
1323.442	162.58
1326.697	164.13
1329.953	166.13
1333.208	171.23
1336.463	178.24
1339.717	181.55
1342.972	189.86
1346.226	194.47
1349.479	196.35
1352.733	204.07
1355.986	208.1
1359.238	212.37
1362.491	214.02
1365.743	220.05
1368.995	222.78
1372.247	220.26
1375.498	220.14
1378.749	225.86
1382	224.53
1385.251	224.46
1388.501	222.46
1391.751	223.83
1395	222.13
1398.25	224.04
1401.499	222.5
1404.748	220.08
1407.996	217.31
1411.244	216.28
1414.492	212.31
1417.74	206.52
1420.987	200.48
1424.234	198.09
1427.481	189.97
1430.728	184.81
1433.974	179.13
1437.22	173.66
1440.465	166.4
1443.711	161.23
1446.956	156.47
1450.201	149.76
1453.445	143.67
1456.689	139.41
1459.933	135.06
1463.177	129.2
1466.42	127.01
1469.663	122.82
1472.906	119.08
1476.148	117.08
1479.391	113.98
1482.633	111.8
1485.874	110.6
1489.115	109.45
1492.356	107.76
1495.597	105.76
1498.838	106.23
1502.078	104.98
1505.318	104.7
1508.557	104.56
1511.797	103.38
1515.036	102.82
1518.274	103.14
1521.513	101.16
1524.751	100.74
1527.989	102.36
1531.227	101.8
1534.464	101.5
1537.701	100.99
1540.938	100.72
1544.174	100.72
1547.41	100.54
1550.646	101.45
1553.882	101.09
1557.117	101.55
1560.352	101.19
1563.587	100.37
1566.821	100.53
1570.055	99.75
1573.289	99.56
1576.523	99.64
1579.756	99.14
1582.989	99.56
1586.222	98.96
1589.454	98.98
1592.686	98.98
1595.918	99.22
1599.15	98.87
1602.381	98.92
1605.612	99.5
1608.843	99.94
1612.073	100.46
1615.303	100.26
1618.533	100.42
1621.762	100.26
1624.992	100.1
1628.221	100.3
1631.449	100.89
1634.678	100.89
1637.906	101.23
1641.134	101.27
1644.361	100.98
1647.588	101.44
1650.815	102.19
1654.042	101.73
1657.269	101.96
1660.495	102.81
1663.72	103.04
1666.946	102.58
1670.171	103.16
1673.396	103.3
1676.621	103.7
1679.845	103.5
1683.069	102.77
1686.293	102.5
1689.517	103.19
1692.74	103.62
1695.963	103.49
1699.185	103.87
1702.408	103.53
1705.63	103.85
1708.852	104.77
1712.073	103.78
1715.294	104.57
1718.515	105.1
1721.736	105.44
1724.956	105.44
1728.176	105.05
1731.396	104.96
1734.616	105.08
1737.835	105.72
1741.054	104.86
1744.272	104.52
1747.491	104.59
1750.709	105
1753.927	104.74
1757.144	104.99
1760.361	104.65
1763.578	105.61
1766.795	106.37
1770.011	105.74
1773.227	106.32
1776.443	107.59
1779.658	107.18
1782.874	108.05
1786.089	107.43
1789.303	107.46
1792.518	108.57
1795.732	109.04
1798.945	109.85
1802.159	109.81
1805.372	111.38
1808.585	112.15
1811.797	112.81
1815.01	113.8
1818.222	114.94
1821.434	116.12
1824.645	116.68
1827.856	117.97
1831.067	118.79
1834.278	120.01
1837.488	120.59
1840.698	121.41
1843.908	121.11
1847.117	122.1
1850.326	122.81
1853.535	123.68
1856.744	124.42
1859.952	126.23
1863.16	126.18
1866.368	125.08
1869.575	124.58
1872.782	124.47
1875.989	122.72
1879.196	122.68
1882.402	121.29
1885.608	121.65
1888.814	120.7
1892.019	121.99
1895.224	119.98
1898.429	119.42
1901.634	120.52
1904.838	121.56
1908.042	122.16
1911.246	122.23
1914.449	122.72
1917.652	121.66
1920.855	122.38
1924.058	121.29
1927.26	120.08
1930.462	120.6
1933.664	121.8
1936.865	121.91
1940.066	119.78
1943.267	118.71
1946.467	121.11
1949.668	120.89
1952.868	121.7
1956.067	121.34
1959.267	121.7
1962.466	122.29
1965.665	124.35
1968.863	123.8
1972.061	125.62
1975.259	127.48
1978.457	128.95
1981.654	129.65
1984.852	131.1
1988.048	132.76
1991.245	134.68
1994.441	138.9
1997.637	140.64
2000.833	142.57
2004.028	144.01
2007.223	146.63
2010.418	150.65
2013.613	157.25
2016.807	160.3
2020.001	162.72
2023.194	167.73
2026.388	172.98
2029.581	182.05
2032.774	188.76
2035.966	193.83
2039.158	200
2042.35	201.64
2045.542	206.58
2048.733	215.62
2051.924	216.55
2055.115	222.98
2058.306	224.82
2061.496	227.45
2064.686	227.55
2067.875	226.76
2071.065	229.5
2074.254	228.77
2077.442	236.87
2080.631	237.53
2083.819	236.89
2087.007	242.8
2090.195	244.84
2093.382	244.74
2096.569	246.62
2099.756	249.8
2102.942	254.8
2106.128	260.5
2109.314	264.03
2112.5	264.77
2115.685	260.38
2118.87	261.21
2122.055	264.95
2125.239	270.07
2128.424	276.28
2131.608	276.05
2134.791	274.22
2137.974	273.88
2141.157	275.96
2144.34	278.32
2147.523	284.01
2150.705	293.44
2153.887	291.1
2157.068	290.82
2160.25	292.62
2163.431	294.37
2166.611	297.04
2169.792	303.5
2172.972	307.62
2176.152	307.31
2179.331	313.94
2182.511	313.82
2185.69	318.09
2188.868	330.45
2192.047	337.09
2195.225	344.13
2198.403	348.03
2201.58	343.63
2204.758	356.3
2207.935	360.52
2211.111	369.26
2214.288	370.8
2217.464	374.68
2220.64	375.34
2223.815	374.98
2226.991	372.69
2230.166	373.37
2233.34	383.43
2236.515	397.67
2239.689	387.64
2242.863	396.23
2246.036	391.66
2249.209	400.54
2252.382	397.86
2255.555	416.37
2258.727	419.25
2261.9	432.93
2265.071	439.1
2268.243	437.13
2271.414	447.14
2274.585	460.53
2277.756	459.76
2280.926	475.31
2284.096	477.34
2287.266	481.74
2290.436	471.17
2293.605	481.77
2296.774	497.15
2299.942	497.25
2303.111	510.5
2306.279	522.47
2309.447	523.4
2312.614	523.93
2315.781	537.06
2318.948	544.9
2322.115	557.51
2325.281	585.89
2328.447	581.99
2331.613	585.29
2334.779	592.25
2337.944	602.45
2341.109	610.71
2344.274	617.23
2347.438	631.76
2350.602	643.59
2353.766	677.86
2356.929	679.43
2360.092	691.43
2363.255	693.77
2366.418	702.83
2369.58	721.55
2372.742	719.27
2375.904	719.59
2379.066	740.95
2382.227	786.13
2385.388	776.62
2388.548	741.77
2391.709	737.01
2394.869	753.87
2398.029	759.58
2401.188	756.46
2404.347	777.82
2407.506	805.69
2410.665	777.52
2413.823	780.8
2416.981	778.31
2420.139	744.7
2423.296	804.4
2426.453	855.97
2429.61	808.15
2432.767	860.02
2435.923	889.84
2439.079	862.75
2442.235	883.16
2445.391	898.66
2448.546	885.93
2451.701	940.13
2454.855	1004.01
2458.009	887.45
2461.163	895.51
2464.317	921.21
2467.471	897.67
2470.624	930.36
2473.777	913.58
2476.929	881.78
2480.082	941.19
2483.234	993.81
2486.385	1012.13
2489.537	1035.9
2492.688	1140.48
2495.839	1132.07
2498.989	1160.04
2502.14	1165.93
2505.29	1115.68
2508.439	1226.32
2511.589	1259.76
2514.738	1227.47
2517.887	1207.78
2521.035	1121.92
2524.183	1108.97
2527.331	1098.29
2530.479	1064.91
2533.627	1086.34
