Data from N_3_dec_va_2n_Splice17_06.txt Node
Date: Sat Feb 29 15:02:51 EST 2020
User: sa697716
Spectrometer: FLMS03696
Trigger mode: 0
Integration Time (sec): 3.180400E-1
Scans to average: 20
Electric dark correction enabled: true
Nonlinearity correction enabled: true
Boxcar width: 5
XAxis mode: Wavelengths
Number of Pixels in Spectrum: 2048
>>>>>Begin Spectral Data<<<<<
187.83	82.14
188.298	80.76
188.766	76.34
189.233	73.39
189.701	75.49
190.169	72.81
190.636	72.99
191.104	53.32
191.571	83.17
192.039	349.7
192.506	-594.31
192.974	1637.71
193.441	-115.4
193.908	86.88
194.375	124.48
194.842	186.87
195.31	115.42
195.777	138.25
196.244	86.28
196.711	80.35
197.177	82.7
197.644	83.03
198.111	81.88
198.578	82.65
199.045	82.79
199.511	83.19
199.978	83.39
200.445	82.81
200.911	83.16
201.378	83.24
201.844	84.38
202.31	84.83
202.777	84.83
203.243	85.54
203.709	84.93
204.176	84.51
204.642	84.03
205.108	83.48
205.574	84.31
206.04	83.78
206.506	83.49
206.972	82.82
207.438	82.11
207.903	81.22
208.369	79.55
208.835	79.02
209.301	78.13
209.766	76.85
210.232	75.32
210.697	73.39
211.163	71.78
211.628	70.19
212.094	68.79
212.559	67.25
213.024	66.11
213.49	64.73
213.955	63.05
214.42	61.26
214.885	59.1
215.35	56.9
215.815	53.92
216.28	50.45
216.745	46.8
217.21	42.86
217.675	39.21
218.14	35.68
218.604	32.69
219.069	30.26
219.534	28.03
219.998	26.26
220.463	24.73
220.927	23.45
221.392	22.4
221.856	21.41
222.32	20.55
222.785	19.8
223.249	19.22
223.713	18.67
224.177	18.13
224.642	17.71
225.106	17.26
225.57	16.82
226.034	16.4
226.497	15.99
226.961	15.65
227.425	15.32
227.889	15.02
228.353	14.68
228.816	14.4
229.28	14.08
229.744	13.81
230.207	13.54
230.671	13.29
231.134	13.05
231.597	12.83
232.061	12.63
232.524	12.42
232.987	12.21
233.45	12.02
233.914	11.83
234.377	11.67
234.84	11.49
235.303	11.33
235.766	11.18
236.229	11.04
236.691	10.92
237.154	10.78
237.617	10.65
238.08	10.52
238.542	10.4
239.005	10.28
239.468	10.15
239.93	10.05
240.393	9.96
240.855	9.84
241.317	9.74
241.78	9.62
242.242	9.5
242.704	9.41
243.166	9.3
243.629	9.2
244.091	9.08
244.553	9
245.015	8.9
245.477	8.81
245.939	8.72
246.4	8.63
246.862	8.53
247.324	8.47
247.786	8.38
248.247	8.3
248.709	8.22
249.17	8.15
249.632	8.07
250.093	7.96
250.555	7.87
251.016	7.81
251.477	7.73
251.939	7.66
252.4	7.58
252.861	7.52
253.322	7.45
253.783	7.4
254.244	7.34
254.705	7.3
255.166	7.25
255.627	7.2
256.088	7.13
256.549	7.09
257.009	7.04
257.47	6.99
257.931	6.93
258.391	6.87
258.852	6.8
259.312	6.74
259.773	6.67
260.233	6.61
260.694	6.55
261.154	6.49
261.614	6.43
262.074	6.38
262.534	6.31
262.994	6.26
263.455	6.22
263.915	6.17
264.374	6.12
264.834	6.07
265.294	6.02
265.754	5.98
266.214	5.93
266.673	5.89
267.133	5.85
267.593	5.82
268.052	5.78
268.512	5.75
268.971	5.72
269.431	5.69
269.89	5.66
270.349	5.64
270.809	5.62
271.268	5.6
271.727	5.58
272.186	5.55
272.645	5.52
273.104	5.5
273.563	5.47
274.022	5.45
274.481	5.43
274.94	5.41
275.399	5.38
275.857	5.36
276.316	5.33
276.775	5.3
277.233	5.29
277.692	5.28
278.15	5.26
278.609	5.23
279.067	5.21
279.525	5.19
279.984	5.18
280.442	5.17
280.9	5.16
281.358	5.15
281.816	5.15
282.274	5.13
282.732	5.13
283.19	5.12
283.648	5.12
284.106	5.11
284.564	5.11
285.021	5.1
285.479	5.1
285.937	5.09
286.394	5.07
286.852	5.07
287.309	5.05
287.767	5.04
288.224	5.02
288.682	5
289.139	4.98
289.596	4.95
290.053	4.91
290.511	4.87
290.968	4.84
291.425	4.82
291.882	4.78
292.339	4.75
292.796	4.71
293.252	4.68
293.709	4.66
294.166	4.64
294.623	4.62
295.079	4.6
295.536	4.58
295.992	4.56
296.449	4.54
296.905	4.51
297.362	4.49
297.818	4.47
298.274	4.46
298.731	4.45
299.187	4.44
299.643	4.42
300.099	4.41
300.555	4.4
301.011	4.39
301.467	4.37
301.923	4.38
302.379	4.37
302.835	4.37
303.291	4.35
303.746	4.33
304.202	4.32
304.658	4.31
305.113	4.3
305.569	4.3
306.024	4.28
306.479	4.28
306.935	4.27
307.39	4.27
307.845	4.27
308.301	4.28
308.756	4.29
309.211	4.28
309.666	4.29
310.121	4.29
310.576	4.29
311.031	4.29
311.486	4.29
311.94	4.29
312.395	4.29
312.85	4.29
313.305	4.29
313.759	4.29
314.214	4.29
314.668	4.28
315.123	4.27
315.577	4.28
316.032	4.27
316.486	4.26
316.94	4.25
317.394	4.23
317.849	4.21
318.303	4.2
318.757	4.17
319.211	4.15
319.665	4.13
320.119	4.12
320.572	4.11
321.026	4.1
321.48	4.09
321.934	4.08
322.387	4.07
322.841	4.06
323.295	4.04
323.748	4.04
324.202	4.04
324.655	4.04
325.108	4.03
325.562	4.01
326.015	3.99
326.468	3.98
326.921	3.97
327.374	3.97
327.827	3.97
328.28	3.97
328.733	3.96
329.186	3.96
329.639	3.94
330.092	3.94
330.545	3.94
330.997	3.94
331.45	3.94
331.903	3.94
332.355	3.94
332.808	3.94
333.26	3.94
333.713	3.95
334.165	3.96
334.617	3.98
335.069	3.98
335.522	3.99
335.974	4.01
336.426	4.01
336.878	4.02
337.33	4.03
337.782	4.04
338.234	4.04
338.686	4.03
339.137	4.03
339.589	4.02
340.041	4.02
340.493	4
340.944	3.99
341.396	3.98
341.847	3.96
342.299	3.93
342.75	3.91
343.201	3.89
343.653	3.87
344.104	3.86
344.555	3.84
345.006	3.83
345.457	3.81
345.908	3.8
346.359	3.79
346.81	3.79
347.261	3.77
347.712	3.77
348.163	3.75
348.613	3.75
349.064	3.73
349.515	3.72
349.965	3.71
350.416	3.71
350.866	3.71
351.317	3.69
351.767	3.68
352.217	3.68
352.668	3.68
353.118	3.68
353.568	3.69
354.018	3.71
354.468	3.7
354.918	3.71
355.368	3.71
355.818	3.72
356.268	3.73
356.718	3.73
357.168	3.73
357.617	3.74
358.067	3.74
358.517	3.73
358.966	3.72
359.416	3.74
359.865	3.73
360.315	3.74
360.764	3.73
361.213	3.72
361.663	3.72
362.112	3.72
362.561	3.71
363.01	3.72
363.459	3.72
363.908	3.71
364.357	3.71
364.806	3.7
365.255	3.7
365.703	3.69
366.152	3.69
366.601	3.7
367.05	3.71
367.498	3.71
367.947	3.7
368.395	3.71
368.844	3.71
369.292	3.7
369.74	3.7
370.189	3.7
370.637	3.7
371.085	3.7
371.533	3.69
371.981	3.68
372.429	3.66
372.877	3.67
373.325	3.66
373.773	3.65
374.221	3.64
374.669	3.64
375.116	3.63
375.564	3.62
376.012	3.61
376.459	3.61
376.907	3.61
377.354	3.61
377.801	3.6
378.249	3.61
378.696	3.61
379.143	3.61
379.591	3.61
380.038	3.6
380.485	3.61
380.932	3.61
381.379	3.59
381.826	3.59
382.273	3.58
382.72	3.58
383.166	3.57
383.613	3.56
384.06	3.57
384.506	3.56
384.953	3.56
385.4	3.57
385.846	3.56
386.292	3.57
386.739	3.56
387.185	3.58
387.631	3.57
388.078	3.59
388.524	3.57
388.97	3.56
389.416	3.57
389.862	3.56
390.308	3.56
390.754	3.57
391.2	3.58
391.645	3.59
392.091	3.59
392.537	3.59
392.983	3.59
393.428	3.62
393.874	3.64
394.319	3.64
394.765	3.64
395.21	3.64
395.655	3.66
396.101	3.67
396.546	3.67
396.991	3.68
397.436	3.69
397.881	3.72
398.326	3.74
398.771	3.75
399.216	3.78
399.661	3.81
400.106	3.84
400.551	3.84
400.995	3.85
401.44	3.85
401.885	3.86
402.329	3.88
402.774	3.87
403.218	3.88
403.663	3.88
404.107	3.9
404.551	3.91
404.995	3.92
405.44	3.93
405.884	3.95
406.328	3.96
406.772	3.98
407.216	4
407.66	4.02
408.104	4.03
408.547	4.05
408.991	4.06
409.435	4.07
409.879	4.08
410.322	4.11
410.766	4.13
411.209	4.17
411.653	4.18
412.096	4.19
412.54	4.21
412.983	4.23
413.426	4.26
413.869	4.28
414.312	4.33
414.756	4.37
415.199	4.4
415.642	4.43
416.085	4.45
416.527	4.49
416.97	4.52
417.413	4.53
417.856	4.53
418.298	4.52
418.741	4.54
419.184	4.54
419.626	4.54
420.069	4.53
420.511	4.54
420.953	4.54
421.396	4.54
421.838	4.57
422.28	4.6
422.722	4.63
423.164	4.65
423.606	4.65
424.048	4.65
424.49	4.66
424.932	4.67
425.374	4.67
425.816	4.66
426.258	4.65
426.699	4.61
427.141	4.58
427.582	4.59
428.024	4.61
428.465	4.62
428.907	4.65
429.348	4.65
429.789	4.65
430.231	4.65
430.672	4.69
431.113	4.72
431.554	4.76
431.995	4.79
432.436	4.8
432.877	4.81
433.318	4.82
433.759	4.8
434.2	4.83
434.64	4.86
435.081	4.88
435.522	4.91
435.962	4.93
436.403	4.97
436.843	4.98
437.284	5.01
437.724	5.05
438.164	5.07
438.604	5.11
439.045	5.11
439.485	5.12
439.925	5.13
440.365	5.12
440.805	5.12
441.245	5.12
441.685	5.15
442.125	5.13
442.564	5.13
443.004	5.14
443.444	5.16
443.883	5.19
444.323	5.21
444.762	5.26
445.202	5.29
445.641	5.31
446.081	5.34
446.52	5.34
446.959	5.37
447.398	5.43
447.837	5.49
448.276	5.49
448.716	5.5
449.154	5.53
449.593	5.54
450.032	5.56
450.471	5.57
450.91	5.57
451.349	5.59
451.787	5.6
452.226	5.57
452.664	5.53
453.103	5.53
453.541	5.53
453.98	5.51
454.418	5.47
454.856	5.44
455.295	5.43
455.733	5.43
456.171	5.41
456.609	5.4
457.047	5.39
457.485	5.38
457.923	5.37
458.361	5.36
458.798	5.35
459.236	5.35
459.674	5.34
460.111	5.33
460.549	5.32
460.987	5.32
461.424	5.3
461.862	5.3
462.299	5.29
462.736	5.29
463.173	5.3
463.611	5.3
464.048	5.32
464.485	5.34
464.922	5.33
465.359	5.34
465.796	5.32
466.233	5.33
466.67	5.33
467.106	5.34
467.543	5.34
467.98	5.35
468.416	5.37
468.853	5.36
469.29	5.37
469.726	5.37
470.162	5.37
470.599	5.37
471.035	5.4
471.471	5.39
471.907	5.38
472.344	5.38
472.78	5.36
473.216	5.35
473.652	5.34
474.088	5.33
474.523	5.33
474.959	5.32
475.395	5.31
475.831	5.29
476.266	5.29
476.702	5.29
477.138	5.28
477.573	5.27
478.008	5.26
478.444	5.24
478.879	5.23
479.314	5.22
479.75	5.21
480.185	5.21
480.62	5.19
481.055	5.18
481.49	5.16
481.925	5.14
482.36	5.12
482.795	5.1
483.229	5.09
483.664	5.08
484.099	5.07
484.534	5.06
484.968	5.04
485.403	5.05
485.837	5.03
486.271	5.03
486.706	5.03
487.14	5.05
487.574	5.06
488.009	5.06
488.443	5.07
488.877	5.09
489.311	5.1
489.745	5.12
490.179	5.14
490.613	5.16
491.046	5.19
491.48	5.23
491.914	5.25
492.348	5.29
492.781	5.34
493.215	5.38
493.648	5.43
494.082	5.49
494.515	5.54
494.948	5.59
495.382	5.65
495.815	5.72
496.248	5.78
496.681	5.85
497.114	5.93
497.547	6
497.98	6.08
498.413	6.16
498.846	6.26
499.279	6.36
499.711	6.46
500.144	6.57
500.577	6.68
501.009	6.79
501.442	6.91
501.874	7.04
502.306	7.18
502.739	7.32
503.171	7.46
503.603	7.6
504.036	7.77
504.468	7.94
504.9	8.11
505.332	8.29
505.764	8.49
506.196	8.7
506.627	8.91
507.059	9.13
507.491	9.35
507.923	9.58
508.354	9.83
508.786	10.07
509.217	10.32
509.649	10.6
510.08	10.88
510.512	11.15
510.943	11.44
511.374	11.73
511.805	12.03
512.237	12.34
512.668	12.66
513.099	12.99
513.53	13.33
513.961	13.67
514.391	13.99
514.822	14.33
515.253	14.68
515.684	15.03
516.114	15.38
516.545	15.74
516.975	16.11
517.406	16.47
517.836	16.81
518.267	17.16
518.697	17.52
519.127	17.89
519.558	18.26
519.988	18.61
520.418	18.94
520.848	19.28
521.278	19.62
521.708	19.96
522.138	20.28
522.567	20.62
522.997	20.93
523.427	21.25
523.857	21.54
524.286	21.82
524.716	22.1
525.145	22.4
525.575	22.67
526.004	22.93
526.433	23.18
526.863	23.44
527.292	23.69
527.721	23.9
528.15	24.13
528.579	24.34
529.008	24.55
529.437	24.75
529.866	24.9
530.295	25.08
530.724	25.26
531.152	25.42
531.581	25.56
532.01	25.69
532.438	25.83
532.867	25.95
533.295	26.08
533.723	26.2
534.152	26.31
534.58	26.43
535.008	26.49
535.436	26.58
535.865	26.65
536.293	26.72
536.721	26.78
537.149	26.83
537.576	26.89
538.004	26.93
538.432	26.96
538.86	27
539.287	27.04
539.715	27.09
540.143	27.09
540.57	27.12
540.998	27.18
541.425	27.21
541.852	27.24
542.28	27.26
542.707	27.3
543.134	27.31
543.561	27.33
543.988	27.36
544.415	27.4
544.842	27.46
545.269	27.51
545.696	27.53
546.123	27.56
546.549	27.61
546.976	27.66
547.403	27.7
547.829	27.76
548.256	27.79
548.682	27.81
549.108	27.84
549.535	27.85
549.961	27.87
550.387	27.88
550.813	27.87
551.24	27.87
551.666	27.86
552.092	27.85
552.518	27.84
552.943	27.85
553.369	27.85
553.795	27.83
554.221	27.8
554.646	27.77
555.072	27.74
555.498	27.72
555.923	27.69
556.349	27.63
556.774	27.57
557.199	27.49
557.625	27.39
558.05	27.3
558.475	27.2
558.9	27.1
559.325	26.99
559.75	26.85
560.175	26.72
560.6	26.56
561.025	26.44
561.449	26.28
561.874	26.13
562.299	25.97
562.723	25.84
563.148	25.67
563.572	25.52
563.997	25.33
564.421	25.16
564.846	24.99
565.27	24.81
565.694	24.59
566.118	24.39
566.542	24.2
566.966	24
567.39	23.78
567.814	23.57
568.238	23.34
568.662	23.14
569.086	22.92
569.509	22.72
569.933	22.52
570.357	22.31
570.78	22.13
571.204	21.9
571.627	21.72
572.05	21.52
572.474	21.34
572.897	21.17
573.32	20.99
573.743	20.81
574.166	20.64
574.589	20.46
575.012	20.32
575.435	20.17
575.858	20.05
576.281	19.9
576.704	19.78
577.126	19.64
577.549	19.52
577.972	19.4
578.394	19.28
578.817	19.17
579.239	19.07
579.661	18.95
580.084	18.84
580.506	18.74
580.928	18.63
581.35	18.53
581.772	18.44
582.194	18.36
582.616	18.28
583.038	18.21
583.46	18.13
583.882	18.05
584.303	17.97
584.725	17.89
585.147	17.78
585.568	17.71
585.99	17.63
586.411	17.56
586.833	17.47
587.254	17.39
587.675	17.3
588.096	17.23
588.518	17.17
588.939	17.09
589.36	17.02
589.781	16.98
590.202	16.93
590.623	16.86
591.043	16.79
591.464	16.73
591.885	16.7
592.305	16.65
592.726	16.6
593.147	16.55
593.567	16.53
593.987	16.5
594.408	16.46
594.828	16.43
595.248	16.4
595.669	16.37
596.089	16.33
596.509	16.27
596.929	16.22
597.349	16.16
597.769	16.1
598.189	16.05
598.608	15.98
599.028	15.93
599.448	15.88
599.867	15.81
600.287	15.76
600.706	15.69
601.126	15.64
601.545	15.59
601.965	15.53
602.384	15.47
602.803	15.41
603.222	15.35
603.641	15.27
604.061	15.19
604.48	15.12
604.898	15.06
605.317	14.97
605.736	14.89
606.155	14.8
606.574	14.72
606.992	14.63
607.411	14.55
607.829	14.42
608.248	14.33
608.666	14.24
609.085	14.16
609.503	14.05
609.921	13.96
610.339	13.88
610.758	13.79
611.176	13.69
611.594	13.59
612.012	13.49
612.43	13.44
612.847	13.36
613.265	13.26
613.683	13.17
614.101	13.08
614.518	13
614.936	12.92
615.353	12.83
615.771	12.75
616.188	12.7
616.606	12.63
617.023	12.55
617.44	12.48
617.857	12.41
618.274	12.36
618.691	12.32
619.108	12.26
619.525	12.2
619.942	12.16
620.359	12.13
620.776	12.08
621.192	12.04
621.609	11.99
622.026	11.97
622.442	11.95
622.859	11.9
623.275	11.89
623.691	11.87
624.108	11.85
624.524	11.82
624.94	11.8
625.356	11.77
625.772	11.76
626.188	11.76
626.604	11.74
627.02	11.72
627.436	11.71
627.852	11.67
628.268	11.64
628.683	11.62
629.099	11.6
629.514	11.58
629.93	11.56
630.345	11.51
630.761	11.47
631.176	11.43
631.591	11.39
632.007	11.33
632.422	11.29
632.837	11.23
633.252	11.16
633.667	11.08
634.082	11.01
634.497	10.9
634.911	10.82
635.326	10.73
635.741	10.63
636.155	10.52
636.57	10.39
636.984	10.25
637.399	10.13
637.813	10.01
638.228	9.88
638.642	9.75
639.056	9.63
639.47	9.49
639.884	9.35
640.298	9.22
640.712	9.09
641.126	8.97
641.54	8.84
641.954	8.72
642.368	8.6
642.781	8.47
643.195	8.35
643.609	8.24
644.022	8.12
644.436	8.01
644.849	7.92
645.262	7.82
645.676	7.73
646.089	7.65
646.502	7.56
646.915	7.49
647.328	7.43
647.741	7.35
648.154	7.31
648.567	7.26
648.98	7.2
649.393	7.15
649.805	7.1
650.218	7.07
650.631	7.03
651.043	6.99
651.456	6.95
651.868	6.91
652.28	6.88
652.693	6.81
653.105	6.76
653.517	6.71
653.929	6.68
654.341	6.64
654.753	6.58
655.165	6.53
655.577	6.46
655.989	6.4
656.401	6.33
656.813	6.26
657.224	6.21
657.636	6.15
658.047	6.09
658.459	6.01
658.87	5.93
659.282	5.88
659.693	5.82
660.104	5.75
660.515	5.68
660.926	5.62
661.338	5.56
661.749	5.49
662.159	5.41
662.57	5.34
662.981	5.28
663.392	5.22
663.803	5.16
664.213	5.1
664.624	5.06
665.035	5.02
665.445	4.99
665.855	4.95
666.266	4.93
666.676	4.9
667.086	4.88
667.497	4.85
667.907	4.83
668.317	4.82
668.727	4.81
669.137	4.81
669.547	4.81
669.956	4.8
670.366	4.81
670.776	4.81
671.186	4.82
671.595	4.83
672.005	4.84
672.414	4.85
672.824	4.87
673.233	4.89
673.642	4.9
674.052	4.9
674.461	4.91
674.87	4.93
675.279	4.95
675.688	4.97
676.097	5
676.506	5.05
676.915	5.08
677.323	5.11
677.732	5.15
678.141	5.21
678.549	5.26
678.958	5.31
679.366	5.36
679.775	5.43
680.183	5.5
680.592	5.57
681	5.63
681.408	5.73
681.816	5.81
682.224	5.9
682.632	6.01
683.04	6.13
683.448	6.27
683.856	6.43
684.264	6.59
684.671	6.79
685.079	7
685.487	7.27
685.894	7.53
686.302	7.83
686.709	8.14
687.116	8.48
687.524	8.85
687.931	9.25
688.338	9.69
688.745	10.16
689.152	10.66
689.559	11.19
689.966	11.72
690.373	12.31
690.78	12.9
691.187	13.53
691.593	14.18
692	14.84
692.407	15.53
692.813	16.25
693.22	16.95
693.626	17.68
694.032	18.43
694.439	19.17
694.845	19.92
695.251	20.68
695.657	21.43
696.063	22.19
696.469	22.95
696.875	23.68
697.281	24.39
697.687	25.15
698.093	25.87
698.498	26.58
698.904	27.31
699.31	27.99
699.715	28.7
700.12	29.37
700.526	30.06
700.931	30.73
701.337	31.4
701.742	32.04
702.147	32.67
702.552	33.3
702.957	33.92
703.362	34.53
703.767	35.14
704.172	35.72
704.577	36.3
704.981	36.85
705.386	37.41
705.791	37.97
706.195	38.54
706.6	39.07
707.004	39.59
707.408	40.08
707.813	40.56
708.217	41.01
708.621	41.52
709.025	42
709.43	42.46
709.834	42.93
710.237	43.36
710.641	43.81
711.045	44.24
711.449	44.64
711.853	45.1
712.256	45.53
712.66	45.96
713.064	46.35
713.467	46.76
713.87	47.16
714.274	47.57
714.677	47.97
715.08	48.34
715.484	48.75
715.887	49.12
716.29	49.48
716.693	49.81
717.096	50.19
717.499	50.53
717.901	50.83
718.304	51.14
718.707	51.44
719.109	51.76
719.512	52.07
719.915	52.36
720.317	52.69
720.719	52.96
721.122	53.25
721.524	53.56
721.926	53.84
722.328	54.15
722.731	54.44
723.133	54.69
723.535	54.92
723.937	55.16
724.338	55.38
724.74	55.57
725.142	55.72
725.544	55.91
725.945	56.06
726.347	56.24
726.748	56.38
727.15	56.54
727.551	56.71
727.952	56.86
728.354	57.02
728.755	57.17
729.156	57.33
729.557	57.55
729.958	57.71
730.359	57.84
730.76	57.94
731.161	58.06
731.562	58.19
731.962	58.31
732.363	58.45
732.763	58.58
733.164	58.65
733.564	58.74
733.965	58.79
734.365	58.86
734.766	58.96
735.166	59.05
735.566	59.14
735.966	59.21
736.366	59.28
736.766	59.33
737.166	59.37
737.566	59.44
737.966	59.49
738.365	59.56
738.765	59.63
739.165	59.65
739.564	59.75
739.964	59.8
740.363	59.85
740.763	59.86
741.162	59.89
741.561	59.92
741.96	59.99
742.36	60.07
742.759	60.06
743.158	60.06
743.557	60.13
743.955	60.16
744.354	60.26
744.753	60.3
745.152	60.34
745.55	60.39
745.949	60.44
746.348	60.48
746.746	60.5
747.144	60.61
747.543	60.67
747.941	60.73
748.339	60.76
748.737	60.77
749.136	60.79
749.534	60.87
749.932	60.88
750.33	60.9
750.727	60.93
751.125	60.94
751.523	60.9
751.921	60.94
752.318	60.91
752.716	60.87
753.113	60.83
753.511	60.77
753.908	60.72
754.305	60.7
754.703	60.66
755.1	60.6
755.497	60.58
755.894	60.58
756.291	60.54
756.688	60.52
757.085	60.5
757.482	60.52
757.878	60.59
758.275	60.6
758.672	60.64
759.068	60.69
759.465	60.71
759.861	60.71
760.258	60.69
760.654	60.7
761.05	60.7
761.447	60.71
761.843	60.65
762.239	60.6
762.635	60.58
763.031	60.52
763.427	60.47
763.822	60.44
764.218	60.4
764.614	60.39
765.01	60.39
765.405	60.38
765.801	60.37
766.196	60.37
766.592	60.38
766.987	60.36
767.382	60.36
767.778	60.36
768.173	60.35
768.568	60.35
768.963	60.38
769.358	60.35
769.753	60.38
770.148	60.39
770.542	60.41
770.937	60.42
771.332	60.43
771.726	60.43
772.121	60.39
772.515	60.38
772.91	60.39
773.304	60.4
773.699	60.41
774.093	60.36
774.487	60.38
774.881	60.35
775.275	60.39
775.669	60.42
776.063	60.41
776.457	60.46
776.851	60.46
777.245	60.46
777.638	60.42
778.032	60.4
778.425	60.4
778.819	60.39
779.212	60.39
779.606	60.35
779.999	60.29
780.392	60.28
780.786	60.27
781.179	60.28
781.572	60.27
781.965	60.29
782.358	60.24
782.751	60.26
783.143	60.28
783.536	60.34
783.929	60.39
784.322	60.42
784.714	60.46
785.107	60.51
785.499	60.53
785.891	60.55
786.284	60.55
786.676	60.63
787.068	60.62
787.46	60.59
787.852	60.53
788.245	60.53
788.636	60.53
789.028	60.53
789.42	60.45
789.812	60.47
790.204	60.42
790.595	60.44
790.987	60.43
791.378	60.47
791.77	60.52
792.161	60.53
792.553	60.53
792.944	60.55
793.335	60.58
793.726	60.59
794.117	60.57
794.508	60.62
794.899	60.59
795.29	60.63
795.681	60.61
796.072	60.6
796.463	60.59
796.853	60.6
797.244	60.57
797.634	60.55
798.025	60.61
798.415	60.64
798.806	60.64
799.196	60.68
799.586	60.69
799.976	60.71
800.366	60.72
800.756	60.73
801.146	60.75
801.536	60.76
801.926	60.78
802.316	60.8
802.706	60.8
803.095	60.82
803.485	60.86
803.874	60.88
804.264	60.91
804.653	60.89
805.043	60.91
805.432	60.9
805.821	60.91
806.21	60.94
806.599	61
806.988	61.02
807.377	61.03
807.766	61.04
808.155	61.05
808.544	61.03
808.933	61.1
809.321	61.14
809.71	61.19
810.098	61.25
810.487	61.27
810.875	61.22
811.264	61.25
811.652	61.3
812.04	61.3
812.428	61.32
812.816	61.34
813.204	61.33
813.592	61.31
813.98	61.29
814.368	61.29
814.756	61.28
815.144	61.31
815.531	61.29
815.919	61.29
816.306	61.26
816.694	61.26
817.081	61.27
817.469	61.33
817.856	61.37
818.243	61.4
818.63	61.46
819.017	61.51
819.404	61.51
819.791	61.53
820.178	61.54
820.565	61.57
820.952	61.56
821.339	61.59
821.725	61.54
822.112	61.55
822.498	61.53
822.885	61.49
823.271	61.48
823.657	61.47
824.044	61.43
824.43	61.45
824.816	61.45
825.202	61.45
825.588	61.44
825.974	61.44
826.36	61.41
826.746	61.42
827.132	61.41
827.517	61.38
827.903	61.34
828.289	61.36
828.674	61.32
829.06	61.31
829.445	61.32
829.83	61.31
830.216	61.3
830.601	61.32
830.986	61.29
831.371	61.32
831.756	61.26
832.141	61.29
832.526	61.28
832.911	61.27
833.295	61.25
833.68	61.24
834.065	61.21
834.449	61.19
834.834	61.16
835.218	61.12
835.603	61.08
835.987	61.08
836.371	61.05
836.755	61.03
837.139	61.01
837.524	60.95
837.908	60.91
838.291	60.91
838.675	60.86
839.059	60.81
839.443	60.82
839.827	60.8
840.21	60.83
840.594	60.81
840.977	60.76
841.361	60.75
841.744	60.76
842.127	60.73
842.511	60.68
842.894	60.68
843.277	60.69
843.66	60.69
844.043	60.68
844.426	60.64
844.809	60.62
845.191	60.64
845.574	60.61
845.957	60.61
846.339	60.59
846.722	60.59
847.104	60.6
847.487	60.61
847.869	60.61
848.252	60.59
848.634	60.6
849.016	60.62
849.398	60.61
849.78	60.62
850.162	60.6
850.544	60.64
850.926	60.6
851.307	60.61
851.689	60.57
852.071	60.52
852.452	60.51
852.834	60.49
853.215	60.47
853.597	60.44
853.978	60.41
854.359	60.43
854.741	60.42
855.122	60.46
855.503	60.44
855.884	60.45
856.265	60.46
856.646	60.44
857.026	60.47
857.407	60.45
857.788	60.48
858.169	60.5
858.549	60.5
858.93	60.51
859.31	60.5
859.69	60.49
860.071	60.5
860.451	60.51
860.831	60.54
861.211	60.51
861.591	60.52
861.971	60.48
862.351	60.51
862.731	60.49
863.111	60.5
863.491	60.54
863.87	60.54
864.25	60.56
864.629	60.56
865.009	60.53
865.388	60.54
865.768	60.57
866.147	60.62
866.526	60.63
866.905	60.66
867.284	60.64
867.663	60.61
868.042	60.6
868.421	60.61
868.8	60.61
869.179	60.62
869.558	60.61
869.936	60.59
870.315	60.53
870.693	60.52
871.072	60.48
871.45	60.44
871.828	60.46
872.207	60.47
872.585	60.44
872.963	60.43
873.341	60.44
873.719	60.44
874.097	60.47
874.475	60.5
874.853	60.51
875.23	60.52
875.608	60.54
875.986	60.51
876.363	60.5
876.741	60.5
877.118	60.5
877.495	60.5
877.873	60.48
878.25	60.44
878.627	60.42
879.004	60.38
879.381	60.38
879.758	60.38
880.135	60.39
880.512	60.41
880.889	60.45
881.265	60.47
881.642	60.45
882.019	60.49
882.395	60.48
882.772	60.46
883.148	60.45
883.524	60.45
883.901	60.42
884.277	60.41
884.653	60.39
885.029	60.35
885.405	60.29
885.781	60.24
886.157	60.21
886.532	60.2
886.908	60.23
887.284	60.22
887.659	60.2
888.035	60.19
888.411	60.15
888.786	60.1
889.161	60.09
889.537	60.09
889.912	60.07
890.287	60.05
890.662	60
891.037	59.94
891.412	59.89
891.787	59.83
892.162	59.79
892.536	59.77
892.911	59.76
893.286	59.73
893.66	59.69
894.035	59.67
894.409	59.63
894.784	59.64
895.158	59.63
895.532	59.64
895.906	59.64
896.281	59.61
896.655	59.61
897.029	59.58
897.402	59.57
897.776	59.57
898.15	59.6
898.524	59.59
898.898	59.57
899.271	59.57
899.645	59.57
900.018	59.56
900.392	59.6
900.765	59.59
901.138	59.64
901.511	59.65
901.884	59.69
902.258	59.67
902.631	59.69
903.003	59.7
903.376	59.72
903.749	59.72
904.122	59.76
904.495	59.77
904.867	59.76
905.24	59.75
905.612	59.74
905.985	59.73
906.357	59.72
906.729	59.7
907.102	59.7
907.474	59.7
907.846	59.67
908.218	59.63
908.59	59.6
908.962	59.63
909.334	59.63
909.705	59.63
910.077	59.61
910.449	59.64
910.82	59.63
911.192	59.63
911.563	59.59
911.935	59.58
912.306	59.59
912.677	59.63
913.048	59.61
913.419	59.59
913.79	59.6
914.161	59.59
914.532	59.57
914.903	59.58
915.274	59.59
915.645	59.62
916.015	59.67
916.386	59.7
916.756	59.68
917.127	59.67
917.497	59.68
917.868	59.72
918.238	59.76
918.608	59.79
918.978	59.79
919.348	59.77
919.718	59.77
920.088	59.77
920.458	59.79
920.828	59.77
921.198	59.81
921.567	59.76
921.937	59.73
922.306	59.68
922.676	59.68
923.045	59.67
923.415	59.68
923.784	59.67
924.153	59.65
924.522	59.61
924.891	59.64
925.26	59.61
925.629	59.67
925.998	59.67
926.367	59.65
926.736	59.63
927.104	59.65
927.473	59.67
927.842	59.65
928.21	59.69
928.578	59.68
928.947	59.65
929.315	59.63
929.683	59.62
930.051	59.56
930.42	59.6
930.788	59.62
931.156	59.57
931.523	59.51
931.891	59.43
932.259	59.36
932.627	59.27
932.994	59.26
933.362	59.18
933.729	59.12
934.097	59.11
934.464	59.01
934.831	58.91
935.199	58.85
935.566	58.8
935.933	58.88
936.3	58.78
936.667	58.85
937.034	58.77
937.401	58.77
937.767	58.76
938.134	58.76
938.501	58.85
938.867	58.91
939.234	59.05
939.6	59.09
939.967	59.18
940.333	59.44
940.699	59.52
941.065	59.72
941.431	59.95
941.798	60.08
942.163	60.23
942.529	60.35
942.895	60.46
943.261	60.55
943.627	60.76
943.992	60.78
944.358	60.77
944.723	60.83
945.089	60.84
945.454	60.84
945.82	60.88
946.185	60.85
946.55	60.96
946.915	60.91
947.28	60.93
947.645	60.92
948.01	60.89
948.375	60.87
948.74	60.81
949.104	60.84
949.469	60.71
949.834	60.67
950.198	60.6
950.562	60.4
950.927	60.38
951.291	60.29
951.655	60.2
952.02	60.17
952.384	60.14
952.748	60.1
953.112	60
953.476	59.98
953.839	59.89
954.203	59.84
954.567	59.84
954.931	59.83
955.294	59.78
955.658	59.74
956.021	59.69
956.385	59.64
956.748	59.67
957.111	59.59
957.474	59.62
957.837	59.64
958.2	59.6
958.563	59.55
958.926	59.42
959.289	59.42
959.652	59.42
960.015	59.35
960.377	59.33
960.74	59.21
961.102	59.19
961.465	59.12
961.827	58.98
962.189	58.96
962.552	58.91
962.914	58.94
963.276	58.97
963.638	58.89
964	58.91
964.362	58.88
964.724	58.97
965.085	58.99
965.447	59
965.809	59.04
966.17	59.09
966.532	59.14
966.893	59.19
967.255	59.15
967.616	59.2
967.977	59.15
968.338	59.18
968.699	59.13
969.061	59.05
969.421	59.03
969.782	59.05
970.143	59.01
970.504	58.99
970.865	58.92
971.225	58.87
971.586	58.86
971.946	58.89
972.307	58.82
972.667	58.87
973.027	58.98
973.388	58.99
973.748	58.97
974.108	58.96
974.468	58.96
974.828	58.96
975.188	59.01
975.548	59.04
975.907	59.04
976.267	59.06
976.627	59
976.986	58.98
977.346	58.96
977.705	59.01
978.064	59.01
978.424	58.99
978.783	59.08
979.142	58.97
979.501	58.91
979.86	58.98
980.219	58.98
980.578	59.02
980.937	59
981.296	59.11
981.654	59.22
982.013	59.3
982.371	59.33
982.73	59.27
983.088	59.37
983.447	59.38
983.805	59.31
984.163	59.33
984.521	59.21
984.879	59.26
985.237	59.18
985.595	59.1
985.953	59.07
986.311	59.16
986.669	59.3
987.026	59.31
987.384	59.43
987.741	59.63
988.099	59.67
988.456	59.75
988.814	59.83
989.171	59.82
989.528	59.82
989.885	59.75
990.242	59.76
990.599	59.69
990.956	59.77
991.313	59.71
991.67	59.76
992.027	59.81
992.383	59.91
992.74	59.88
993.096	59.83
993.453	59.89
993.809	60.11
994.165	60.08
994.522	60.1
994.878	59.96
995.234	59.98
995.59	59.79
995.946	59.84
996.302	59.77
996.658	59.83
997.013	59.99
997.369	59.92
997.725	59.96
998.08	59.98
998.436	60.12
998.791	60.37
999.147	60.31
999.502	60.4
999.857	60.42
1000.212	60.39
1000.567	60.46
1000.922	60.49
1001.277	60.57
1001.632	60.59
1001.987	60.69
1002.342	60.61
1002.696	60.59
1003.051	60.55
1003.406	60.65
1003.76	60.63
1004.114	60.93
1004.469	60.8
1004.823	60.93
1005.177	61.14
1005.531	61.11
1005.885	61.13
1006.239	61.01
1006.593	60.91
1006.947	61.2
1007.301	61.34
1007.655	61.4
1008.008	61.3
1008.362	61.47
1008.715	61.43
1009.069	61.46
1009.422	61.27
1009.776	61.26
1010.129	61.6
1010.482	61.77
1010.835	61.94
1011.188	61.84
1011.541	61.73
1011.894	61.78
1012.247	61.65
1012.6	61.91
1012.952	61.94
1013.305	62.36
1013.657	62.62
1014.01	62.71
1014.362	63.05
1014.715	63.1
1015.067	63.22
1015.419	63.68
1015.771	63.94
1016.123	64.4
1016.475	64.47
1016.827	64.58
1017.179	64.52
1017.531	64.51
1017.883	64.81
1018.234	64.86
1018.586	64.79
1018.938	64.99
1019.289	64.82
1019.64	65.04
1019.992	65.22
1020.343	64.99
1020.694	64.84
1021.045	65.08
1021.396	65.17
1021.747	65.04
1022.098	64.85
1022.449	64.79
1022.8	64.69
1023.151	64.97
1023.501	65.05
1023.852	65.07
1024.202	65.32
1024.553	65.38
1024.903	65.61
1025.253	65.64
1025.604	65.75
1025.954	65.92
1026.304	66.8
1026.654	67.08
1027.004	67.43
1027.354	67.3
1027.703	67.3
1028.053	67.1
1028.403	67.28
1028.753	67.77
1029.102	67.87
1029.452	67.69
1029.801	67.6
1030.15	67.12
1030.499	67.13
897.758	550.45
901.051	561.17
904.343	565.73
907.636	555.76
910.928	548.11
914.22	556.99
917.511	542.97
920.803	516.64
924.094	498.09
927.384	502.39
930.675	488
933.965	483.38
937.255	477.65
940.544	457.46
943.834	441.14
947.123	432.32
950.411	410.49
953.7	404.47
956.988	394.16
960.276	379.21
963.563	373.53
966.851	353.57
970.138	348.28
973.424	328.53
976.711	323.86
979.997	311.28
983.283	305.11
986.568	295.34
989.853	288.97
993.138	279.09
996.423	274.32
999.708	267.47
1002.992	268.48
1006.275	259.97
1009.559	257.59
1012.842	250.51
1016.125	244.05
1019.408	240.44
1022.69	237.06
1025.972	235.35
1029.254	229.7
1032.536	225.99
1035.817	219.86
1039.098	216.47
1042.379	212.2
1045.659	208.91
1048.939	208.03
1052.219	204.61
1055.498	201.78
1058.778	199.79
1062.057	195.19
1065.335	194.67
1068.614	191
1071.892	188.4
1075.17	185.11
1078.447	183.46
1081.724	182.3
1085.001	177.98
1088.278	177.95
1091.554	176.74
1094.83	175.58
1098.106	173.42
1101.382	172.06
1104.657	171.52
1107.932	171.29
1111.206	170.75
1114.481	169.85
1117.755	168.41
1121.029	168.35
1124.302	165.78
1127.575	162.98
1130.848	162.52
1134.121	161.07
1137.393	160.6
1140.665	160.14
1143.937	158.21
1147.208	156.37
1150.48	154.13
1153.75	154.42
1157.021	152.66
1160.291	152.32
1163.561	152.01
1166.831	150.03
1170.101	149.33
1173.37	148.37
1176.639	146.39
1179.907	147.22
1183.176	146.76
1186.444	146.6
1189.711	144.72
1192.979	146.11
1196.246	146.23
1199.513	146.59
1202.78	147.05
1206.046	147.01
1209.312	148.37
1212.578	149.24
1215.843	150.83
1219.108	151.76
1222.373	154.49
1225.638	157.55
1228.902	160.34
1232.166	164.14
1235.43	165.97
1238.693	170.66
1241.956	174.74
1245.219	178
1248.482	178.96
1251.744	177.9
1255.006	178.72
1258.268	173.44
1261.529	172.12
1264.79	167.5
1268.051	166.16
1271.312	164.36
1274.572	161.14
1277.832	157.24
1281.092	155.41
1284.351	153.09
1287.61	152.67
1290.869	151.6
1294.128	152.12
1297.386	150.66
1300.644	150.8
1303.902	148.42
1307.159	147.81
1310.416	148.67
1313.673	150.27
1316.93	150.79
1320.186	153.29
1323.442	154.8
1326.697	157.65
1329.953	158.14
1333.208	163.64
1336.463	169.15
1339.717	172.93
1342.972	180.96
1346.226	184.51
1349.479	185.73
1352.733	194.27
1355.986	197.48
1359.238	201.4
1362.491	202.72
1365.743	211.15
1368.995	210.19
1372.247	211.85
1375.498	210.12
1378.749	215.82
1382	217.31
1385.251	216.11
1388.501	214.09
1391.751	217.29
1395	215.84
1398.25	217.19
1401.499	216.85
1404.748	217.81
1407.996	210.57
1411.244	211.57
1414.492	208.16
1417.74	201.74
1420.987	197.75
1424.234	195.96
1427.481	188.4
1430.728	182.92
1433.974	177.43
1437.22	171.25
1440.465	165.21
1443.711	160.99
1446.956	155.89
1450.201	150.35
1453.445	144.79
1456.689	140.87
1459.933	136.01
1463.177	131.06
1466.42	129.51
1469.663	125.84
1472.906	122.64
1476.148	120.34
1479.391	117.96
1482.633	116.37
1485.874	114.82
1489.115	114.19
1492.356	112.62
1495.597	110.91
1498.838	110.82
1502.078	109.95
1505.318	109.79
1508.557	108.76
1511.797	107.55
1515.036	107.4
1518.274	107.03
1521.513	105.75
1524.751	104.78
1527.989	105.83
1531.227	106.03
1534.464	105.18
1537.701	104.48
1540.938	103.74
1544.174	104.35
1547.41	104.67
1550.646	104.3
1553.882	104.05
1557.117	104.14
1560.352	104.08
1563.587	103.1
1566.821	102.72
1570.055	102.41
1573.289	102.65
1576.523	102.64
1579.756	101.96
1582.989	102.41
1586.222	102.15
1589.454	102.58
1592.686	102.17
1595.918	101.99
1599.15	101.58
1602.381	102.26
1605.612	102.58
1608.843	102.39
1612.073	102.61
1615.303	102.47
1618.533	101.87
1621.762	102.44
1624.992	102.34
1628.221	101.99
1631.449	102.69
1634.678	103.1
1637.906	102.51
1641.134	102.39
1644.361	102.37
1647.588	103.12
1650.815	103.47
1654.042	103.67
1657.269	102.84
1660.495	103.08
1663.72	103.42
1666.946	103.08
1670.171	103.39
1673.396	104.37
1676.621	104.19
1679.845	104.53
1683.069	104.04
1686.293	103.99
1689.517	104.11
1692.74	104.78
1695.963	104.64
1699.185	104.9
1702.408	104.47
1705.63	104.49
1708.852	105.05
1712.073	105.23
1715.294	104.86
1718.515	105.42
1721.736	105.73
1724.956	105.42
1728.176	105.3
1731.396	106.21
1734.616	106.68
1737.835	107.61
1741.054	106.88
1744.272	106.03
1747.491	106.71
1750.709	107.55
1753.927	107.34
1757.144	107.66
1760.361	108.03
1763.578	109.29
1766.795	109.07
1770.011	108.18
1773.227	108.72
1776.443	110.35
1779.658	110.26
1782.874	110.33
1786.089	109.64
1789.303	110.05
1792.518	110.89
1795.732	111.85
1798.945	112.09
1802.159	111.78
1805.372	113.78
1808.585	114.37
1811.797	114.48
1815.01	115.35
1818.222	116.07
1821.434	117.5
1824.645	117.85
1827.856	119.16
1831.067	119.31
1834.278	120.35
1837.488	122.19
1840.698	122.81
1843.908	122.68
1847.117	124.06
1850.326	125.48
1853.535	126.14
1856.744	126.87
1859.952	128.87
1863.16	128.1
1866.368	127.4
1869.575	128.04
1872.782	126.72
1875.989	125.22
1879.196	124.97
1882.402	123.97
1885.608	123.26
1888.814	122.4
1892.019	122.61
1895.224	119.67
1898.429	119.57
1901.634	119.83
1904.838	119.4
1908.042	119.64
1911.246	119.5
1914.449	119.75
1917.652	117.88
1920.855	118.88
1924.058	117.48
1927.26	116.63
1930.462	117.44
1933.664	117.58
1936.865	118.92
1940.066	116.12
1943.267	115.57
1946.467	117.07
1949.668	116.67
1952.868	117.58
1956.067	116.79
1959.267	117.39
1962.466	117.8
1965.665	120.81
1968.863	119.69
1972.061	119.48
1975.259	122.89
1978.457	123.95
1981.654	124.26
1984.852	125.93
1988.048	127.65
1991.245	130.12
1994.441	133.16
1997.637	135.67
2000.833	135.45
2004.028	139.16
2007.223	142.91
2010.418	145.64
2013.613	152.22
2016.807	156.23
2020.001	159.26
2023.194	164.76
2026.388	169.85
2029.581	178.98
2032.774	185.4
2035.966	191.51
2039.158	196.15
2042.35	200.12
2045.542	204.58
2048.733	212.05
2051.924	213.97
2055.115	217.31
2058.306	218.24
2061.496	222.32
2064.686	219.89
2067.875	219.75
2071.065	220.76
2074.254	221.33
2077.442	228
2080.631	228.83
2083.819	230.32
2087.007	236.51
2090.195	239.66
2093.382	239.85
2096.569	239.99
2099.756	245.51
2102.942	249.51
2106.128	257.09
2109.314	256.23
2112.5	255.2
2115.685	254.46
2118.87	253.38
2122.055	252.72
2125.239	257.85
2128.424	263.71
2131.608	263.65
2134.791	263.31
2137.974	263.8
2141.157	263.24
2144.34	268.76
2147.523	274.97
2150.705	281.59
2153.887	278.71
2157.068	281.68
2160.25	283.55
2163.431	283.77
2166.611	286.16
2169.792	290.34
2172.972	294.16
2176.152	295.68
2179.331	300.89
2182.511	298.64
2185.69	302.6
2188.868	314.66
2192.047	322.92
2195.225	327.36
2198.403	329.43
2201.58	326.34
2204.758	337.25
2207.935	340.3
2211.111	347.53
2214.288	349.11
2217.464	354.74
2220.64	355.33
2223.815	359.19
2226.991	352.21
2230.166	356.2
2233.34	366.92
2236.515	380.71
2239.689	375.82
2242.863	380.24
2246.036	377.51
2249.209	387.9
2252.382	385.81
2255.555	399.86
2258.727	398.13
2261.9	416.63
2265.071	420.17
2268.243	415.92
2271.414	425.52
2274.585	434.45
2277.756	433.04
2280.926	451.37
2284.096	453.33
2287.266	455.45
2290.436	447.67
2293.605	458.12
2296.774	468.52
2299.942	467.48
2303.111	483.78
2306.279	493.73
2309.447	496.82
2312.614	496.59
2315.781	506.27
2318.948	508.36
2322.115	518.91
2325.281	550.03
2328.447	542.77
2331.613	544.64
2334.779	552.39
2337.944	564.11
2341.109	571.13
2344.274	574.13
2347.438	595.6
2350.602	603.12
2353.766	644.56
2356.929	646.34
2360.092	651.22
2363.255	660.85
2366.418	668.34
2369.58	687.1
2372.742	681.48
2375.904	682.33
2379.066	706.24
2382.227	743.55
2385.388	741.13
2388.548	700.33
2391.709	696.21
2394.869	713.45
2398.029	718.74
2401.188	720.94
2404.347	736.85
2407.506	762.06
2410.665	735.07
2413.823	738.62
2416.981	738.89
2420.139	703.93
2423.296	760.67
2426.453	808.97
2429.61	771.12
2432.767	822.24
2435.923	844.7
2439.079	822.65
2442.235	843.03
2445.391	859.95
2448.546	849.42
2451.701	893.53
2454.855	953.77
2458.009	846.38
2461.163	857.08
2464.317	869.87
2467.471	849.66
2470.624	879.97
2473.777	866.36
2476.929	838.45
2480.082	892.89
2483.234	937.71
2486.385	959.82
2489.537	984.63
2492.688	1081.57
2495.839	1063.21
2498.989	1098.42
2502.14	1098.21
2505.29	1055.77
2508.439	1154.95
2511.589	1179.34
2514.738	1144.59
2517.887	1130.44
2521.035	1059.6
2524.183	1047.72
2527.331	1037.43
2530.479	1014.5
2533.627	1032.63
