Data from N_3_div_oh_2n_Splice17_19.txt Node
Date: Sat Feb 29 14:40:55 EST 2020
User: sa697716
Spectrometer: FLMS03696
Trigger mode: 0
Integration Time (sec): 3.180400E-1
Scans to average: 20
Electric dark correction enabled: true
Nonlinearity correction enabled: true
Boxcar width: 5
XAxis mode: Wavelengths
Number of Pixels in Spectrum: 2048
>>>>>Begin Spectral Data<<<<<
187.83	87.65
188.298	74.12
188.766	65.13
189.233	58.94
189.701	58.65
190.169	52.78
190.636	51.11
191.104	40.56
191.571	102.33
192.039	69.93
192.506	138.62
192.974	7370.09
193.441	-353.9
193.908	67
194.375	16.58
194.842	-11.63
195.31	-1.15
195.777	-6.47
196.244	13.15
196.711	19.64
197.177	14.15
197.644	16.38
198.111	15.41
198.578	15.39
199.045	15.98
199.511	17.35
199.978	18.07
200.445	17.83
200.911	18.11
201.378	18.05
201.844	18.74
202.31	19.69
202.777	19.76
203.243	20.5
203.709	21.08
204.176	20.94
204.642	20.6
205.108	20.56
205.574	20.96
206.04	20.69
206.506	20.79
206.972	20.46
207.438	20.61
207.903	20.92
208.369	20.59
208.835	20.46
209.301	20.8
209.766	20.65
210.232	20.64
210.697	20.48
211.163	20.85
211.628	20.75
212.094	20.38
212.559	19.91
213.024	19.44
213.49	19.31
213.955	19.03
214.42	18.66
214.885	18.06
215.35	17.55
215.815	17.1
216.28	16.6
216.745	16.14
217.21	15.64
217.675	15.21
218.14	14.62
218.604	14.2
219.069	13.88
219.534	13.45
219.998	13.15
220.463	12.86
220.927	12.58
221.392	12.32
221.856	12.08
222.32	11.91
222.785	11.71
223.249	11.54
223.713	11.4
224.177	11.17
224.642	11.08
225.106	10.98
225.57	10.84
226.034	10.72
226.497	10.59
226.961	10.48
227.425	10.35
227.889	10.26
228.353	10.18
228.816	10.1
229.28	10.03
229.744	9.94
230.207	9.87
230.671	9.8
231.134	9.71
231.597	9.62
232.061	9.54
232.524	9.47
232.987	9.38
233.45	9.3
233.914	9.22
234.377	9.15
234.84	9.08
235.303	9
235.766	8.94
236.229	8.89
236.691	8.85
237.154	8.8
237.617	8.74
238.08	8.68
238.542	8.63
239.005	8.56
239.468	8.49
239.93	8.43
240.393	8.37
240.855	8.32
241.317	8.26
241.78	8.2
242.242	8.14
242.704	8.09
243.166	8.03
243.629	7.99
244.091	7.95
244.553	7.9
245.015	7.86
245.477	7.8
245.939	7.75
246.4	7.7
246.862	7.66
247.324	7.63
247.786	7.59
248.247	7.56
248.709	7.51
249.17	7.46
249.632	7.44
250.093	7.38
250.555	7.35
251.016	7.33
251.477	7.3
251.939	7.26
252.4	7.23
252.861	7.2
253.322	7.18
253.783	7.16
254.244	7.13
254.705	7.09
255.166	7.08
255.627	7.05
256.088	7.01
256.549	6.98
257.009	6.95
257.47	6.92
257.931	6.88
258.391	6.83
258.852	6.79
259.312	6.75
259.773	6.72
260.233	6.69
260.694	6.66
261.154	6.62
261.614	6.59
262.074	6.55
262.534	6.51
262.994	6.49
263.455	6.47
263.915	6.43
264.374	6.41
264.834	6.38
265.294	6.35
265.754	6.32
266.214	6.3
266.673	6.28
267.133	6.26
267.593	6.24
268.052	6.21
268.512	6.19
268.971	6.17
269.431	6.14
269.89	6.12
270.349	6.11
270.809	6.09
271.268	6.08
271.727	6.06
272.186	6.03
272.645	6.02
273.104	6.01
273.563	6
274.022	5.97
274.481	5.96
274.94	5.94
275.399	5.92
275.857	5.89
276.316	5.87
276.775	5.85
277.233	5.83
277.692	5.8
278.15	5.78
278.609	5.76
279.067	5.74
279.525	5.72
279.984	5.69
280.442	5.68
280.9	5.66
281.358	5.65
281.816	5.63
282.274	5.61
282.732	5.6
283.19	5.59
283.648	5.58
284.106	5.56
284.564	5.56
285.021	5.55
285.479	5.54
285.937	5.52
286.394	5.5
286.852	5.5
287.309	5.48
287.767	5.47
288.224	5.46
288.682	5.45
289.139	5.45
289.596	5.43
290.053	5.41
290.511	5.39
290.968	5.38
291.425	5.38
291.882	5.36
292.339	5.34
292.796	5.32
293.252	5.31
293.709	5.3
294.166	5.28
294.623	5.27
295.079	5.27
295.536	5.27
295.992	5.26
296.449	5.24
296.905	5.23
297.362	5.22
297.818	5.21
298.274	5.2
298.731	5.2
299.187	5.2
299.643	5.19
300.099	5.18
300.555	5.17
301.011	5.17
301.467	5.16
301.923	5.16
302.379	5.16
302.835	5.16
303.291	5.14
303.746	5.12
304.202	5.11
304.658	5.1
305.113	5.1
305.569	5.1
306.024	5.08
306.479	5.07
306.935	5.06
307.39	5.06
307.845	5.05
308.301	5.06
308.756	5.07
309.211	5.06
309.666	5.06
310.121	5.05
310.576	5.04
311.031	5.04
311.486	5.04
311.94	5.04
312.395	5.04
312.85	5.04
313.305	5.03
313.759	5.03
314.214	5.02
314.668	5.02
315.123	5.02
315.577	5.02
316.032	5.01
316.486	5
316.94	4.99
317.394	4.98
317.849	4.98
318.303	4.97
318.757	4.95
319.211	4.94
319.665	4.94
320.119	4.93
320.572	4.94
321.026	4.94
321.48	4.94
321.934	4.94
322.387	4.94
322.841	4.93
323.295	4.92
323.748	4.93
324.202	4.92
324.655	4.91
325.108	4.89
325.562	4.87
326.015	4.85
326.468	4.84
326.921	4.82
327.374	4.81
327.827	4.8
328.28	4.79
328.733	4.77
329.186	4.77
329.639	4.76
330.092	4.76
330.545	4.76
330.997	4.76
331.45	4.76
331.903	4.75
332.355	4.75
332.808	4.76
333.26	4.76
333.713	4.75
334.165	4.76
334.617	4.76
335.069	4.76
335.522	4.76
335.974	4.76
336.426	4.77
336.878	4.77
337.33	4.76
337.782	4.74
338.234	4.73
338.686	4.73
339.137	4.72
339.589	4.72
340.041	4.71
340.493	4.68
340.944	4.66
341.396	4.65
341.847	4.63
342.299	4.6
342.75	4.58
343.201	4.57
343.653	4.56
344.104	4.54
344.555	4.53
345.006	4.52
345.457	4.51
345.908	4.51
346.359	4.51
346.81	4.51
347.261	4.5
347.712	4.51
348.163	4.51
348.613	4.49
349.064	4.48
349.515	4.47
349.965	4.46
350.416	4.47
350.866	4.47
351.317	4.46
351.767	4.45
352.217	4.45
352.668	4.45
353.118	4.45
353.568	4.46
354.018	4.47
354.468	4.46
354.918	4.47
355.368	4.47
355.818	4.46
356.268	4.46
356.718	4.46
357.168	4.45
357.617	4.44
358.067	4.43
358.517	4.42
358.966	4.42
359.416	4.43
359.865	4.41
360.315	4.41
360.764	4.42
361.213	4.42
361.663	4.42
362.112	4.43
362.561	4.44
363.01	4.46
363.459	4.45
363.908	4.45
364.357	4.46
364.806	4.47
365.255	4.48
365.703	4.47
366.152	4.47
366.601	4.48
367.05	4.49
367.498	4.49
367.947	4.5
368.395	4.52
368.844	4.53
369.292	4.54
369.74	4.56
370.189	4.57
370.637	4.57
371.085	4.6
371.533	4.62
371.981	4.63
372.429	4.64
372.877	4.65
373.325	4.67
373.773	4.69
374.221	4.71
374.669	4.72
375.116	4.74
375.564	4.77
376.012	4.79
376.459	4.81
376.907	4.85
377.354	4.87
377.801	4.91
378.249	4.94
378.696	4.98
379.143	5.01
379.591	5.04
380.038	5.07
380.485	5.11
380.932	5.14
381.379	5.18
381.826	5.21
382.273	5.24
382.72	5.27
383.166	5.3
383.613	5.33
384.06	5.36
384.506	5.4
384.953	5.42
385.4	5.46
385.846	5.49
386.292	5.53
386.739	5.57
387.185	5.61
387.631	5.65
388.078	5.69
388.524	5.72
388.97	5.75
389.416	5.77
389.862	5.81
390.308	5.83
390.754	5.86
391.2	5.88
391.645	5.91
392.091	5.93
392.537	5.93
392.983	5.95
393.428	5.98
393.874	6.02
394.319	6.05
394.765	6.06
395.21	6.08
395.655	6.12
396.101	6.13
396.546	6.15
396.991	6.16
397.436	6.18
397.881	6.19
398.326	6.22
398.771	6.23
399.216	6.26
399.661	6.28
400.106	6.32
400.551	6.32
400.995	6.32
401.44	6.32
401.885	6.34
402.329	6.35
402.774	6.35
403.218	6.37
403.663	6.36
404.107	6.36
404.551	6.37
404.995	6.36
405.44	6.37
405.884	6.38
406.328	6.39
406.772	6.39
407.216	6.39
407.66	6.4
408.104	6.4
408.547	6.41
408.991	6.41
409.435	6.4
409.879	6.4
410.322	6.4
410.766	6.4
411.209	6.42
411.653	6.41
412.096	6.39
412.54	6.38
412.983	6.37
413.426	6.38
413.869	6.37
414.312	6.39
414.756	6.4
415.199	6.42
415.642	6.43
416.085	6.41
416.527	6.43
416.97	6.46
417.413	6.46
417.856	6.46
418.298	6.44
418.741	6.43
419.184	6.41
419.626	6.39
420.069	6.38
420.511	6.37
420.953	6.37
421.396	6.37
421.838	6.38
422.28	6.4
422.722	6.41
423.164	6.43
423.606	6.46
424.048	6.46
424.49	6.47
424.932	6.46
425.374	6.47
425.816	6.45
426.258	6.43
426.699	6.38
427.141	6.34
427.582	6.32
428.024	6.31
428.465	6.28
428.907	6.29
429.348	6.29
429.789	6.3
430.231	6.27
430.672	6.28
431.113	6.29
431.554	6.31
431.995	6.33
432.436	6.34
432.877	6.31
433.318	6.3
433.759	6.3
434.2	6.29
434.64	6.28
435.081	6.28
435.522	6.27
435.962	6.27
436.403	6.28
436.843	6.27
437.284	6.27
437.724	6.31
438.164	6.33
438.604	6.34
439.045	6.34
439.485	6.36
439.925	6.37
440.365	6.35
440.805	6.35
441.245	6.35
441.685	6.37
442.125	6.37
442.564	6.38
443.004	6.39
443.444	6.42
443.883	6.42
444.323	6.42
444.762	6.45
445.202	6.52
445.641	6.53
446.081	6.56
446.52	6.56
446.959	6.56
447.398	6.58
447.837	6.61
448.276	6.61
448.716	6.63
449.154	6.65
449.593	6.64
450.032	6.63
450.471	6.65
450.91	6.66
451.349	6.67
451.787	6.68
452.226	6.66
452.664	6.63
453.103	6.62
453.541	6.62
453.98	6.61
454.418	6.61
454.856	6.58
455.295	6.56
455.733	6.55
456.171	6.53
456.609	6.53
457.047	6.53
457.485	6.54
457.923	6.53
458.361	6.52
458.798	6.52
459.236	6.51
459.674	6.52
460.111	6.51
460.549	6.49
460.987	6.49
461.424	6.48
461.862	6.46
462.299	6.45
462.736	6.45
463.173	6.44
463.611	6.43
464.048	6.43
464.485	6.42
464.922	6.43
465.359	6.44
465.796	6.43
466.233	6.44
466.67	6.45
467.106	6.43
467.543	6.44
467.98	6.46
468.416	6.48
468.853	6.48
469.29	6.48
469.726	6.49
470.162	6.48
470.599	6.5
471.035	6.52
471.471	6.52
471.907	6.53
472.344	6.53
472.78	6.52
473.216	6.51
473.652	6.51
474.088	6.53
474.523	6.53
474.959	6.53
475.395	6.53
475.831	6.53
476.266	6.52
476.702	6.52
477.138	6.51
477.573	6.5
478.008	6.5
478.444	6.5
478.879	6.48
479.314	6.47
479.75	6.47
480.185	6.47
480.62	6.46
481.055	6.47
481.49	6.45
481.925	6.43
482.36	6.44
482.795	6.42
483.229	6.4
483.664	6.4
484.099	6.41
484.534	6.41
484.968	6.41
485.403	6.4
485.837	6.4
486.271	6.41
486.706	6.42
487.14	6.43
487.574	6.45
488.009	6.46
488.443	6.47
488.877	6.48
489.311	6.48
489.745	6.5
490.179	6.52
490.613	6.54
491.046	6.56
491.48	6.59
491.914	6.6
492.348	6.63
492.781	6.66
493.215	6.68
493.648	6.71
494.082	6.76
494.515	6.79
494.948	6.83
495.382	6.87
495.815	6.91
496.248	6.96
496.681	7.02
497.114	7.07
497.547	7.12
497.98	7.19
498.413	7.25
498.846	7.32
499.279	7.39
499.711	7.47
500.144	7.54
500.577	7.62
501.009	7.71
501.442	7.81
501.874	7.9
502.306	8.01
502.739	8.12
503.171	8.24
503.603	8.36
504.036	8.47
504.468	8.62
504.9	8.77
505.332	8.91
505.764	9.06
506.196	9.22
506.627	9.4
507.059	9.55
507.491	9.73
507.923	9.9
508.354	10.1
508.786	10.3
509.217	10.48
509.649	10.68
510.08	10.89
510.512	11.1
510.943	11.31
511.374	11.53
511.805	11.76
512.237	11.99
512.668	12.23
513.099	12.48
513.53	12.74
513.961	13.01
514.391	13.26
514.822	13.53
515.253	13.81
515.684	14.08
516.114	14.38
516.545	14.66
516.975	14.96
517.406	15.25
517.836	15.53
518.267	15.82
518.697	16.11
519.127	16.41
519.558	16.7
519.988	16.98
520.418	17.26
520.848	17.54
521.278	17.8
521.708	18.04
522.138	18.3
522.567	18.55
522.997	18.8
523.427	19.05
523.857	19.27
524.286	19.51
524.716	19.74
525.145	19.97
525.575	20.19
526.004	20.42
526.433	20.65
526.863	20.87
527.292	21.07
527.721	21.26
528.15	21.45
528.579	21.65
529.008	21.82
529.437	21.98
529.866	22.11
530.295	22.27
530.724	22.42
531.152	22.56
531.581	22.67
532.01	22.77
532.438	22.9
532.867	23.01
533.295	23.1
533.723	23.2
534.152	23.3
534.58	23.38
535.008	23.43
535.436	23.49
535.865	23.55
536.293	23.64
536.721	23.7
537.149	23.73
537.576	23.77
538.004	23.82
538.432	23.86
538.86	23.89
539.287	23.91
539.715	23.97
540.143	24
540.57	24.03
540.998	24.05
541.425	24.08
541.852	24.11
542.28	24.12
542.707	24.17
543.134	24.19
543.561	24.23
543.988	24.28
544.415	24.3
544.842	24.32
545.269	24.34
545.696	24.37
546.123	24.42
546.549	24.47
546.976	24.53
547.403	24.54
547.829	24.58
548.256	24.6
548.682	24.6
549.108	24.63
549.535	24.67
549.961	24.69
550.387	24.69
550.813	24.66
551.24	24.65
551.666	24.65
552.092	24.66
552.518	24.63
552.943	24.62
553.369	24.62
553.795	24.6
554.221	24.57
554.646	24.54
555.072	24.53
555.498	24.49
555.923	24.44
556.349	24.36
556.774	24.31
557.199	24.25
557.625	24.18
558.05	24.11
558.475	24.02
558.9	23.93
559.325	23.84
559.75	23.72
560.175	23.63
560.6	23.51
561.025	23.41
561.449	23.28
561.874	23.17
562.299	23.04
562.723	22.91
563.148	22.77
563.572	22.64
563.997	22.5
564.421	22.35
564.846	22.21
565.27	22.07
565.694	21.92
566.118	21.77
566.542	21.61
566.966	21.46
567.39	21.3
567.814	21.14
568.238	20.97
568.662	20.81
569.086	20.66
569.509	20.51
569.933	20.34
570.357	20.16
570.78	19.99
571.204	19.82
571.627	19.65
572.05	19.49
572.474	19.33
572.897	19.2
573.32	19.05
573.743	18.9
574.166	18.75
574.589	18.62
575.012	18.5
575.435	18.39
575.858	18.29
576.281	18.19
576.704	18.08
577.126	17.99
577.549	17.9
577.972	17.78
578.394	17.68
578.817	17.58
579.239	17.49
579.661	17.4
580.084	17.28
580.506	17.21
580.928	17.12
581.35	17.02
581.772	16.94
582.194	16.84
582.616	16.78
583.038	16.7
583.46	16.64
583.882	16.58
584.303	16.5
584.725	16.44
585.147	16.34
585.568	16.25
585.99	16.2
586.411	16.12
586.833	16.05
587.254	15.99
587.675	15.93
588.096	15.87
588.518	15.8
588.939	15.77
589.36	15.72
589.781	15.69
590.202	15.66
590.623	15.61
591.043	15.56
591.464	15.52
591.885	15.5
592.305	15.47
592.726	15.44
593.147	15.42
593.567	15.37
593.987	15.36
594.408	15.32
594.828	15.3
595.248	15.26
595.669	15.24
596.089	15.21
596.509	15.16
596.929	15.1
597.349	15.05
597.769	15.02
598.189	14.99
598.608	14.93
599.028	14.9
599.448	14.88
599.867	14.83
600.287	14.79
600.706	14.74
601.126	14.69
601.545	14.65
601.965	14.61
602.384	14.55
602.803	14.49
603.222	14.43
603.641	14.36
604.061	14.28
604.48	14.24
604.898	14.17
605.317	14.12
605.736	14.06
606.155	14
606.574	13.93
606.992	13.85
607.411	13.79
607.829	13.69
608.248	13.63
608.666	13.56
609.085	13.47
609.503	13.4
609.921	13.32
610.339	13.26
610.758	13.17
611.176	13.1
611.594	13.03
612.012	12.95
612.43	12.92
612.847	12.84
613.265	12.79
613.683	12.72
614.101	12.65
614.518	12.57
614.936	12.49
615.353	12.44
615.771	12.37
616.188	12.32
616.606	12.27
617.023	12.19
617.44	12.14
617.857	12.09
618.274	12.05
618.691	12.01
619.108	11.97
619.525	11.94
619.942	11.9
620.359	11.87
620.776	11.84
621.192	11.81
621.609	11.8
622.026	11.78
622.442	11.74
622.859	11.71
623.275	11.7
623.691	11.68
624.108	11.67
624.524	11.65
624.94	11.62
625.356	11.6
625.772	11.6
626.188	11.59
626.604	11.57
627.02	11.56
627.436	11.55
627.852	11.53
628.268	11.51
628.683	11.47
629.099	11.47
629.514	11.45
629.93	11.43
630.345	11.41
630.761	11.37
631.176	11.34
631.591	11.3
632.007	11.25
632.422	11.21
632.837	11.16
633.252	11.1
633.667	11.02
634.082	10.95
634.497	10.86
634.911	10.77
635.326	10.69
635.741	10.59
636.155	10.5
636.57	10.41
636.984	10.31
637.399	10.19
637.813	10.1
638.228	10
638.642	9.9
639.056	9.79
639.47	9.69
639.884	9.58
640.298	9.48
640.712	9.36
641.126	9.24
641.54	9.14
641.954	9.05
642.368	8.94
642.781	8.84
643.195	8.73
643.609	8.65
644.022	8.55
644.436	8.45
644.849	8.36
645.262	8.29
645.676	8.22
646.089	8.14
646.502	8.07
646.915	8.02
647.328	7.97
647.741	7.91
648.154	7.87
648.567	7.84
648.98	7.81
649.393	7.79
649.805	7.75
650.218	7.72
650.631	7.69
651.043	7.65
651.456	7.61
651.868	7.57
652.28	7.56
652.693	7.52
653.105	7.48
653.517	7.44
653.929	7.42
654.341	7.39
654.753	7.35
655.165	7.31
655.577	7.27
655.989	7.22
656.401	7.18
656.813	7.12
657.224	7.07
657.636	7.03
658.047	6.97
658.459	6.9
658.87	6.84
659.282	6.8
659.693	6.75
660.104	6.71
660.515	6.67
660.926	6.62
661.338	6.58
661.749	6.52
662.159	6.47
662.57	6.42
662.981	6.39
663.392	6.33
663.803	6.29
664.213	6.24
664.624	6.2
665.035	6.17
665.445	6.14
665.855	6.12
666.266	6.11
666.676	6.1
667.086	6.09
667.497	6.07
667.907	6.08
668.317	6.07
668.727	6.08
669.137	6.08
669.547	6.09
669.956	6.09
670.366	6.11
670.776	6.11
671.186	6.13
671.595	6.16
672.005	6.18
672.414	6.2
672.824	6.23
673.233	6.25
673.642	6.26
674.052	6.29
674.461	6.32
674.87	6.34
675.279	6.37
675.688	6.4
676.097	6.44
676.506	6.47
676.915	6.52
677.323	6.55
677.732	6.62
678.141	6.67
678.549	6.73
678.958	6.78
679.366	6.83
679.775	6.9
680.183	6.97
680.592	7.04
681	7.12
681.408	7.18
681.816	7.27
682.224	7.35
682.632	7.45
683.04	7.54
683.448	7.66
683.856	7.79
684.264	7.93
684.671	8.08
685.079	8.24
685.487	8.44
685.894	8.65
686.302	8.87
686.709	9.11
687.116	9.38
687.524	9.69
687.931	10
688.338	10.37
688.745	10.73
689.152	11.11
689.559	11.53
689.966	11.95
690.373	12.43
690.78	12.91
691.187	13.41
691.593	13.93
692	14.48
692.407	15.03
692.813	15.58
693.22	16.16
693.626	16.75
694.032	17.36
694.439	17.99
694.845	18.62
695.251	19.24
695.657	19.87
696.063	20.51
696.469	21.13
696.875	21.74
697.281	22.36
697.687	23
698.093	23.64
698.498	24.25
698.904	24.86
699.31	25.46
699.715	26.06
700.12	26.66
700.526	27.27
700.931	27.86
701.337	28.47
701.742	29.04
702.147	29.6
702.552	30.16
702.957	30.71
703.362	31.25
703.767	31.78
704.172	32.3
704.577	32.82
704.981	33.34
705.386	33.83
705.791	34.33
706.195	34.82
706.6	35.29
707.004	35.74
707.408	36.2
707.813	36.66
708.217	37.1
708.621	37.54
709.025	37.96
709.43	38.37
709.834	38.81
710.237	39.19
710.641	39.65
711.045	40.06
711.449	40.49
711.853	40.87
712.256	41.27
712.66	41.66
713.064	42.05
713.467	42.43
713.87	42.77
714.274	43.13
714.677	43.51
715.08	43.81
715.484	44.16
715.887	44.51
716.29	44.85
716.693	45.16
717.096	45.48
717.499	45.79
717.901	46.07
718.304	46.4
718.707	46.72
719.109	47
719.512	47.3
719.915	47.59
720.317	47.85
720.719	48.13
721.122	48.4
721.524	48.67
721.926	48.94
722.328	49.25
722.731	49.53
723.133	49.73
723.535	49.99
723.937	50.23
724.338	50.4
724.74	50.63
725.142	50.76
725.544	50.98
725.945	51.16
726.347	51.36
726.748	51.49
727.15	51.65
727.551	51.83
727.952	51.98
728.354	52.16
728.755	52.36
729.156	52.5
729.557	52.7
729.958	52.85
730.359	52.95
730.76	53.06
731.161	53.18
731.562	53.31
731.962	53.44
732.363	53.55
732.763	53.65
733.164	53.73
733.564	53.82
733.965	53.93
734.365	53.99
734.766	54.07
735.166	54.13
735.566	54.19
735.966	54.22
736.366	54.29
736.766	54.37
737.166	54.42
737.566	54.47
737.966	54.54
738.365	54.6
738.765	54.69
739.165	54.78
739.564	54.86
739.964	54.92
740.363	55
740.763	55.03
741.162	55.07
741.561	55.14
741.96	55.21
742.36	55.27
742.759	55.29
743.158	55.3
743.557	55.33
743.955	55.41
744.354	55.47
744.753	55.5
745.152	55.54
745.55	55.58
745.949	55.6
746.348	55.65
746.746	55.66
747.144	55.74
747.543	55.78
747.941	55.85
748.339	55.86
748.737	55.92
749.136	55.97
749.534	56.01
749.932	56.02
750.33	56.06
750.727	56.02
751.125	56.03
751.523	56
751.921	56.06
752.318	56.06
752.716	56.03
753.113	56.01
753.511	55.98
753.908	55.96
754.305	55.94
754.703	55.9
755.1	55.92
755.497	55.9
755.894	55.87
756.291	55.77
756.688	55.72
757.085	55.69
757.482	55.64
757.878	55.65
758.275	55.61
758.672	55.61
759.068	55.61
759.465	55.57
759.861	55.55
760.258	55.52
760.654	55.54
761.05	55.52
761.447	55.51
761.843	55.5
762.239	55.45
762.635	55.45
763.031	55.43
763.427	55.39
763.822	55.39
764.218	55.41
764.614	55.41
765.01	55.41
765.405	55.44
765.801	55.43
766.196	55.44
766.592	55.46
766.987	55.44
767.382	55.44
767.778	55.46
768.173	55.46
768.568	55.42
768.963	55.4
769.358	55.39
769.753	55.38
770.148	55.39
770.542	55.4
770.937	55.37
771.332	55.39
771.726	55.37
772.121	55.35
772.515	55.31
772.91	55.33
773.304	55.35
773.699	55.36
774.093	55.33
774.487	55.35
774.881	55.37
775.275	55.42
775.669	55.42
776.063	55.41
776.457	55.42
776.851	55.41
777.245	55.41
777.638	55.4
778.032	55.41
778.425	55.43
778.819	55.4
779.212	55.34
779.606	55.3
779.999	55.3
780.392	55.34
780.786	55.33
781.179	55.36
781.572	55.34
781.965	55.36
782.358	55.31
782.751	55.31
783.143	55.33
783.536	55.35
783.929	55.37
784.322	55.4
784.714	55.38
785.107	55.42
785.499	55.44
785.891	55.45
786.284	55.42
786.676	55.45
787.068	55.43
787.46	55.41
787.852	55.4
788.245	55.36
788.636	55.34
789.028	55.33
789.42	55.29
789.812	55.28
790.204	55.26
790.595	55.29
790.987	55.3
791.378	55.32
791.77	55.36
792.161	55.36
792.553	55.39
792.944	55.43
793.335	55.45
793.726	55.43
794.117	55.41
794.508	55.45
794.899	55.43
795.29	55.42
795.681	55.42
796.072	55.41
796.463	55.43
796.853	55.43
797.244	55.4
797.634	55.38
798.025	55.45
798.415	55.45
798.806	55.47
799.196	55.49
799.586	55.48
799.976	55.46
800.366	55.48
800.756	55.5
801.146	55.51
801.536	55.51
801.926	55.5
802.316	55.5
802.706	55.53
803.095	55.54
803.485	55.56
803.874	55.62
804.264	55.7
804.653	55.66
805.043	55.66
805.432	55.64
805.821	55.66
806.21	55.74
806.599	55.78
806.988	55.79
807.377	55.82
807.766	55.8
808.155	55.8
808.544	55.76
808.933	55.81
809.321	55.81
809.71	55.89
810.098	55.9
810.487	55.89
810.875	55.83
811.264	55.87
811.652	55.85
812.04	55.89
812.428	55.9
812.816	55.93
813.204	55.93
813.592	55.98
813.98	55.95
814.368	55.95
814.756	55.97
815.144	56.01
815.531	56.02
815.919	56.01
816.306	56
816.694	56.01
817.081	55.97
817.469	55.99
817.856	56.02
818.243	56.04
818.63	56.08
819.017	56.08
819.404	56.07
819.791	56.06
820.178	56.09
820.565	56.12
820.952	56.12
821.339	56.2
821.725	56.21
822.112	56.18
822.498	56.19
822.885	56.19
823.271	56.19
823.657	56.2
824.044	56.2
824.43	56.21
824.816	56.2
825.202	56.21
825.588	56.2
825.974	56.15
826.36	56.14
826.746	56.15
827.132	56.13
827.517	56.14
827.903	56.13
828.289	56.12
828.674	56.1
829.06	56.1
829.445	56.14
829.83	56.14
830.216	56.17
830.601	56.18
830.986	56.15
831.371	56.16
831.756	56.12
832.141	56.15
832.526	56.15
832.911	56.18
833.295	56.19
833.68	56.13
834.065	56.12
834.449	56.12
834.834	56.09
835.218	56.11
835.603	56.13
835.987	56.12
836.371	56.09
836.755	56.1
837.139	56.08
837.524	56.05
837.908	56.04
838.291	56.01
838.675	56.03
839.059	56.04
839.443	56.02
839.827	56
840.21	56.01
840.594	56.03
840.977	56.02
841.361	56.03
841.744	56.05
842.127	56.06
842.511	56.07
842.894	56.02
843.277	56.03
843.66	56.02
844.043	56.05
844.426	56.04
844.809	56.02
845.191	56
845.574	55.98
845.957	55.96
846.339	55.95
846.722	55.97
847.104	55.97
847.487	55.97
847.869	55.98
848.252	55.95
848.634	55.96
849.016	55.97
849.398	55.95
849.78	55.94
850.162	55.94
850.544	55.96
850.926	55.93
851.307	55.96
851.689	55.95
852.071	55.95
852.452	55.94
852.834	55.94
853.215	55.95
853.597	56
853.978	56
854.359	56
854.741	55.98
855.122	55.97
855.503	55.95
855.884	55.94
856.265	55.94
856.646	55.93
857.026	55.93
857.407	55.88
857.788	55.85
858.169	55.86
858.549	55.89
858.93	55.89
859.31	55.9
859.69	55.89
860.071	55.87
860.451	55.85
860.831	55.84
861.211	55.82
861.591	55.84
861.971	55.84
862.351	55.85
862.731	55.8
863.111	55.81
863.491	55.82
863.87	55.82
864.25	55.84
864.629	55.82
865.009	55.84
865.388	55.82
865.768	55.82
866.147	55.84
866.526	55.83
866.905	55.85
867.284	55.82
867.663	55.81
868.042	55.8
868.421	55.79
868.8	55.82
869.179	55.82
869.558	55.83
869.936	55.8
870.315	55.78
870.693	55.76
871.072	55.75
871.45	55.73
871.828	55.73
872.207	55.77
872.585	55.76
872.963	55.72
873.341	55.73
873.719	55.71
874.097	55.71
874.475	55.71
874.853	55.71
875.23	55.73
875.608	55.79
875.986	55.78
876.363	55.74
876.741	55.73
877.118	55.78
877.495	55.77
877.873	55.8
878.25	55.79
878.627	55.81
879.004	55.8
879.381	55.77
879.758	55.72
880.135	55.73
880.512	55.74
880.889	55.76
881.265	55.76
881.642	55.77
882.019	55.81
882.395	55.8
882.772	55.79
883.148	55.79
883.524	55.84
883.901	55.85
884.277	55.84
884.653	55.83
885.029	55.82
885.405	55.79
885.781	55.77
886.157	55.74
886.532	55.76
886.908	55.78
887.284	55.8
887.659	55.78
888.035	55.79
888.411	55.78
888.786	55.77
889.161	55.79
889.537	55.79
889.912	55.79
890.287	55.79
890.662	55.79
891.037	55.74
891.412	55.7
891.787	55.68
892.162	55.62
892.536	55.61
892.911	55.59
893.286	55.52
893.66	55.47
894.035	55.45
894.409	55.44
894.784	55.39
895.158	55.38
895.532	55.35
895.906	55.32
896.281	55.33
896.655	55.31
897.029	55.3
897.402	55.32
897.776	55.33
898.15	55.32
898.524	55.28
898.898	55.25
899.271	55.22
899.645	55.22
900.018	55.23
900.392	55.24
900.765	55.23
901.138	55.24
901.511	55.22
901.884	55.21
902.258	55.15
902.631	55.16
903.003	55.18
903.376	55.21
903.749	55.22
904.122	55.21
904.495	55.18
904.867	55.16
905.24	55.11
905.612	55.11
905.985	55.1
906.357	55.14
906.729	55.11
907.102	55.09
907.474	55.09
907.846	55.03
908.218	54.97
908.59	54.94
908.962	54.94
909.334	54.97
909.705	54.95
910.077	54.89
910.449	54.91
910.82	54.91
911.192	54.92
911.563	54.89
911.935	54.89
912.306	54.91
912.677	54.93
913.048	54.93
913.419	54.9
913.79	54.92
914.161	54.94
914.532	54.91
914.903	54.93
915.274	54.91
915.645	54.91
916.015	54.93
916.386	54.93
916.756	54.9
917.127	54.88
917.497	54.9
917.868	54.9
918.238	54.92
918.608	54.93
918.978	54.9
919.348	54.9
919.718	54.91
920.088	54.9
920.458	54.94
920.828	54.97
921.198	55.01
921.567	54.98
921.937	54.99
922.306	54.97
922.676	54.94
923.045	54.91
923.415	54.93
923.784	54.92
924.153	54.92
924.522	54.88
924.891	54.85
925.26	54.78
925.629	54.78
925.998	54.79
926.367	54.78
926.736	54.78
927.104	54.83
927.473	54.81
927.842	54.78
928.21	54.78
928.578	54.76
928.947	54.69
929.315	54.75
929.683	54.77
930.051	54.73
930.42	54.7
930.788	54.71
931.156	54.66
931.523	54.61
931.891	54.54
932.259	54.46
932.627	54.38
932.994	54.34
933.362	54.25
933.729	54.11
934.097	54.03
934.464	53.92
934.831	53.82
935.199	53.72
935.566	53.62
935.933	53.62
936.3	53.5
936.667	53.44
937.034	53.43
937.401	53.31
937.767	53.29
938.134	53.28
938.501	53.23
938.867	53.2
939.234	53.2
939.6	53.22
939.967	53.13
940.333	53.23
940.699	53.29
941.065	53.32
941.431	53.37
941.798	53.46
942.163	53.52
942.529	53.6
942.895	53.73
943.261	53.73
943.627	53.76
943.992	53.83
944.358	53.84
944.723	53.84
945.089	53.95
945.454	54
945.82	54.04
946.185	54.02
946.55	54.14
946.915	54.02
947.28	54.07
947.645	54.12
948.01	54.17
948.375	54.21
948.74	54.24
949.104	54.17
949.469	54.12
949.834	54.06
950.198	54.01
950.562	53.97
950.927	54.01
951.291	53.97
951.655	53.99
952.02	53.98
952.384	53.98
952.748	53.92
953.112	53.87
953.476	53.85
953.839	53.82
954.203	53.78
954.567	53.66
954.931	53.55
955.294	53.56
955.658	53.44
956.021	53.37
956.385	53.36
956.748	53.37
957.111	53.37
957.474	53.43
957.837	53.45
958.2	53.43
958.563	53.45
958.926	53.44
959.289	53.44
959.652	53.45
960.015	53.43
960.377	53.4
960.74	53.34
961.102	53.29
961.465	53.26
961.827	53.13
962.189	53.05
962.552	52.95
962.914	52.92
963.276	52.9
963.638	52.83
964	52.8
964.362	52.74
964.724	52.76
965.085	52.79
965.447	52.67
965.809	52.65
966.17	52.71
966.532	52.78
966.893	52.81
967.255	52.67
967.616	52.73
967.977	52.76
968.338	52.75
968.699	52.73
969.061	52.7
969.421	52.7
969.782	52.73
970.143	52.68
970.504	52.63
970.865	52.62
971.225	52.7
971.586	52.74
971.946	52.77
972.307	52.73
972.667	52.71
973.027	52.75
973.388	52.69
973.748	52.68
974.108	52.68
974.468	52.68
974.828	52.68
975.188	52.72
975.548	52.62
975.907	52.53
976.267	52.56
976.627	52.54
976.986	52.39
977.346	52.46
977.705	52.5
978.064	52.56
978.424	52.53
978.783	52.53
979.142	52.45
979.501	52.41
979.86	52.43
980.219	52.41
980.578	52.35
980.937	52.45
981.296	52.4
981.654	52.44
982.013	52.35
982.371	52.3
982.73	52.29
983.088	52.26
983.447	52.32
983.805	52.28
984.163	52.35
984.521	52.31
984.879	52.38
985.237	52.42
985.595	52.36
985.953	52.38
986.311	52.52
986.669	52.43
987.026	52.49
987.384	52.39
987.741	52.47
988.099	52.28
988.456	52.37
988.814	52.29
989.171	52.24
989.528	52.2
989.885	52.2
990.242	52.1
990.599	52.11
990.956	52.12
991.313	52.22
991.67	52.13
992.027	52.13
992.383	52.07
992.74	52
993.096	52.06
993.453	52.03
993.809	51.91
994.165	51.89
994.522	51.93
994.878	51.94
995.234	51.88
995.59	51.72
995.946	51.87
996.302	51.81
996.658	51.72
997.013	51.68
997.369	51.77
997.725	51.88
998.08	51.77
998.436	51.7
998.791	51.53
999.147	51.52
999.502	51.58
999.857	51.47
1000.212	51.51
1000.567	51.61
1000.922	51.45
1001.277	51.35
1001.632	51.2
1001.987	51.25
1002.342	51.32
1002.696	51.4
1003.051	51.35
1003.406	51.28
1003.76	51.22
1004.114	51.33
1004.469	51.18
1004.823	51.17
1005.177	51.23
1005.531	51.16
1005.885	51.21
1006.239	50.95
1006.593	50.85
1006.947	50.81
1007.301	50.95
1007.655	51.02
1008.008	50.75
1008.362	50.89
1008.715	50.86
1009.069	50.73
1009.422	50.56
1009.776	50.45
1010.129	50.43
1010.482	50.43
1010.835	50.55
1011.188	50.3
1011.541	50.08
1011.894	50.07
1012.247	49.87
1012.6	49.77
1012.952	49.78
1013.305	49.99
1013.657	50.01
1014.01	50.14
1014.362	50.13
1014.715	49.75
1015.067	49.79
1015.419	49.8
1015.771	49.85
1016.123	49.72
1016.475	50
1016.827	49.98
1017.179	49.8
1017.531	49.48
1017.883	49.64
1018.234	49.55
1018.586	49.39
1018.938	49.46
1019.289	49.52
1019.64	49.47
1019.992	49.55
1020.343	49.14
1020.694	48.79
1021.045	48.88
1021.396	49.17
1021.747	48.73
1022.098	48.65
1022.449	49.01
1022.8	48.78
1023.151	48.4
1023.501	48.41
1023.852	48.47
1024.202	48.66
1024.553	48.97
1024.903	48.69
1025.253	48.61
1025.604	48.53
1025.954	48.43
1026.304	48.4
1026.654	48.55
1027.004	48.82
1027.354	48.53
1027.703	48.35
1028.053	47.98
1028.403	47.37
1028.753	47.8
1029.102	47.54
1029.452	47.51
1029.801	47.38
1030.15	47.13
1030.499	46.85
897.758	578.46
901.051	586.77
904.343	594.63
907.636	584.97
910.928	577.94
914.22	583.35
917.511	573.89
920.803	548.75
924.094	526.79
927.384	530.88
930.675	517.88
933.965	512.3
937.255	512.13
940.544	488.53
943.834	467.83
947.123	459.86
950.411	437.04
953.7	427.16
956.988	415.57
960.276	397.52
963.563	392.61
966.851	369.91
970.138	363.52
973.424	340.4
976.711	335.13
979.997	324.17
983.283	316.35
986.568	307.16
989.853	298.71
993.138	287.6
996.423	282.64
999.708	273.26
1002.992	275.01
1006.275	264.68
1009.559	263.91
1012.842	255.81
1016.125	246.76
1019.408	242.81
1022.69	239.55
1025.972	236.91
1029.254	232.55
1032.536	228.78
1035.817	220.96
1039.098	217.62
1042.379	215.36
1045.659	211.14
1048.939	210.53
1052.219	206.27
1055.498	203.01
1058.778	200.44
1062.057	198.02
1065.335	196.9
1068.614	193.95
1071.892	193.34
1075.17	188.76
1078.447	185.72
1081.724	183.63
1085.001	179.33
1088.278	181.01
1091.554	179.27
1094.83	178.46
1098.106	174.78
1101.382	173.86
1104.657	173.04
1107.932	171.83
1111.206	172.28
1114.481	170.14
1117.755	168.98
1121.029	169.59
1124.302	166.89
1127.575	164.18
1130.848	163.47
1134.121	162.01
1137.393	160.98
1140.665	160.18
1143.937	158.91
1147.208	155.73
1150.48	155.13
1153.75	154.01
1157.021	151.72
1160.291	150.69
1163.561	150.55
1166.831	149.36
1170.101	149.05
1173.37	148.05
1176.639	146.1
1179.907	146.06
1183.176	145.7
1186.444	146.06
1189.711	145.19
1192.979	146.25
1196.246	146.87
1199.513	146.35
1202.78	146.15
1206.046	145.77
1209.312	147.61
1212.578	148.37
1215.843	150.44
1219.108	151.14
1222.373	153.67
1225.638	156.14
1228.902	159.36
1232.166	163.29
1235.43	165.94
1238.693	170.36
1241.956	175.11
1245.219	177.39
1248.482	178.18
1251.744	177.62
1255.006	178.94
1258.268	173.18
1261.529	171.8
1264.79	167.71
1268.051	164.79
1271.312	163.56
1274.572	160.38
1277.832	155.6
1281.092	153.36
1284.351	151.63
1287.61	151.28
1290.869	150.66
1294.128	150.83
1297.386	149.93
1300.644	149.91
1303.902	148.49
1307.159	146.54
1310.416	148.09
1313.673	150.12
1316.93	152.12
1320.186	153.91
1323.442	156.18
1326.697	158.28
1329.953	159.53
1333.208	165.26
1336.463	171.26
1339.717	175.71
1342.972	184.62
1346.226	188.89
1349.479	190.36
1352.733	197.96
1355.986	202.2
1359.238	205.42
1362.491	207.62
1365.743	214.43
1368.995	216.1
1372.247	216.11
1375.498	215.08
1378.749	223.24
1382	221.96
1385.251	221.68
1388.501	220.26
1391.751	222.04
1395	219.72
1398.25	221.39
1401.499	221.15
1404.748	219.07
1407.996	212.28
1411.244	212.22
1414.492	208.19
1417.74	202.17
1420.987	197.08
1424.234	193.36
1427.481	187.4
1430.728	182.51
1433.974	176.19
1437.22	170.04
1440.465	164.38
1443.711	160.53
1446.956	155.53
1450.201	149.13
1453.445	143.07
1456.689	139.08
1459.933	135.36
1463.177	128.99
1466.42	127
1469.663	124.07
1472.906	120.63
1476.148	116.16
1479.391	113.87
1482.633	111.82
1485.874	110.17
1489.115	109.57
1492.356	107.7
1495.597	105.52
1498.838	105.55
1502.078	104.26
1505.318	103.37
1508.557	102.96
1511.797	102.62
1515.036	101.77
1518.274	101.96
1521.513	100.24
1524.751	99.76
1527.989	100.78
1531.227	100.65
1534.464	100.66
1537.701	99.59
1540.938	99.28
1544.174	99.44
1547.41	100.26
1550.646	99.96
1553.882	99.68
1557.117	99.43
1560.352	99.23
1563.587	98.14
1566.821	98.32
1570.055	97.69
1573.289	97.53
1576.523	97.89
1579.756	97.5
1582.989	97.33
1586.222	97.25
1589.454	97.09
1592.686	97.62
1595.918	97.12
1599.15	97.35
1602.381	97.4
1605.612	97.5
1608.843	98.01
1612.073	98.01
1615.303	98.03
1618.533	97.75
1621.762	97.85
1624.992	97.97
1628.221	97.65
1631.449	98.42
1634.678	98.62
1637.906	98.5
1641.134	98.99
1644.361	98.92
1647.588	99.21
1650.815	99.37
1654.042	99.72
1657.269	99.82
1660.495	100.54
1663.72	100.31
1666.946	100.26
1670.171	100.74
1673.396	100.9
1676.621	100.68
1679.845	100.85
1683.069	100.47
1686.293	100.47
1689.517	100.77
1692.74	101.04
1695.963	100.87
1699.185	102.06
1702.408	101.57
1705.63	101.59
1708.852	102.25
1712.073	102.02
1715.294	102.12
1718.515	102.95
1721.736	103.03
1724.956	103.04
1728.176	102.81
1731.396	103.14
1734.616	102.82
1737.835	103.54
1741.054	102.61
1744.272	102.71
1747.491	102.74
1750.709	103.75
1753.927	103.21
1757.144	104.13
1760.361	104.09
1763.578	104.57
1766.795	104.62
1770.011	105.22
1773.227	105.49
1776.443	107.07
1779.658	106.78
1782.874	108.15
1786.089	107.46
1789.303	107.64
1792.518	108.04
1795.732	109.15
1798.945	110.79
1802.159	110.77
1805.372	111.58
1808.585	112.57
1811.797	113.16
1815.01	113.92
1818.222	113.95
1821.434	115.7
1824.645	116.64
1827.856	118.24
1831.067	118.37
1834.278	118.94
1837.488	120.25
1840.698	121.42
1843.908	121.32
1847.117	122.09
1850.326	123.24
1853.535	124.26
1856.744	124.55
1859.952	125.93
1863.16	125.42
1866.368	124.63
1869.575	124.31
1872.782	123.28
1875.989	122.53
1879.196	122.35
1882.402	121.54
1885.608	121.76
1888.814	120.77
1892.019	122.14
1895.224	120.04
1898.429	119.39
1901.634	120.48
1904.838	121.21
1908.042	122.74
1911.246	120.68
1914.449	121.14
1917.652	120.3
1920.855	121.08
1924.058	120.04
1927.26	118.5
1930.462	119.88
1933.664	120.47
1936.865	121.36
1940.066	119.33
1943.267	117.14
1946.467	119.9
1949.668	120.45
1952.868	121.02
1956.067	120.76
1959.267	121.36
1962.466	122.06
1965.665	122.76
1968.863	123.84
1972.061	123.58
1975.259	126.15
1978.457	128.8
1981.654	129.46
1984.852	130.01
1988.048	132.17
1991.245	134.07
1994.441	137.57
1997.637	139.15
2000.833	142.17
2004.028	144.02
2007.223	147.01
2010.418	150.69
2013.613	156.17
2016.807	159.73
2020.001	162.62
2023.194	167.37
2026.388	173.43
2029.581	183.23
2032.774	189.65
2035.966	194.43
2039.158	198.85
2042.35	204.64
2045.542	208.1
2048.733	216.79
2051.924	218.05
2055.115	223.16
2058.306	225.58
2061.496	227.77
2064.686	227.3
2067.875	224.38
2071.065	226.8
2074.254	228.54
2077.442	234.17
2080.631	236.37
2083.819	237.26
2087.007	241.42
2090.195	244.43
2093.382	244.54
2096.569	246.01
2099.756	248.46
2102.942	256.98
2106.128	262.5
2109.314	261.46
2112.5	262.36
2115.685	259.72
2118.87	259.21
2122.055	263.51
2125.239	268.34
2128.424	273.31
2131.608	272.41
2134.791	273.27
2137.974	273.27
2141.157	274.95
2144.34	279.57
2147.523	282.13
2150.705	290.24
2153.887	290
2157.068	290.9
2160.25	294.37
2163.431	294.98
2166.611	298.03
2169.792	302.52
2172.972	305.82
2176.152	306.47
2179.331	312.64
2182.511	314.6
2185.69	318.73
2188.868	329.9
2192.047	338.88
2195.225	343.14
2198.403	345.68
2201.58	344.4
2204.758	355.65
2207.935	360.29
2211.111	368.06
2214.288	371.25
2217.464	373.32
2220.64	374.65
2223.815	373.88
2226.991	367.75
2230.166	371.08
2233.34	383.34
2236.515	390.87
2239.689	384.6
2242.863	392.85
2246.036	390.87
2249.209	394.87
2252.382	396.13
2255.555	412.36
2258.727	414.55
2261.9	428.92
2265.071	433.95
2268.243	433.36
2271.414	446.29
2274.585	458.41
2277.756	453.63
2280.926	470.62
2284.096	475.53
2287.266	477.5
2290.436	468.38
2293.605	479.59
2296.774	493.2
2299.942	493.39
2303.111	503.81
2306.279	518.5
2309.447	516.1
2312.614	516.63
2315.781	527.39
2318.948	532.94
2322.115	543.78
2325.281	571.22
2328.447	569.2
2331.613	572.64
2334.779	580.33
2337.944	588.45
2341.109	591.76
2344.274	605
2347.438	626.95
2350.602	634.17
2353.766	675.82
2356.929	677.73
2360.092	683.17
2363.255	684.86
2366.418	697.33
2369.58	707.74
2372.742	716.93
2375.904	715.85
2379.066	731.53
2382.227	772.47
2385.388	771.39
2388.548	729.99
2391.709	721.21
2394.869	749.22
2398.029	751.09
2401.188	749.09
2404.347	775.95
2407.506	797.33
2410.665	771.86
2413.823	775.04
2416.981	776.84
2420.139	735.84
2423.296	793.14
2426.453	855.06
2429.61	802.33
2432.767	857.39
2435.923	886.75
2439.079	859.68
2442.235	874.15
2445.391	894.12
2448.546	886.27
2451.701	928.71
2454.855	997.26
2458.009	883.4
2461.163	885.44
2464.317	914.19
2467.471	890.34
2470.624	925.06
2473.777	900.8
2476.929	879.26
2480.082	936.22
2483.234	981.64
2486.385	994.44
2489.537	1019.05
2492.688	1129.92
2495.839	1110.74
2498.989	1135.96
2502.14	1140.71
2505.29	1089.71
2508.439	1215.33
2511.589	1241.87
2514.738	1203.72
2517.887	1195.03
2521.035	1127.22
2524.183	1104.2
2527.331	1091.85
2530.479	1072.44
2533.627	1092.59
