Data from N_3_div_il_4n_Splice17_16.txt Node
Date: Sat Feb 29 14:59:58 EST 2020
User: sa697716
Spectrometer: FLMS03696
Trigger mode: 0
Integration Time (sec): 3.180400E-1
Scans to average: 20
Electric dark correction enabled: true
Nonlinearity correction enabled: true
Boxcar width: 5
XAxis mode: Wavelengths
Number of Pixels in Spectrum: 2048
>>>>>Begin Spectral Data<<<<<
187.83	109.13
188.298	117.18
188.766	111.61
189.233	94.97
189.701	91.17
190.169	104.2
190.636	121.56
191.104	148.14
191.571	823.88
192.039	751.53
192.506	-867.77
192.974	-2132.58
193.441	-50.89
193.908	99.83
194.375	71.22
194.842	144.23
195.31	142.22
195.777	81.03
196.244	52.39
196.711	56.04
197.177	53.8
197.644	54.64
198.111	53.91
198.578	53.78
199.045	54.87
199.511	54.52
199.978	54.52
200.445	54.01
200.911	54.92
201.378	54.88
201.844	55.71
202.31	56.56
202.777	56.55
203.243	57.27
203.709	56.8
204.176	56.05
204.642	56.1
205.108	55.82
205.574	56.29
206.04	55.95
206.506	55.81
206.972	54.93
207.438	54.01
207.903	53.12
208.369	51.76
208.835	51.24
209.301	50.73
209.766	49.96
210.232	49.28
210.697	48.26
211.163	47.15
211.628	46.22
212.094	45.39
212.559	44.34
213.024	43.57
213.49	42.53
213.955	41.61
214.42	40.35
214.885	38.61
215.35	36.58
215.815	34.22
216.28	32.04
216.745	29.34
217.21	26.64
217.675	24.17
218.14	21.81
218.604	19.77
219.069	18.04
219.534	16.42
219.998	15.22
220.463	14.26
220.927	13.4
221.392	12.58
221.856	11.91
222.32	11.38
222.785	10.92
223.249	10.49
223.713	10.16
224.177	9.8
224.642	9.51
225.106	9.23
225.57	8.96
226.034	8.73
226.497	8.51
226.961	8.31
227.425	8.06
227.889	7.84
228.353	7.64
228.816	7.44
229.28	7.23
229.744	7.1
230.207	6.96
230.671	6.79
231.134	6.63
231.597	6.49
232.061	6.35
232.524	6.26
232.987	6.16
233.45	6.05
233.914	5.96
234.377	5.89
234.84	5.8
235.303	5.72
235.766	5.66
236.229	5.59
236.691	5.54
237.154	5.47
237.617	5.4
238.08	5.33
238.542	5.28
239.005	5.23
239.468	5.15
239.93	5.11
240.393	5.04
240.855	4.97
241.317	4.92
241.78	4.87
242.242	4.8
242.704	4.74
243.166	4.69
243.629	4.64
244.091	4.59
244.553	4.56
245.015	4.51
245.477	4.46
245.939	4.42
246.4	4.37
246.862	4.33
247.324	4.31
247.786	4.28
248.247	4.24
248.709	4.19
249.17	4.15
249.632	4.1
250.093	4.04
250.555	4.01
251.016	3.99
251.477	3.96
251.939	3.92
252.4	3.88
252.861	3.85
253.322	3.8
253.783	3.78
254.244	3.75
254.705	3.72
255.166	3.71
255.627	3.67
256.088	3.63
256.549	3.6
257.009	3.57
257.47	3.54
257.931	3.51
258.391	3.48
258.852	3.44
259.312	3.4
259.773	3.37
260.233	3.33
260.694	3.3
261.154	3.27
261.614	3.24
262.074	3.22
262.534	3.17
262.994	3.15
263.455	3.13
263.915	3.1
264.374	3.07
264.834	3.05
265.294	3.02
265.754	2.99
266.214	2.97
266.673	2.95
267.133	2.92
267.593	2.91
268.052	2.88
268.512	2.86
268.971	2.84
269.431	2.84
269.89	2.82
270.349	2.81
270.809	2.8
271.268	2.79
271.727	2.77
272.186	2.76
272.645	2.75
273.104	2.74
273.563	2.73
274.022	2.73
274.481	2.71
274.94	2.7
275.399	2.69
275.857	2.68
276.316	2.67
276.775	2.66
277.233	2.65
277.692	2.65
278.15	2.64
278.609	2.63
279.067	2.62
279.525	2.6
279.984	2.59
280.442	2.59
280.9	2.59
281.358	2.58
281.816	2.57
282.274	2.57
282.732	2.56
283.19	2.57
283.648	2.57
284.106	2.56
284.564	2.57
285.021	2.56
285.479	2.55
285.937	2.55
286.394	2.54
286.852	2.54
287.309	2.53
287.767	2.52
288.224	2.51
288.682	2.5
289.139	2.49
289.596	2.48
290.053	2.46
290.511	2.45
290.968	2.43
291.425	2.42
291.882	2.41
292.339	2.4
292.796	2.38
293.252	2.36
293.709	2.35
294.166	2.34
294.623	2.33
295.079	2.33
295.536	2.32
295.992	2.31
296.449	2.3
296.905	2.29
297.362	2.28
297.818	2.27
298.274	2.26
298.731	2.25
299.187	2.25
299.643	2.23
300.099	2.23
300.555	2.22
301.011	2.21
301.467	2.2
301.923	2.2
302.379	2.2
302.835	2.2
303.291	2.2
303.746	2.19
304.202	2.19
304.658	2.19
305.113	2.18
305.569	2.19
306.024	2.19
306.479	2.18
306.935	2.19
307.39	2.19
307.845	2.19
308.301	2.19
308.756	2.2
309.211	2.2
309.666	2.21
310.121	2.21
310.576	2.2
311.031	2.21
311.486	2.2
311.94	2.2
312.395	2.2
312.85	2.19
313.305	2.19
313.759	2.19
314.214	2.19
314.668	2.18
315.123	2.18
315.577	2.18
316.032	2.17
316.486	2.17
316.94	2.18
317.394	2.18
317.849	2.17
318.303	2.16
318.757	2.15
319.211	2.14
319.665	2.13
320.119	2.13
320.572	2.13
321.026	2.12
321.48	2.11
321.934	2.1
322.387	2.09
322.841	2.09
323.295	2.09
323.748	2.08
324.202	2.09
324.655	2.09
325.108	2.07
325.562	2.07
326.015	2.06
326.468	2.06
326.921	2.05
327.374	2.06
327.827	2.06
328.28	2.05
328.733	2.05
329.186	2.05
329.639	2.04
330.092	2.04
330.545	2.04
330.997	2.05
331.45	2.05
331.903	2.04
332.355	2.03
332.808	2.03
333.26	2.04
333.713	2.05
334.165	2.05
334.617	2.06
335.069	2.06
335.522	2.07
335.974	2.07
336.426	2.08
336.878	2.08
337.33	2.09
337.782	2.09
338.234	2.09
338.686	2.09
339.137	2.09
339.589	2.09
340.041	2.08
340.493	2.06
340.944	2.06
341.396	2.04
341.847	2.04
342.299	2.02
342.75	2
343.201	2
343.653	1.98
344.104	1.98
344.555	1.97
345.006	1.96
345.457	1.95
345.908	1.95
346.359	1.95
346.81	1.95
347.261	1.95
347.712	1.96
348.163	1.95
348.613	1.95
349.064	1.92
349.515	1.92
349.965	1.91
350.416	1.91
350.866	1.91
351.317	1.9
351.767	1.91
352.217	1.9
352.668	1.9
353.118	1.91
353.568	1.92
354.018	1.93
354.468	1.93
354.918	1.95
355.368	1.96
355.818	1.95
356.268	1.96
356.718	1.96
357.168	1.96
357.617	1.96
358.067	1.96
358.517	1.97
358.966	1.99
359.416	2.01
359.865	2.01
360.315	2.03
360.764	2.04
361.213	2.05
361.663	2.06
362.112	2.09
362.561	2.1
363.01	2.12
363.459	2.12
363.908	2.12
364.357	2.14
364.806	2.15
365.255	2.17
365.703	2.19
366.152	2.21
366.601	2.23
367.05	2.25
367.498	2.26
367.947	2.3
368.395	2.33
368.844	2.35
369.292	2.37
369.74	2.4
370.189	2.43
370.637	2.46
371.085	2.48
371.533	2.51
371.981	2.53
372.429	2.55
372.877	2.57
373.325	2.59
373.773	2.61
374.221	2.64
374.669	2.66
375.116	2.68
375.564	2.7
376.012	2.73
376.459	2.75
376.907	2.78
377.354	2.82
377.801	2.84
378.249	2.88
378.696	2.92
379.143	2.94
379.591	2.97
380.038	3
380.485	3.04
380.932	3.07
381.379	3.09
381.826	3.12
382.273	3.14
382.72	3.17
383.166	3.2
383.613	3.23
384.06	3.26
384.506	3.29
384.953	3.3
385.4	3.32
385.846	3.33
386.292	3.36
386.739	3.38
387.185	3.41
387.631	3.43
388.078	3.45
388.524	3.45
388.97	3.47
389.416	3.48
389.862	3.49
390.308	3.51
390.754	3.53
391.2	3.55
391.645	3.57
392.091	3.58
392.537	3.59
392.983	3.6
393.428	3.62
393.874	3.63
394.319	3.64
394.765	3.64
395.21	3.64
395.655	3.64
396.101	3.65
396.546	3.64
396.991	3.64
397.436	3.63
397.881	3.64
398.326	3.66
398.771	3.67
399.216	3.69
399.661	3.72
400.106	3.74
400.551	3.73
400.995	3.72
401.44	3.72
401.885	3.72
402.329	3.73
402.774	3.71
403.218	3.7
403.663	3.69
404.107	3.66
404.551	3.66
404.995	3.64
405.44	3.64
405.884	3.63
406.328	3.62
406.772	3.63
407.216	3.62
407.66	3.64
408.104	3.65
408.547	3.64
408.991	3.64
409.435	3.63
409.879	3.64
410.322	3.65
410.766	3.65
411.209	3.66
411.653	3.64
412.096	3.64
412.54	3.63
412.983	3.63
413.426	3.63
413.869	3.65
414.312	3.67
414.756	3.67
415.199	3.67
415.642	3.7
416.085	3.7
416.527	3.74
416.97	3.75
417.413	3.74
417.856	3.74
418.298	3.73
418.741	3.72
419.184	3.72
419.626	3.71
420.069	3.71
420.511	3.71
420.953	3.7
421.396	3.69
421.838	3.69
422.28	3.71
422.722	3.73
423.164	3.75
423.606	3.75
424.048	3.75
424.49	3.75
424.932	3.75
425.374	3.74
425.816	3.74
426.258	3.72
426.699	3.7
427.141	3.67
427.582	3.66
428.024	3.66
428.465	3.66
428.907	3.67
429.348	3.67
429.789	3.67
430.231	3.66
430.672	3.66
431.113	3.67
431.554	3.69
431.995	3.72
432.436	3.71
432.877	3.71
433.318	3.7
433.759	3.68
434.2	3.7
434.64	3.71
435.081	3.72
435.522	3.76
435.962	3.78
436.403	3.8
436.843	3.79
437.284	3.82
437.724	3.85
438.164	3.86
438.604	3.92
439.045	3.91
439.485	3.91
439.925	3.93
440.365	3.89
440.805	3.89
441.245	3.87
441.685	3.87
442.125	3.86
442.564	3.85
443.004	3.86
443.444	3.85
443.883	3.87
444.323	3.86
444.762	3.89
445.202	3.94
445.641	3.93
446.081	3.97
446.52	3.98
446.959	4
447.398	4.03
447.837	4.05
448.276	4.05
448.716	4.04
449.154	4.07
449.593	4.07
450.032	4.06
450.471	4.09
450.91	4.08
451.349	4.09
451.787	4.08
452.226	4.06
452.664	4.04
453.103	4.04
453.541	4.03
453.98	4
454.418	3.98
454.856	3.94
455.295	3.91
455.733	3.88
456.171	3.86
456.609	3.84
457.047	3.83
457.485	3.82
457.923	3.8
458.361	3.79
458.798	3.8
459.236	3.8
459.674	3.81
460.111	3.82
460.549	3.82
460.987	3.81
461.424	3.81
461.862	3.8
462.299	3.81
462.736	3.81
463.173	3.81
463.611	3.8
464.048	3.81
464.485	3.79
464.922	3.77
465.359	3.78
465.796	3.77
466.233	3.78
466.67	3.79
467.106	3.78
467.543	3.79
467.98	3.79
468.416	3.8
468.853	3.8
469.29	3.82
469.726	3.83
470.162	3.83
470.599	3.84
471.035	3.85
471.471	3.83
471.907	3.85
472.344	3.83
472.78	3.83
473.216	3.82
473.652	3.81
474.088	3.8
474.523	3.79
474.959	3.77
475.395	3.77
475.831	3.76
476.266	3.75
476.702	3.74
477.138	3.74
477.573	3.72
478.008	3.72
478.444	3.7
478.879	3.71
479.314	3.7
479.75	3.7
480.185	3.69
480.62	3.68
481.055	3.67
481.49	3.66
481.925	3.65
482.36	3.64
482.795	3.62
483.229	3.63
483.664	3.62
484.099	3.61
484.534	3.6
484.968	3.6
485.403	3.59
485.837	3.58
486.271	3.59
486.706	3.58
487.14	3.6
487.574	3.6
488.009	3.61
488.443	3.61
488.877	3.62
489.311	3.62
489.745	3.64
490.179	3.64
490.613	3.66
491.046	3.67
491.48	3.69
491.914	3.7
492.348	3.72
492.781	3.73
493.215	3.74
493.648	3.77
494.082	3.81
494.515	3.83
494.948	3.86
495.382	3.88
495.815	3.93
496.248	3.96
496.681	3.99
497.114	4.04
497.547	4.08
497.98	4.13
498.413	4.17
498.846	4.22
499.279	4.26
499.711	4.31
500.144	4.37
500.577	4.42
501.009	4.49
501.442	4.56
501.874	4.61
502.306	4.69
502.739	4.75
503.171	4.83
503.603	4.91
504.036	5
504.468	5.1
504.9	5.2
505.332	5.3
505.764	5.41
506.196	5.51
506.627	5.63
507.059	5.74
507.491	5.87
507.923	5.99
508.354	6.11
508.786	6.25
509.217	6.36
509.649	6.5
510.08	6.65
510.512	6.79
510.943	6.94
511.374	7.08
511.805	7.23
512.237	7.39
512.668	7.56
513.099	7.73
513.53	7.9
513.961	8.09
514.391	8.26
514.822	8.43
515.253	8.6
515.684	8.78
516.114	8.98
516.545	9.16
516.975	9.35
517.406	9.54
517.836	9.72
518.267	9.9
518.697	10.09
519.127	10.28
519.558	10.46
519.988	10.66
520.418	10.84
520.848	11.03
521.278	11.22
521.708	11.39
522.138	11.56
522.567	11.72
522.997	11.88
523.427	12.03
523.857	12.19
524.286	12.35
524.716	12.49
525.145	12.65
525.575	12.77
526.004	12.92
526.433	13.06
526.863	13.19
527.292	13.32
527.721	13.46
528.15	13.57
528.579	13.69
529.008	13.8
529.437	13.92
529.866	14.01
530.295	14.12
530.724	14.22
531.152	14.32
531.581	14.4
532.01	14.48
532.438	14.54
532.867	14.62
533.295	14.7
533.723	14.77
534.152	14.81
534.58	14.86
535.008	14.92
535.436	14.95
535.865	14.97
536.293	15.01
536.721	15.06
537.149	15.1
537.576	15.13
538.004	15.16
538.432	15.18
538.86	15.22
539.287	15.24
539.715	15.26
540.143	15.28
540.57	15.31
540.998	15.34
541.425	15.35
541.852	15.37
542.28	15.38
542.707	15.39
543.134	15.41
543.561	15.41
543.988	15.42
544.415	15.44
544.842	15.46
545.269	15.48
545.696	15.49
546.123	15.49
546.549	15.51
546.976	15.54
547.403	15.55
547.829	15.58
548.256	15.61
548.682	15.63
549.108	15.64
549.535	15.65
549.961	15.66
550.387	15.67
550.813	15.68
551.24	15.7
551.666	15.69
552.092	15.68
552.518	15.67
552.943	15.66
553.369	15.66
553.795	15.64
554.221	15.62
554.646	15.6
555.072	15.58
555.498	15.55
555.923	15.52
556.349	15.47
556.774	15.44
557.199	15.41
557.625	15.37
558.05	15.31
558.475	15.25
558.9	15.2
559.325	15.13
559.75	15.08
560.175	15.01
560.6	14.92
561.025	14.85
561.449	14.79
561.874	14.69
562.299	14.6
562.723	14.53
563.148	14.44
563.572	14.37
563.997	14.27
564.421	14.16
564.846	14.08
565.27	13.98
565.694	13.89
566.118	13.78
566.542	13.69
566.966	13.59
567.39	13.47
567.814	13.38
568.238	13.25
568.662	13.14
569.086	13.02
569.509	12.9
569.933	12.78
570.357	12.66
570.78	12.55
571.204	12.42
571.627	12.31
572.05	12.21
572.474	12.09
572.897	12
573.32	11.89
573.743	11.81
574.166	11.72
574.589	11.64
575.012	11.58
575.435	11.5
575.858	11.44
576.281	11.38
576.704	11.3
577.126	11.22
577.549	11.16
577.972	11.11
578.394	11.04
578.817	10.99
579.239	10.92
579.661	10.86
580.084	10.81
580.506	10.76
580.928	10.69
581.35	10.64
581.772	10.61
582.194	10.56
582.616	10.51
583.038	10.46
583.46	10.41
583.882	10.38
584.303	10.34
584.725	10.29
585.147	10.22
585.568	10.19
585.99	10.17
586.411	10.13
586.833	10.1
587.254	10.07
587.675	10.05
588.096	10.02
588.518	9.98
588.939	9.95
589.36	9.93
589.781	9.93
590.202	9.9
590.623	9.85
591.043	9.81
591.464	9.78
591.885	9.75
592.305	9.73
592.726	9.7
593.147	9.69
593.567	9.67
593.987	9.64
594.408	9.61
594.828	9.59
595.248	9.57
595.669	9.57
596.089	9.55
596.509	9.51
596.929	9.47
597.349	9.44
597.769	9.41
598.189	9.39
598.608	9.36
599.028	9.33
599.448	9.3
599.867	9.27
600.287	9.22
600.706	9.18
601.126	9.14
601.545	9.11
601.965	9.06
602.384	9.02
602.803	8.97
603.222	8.92
603.641	8.88
604.061	8.83
604.48	8.79
604.898	8.76
605.317	8.71
605.736	8.67
606.155	8.62
606.574	8.6
606.992	8.55
607.411	8.52
607.829	8.44
608.248	8.4
608.666	8.35
609.085	8.3
609.503	8.24
609.921	8.19
610.339	8.13
610.758	8.09
611.176	8.03
611.594	7.99
612.012	7.92
612.43	7.93
612.847	7.87
613.265	7.83
613.683	7.78
614.101	7.73
614.518	7.69
614.936	7.65
615.353	7.61
615.771	7.57
616.188	7.52
616.606	7.49
617.023	7.44
617.44	7.4
617.857	7.37
618.274	7.34
618.691	7.32
619.108	7.29
619.525	7.25
619.942	7.24
620.359	7.22
620.776	7.19
621.192	7.18
621.609	7.15
622.026	7.14
622.442	7.12
622.859	7.09
623.275	7.1
623.691	7.08
624.108	7.08
624.524	7.06
624.94	7.05
625.356	7.04
625.772	7.03
626.188	7.03
626.604	7.01
627.02	7.02
627.436	7.02
627.852	7.01
628.268	7
628.683	6.99
629.099	6.99
629.514	6.98
629.93	6.97
630.345	6.94
630.761	6.92
631.176	6.9
631.591	6.87
632.007	6.84
632.422	6.8
632.837	6.77
633.252	6.74
633.667	6.7
634.082	6.67
634.497	6.61
634.911	6.57
635.326	6.53
635.741	6.48
636.155	6.43
636.57	6.39
636.984	6.34
637.399	6.28
637.813	6.22
638.228	6.16
638.642	6.1
639.056	6.04
639.47	5.98
639.884	5.91
640.298	5.85
640.712	5.79
641.126	5.72
641.54	5.64
641.954	5.6
642.368	5.52
642.781	5.46
643.195	5.39
643.609	5.33
644.022	5.28
644.436	5.23
644.849	5.18
645.262	5.14
645.676	5.09
646.089	5.04
646.502	4.98
646.915	4.95
647.328	4.9
647.741	4.87
648.154	4.83
648.567	4.8
648.98	4.76
649.393	4.74
649.805	4.69
650.218	4.66
650.631	4.64
651.043	4.62
651.456	4.59
651.868	4.57
652.28	4.55
652.693	4.52
653.105	4.5
653.517	4.48
653.929	4.46
654.341	4.44
654.753	4.4
655.165	4.37
655.577	4.34
655.989	4.3
656.401	4.27
656.813	4.22
657.224	4.2
657.636	4.16
658.047	4.13
658.459	4.07
658.87	4.01
659.282	3.99
659.693	3.94
660.104	3.89
660.515	3.85
660.926	3.81
661.338	3.78
661.749	3.74
662.159	3.68
662.57	3.64
662.981	3.62
663.392	3.59
663.803	3.57
664.213	3.55
664.624	3.54
665.035	3.52
665.445	3.49
665.855	3.47
666.266	3.47
666.676	3.47
667.086	3.46
667.497	3.44
667.907	3.42
668.317	3.4
668.727	3.38
669.137	3.36
669.547	3.37
669.956	3.37
670.366	3.38
670.776	3.36
671.186	3.36
671.595	3.37
672.005	3.39
672.414	3.4
672.824	3.42
673.233	3.45
673.642	3.45
674.052	3.45
674.461	3.45
674.87	3.46
675.279	3.47
675.688	3.48
676.097	3.49
676.506	3.51
676.915	3.54
677.323	3.55
677.732	3.58
678.141	3.62
678.549	3.66
678.958	3.7
679.366	3.73
679.775	3.78
680.183	3.82
680.592	3.86
681	3.9
681.408	3.94
681.816	3.98
682.224	4.04
682.632	4.1
683.04	4.17
683.448	4.23
683.856	4.32
684.264	4.43
684.671	4.53
685.079	4.64
685.487	4.77
685.894	4.9
686.302	5.06
686.709	5.22
687.116	5.39
687.524	5.57
687.931	5.77
688.338	5.99
688.745	6.21
689.152	6.47
689.559	6.74
689.966	7
690.373	7.31
690.78	7.62
691.187	7.93
691.593	8.25
692	8.6
692.407	8.94
692.813	9.3
693.22	9.66
693.626	10.02
694.032	10.4
694.439	10.79
694.845	11.17
695.251	11.56
695.657	11.95
696.063	12.34
696.469	12.73
696.875	13.12
697.281	13.51
697.687	13.9
698.093	14.29
698.498	14.68
698.904	15.06
699.31	15.44
699.715	15.8
700.12	16.17
700.526	16.56
700.931	16.92
701.337	17.27
701.742	17.63
702.147	17.98
702.552	18.34
702.957	18.7
703.362	19.04
703.767	19.36
704.172	19.7
704.577	20
704.981	20.31
705.386	20.64
705.791	20.95
706.195	21.27
706.6	21.57
707.004	21.86
707.408	22.14
707.813	22.43
708.217	22.7
708.621	22.99
709.025	23.29
709.43	23.56
709.834	23.84
710.237	24.09
710.641	24.36
711.045	24.59
711.449	24.82
711.853	25.07
712.256	25.31
712.66	25.56
713.064	25.78
713.467	26.03
713.87	26.25
714.274	26.48
714.677	26.7
715.08	26.9
715.484	27.13
715.887	27.35
716.29	27.56
716.693	27.76
717.096	27.97
717.499	28.18
717.901	28.36
718.304	28.58
718.707	28.77
719.109	28.97
719.512	29.18
719.915	29.36
720.317	29.54
720.719	29.73
721.122	29.92
721.524	30.08
721.926	30.24
722.328	30.42
722.731	30.55
723.133	30.69
723.535	30.84
723.937	30.96
724.338	31.09
724.74	31.21
725.142	31.25
725.544	31.35
725.945	31.45
726.347	31.58
726.748	31.64
727.15	31.74
727.551	31.85
727.952	31.96
728.354	32.08
728.755	32.19
729.156	32.3
729.557	32.47
729.958	32.61
730.359	32.71
730.76	32.77
731.161	32.89
731.562	32.99
731.962	33.07
732.363	33.11
732.763	33.18
733.164	33.26
733.564	33.28
733.965	33.33
734.365	33.34
734.766	33.4
735.166	33.47
735.566	33.48
735.966	33.52
736.366	33.54
736.766	33.61
737.166	33.65
737.566	33.67
737.966	33.75
738.365	33.78
738.765	33.83
739.165	33.86
739.564	33.89
739.964	33.94
740.363	33.98
740.763	34.03
741.162	34.05
741.561	34.09
741.96	34.14
742.36	34.18
742.759	34.2
743.158	34.22
743.557	34.26
743.955	34.3
744.354	34.35
744.753	34.39
745.152	34.42
745.55	34.43
745.949	34.45
746.348	34.46
746.746	34.46
747.144	34.5
747.543	34.53
747.941	34.54
748.339	34.59
748.737	34.59
749.136	34.58
749.534	34.6
749.932	34.63
750.33	34.64
750.727	34.66
751.125	34.68
751.523	34.67
751.921	34.7
752.318	34.69
752.716	34.66
753.113	34.65
753.511	34.65
753.908	34.65
754.305	34.62
754.703	34.6
755.1	34.56
755.497	34.55
755.894	34.54
756.291	34.48
756.688	34.46
757.085	34.44
757.482	34.43
757.878	34.41
758.275	34.39
758.672	34.39
759.068	34.38
759.465	34.41
759.861	34.38
760.258	34.37
760.654	34.39
761.05	34.41
761.447	34.41
761.843	34.41
762.239	34.4
762.635	34.41
763.031	34.41
763.427	34.41
763.822	34.4
764.218	34.42
764.614	34.42
765.01	34.44
765.405	34.42
765.801	34.43
766.196	34.45
766.592	34.48
766.987	34.47
767.382	34.49
767.778	34.51
768.173	34.5
768.568	34.49
768.963	34.52
769.358	34.53
769.753	34.57
770.148	34.58
770.542	34.58
770.937	34.57
771.332	34.56
771.726	34.56
772.121	34.53
772.515	34.55
772.91	34.57
773.304	34.54
773.699	34.53
774.093	34.5
774.487	34.52
774.881	34.53
775.275	34.54
775.669	34.56
776.063	34.56
776.457	34.57
776.851	34.58
777.245	34.58
777.638	34.61
778.032	34.63
778.425	34.64
778.819	34.63
779.212	34.61
779.606	34.59
779.999	34.58
780.392	34.59
780.786	34.61
781.179	34.61
781.572	34.58
781.965	34.57
782.358	34.56
782.751	34.57
783.143	34.55
783.536	34.58
783.929	34.63
784.322	34.64
784.714	34.67
785.107	34.68
785.499	34.67
785.891	34.68
786.284	34.69
786.676	34.7
787.068	34.69
787.46	34.72
787.852	34.71
788.245	34.72
788.636	34.72
789.028	34.7
789.42	34.7
789.812	34.71
790.204	34.71
790.595	34.73
790.987	34.73
791.378	34.73
791.77	34.76
792.161	34.75
792.553	34.72
792.944	34.73
793.335	34.75
793.726	34.75
794.117	34.76
794.508	34.77
794.899	34.76
795.29	34.77
795.681	34.76
796.072	34.74
796.463	34.71
796.853	34.72
797.244	34.72
797.634	34.68
798.025	34.68
798.415	34.7
798.806	34.72
799.196	34.72
799.586	34.71
799.976	34.73
800.366	34.74
800.756	34.77
801.146	34.8
801.536	34.79
801.926	34.81
802.316	34.83
802.706	34.85
803.095	34.86
803.485	34.88
803.874	34.9
804.264	34.92
804.653	34.9
805.043	34.92
805.432	34.89
805.821	34.91
806.21	34.92
806.599	34.92
806.988	34.9
807.377	34.88
807.766	34.88
808.155	34.88
808.544	34.89
808.933	34.89
809.321	34.89
809.71	34.93
810.098	34.9
810.487	34.9
810.875	34.88
811.264	34.9
811.652	34.9
812.04	34.89
812.428	34.88
812.816	34.87
813.204	34.89
813.592	34.88
813.98	34.87
814.368	34.87
814.756	34.87
815.144	34.9
815.531	34.92
815.919	34.91
816.306	34.91
816.694	34.94
817.081	34.93
817.469	34.93
817.856	34.95
818.243	34.97
818.63	34.99
819.017	35.01
819.404	34.97
819.791	34.96
820.178	34.98
820.565	35
820.952	34.99
821.339	35
821.725	34.99
822.112	34.98
822.498	35
822.885	34.98
823.271	34.97
823.657	34.97
824.044	34.97
824.43	34.96
824.816	34.92
825.202	34.87
825.588	34.88
825.974	34.88
826.36	34.85
826.746	34.85
827.132	34.83
827.517	34.8
827.903	34.8
828.289	34.8
828.674	34.8
829.06	34.82
829.445	34.87
829.83	34.86
830.216	34.86
830.601	34.83
830.986	34.83
831.371	34.85
831.756	34.84
832.141	34.83
832.526	34.81
832.911	34.79
833.295	34.79
833.68	34.76
834.065	34.76
834.449	34.72
834.834	34.72
835.218	34.69
835.603	34.68
835.987	34.66
836.371	34.66
836.755	34.64
837.139	34.62
837.524	34.6
837.908	34.57
838.291	34.55
838.675	34.55
839.059	34.56
839.443	34.57
839.827	34.55
840.21	34.58
840.594	34.58
840.977	34.58
841.361	34.57
841.744	34.58
842.127	34.58
842.511	34.57
842.894	34.57
843.277	34.56
843.66	34.53
844.043	34.54
844.426	34.52
844.809	34.51
845.191	34.49
845.574	34.5
845.957	34.48
846.339	34.47
846.722	34.48
847.104	34.47
847.487	34.47
847.869	34.45
848.252	34.44
848.634	34.45
849.016	34.45
849.398	34.44
849.78	34.46
850.162	34.45
850.544	34.5
850.926	34.49
851.307	34.51
851.689	34.5
852.071	34.52
852.452	34.51
852.834	34.52
853.215	34.52
853.597	34.53
853.978	34.5
854.359	34.48
854.741	34.46
855.122	34.45
855.503	34.44
855.884	34.42
856.265	34.42
856.646	34.41
857.026	34.4
857.407	34.37
857.788	34.39
858.169	34.39
858.549	34.41
858.93	34.42
859.31	34.43
859.69	34.42
860.071	34.44
860.451	34.44
860.831	34.45
861.211	34.46
861.591	34.49
861.971	34.48
862.351	34.52
862.731	34.52
863.111	34.52
863.491	34.53
863.87	34.53
864.25	34.55
864.629	34.55
865.009	34.55
865.388	34.54
865.768	34.51
866.147	34.54
866.526	34.52
866.905	34.52
867.284	34.54
867.663	34.54
868.042	34.55
868.421	34.53
868.8	34.54
869.179	34.57
869.558	34.58
869.936	34.58
870.315	34.55
870.693	34.55
871.072	34.52
871.45	34.5
871.828	34.5
872.207	34.5
872.585	34.5
872.963	34.48
873.341	34.46
873.719	34.47
874.097	34.49
874.475	34.51
874.853	34.54
875.23	34.54
875.608	34.56
875.986	34.54
876.363	34.54
876.741	34.55
877.118	34.57
877.495	34.57
877.873	34.53
878.25	34.52
878.627	34.51
879.004	34.48
879.381	34.47
879.758	34.44
880.135	34.47
880.512	34.47
880.889	34.49
881.265	34.49
881.642	34.49
882.019	34.52
882.395	34.51
882.772	34.52
883.148	34.51
883.524	34.54
883.901	34.56
884.277	34.55
884.653	34.54
885.029	34.53
885.405	34.48
885.781	34.47
886.157	34.46
886.532	34.46
886.908	34.44
887.284	34.46
887.659	34.44
888.035	34.43
888.411	34.41
888.786	34.42
889.161	34.4
889.537	34.43
889.912	34.43
890.287	34.43
890.662	34.41
891.037	34.39
891.412	34.34
891.787	34.32
892.162	34.29
892.536	34.28
892.911	34.26
893.286	34.22
893.66	34.19
894.035	34.17
894.409	34.14
894.784	34.13
895.158	34.12
895.532	34.11
895.906	34.09
896.281	34.09
896.655	34.05
897.029	34.02
897.402	34.02
897.776	34.02
898.15	34.02
898.524	34.04
898.898	34.03
899.271	34.03
899.645	34.05
900.018	34.06
900.392	34.08
900.765	34.12
901.138	34.14
901.511	34.14
901.884	34.18
902.258	34.18
902.631	34.17
903.003	34.17
903.376	34.17
903.749	34.2
904.122	34.2
904.495	34.2
904.867	34.21
905.24	34.2
905.612	34.23
905.985	34.21
906.357	34.22
906.729	34.23
907.102	34.22
907.474	34.24
907.846	34.22
908.218	34.25
908.59	34.24
908.962	34.27
909.334	34.29
909.705	34.29
910.077	34.29
910.449	34.35
910.82	34.36
911.192	34.39
911.563	34.4
911.935	34.38
912.306	34.38
912.677	34.4
913.048	34.35
913.419	34.33
913.79	34.3
914.161	34.31
914.532	34.27
914.903	34.26
915.274	34.26
915.645	34.29
916.015	34.32
916.386	34.29
916.756	34.28
917.127	34.33
917.497	34.36
917.868	34.42
918.238	34.42
918.608	34.43
918.978	34.43
919.348	34.41
919.718	34.41
920.088	34.4
920.458	34.47
920.828	34.49
921.198	34.52
921.567	34.5
921.937	34.49
922.306	34.49
922.676	34.48
923.045	34.48
923.415	34.49
923.784	34.47
924.153	34.48
924.522	34.44
924.891	34.44
925.26	34.42
925.629	34.43
925.998	34.41
926.367	34.44
926.736	34.42
927.104	34.44
927.473	34.47
927.842	34.47
928.21	34.48
928.578	34.47
928.947	34.45
929.315	34.44
929.683	34.44
930.051	34.47
930.42	34.4
930.788	34.4
931.156	34.34
931.523	34.28
931.891	34.24
932.259	34.19
932.627	34.19
932.994	34.18
933.362	34.15
933.729	34.11
934.097	34.08
934.464	34.1
934.831	34.06
935.199	34.06
935.566	34.07
935.933	34.17
936.3	34.19
936.667	34.22
937.034	34.22
937.401	34.21
937.767	34.25
938.134	34.21
938.501	34.26
938.867	34.34
939.234	34.46
939.6	34.56
939.967	34.53
940.333	34.65
940.699	34.68
941.065	34.7
941.431	34.79
941.798	34.87
942.163	34.97
942.529	35.03
942.895	35.15
943.261	35.26
943.627	35.32
943.992	35.3
944.358	35.28
944.723	35.28
945.089	35.32
945.454	35.38
945.82	35.33
946.185	35.41
946.55	35.47
946.915	35.51
947.28	35.45
947.645	35.44
948.01	35.44
948.375	35.4
948.74	35.39
949.104	35.44
949.469	35.37
949.834	35.37
950.198	35.29
950.562	35.22
950.927	35.16
951.291	35.07
951.655	35
952.02	35.02
952.384	35.04
952.748	35.01
953.112	34.94
953.476	34.92
953.839	34.96
954.203	34.93
954.567	34.91
954.931	34.88
955.294	34.85
955.658	34.76
956.021	34.68
956.385	34.65
956.748	34.68
957.111	34.7
957.474	34.7
957.837	34.64
958.2	34.56
958.563	34.57
958.926	34.53
959.289	34.55
959.652	34.61
960.015	34.63
960.377	34.66
960.74	34.58
961.102	34.5
961.465	34.42
961.827	34.31
962.189	34.33
962.552	34.27
962.914	34.28
963.276	34.25
963.638	34.22
964	34.16
964.362	34.1
964.724	34.14
965.085	34.16
965.447	34.19
965.809	34.19
966.17	34.23
966.532	34.27
966.893	34.24
967.255	34.28
967.616	34.29
967.977	34.29
968.338	34.27
968.699	34.2
969.061	34.2
969.421	34.21
969.782	34.23
970.143	34.19
970.504	34.14
970.865	34.1
971.225	34.06
971.586	34.08
971.946	34.13
972.307	34.15
972.667	34.19
973.027	34.24
973.388	34.22
973.748	34.25
974.108	34.26
974.468	34.27
974.828	34.29
975.188	34.31
975.548	34.27
975.907	34.3
976.267	34.34
976.627	34.4
976.986	34.41
977.346	34.46
977.705	34.46
978.064	34.52
978.424	34.61
978.783	34.62
979.142	34.64
979.501	34.68
979.86	34.58
980.219	34.49
980.578	34.47
980.937	34.49
981.296	34.45
981.654	34.55
982.013	34.6
982.371	34.58
982.73	34.62
983.088	34.56
983.447	34.58
983.805	34.67
984.163	34.72
984.521	34.68
984.879	34.68
985.237	34.73
985.595	34.75
985.953	34.69
986.311	34.74
986.669	34.69
987.026	34.76
987.384	34.77
987.741	34.78
988.099	34.82
988.456	34.88
988.814	34.88
989.171	34.83
989.528	34.81
989.885	34.82
990.242	34.83
990.599	34.94
990.956	35.08
991.313	35.05
991.67	35.16
992.027	35.12
992.383	35.17
992.74	35.16
993.096	35.24
993.453	35.18
993.809	35.25
994.165	35.26
994.522	35.19
994.878	35.08
995.234	35.18
995.59	35.1
995.946	35.22
996.302	35.24
996.658	35.35
997.013	35.38
997.369	35.47
997.725	35.45
998.08	35.46
998.436	35.65
998.791	35.59
999.147	35.65
999.502	35.67
999.857	35.72
1000.212	35.65
1000.567	35.56
1000.922	35.58
1001.277	35.57
1001.632	35.7
1001.987	35.63
1002.342	35.5
1002.696	35.68
1003.051	35.5
1003.406	35.56
1003.76	35.5
1004.114	35.63
1004.469	35.71
1004.823	35.7
1005.177	35.78
1005.531	35.76
1005.885	35.98
1006.239	36.08
1006.593	36.2
1006.947	36.37
1007.301	36.39
1007.655	36.5
1008.008	36.52
1008.362	36.42
1008.715	36.58
1009.069	36.49
1009.422	36.47
1009.776	36.4
1010.129	36.33
1010.482	36.3
1010.835	36.46
1011.188	36.44
1011.541	36.28
1011.894	36.2
1012.247	36.35
1012.6	36.28
1012.952	36.29
1013.305	36.25
1013.657	36.24
1014.01	36.56
1014.362	36.57
1014.715	36.36
1015.067	36.66
1015.419	36.92
1015.771	37.19
1016.123	37.33
1016.475	37.58
1016.827	37.85
1017.179	37.98
1017.531	38.24
1017.883	38.24
1018.234	38.25
1018.586	38.55
1018.938	38.24
1019.289	38.01
1019.64	38.19
1019.992	38.34
1020.343	38.23
1020.694	38.22
1021.045	38.67
1021.396	38.56
1021.747	38.64
1022.098	38.96
1022.449	39.31
1022.8	39.53
1023.151	39.79
1023.501	39.8
1023.852	40.01
1024.202	40.41
1024.553	40.64
1024.903	40.25
1025.253	40.41
1025.604	40.46
1025.954	40.03
1026.304	40.22
1026.654	40.58
1027.004	40.96
1027.354	41.09
1027.703	41.02
1028.053	40.92
1028.403	40.81
1028.753	41.21
1029.102	41.33
1029.452	41.34
1029.801	41.7
1030.15	41.39
1030.499	41.29
897.758	476.84
901.051	497.7
904.343	497.62
907.636	486.25
910.928	479.38
914.22	486.44
917.511	472.49
920.803	449.79
924.094	435.97
927.384	439.18
930.675	428.57
933.965	426.38
937.255	415.28
940.544	398.82
943.834	385.02
947.123	378.76
950.411	358.22
953.7	354.73
956.988	343.71
960.276	327.04
963.563	322.97
966.851	303.46
970.138	297.18
973.424	279.47
976.711	276.54
979.997	264.15
983.283	256.53
986.568	248.01
989.853	244.02
993.138	236.21
996.423	231.11
999.708	224.33
1002.992	224.91
1006.275	218.57
1009.559	216.26
1012.842	209.37
1016.125	203.34
1019.408	200.82
1022.69	199.29
1025.972	195.42
1029.254	190.57
1032.536	187.05
1035.817	182.54
1039.098	178.34
1042.379	173.49
1045.659	171.76
1048.939	170.13
1052.219	168.01
1055.498	165.32
1058.778	161.74
1062.057	159.25
1065.335	158.41
1068.614	155.88
1071.892	152.33
1075.17	150.06
1078.447	148.5
1081.724	146.58
1085.001	142.85
1088.278	143.01
1091.554	141.13
1094.83	140.6
1098.106	137.45
1101.382	137.05
1104.657	135.94
1107.932	135.38
1111.206	134.89
1114.481	133.66
1117.755	132.88
1121.029	132.85
1124.302	130.04
1127.575	128.95
1130.848	128.19
1134.121	126.68
1137.393	125.76
1140.665	125.79
1143.937	124.86
1147.208	122.81
1150.48	121.51
1153.75	120.45
1157.021	119.84
1160.291	119.37
1163.561	118.35
1166.831	117.11
1170.101	117.02
1173.37	116.01
1176.639	113.86
1179.907	114.19
1183.176	114.11
1186.444	114.46
1189.711	112.98
1192.979	113.81
1196.246	113.97
1199.513	113.32
1202.78	113.86
1206.046	113.93
1209.312	115.05
1212.578	116.01
1215.843	117.84
1219.108	118.31
1222.373	120.31
1225.638	123.13
1228.902	124.71
1232.166	128.91
1235.43	131.54
1238.693	134.91
1241.956	138.18
1245.219	141.11
1248.482	142.77
1251.744	141.69
1255.006	142.81
1258.268	138.37
1261.529	137.56
1264.79	133.96
1268.051	130.92
1271.312	130.69
1274.572	128.17
1277.832	124.8
1281.092	122.49
1284.351	119.56
1287.61	119.22
1290.869	117.63
1294.128	117.75
1297.386	117.53
1300.644	116.87
1303.902	116.22
1307.159	115.13
1310.416	115.75
1313.673	117.12
1316.93	119.07
1320.186	121.21
1323.442	122.42
1326.697	125.15
1329.953	126.76
1333.208	130.6
1336.463	136.99
1339.717	139.48
1342.972	147.32
1346.226	150.79
1349.479	152.04
1352.733	158.38
1355.986	162.43
1359.238	166.02
1362.491	169.02
1365.743	175.68
1368.995	176.95
1372.247	177.82
1375.498	177.68
1378.749	182.58
1382	184.99
1385.251	182.89
1388.501	183.34
1391.751	185.35
1395	183.43
1398.25	185.36
1401.499	183.69
1404.748	183.16
1407.996	178.27
1411.244	178.8
1414.492	174.54
1417.74	168.97
1420.987	166.62
1424.234	162.98
1427.481	156.69
1430.728	153.53
1433.974	147.4
1437.22	142.87
1440.465	137.73
1443.711	133.55
1446.956	128.41
1450.201	125.08
1453.445	119.09
1456.689	115.3
1459.933	111.04
1463.177	107.25
1466.42	104.84
1469.663	101.19
1472.906	98.34
1476.148	95.58
1479.391	93.26
1482.633	92.1
1485.874	89.03
1489.115	88.76
1492.356	87.54
1495.597	85.88
1498.838	85.54
1502.078	84.85
1505.318	84.68
1508.557	83.55
1511.797	82.84
1515.036	82.71
1518.274	81.86
1521.513	81.42
1524.751	80.07
1527.989	80.42
1531.227	80.5
1534.464	79.61
1537.701	78.72
1540.938	78.42
1544.174	78.81
1547.41	78.74
1550.646	78.39
1553.882	78.29
1557.117	78.23
1560.352	78.06
1563.587	77.48
1566.821	77.15
1570.055	76.69
1573.289	76.96
1576.523	76.67
1579.756	76.22
1582.989	76.06
1586.222	76.28
1589.454	76.7
1592.686	75.94
1595.918	76.02
1599.15	75.59
1602.381	76.25
1605.612	76.22
1608.843	75.94
1612.073	76.55
1615.303	76.76
1618.533	76.3
1621.762	75.99
1624.992	75.9
1628.221	75.81
1631.449	76.05
1634.678	76.54
1637.906	76.04
1641.134	76.17
1644.361	76.32
1647.588	76.45
1650.815	76.18
1654.042	77.4
1657.269	76.95
1660.495	77.23
1663.72	77.85
1666.946	78.01
1670.171	78.28
1673.396	79.2
1676.621	79.43
1679.845	79.2
1683.069	79.54
1686.293	79.37
1689.517	78.73
1692.74	79.26
1695.963	79.36
1699.185	78.95
1702.408	78.78
1705.63	78.62
1708.852	78.76
1712.073	78.51
1715.294	78.86
1718.515	79.01
1721.736	79.29
1724.956	79.98
1728.176	79.82
1731.396	79.88
1734.616	80.54
1737.835	80.87
1741.054	80.99
1744.272	80.92
1747.491	81.57
1750.709	82.18
1753.927	81.86
1757.144	82.84
1760.361	82.83
1763.578	83.45
1766.795	83.85
1770.011	83.6
1773.227	84.3
1776.443	85.07
1779.658	84.73
1782.874	85.13
1786.089	84.62
1789.303	85.17
1792.518	85.46
1795.732	86.03
1798.945	87.03
1802.159	86.67
1805.372	88.3
1808.585	88.81
1811.797	89.11
1815.01	89.9
1818.222	90.56
1821.434	92.11
1824.645	92.33
1827.856	93.76
1831.067	94.44
1834.278	95.26
1837.488	97.1
1840.698	97.33
1843.908	97.4
1847.117	99.26
1850.326	100.66
1853.535	101.17
1856.744	102.11
1859.952	103.75
1863.16	103.44
1866.368	102.95
1869.575	103.35
1872.782	103.5
1875.989	102.57
1879.196	103.35
1882.402	102.21
1885.608	102.22
1888.814	102.19
1892.019	102.63
1895.224	100.65
1898.429	101.37
1901.634	101.69
1904.838	103.26
1908.042	103.08
1911.246	103.81
1914.449	103.68
1917.652	103.23
1920.855	104.18
1924.058	103.23
1927.26	102.72
1930.462	103.8
1933.664	103.69
1936.865	104.49
1940.066	102.1
1943.267	100.61
1946.467	101.8
1949.668	101.62
1952.868	102.09
1956.067	101.05
1959.267	102.21
1962.466	102.87
1965.665	104.54
1968.863	103.7
1972.061	104.49
1975.259	106.57
1978.457	109.15
1981.654	108.61
1984.852	109.67
1988.048	111.32
1991.245	113.1
1994.441	115.41
1997.637	116.82
2000.833	118.51
2004.028	120.96
2007.223	124
2010.418	125.6
2013.613	131.25
2016.807	135.22
2020.001	138.29
2023.194	141.6
2026.388	146.88
2029.581	154.14
2032.774	159.23
2035.966	163.73
2039.158	167.68
2042.35	170.48
2045.542	175.54
2048.733	181.09
2051.924	182.92
2055.115	186.5
2058.306	188.94
2061.496	191.51
2064.686	189.75
2067.875	190.45
2071.065	193.25
2074.254	194.19
2077.442	198.8
2080.631	200.28
2083.819	200.5
2087.007	206.61
2090.195	208.34
2093.382	208.54
2096.569	209.55
2099.756	212.78
2102.942	217.58
2106.128	220.72
2109.314	222.25
2112.5	223.17
2115.685	222.61
2118.87	222.66
2122.055	221.13
2125.239	225.22
2128.424	232.17
2131.608	230.68
2134.791	233.42
2137.974	232.78
2141.157	234.15
2144.34	236.25
2147.523	241.69
2150.705	246.63
2153.887	245.01
2157.068	248.58
2160.25	250.15
2163.431	248.28
2166.611	252.33
2169.792	253.93
2172.972	259.21
2176.152	258.12
2179.331	262.68
2182.511	262.04
2185.69	264.46
2188.868	274.69
2192.047	284.2
2195.225	288.69
2198.403	291.69
2201.58	288.74
2204.758	302.47
2207.935	303.51
2211.111	310.74
2214.288	314.36
2217.464	317.65
2220.64	319.57
2223.815	318.93
2226.991	314.24
2230.166	317.19
2233.34	326.85
2236.515	336.54
2239.689	329.92
2242.863	334.27
2246.036	332.26
2249.209	339.86
2252.382	336.41
2255.555	349.33
2258.727	352.42
2261.9	358.54
2265.071	363.9
2268.243	363.79
2271.414	374.03
2274.585	380.95
2277.756	381.24
2280.926	396.47
2284.096	398.73
2287.266	402.52
2290.436	396.59
2293.605	405.37
2296.774	425.16
2299.942	419.52
2303.111	430.73
2306.279	439.73
2309.447	437.31
2312.614	440.45
2315.781	450.32
2318.948	450.8
2322.115	463.27
2325.281	482.94
2328.447	482.77
2331.613	485.18
2334.779	495.19
2337.944	500.94
2341.109	508.48
2344.274	516.45
2347.438	527.54
2350.602	536.99
2353.766	568.87
2356.929	567.55
2360.092	580.87
2363.255	579.23
2366.418	580.73
2369.58	594.03
2372.742	603.52
2375.904	600.23
2379.066	617.82
2382.227	659.36
2385.388	653.81
2388.548	629.19
2391.709	625.73
2394.869	636.57
2398.029	643.25
2401.188	645.9
2404.347	669.12
2407.506	681.65
2410.665	657.59
2413.823	662.26
2416.981	656.04
2420.139	626.07
2423.296	679.35
2426.453	716.8
2429.61	684.88
2432.767	729.52
2435.923	749.9
2439.079	730.68
2442.235	744.87
2445.391	766.75
2448.546	758.23
2451.701	797.82
2454.855	852.34
2458.009	748.23
2461.163	767.39
2464.317	779.4
2467.471	764.82
2470.624	792.09
2473.777	766.76
2476.929	743.99
2480.082	789.07
2483.234	830.88
2486.385	850.54
2489.537	872.32
2492.688	964.49
2495.839	939.31
2498.989	967.79
2502.14	967.68
2505.29	927.57
2508.439	1024.14
2511.589	1049.23
2514.738	1019.64
2517.887	1005.36
2521.035	939.08
2524.183	930.1
2527.331	920
2530.479	904.83
2533.627	923.47
