Data from N_3_div_pa_2n_Splice17_01.txt Node
Date: Sat Feb 29 14:55:48 EST 2020
User: sa697716
Spectrometer: FLMS03696
Trigger mode: 0
Integration Time (sec): 3.180400E-1
Scans to average: 20
Electric dark correction enabled: true
Nonlinearity correction enabled: true
Boxcar width: 5
XAxis mode: Wavelengths
Number of Pixels in Spectrum: 2048
>>>>>Begin Spectral Data<<<<<
187.83	41.78
188.298	24.53
188.766	17.18
189.233	20.9
189.701	21.07
190.169	17.67
190.636	2.31
191.104	-31.08
191.571	-249.31
192.039	-3.55
192.506	462.27
192.974	6817.19
193.441	-466.72
193.908	23.2
194.375	12.07
194.842	2.46
195.31	34.39
195.777	-28.02
196.244	35.93
196.711	51.24
197.177	54.42
197.644	54.64
198.111	55.18
198.578	54.96
199.045	55.72
199.511	55.57
199.978	55.93
200.445	55.01
200.911	55.47
201.378	56
201.844	56.93
202.31	56.99
202.777	56.89
203.243	57.07
203.709	56.97
204.176	56.61
204.642	56.88
205.108	56.63
205.574	57.21
206.04	56.94
206.506	55.9
206.972	54.91
207.438	54.26
207.903	53.9
208.369	52.77
208.835	52.11
209.301	51.06
209.766	49.91
210.232	48.7
210.697	47.31
211.163	45.96
211.628	44.94
212.094	43.86
212.559	42.69
213.024	41.64
213.49	40.81
213.955	39.7
214.42	38.69
214.885	37.04
215.35	35.41
215.815	32.98
216.28	30.46
216.745	27.66
217.21	24.78
217.675	22.23
218.14	19.72
218.604	17.43
219.069	15.55
219.534	13.96
219.998	12.74
220.463	11.65
220.927	10.8
221.392	10.03
221.856	9.4
222.32	8.87
222.785	8.42
223.249	8.02
223.713	7.72
224.177	7.38
224.642	7.1
225.106	6.81
225.57	6.55
226.034	6.31
226.497	6.13
226.961	5.9
227.425	5.66
227.889	5.46
228.353	5.28
228.816	5.12
229.28	4.95
229.744	4.82
230.207	4.7
230.671	4.57
231.134	4.45
231.597	4.36
232.061	4.26
232.524	4.21
232.987	4.13
233.45	4.04
233.914	3.98
234.377	3.93
234.84	3.88
235.303	3.81
235.766	3.77
236.229	3.74
236.691	3.69
237.154	3.66
237.617	3.6
238.08	3.55
238.542	3.52
239.005	3.49
239.468	3.44
239.93	3.4
240.393	3.37
240.855	3.32
241.317	3.28
241.78	3.24
242.242	3.2
242.704	3.17
243.166	3.15
243.629	3.11
244.091	3.07
244.553	3.05
245.015	3.01
245.477	2.96
245.939	2.93
246.4	2.9
246.862	2.87
247.324	2.86
247.786	2.82
248.247	2.79
248.709	2.76
249.17	2.74
249.632	2.71
250.093	2.68
250.555	2.66
251.016	2.65
251.477	2.63
251.939	2.6
252.4	2.57
252.861	2.54
253.322	2.51
253.783	2.49
254.244	2.47
254.705	2.45
255.166	2.44
255.627	2.42
256.088	2.38
256.549	2.36
257.009	2.33
257.47	2.31
257.931	2.29
258.391	2.27
258.852	2.23
259.312	2.21
259.773	2.19
260.233	2.16
260.694	2.13
261.154	2.11
261.614	2.09
262.074	2.07
262.534	2.04
262.994	2.02
263.455	2
263.915	1.99
264.374	1.96
264.834	1.95
265.294	1.93
265.754	1.91
266.214	1.89
266.673	1.88
267.133	1.87
267.593	1.86
268.052	1.85
268.512	1.84
268.971	1.83
269.431	1.83
269.89	1.82
270.349	1.82
270.809	1.82
271.268	1.82
271.727	1.81
272.186	1.81
272.645	1.8
273.104	1.8
273.563	1.8
274.022	1.8
274.481	1.8
274.94	1.79
275.399	1.79
275.857	1.78
276.316	1.77
276.775	1.77
277.233	1.77
277.692	1.76
278.15	1.75
278.609	1.74
279.067	1.74
279.525	1.73
279.984	1.74
280.442	1.74
280.9	1.74
281.358	1.74
281.816	1.74
282.274	1.74
282.732	1.74
283.19	1.76
283.648	1.77
284.106	1.77
284.564	1.77
285.021	1.77
285.479	1.78
285.937	1.77
286.394	1.77
286.852	1.78
287.309	1.77
287.767	1.77
288.224	1.76
288.682	1.75
289.139	1.75
289.596	1.73
290.053	1.72
290.511	1.71
290.968	1.71
291.425	1.7
291.882	1.69
292.339	1.68
292.796	1.66
293.252	1.65
293.709	1.64
294.166	1.63
294.623	1.63
295.079	1.63
295.536	1.62
295.992	1.61
296.449	1.6
296.905	1.59
297.362	1.58
297.818	1.58
298.274	1.58
298.731	1.58
299.187	1.58
299.643	1.57
300.099	1.57
300.555	1.57
301.011	1.57
301.467	1.57
301.923	1.58
302.379	1.58
302.835	1.58
303.291	1.58
303.746	1.58
304.202	1.57
304.658	1.57
305.113	1.57
305.569	1.57
306.024	1.58
306.479	1.58
306.935	1.57
307.39	1.58
307.845	1.59
308.301	1.58
308.756	1.59
309.211	1.6
309.666	1.61
310.121	1.61
310.576	1.61
311.031	1.6
311.486	1.61
311.94	1.61
312.395	1.62
312.85	1.62
313.305	1.63
313.759	1.63
314.214	1.63
314.668	1.63
315.123	1.64
315.577	1.64
316.032	1.64
316.486	1.63
316.94	1.63
317.394	1.62
317.849	1.61
318.303	1.61
318.757	1.6
319.211	1.59
319.665	1.58
320.119	1.58
320.572	1.58
321.026	1.58
321.48	1.57
321.934	1.58
322.387	1.58
322.841	1.58
323.295	1.57
323.748	1.57
324.202	1.57
324.655	1.57
325.108	1.56
325.562	1.55
326.015	1.54
326.468	1.53
326.921	1.53
327.374	1.53
327.827	1.53
328.28	1.51
328.733	1.51
329.186	1.51
329.639	1.51
330.092	1.52
330.545	1.52
330.997	1.54
331.45	1.54
331.903	1.54
332.355	1.54
332.808	1.55
333.26	1.56
333.713	1.57
334.165	1.57
334.617	1.58
335.069	1.59
335.522	1.59
335.974	1.59
336.426	1.61
336.878	1.61
337.33	1.62
337.782	1.62
338.234	1.62
338.686	1.62
339.137	1.63
339.589	1.63
340.041	1.63
340.493	1.62
340.944	1.62
341.396	1.62
341.847	1.61
342.299	1.59
342.75	1.59
343.201	1.58
343.653	1.57
344.104	1.56
344.555	1.55
345.006	1.54
345.457	1.54
345.908	1.53
346.359	1.53
346.81	1.53
347.261	1.53
347.712	1.52
348.163	1.52
348.613	1.52
349.064	1.5
349.515	1.5
349.965	1.49
350.416	1.49
350.866	1.5
351.317	1.49
351.767	1.48
352.217	1.48
352.668	1.48
353.118	1.48
353.568	1.5
354.018	1.5
354.468	1.5
354.918	1.51
355.368	1.52
355.818	1.52
356.268	1.53
356.718	1.54
357.168	1.53
357.617	1.53
358.067	1.54
358.517	1.53
358.966	1.54
359.416	1.54
359.865	1.54
360.315	1.54
360.764	1.54
361.213	1.53
361.663	1.52
362.112	1.53
362.561	1.55
363.01	1.55
363.459	1.55
363.908	1.54
364.357	1.54
364.806	1.54
365.255	1.55
365.703	1.55
366.152	1.57
366.601	1.57
367.05	1.57
367.498	1.57
367.947	1.56
368.395	1.57
368.844	1.58
369.292	1.58
369.74	1.59
370.189	1.59
370.637	1.6
371.085	1.6
371.533	1.61
371.981	1.62
372.429	1.62
372.877	1.62
373.325	1.61
373.773	1.63
374.221	1.63
374.669	1.63
375.116	1.63
375.564	1.62
376.012	1.63
376.459	1.63
376.907	1.63
377.354	1.64
377.801	1.64
378.249	1.66
378.696	1.67
379.143	1.68
379.591	1.69
380.038	1.71
380.485	1.73
380.932	1.74
381.379	1.74
381.826	1.76
382.273	1.77
382.72	1.79
383.166	1.82
383.613	1.83
384.06	1.85
384.506	1.87
384.953	1.9
385.4	1.93
385.846	1.96
386.292	2.01
386.739	2.05
387.185	2.1
387.631	2.15
388.078	2.19
388.524	2.22
388.97	2.26
389.416	2.31
389.862	2.38
390.308	2.46
390.754	2.56
391.2	2.66
391.645	2.74
392.091	2.82
392.537	2.92
392.983	3.05
393.428	3.23
393.874	3.45
394.319	3.68
394.765	3.9
395.21	4.13
395.655	4.39
396.101	4.68
396.546	4.98
396.991	5.33
397.436	5.67
397.881	6.02
398.326	6.38
398.771	6.71
399.216	7.03
399.661	7.36
400.106	7.65
400.551	7.88
400.995	8.1
401.44	8.3
401.885	8.5
402.329	8.71
402.774	8.91
403.218	9.13
403.663	9.39
404.107	9.67
404.551	9.92
404.995	10.16
405.44	10.4
405.884	10.67
406.328	10.98
406.772	11.32
407.216	11.66
407.66	11.99
408.104	12.26
408.547	12.51
408.991	12.7
409.435	12.94
409.879	13.23
410.322	13.56
410.766	13.87
411.209	14.17
411.653	14.43
412.096	14.67
412.54	14.91
412.983	15.15
413.426	15.42
413.869	15.71
414.312	16.01
414.756	16.24
415.199	16.47
415.642	16.68
416.085	16.87
416.527	17.02
416.97	17.12
417.413	17.15
417.856	17.15
418.298	17.14
418.741	17.16
419.184	17.17
419.626	17.23
420.069	17.3
420.511	17.37
420.953	17.42
421.396	17.52
421.838	17.7
422.28	17.95
422.722	18.18
423.164	18.41
423.606	18.58
424.048	18.71
424.49	18.76
424.932	18.66
425.374	18.42
425.816	18.09
426.258	17.72
426.699	17.47
427.141	17.38
427.582	17.53
428.024	17.76
428.465	18.04
428.907	18.33
429.348	18.58
429.789	18.93
430.231	19.46
430.672	20.22
431.113	21.1
431.554	21.91
431.995	22.54
432.436	22.98
432.877	23.31
433.318	23.53
433.759	23.79
434.2	24.16
434.64	24.66
435.081	25.13
435.522	25.5
435.962	25.8
436.403	26.09
436.843	26.36
437.284	26.62
437.724	26.93
438.164	27.36
438.604	27.77
439.045	28.19
439.485	28.57
439.925	28.89
440.365	29.18
440.805	29.36
441.245	29.48
441.685	29.65
442.125	29.86
442.564	30.11
443.004	30.35
443.444	30.68
443.883	31.02
444.323	31.32
444.762	31.67
445.202	32.09
445.641	32.58
446.081	33.17
446.52	33.72
446.959	34.22
447.398	34.6
447.837	34.9
448.276	35
448.716	35.1
449.154	35.21
449.593	35.33
450.032	35.36
450.471	35.3
450.91	35.16
451.349	35.05
451.787	34.99
452.226	34.95
452.664	34.94
453.103	34.97
453.541	34.96
453.98	34.89
454.418	34.74
454.856	34.57
455.295	34.44
455.733	34.33
456.171	34.22
456.609	34.11
457.047	34.03
457.485	33.98
457.923	33.98
458.361	34.03
458.798	34.13
459.236	34.24
459.674	34.37
460.111	34.47
460.549	34.56
460.987	34.67
461.424	34.77
461.862	34.88
462.299	34.97
462.736	35.09
463.173	35.25
463.611	35.44
464.048	35.69
464.485	36
464.922	36.36
465.359	36.71
465.796	36.98
466.233	37.26
466.67	37.62
467.106	38.07
467.543	38.58
467.98	39.05
468.416	39.47
468.853	39.81
469.29	40.15
469.726	40.51
470.162	40.9
470.599	41.33
471.035	41.72
471.471	41.94
471.907	42.07
472.344	42.11
472.78	42.17
473.216	42.29
473.652	42.43
474.088	42.52
474.523	42.56
474.959	42.56
475.395	42.58
475.831	42.58
476.266	42.62
476.702	42.64
477.138	42.67
477.573	42.63
478.008	42.53
478.444	42.38
478.879	42.21
479.314	41.98
479.75	41.73
480.185	41.4
480.62	40.98
481.055	40.39
481.49	39.6
481.925	38.73
482.36	37.94
482.795	37.25
483.229	36.75
483.664	36.32
484.099	35.95
484.534	35.65
484.968	35.43
485.403	35.37
485.837	35.49
486.271	35.75
486.706	36.05
487.14	36.25
487.574	36.34
488.009	36.36
488.443	36.37
488.877	36.39
489.311	36.41
489.745	36.45
490.179	36.5
490.613	36.52
491.046	36.6
491.48	36.69
491.914	36.85
492.348	37.09
492.781	37.31
493.215	37.48
493.648	37.61
494.082	37.71
494.515	37.8
494.948	37.86
495.382	37.94
495.815	37.97
496.248	37.99
496.681	37.98
497.114	37.95
497.547	37.93
497.98	38.02
498.413	38.18
498.846	38.38
499.279	38.53
499.711	38.68
500.144	38.86
500.577	39.18
501.009	39.6
501.442	40.11
501.874	40.63
502.306	41.13
502.739	41.52
503.171	41.89
503.603	42.25
504.036	42.7
504.468	43.2
504.9	43.71
505.332	44.14
505.764	44.54
506.196	44.9
506.627	45.3
507.059	45.76
507.491	46.27
507.923	46.78
508.354	47.28
508.786	47.71
509.217	48.05
509.649	48.39
510.08	48.74
510.512	49.11
510.943	49.53
511.374	49.87
511.805	50.06
512.237	50.11
512.668	50.11
513.099	50.16
513.53	50.26
513.961	50.43
514.391	50.66
514.822	51.02
515.253	51.42
515.684	51.83
516.114	52.34
516.545	52.99
516.975	53.88
517.406	54.85
517.836	55.74
518.267	56.57
518.697	57.39
519.127	58.22
519.558	58.99
519.988	59.72
520.418	60.38
520.848	60.99
521.278	61.52
521.708	61.69
522.138	61.78
522.567	61.89
522.997	62.07
523.427	62.37
523.857	62.66
524.286	63
524.716	63.32
525.145	63.65
525.575	63.91
526.004	64.31
526.433	65.02
526.863	65.77
527.292	66.49
527.721	67
528.15	67.25
528.579	67.43
529.008	67.44
529.437	67.47
529.866	67.47
530.295	67.56
530.724	67.65
531.152	67.69
531.581	67.69
532.01	67.64
532.438	67.71
532.867	67.89
533.295	68.05
533.723	68.24
534.152	68.32
534.58	68.36
535.008	68.29
535.436	68.1
535.865	67.81
536.293	67.55
536.721	67.46
537.149	67.42
537.576	67.4
538.004	67.38
538.432	67.33
538.86	67.35
539.287	67.47
539.715	67.68
540.143	67.93
540.57	68.28
540.998	68.66
541.425	68.98
541.852	69.26
542.28	69.51
542.707	69.73
543.134	69.95
543.561	70.12
543.988	70.31
544.415	70.49
544.842	70.69
545.269	70.9
545.696	71.08
546.123	71.24
546.549	71.43
546.976	71.61
547.403	71.83
547.829	72.07
548.256	72.28
548.682	72.41
549.108	72.55
549.535	72.69
549.961	72.79
550.387	72.94
550.813	73.08
551.24	73.18
551.666	73.24
552.092	73.22
552.518	73.1
552.943	73.05
553.369	72.96
553.795	72.79
554.221	72.56
554.646	72.23
555.072	71.84
555.498	71.45
555.923	71.16
556.349	70.89
556.774	70.69
557.199	70.55
557.625	70.32
558.05	70.14
558.475	69.96
558.9	69.82
559.325	69.72
559.75	69.59
560.175	69.44
560.6	69.15
561.025	68.81
561.449	68.38
561.874	67.99
562.299	67.65
562.723	67.32
563.148	66.95
563.572	66.57
563.997	66.16
564.421	65.72
564.846	65.28
565.27	64.88
565.694	64.45
566.118	64.01
566.542	63.57
566.966	63.06
567.39	62.57
567.814	62.18
568.238	61.79
568.662	61.49
569.086	61.24
569.509	60.98
569.933	60.72
570.357	60.47
570.78	60.24
571.204	59.97
571.627	59.77
572.05	59.56
572.474	59.32
572.897	59.05
573.32	58.73
573.743	58.38
574.166	58.05
574.589	57.73
575.012	57.52
575.435	57.36
575.858	57.28
576.281	57.21
576.704	57.11
577.126	57.02
577.549	57.02
577.972	57.08
578.394	57.16
578.817	57.26
579.239	57.39
579.661	57.48
580.084	57.54
580.506	57.53
580.928	57.48
581.35	57.41
581.772	57.32
582.194	57.2
582.616	57.05
583.038	56.91
583.46	56.76
583.882	56.5
584.303	56.1
584.725	55.59
585.147	55.07
585.568	54.65
585.99	54.37
586.411	54.11
586.833	53.88
587.254	53.69
587.675	53.49
588.096	53.32
588.518	53.22
588.939	53.28
589.36	53.43
589.781	53.63
590.202	53.75
590.623	53.75
591.043	53.72
591.464	53.66
591.885	53.6
592.305	53.53
592.726	53.44
593.147	53.35
593.567	53.22
593.987	53.12
594.408	53
594.828	52.87
595.248	52.77
595.669	52.67
596.089	52.51
596.509	52.28
596.929	52.08
597.349	51.82
597.769	51.58
598.189	51.4
598.608	51.22
599.028	51.06
599.448	50.93
599.867	50.82
600.287	50.69
600.706	50.56
601.126	50.47
601.545	50.34
601.965	50.23
602.384	50.13
602.803	50.01
603.222	49.83
603.641	49.62
604.061	49.39
604.48	49.12
604.898	48.85
605.317	48.58
605.736	48.27
606.155	47.99
606.574	47.73
606.992	47.47
607.411	47.19
607.829	46.9
608.248	46.64
608.666	46.38
609.085	46.12
609.503	45.83
609.921	45.57
610.339	45.38
610.758	45.15
611.176	44.92
611.594	44.62
612.012	44.31
612.43	44.05
612.847	43.79
613.265	43.56
613.683	43.38
614.101	43.21
614.518	43.08
614.936	42.91
615.353	42.79
615.771	42.67
616.188	42.61
616.606	42.54
617.023	42.48
617.44	42.41
617.857	42.29
618.274	42.15
618.691	41.99
619.108	41.79
619.525	41.6
619.942	41.36
620.359	41.12
620.776	40.85
621.192	40.59
621.609	40.37
622.026	40.14
622.442	39.97
622.859	39.77
623.275	39.6
623.691	39.37
624.108	39.19
624.524	39.02
624.94	38.87
625.356	38.74
625.772	38.64
626.188	38.52
626.604	38.39
627.02	38.23
627.436	38.09
627.852	37.98
628.268	37.97
628.683	37.93
629.099	37.91
629.514	37.87
629.93	37.85
630.345	37.84
630.761	37.84
631.176	37.83
631.591	37.81
632.007	37.82
632.422	37.82
632.837	37.79
633.252	37.76
633.667	37.74
634.082	37.73
634.497	37.68
634.911	37.59
635.326	37.47
635.741	37.38
636.155	37.28
636.57	37.16
636.984	36.99
637.399	36.8
637.813	36.64
638.228	36.43
638.642	36.26
639.056	36.08
639.47	35.91
639.884	35.76
640.298	35.59
640.712	35.43
641.126	35.25
641.54	35.09
641.954	34.95
642.368	34.74
642.781	34.53
643.195	34.29
643.609	34.07
644.022	33.85
644.436	33.62
644.849	33.37
645.262	33.1
645.676	32.89
646.089	32.7
646.502	32.51
646.915	32.37
647.328	32.24
647.741	32.12
648.154	32.01
648.567	31.91
648.98	31.83
649.393	31.77
649.805	31.71
650.218	31.64
650.631	31.5
651.043	31.29
651.456	30.95
651.868	30.53
652.28	30.11
652.693	29.69
653.105	29.36
653.517	29.09
653.929	28.88
654.341	28.72
654.753	28.57
655.165	28.44
655.577	28.37
655.989	28.44
656.401	28.57
656.813	28.72
657.224	28.86
657.636	28.9
658.047	28.89
658.459	28.8
658.87	28.66
659.282	28.51
659.693	28.36
660.104	28.22
660.515	28.02
660.926	27.86
661.338	27.67
661.749	27.47
662.159	27.28
662.57	27.07
662.981	26.86
663.392	26.66
663.803	26.49
664.213	26.31
664.624	26.15
665.035	25.98
665.445	25.79
665.855	25.62
666.266	25.44
666.676	25.28
667.086	25.12
667.497	24.96
667.907	24.8
668.317	24.66
668.727	24.5
669.137	24.38
669.547	24.26
669.956	24.16
670.366	24.06
670.776	23.96
671.186	23.86
671.595	23.79
672.005	23.73
672.414	23.67
672.824	23.6
673.233	23.56
673.642	23.48
674.052	23.41
674.461	23.36
674.87	23.32
675.279	23.29
675.688	23.25
676.097	23.22
676.506	23.2
676.915	23.19
677.323	23.18
677.732	23.22
678.141	23.26
678.549	23.32
678.958	23.38
679.366	23.42
679.775	23.48
680.183	23.54
680.592	23.63
681	23.72
681.408	23.83
681.816	23.88
682.224	23.8
682.632	23.63
683.04	23.35
683.448	23.11
683.856	22.96
684.264	22.85
684.671	22.77
685.079	22.73
685.487	22.72
685.894	22.78
686.302	22.94
686.709	23.28
687.116	23.8
687.524	24.47
687.931	25.2
688.338	25.91
688.745	26.62
689.152	27.33
689.559	28.03
689.966	28.72
690.373	29.38
690.78	30.02
691.187	30.66
691.593	31.25
692	31.86
692.407	32.42
692.813	32.99
693.22	33.52
693.626	34.04
694.032	34.55
694.439	35.05
694.845	35.52
695.251	35.99
695.657	36.39
696.063	36.79
696.469	37.12
696.875	37.41
697.281	37.69
697.687	37.96
698.093	38.24
698.498	38.5
698.904	38.8
699.31	39.1
699.715	39.4
700.12	39.73
700.526	40.07
700.931	40.4
701.337	40.76
701.742	41.09
702.147	41.41
702.552	41.74
702.957	42.06
703.362	42.33
703.767	42.58
704.172	42.82
704.577	43.03
704.981	43.25
705.386	43.45
705.791	43.66
706.195	43.86
706.6	44.04
707.004	44.2
707.408	44.36
707.813	44.53
708.217	44.67
708.621	44.81
709.025	44.96
709.43	45.07
709.834	45.2
710.237	45.3
710.641	45.42
711.045	45.52
711.449	45.58
711.853	45.63
712.256	45.62
712.66	45.54
713.064	45.38
713.467	45.15
713.87	44.89
714.274	44.55
714.677	44.19
715.08	43.8
715.484	43.42
715.887	43.07
716.29	42.81
716.693	42.64
717.096	42.69
717.499	42.87
717.901	43.1
718.304	43.41
718.707	43.74
719.109	44.04
719.512	44.33
719.915	44.61
720.317	44.9
720.719	45.06
721.122	45.16
721.524	45.19
721.926	45.15
722.328	45.1
722.731	45.03
723.133	44.97
723.535	44.98
723.937	45.01
724.338	45
724.74	45
725.142	44.95
725.544	45.01
725.945	45.02
726.347	45.07
726.748	45.05
727.15	45.09
727.551	45.22
727.952	45.33
728.354	45.49
728.755	45.7
729.156	45.91
729.557	46.24
729.958	46.49
730.359	46.72
730.76	46.88
731.161	47.08
731.562	47.22
731.962	47.32
732.363	47.37
732.763	47.43
733.164	47.47
733.564	47.49
733.965	47.47
734.365	47.38
734.766	47.31
735.166	47.24
735.566	47.2
735.966	47.17
736.366	47.11
736.766	47.12
737.166	47.05
737.566	46.96
737.966	46.9
738.365	46.83
738.765	46.83
739.165	46.85
739.564	46.87
739.964	46.85
740.363	46.85
740.763	46.85
741.162	46.83
741.561	46.85
741.96	46.91
742.36	46.93
742.759	46.93
743.158	46.93
743.557	46.91
743.955	46.93
744.354	46.92
744.753	46.89
745.152	46.86
745.55	46.84
745.949	46.8
746.348	46.75
746.746	46.71
747.144	46.68
747.543	46.63
747.941	46.6
748.339	46.56
748.737	46.54
749.136	46.5
749.534	46.48
749.932	46.43
750.33	46.41
750.727	46.36
751.125	46.33
751.523	46.27
751.921	46.23
752.318	46.16
752.716	46.07
753.113	46
753.511	45.92
753.908	45.82
754.305	45.66
754.703	45.27
755.1	44.56
755.497	43.4
755.894	41.84
756.291	39.99
756.688	38.06
757.085	36.26
757.482	34.58
757.878	32.99
758.275	31.39
758.672	29.81
759.068	28.43
759.465	27.44
759.861	26.97
760.258	27.04
760.654	27.5
761.05	28.2
761.447	28.91
761.843	29.61
762.239	30.36
762.635	31.28
763.031	32.37
763.427	33.55
763.822	34.79
764.218	36.03
764.614	37.22
765.01	38.33
765.405	39.32
765.801	40.23
766.196	41.05
766.592	41.76
766.987	42.34
767.382	42.77
767.778	43.11
768.173	43.36
768.568	43.54
768.963	43.69
769.358	43.81
769.753	43.91
770.148	43.97
770.542	43.97
770.937	43.92
771.332	43.9
771.726	43.88
772.121	43.85
772.515	43.85
772.91	43.83
773.304	43.79
773.699	43.73
774.093	43.66
774.487	43.61
774.881	43.61
775.275	43.56
775.669	43.53
776.063	43.46
776.457	43.4
776.851	43.29
777.245	43.22
777.638	43.15
778.032	43.11
778.425	43.07
778.819	43
779.212	42.87
779.606	42.8
779.999	42.7
780.392	42.61
780.786	42.57
781.179	42.53
781.572	42.44
781.965	42.37
782.358	42.25
782.751	42.14
783.143	42.03
783.536	41.93
783.929	41.85
784.322	41.76
784.714	41.66
785.107	41.52
785.499	41.36
785.891	41.2
786.284	41.03
786.676	40.9
787.068	40.77
787.46	40.62
787.852	40.47
788.245	40.28
788.636	40.1
789.028	39.93
789.42	39.77
789.812	39.62
790.204	39.46
790.595	39.3
790.987	39.13
791.378	38.99
791.77	38.88
792.161	38.8
792.553	38.71
792.944	38.6
793.335	38.56
793.726	38.45
794.117	38.35
794.508	38.3
794.899	38.23
795.29	38.15
795.681	38.02
796.072	37.89
796.463	37.68
796.853	37.55
797.244	37.44
797.634	37.28
798.025	37.14
798.415	36.99
798.806	36.84
799.196	36.71
799.586	36.55
799.976	36.4
800.366	36.26
800.756	36.16
801.146	36.03
801.536	35.89
801.926	35.76
802.316	35.66
802.706	35.51
803.095	35.38
803.485	35.25
803.874	35.13
804.264	35.02
804.653	34.87
805.043	34.73
805.432	34.55
805.821	34.37
806.21	34.23
806.599	34.06
806.988	33.91
807.377	33.73
807.766	33.54
808.155	33.35
808.544	33.13
808.933	32.91
809.321	32.68
809.71	32.49
810.098	32.24
810.487	31.93
810.875	31.63
811.264	31.33
811.652	30.99
812.04	30.66
812.428	30.35
812.816	30.06
813.204	29.8
813.592	29.54
813.98	29.28
814.368	29.07
814.756	28.88
815.144	28.7
815.531	28.53
815.919	28.42
816.306	28.37
816.694	28.33
817.081	28.25
817.469	28.19
817.856	28.14
818.243	28.02
818.63	27.88
819.017	27.73
819.404	27.61
819.791	27.52
820.178	27.42
820.565	27.31
820.952	27.19
821.339	27.12
821.725	27.03
822.112	26.95
822.498	26.93
822.885	26.91
823.271	26.89
823.657	26.85
824.044	26.75
824.43	26.67
824.816	26.53
825.202	26.41
825.588	26.27
825.974	26.14
826.36	26.02
826.746	25.91
827.132	25.8
827.517	25.68
827.903	25.59
828.289	25.53
828.674	25.43
829.06	25.36
829.445	25.29
829.83	25.24
830.216	25.18
830.601	25.11
830.986	25.05
831.371	25.01
831.756	24.96
832.141	24.91
832.526	24.85
832.911	24.83
833.295	24.8
833.68	24.76
834.065	24.7
834.449	24.61
834.834	24.53
835.218	24.47
835.603	24.39
835.987	24.35
836.371	24.29
836.755	24.25
837.139	24.18
837.524	24.13
837.908	24.07
838.291	24
838.675	23.95
839.059	23.93
839.443	23.88
839.827	23.82
840.21	23.78
840.594	23.71
840.977	23.66
841.361	23.6
841.744	23.53
842.127	23.46
842.511	23.44
842.894	23.4
843.277	23.34
843.66	23.3
844.043	23.26
844.426	23.2
844.809	23.15
845.191	23.08
845.574	22.99
845.957	22.91
846.339	22.83
846.722	22.77
847.104	22.71
847.487	22.65
847.869	22.57
848.252	22.5
848.634	22.46
849.016	22.41
849.398	22.35
849.78	22.29
850.162	22.2
850.544	22.13
850.926	22.04
851.307	21.98
851.689	21.9
852.071	21.85
852.452	21.82
852.834	21.76
853.215	21.72
853.597	21.71
853.978	21.72
854.359	21.74
854.741	21.76
855.122	21.77
855.503	21.76
855.884	21.76
856.265	21.77
856.646	21.73
857.026	21.71
857.407	21.66
857.788	21.64
858.169	21.6
858.549	21.58
858.93	21.53
859.31	21.49
859.69	21.45
860.071	21.4
860.451	21.36
860.831	21.32
861.211	21.27
861.591	21.22
861.971	21.12
862.351	21.07
862.731	20.99
863.111	20.92
863.491	20.86
863.87	20.82
864.25	20.76
864.629	20.7
865.009	20.65
865.388	20.64
865.768	20.62
866.147	20.65
866.526	20.64
866.905	20.64
867.284	20.65
867.663	20.66
868.042	20.66
868.421	20.65
868.8	20.65
869.179	20.65
869.558	20.63
869.936	20.61
870.315	20.58
870.693	20.56
871.072	20.54
871.45	20.49
871.828	20.48
872.207	20.45
872.585	20.42
872.963	20.4
873.341	20.4
873.719	20.37
874.097	20.37
874.475	20.36
874.853	20.35
875.23	20.33
875.608	20.33
875.986	20.28
876.363	20.26
876.741	20.26
877.118	20.22
877.495	20.19
877.873	20.17
878.25	20.13
878.627	20.09
879.004	20.07
879.381	20.06
879.758	20.04
880.135	20.05
880.512	20.06
880.889	20.05
881.265	20.04
881.642	20.01
882.019	19.99
882.395	19.96
882.772	19.95
883.148	19.92
883.524	19.9
883.901	19.88
884.277	19.85
884.653	19.82
885.029	19.78
885.405	19.76
885.781	19.75
886.157	19.74
886.532	19.73
886.908	19.73
887.284	19.72
887.659	19.69
888.035	19.66
888.411	19.63
888.786	19.58
889.161	19.56
889.537	19.52
889.912	19.48
890.287	19.43
890.662	19.39
891.037	19.34
891.412	19.27
891.787	19.21
892.162	19.17
892.536	19.12
892.911	19.07
893.286	19.01
893.66	18.97
894.035	18.92
894.409	18.88
894.784	18.81
895.158	18.74
895.532	18.68
895.906	18.65
896.281	18.6
896.655	18.53
897.029	18.49
897.402	18.44
897.776	18.38
898.15	18.35
898.524	18.33
898.898	18.33
899.271	18.33
899.645	18.36
900.018	18.36
900.392	18.38
900.765	18.41
901.138	18.45
901.511	18.49
901.884	18.55
902.258	18.57
902.631	18.59
903.003	18.6
903.376	18.59
903.749	18.59
904.122	18.59
904.495	18.55
904.867	18.53
905.24	18.51
905.612	18.48
905.985	18.43
906.357	18.39
906.729	18.35
907.102	18.33
907.474	18.31
907.846	18.28
908.218	18.27
908.59	18.28
908.962	18.28
909.334	18.25
909.705	18.27
910.077	18.25
910.449	18.28
910.82	18.28
911.192	18.28
911.563	18.25
911.935	18.23
912.306	18.2
912.677	18.2
913.048	18.18
913.419	18.16
913.79	18.12
914.161	18.09
914.532	18.08
914.903	18.07
915.274	18.09
915.645	18.12
916.015	18.18
916.386	18.21
916.756	18.2
917.127	18.2
917.497	18.25
917.868	18.28
918.238	18.33
918.608	18.32
918.978	18.35
919.348	18.35
919.718	18.3
920.088	18.27
920.458	18.26
920.828	18.26
921.198	18.26
921.567	18.24
921.937	18.25
922.306	18.24
922.676	18.25
923.045	18.23
923.415	18.22
923.784	18.24
924.153	18.24
924.522	18.23
924.891	18.21
925.26	18.2
925.629	18.18
925.998	18.14
926.367	18.1
926.736	18.05
927.104	18
927.473	17.97
927.842	17.92
928.21	17.86
928.578	17.81
928.947	17.76
929.315	17.71
929.683	17.66
930.051	17.59
930.42	17.53
930.788	17.45
931.156	17.42
931.523	17.34
931.891	17.29
932.259	17.26
932.627	17.19
932.994	17.17
933.362	17.13
933.729	17.06
934.097	17.05
934.464	17.1
934.831	17.13
935.199	17.15
935.566	17.22
935.933	17.36
936.3	17.39
936.667	17.47
937.034	17.47
937.401	17.54
937.767	17.72
938.134	17.86
938.501	17.91
938.867	18
939.234	18.13
939.6	18.17
939.967	18.18
940.333	18.31
940.699	18.44
941.065	18.62
941.431	18.7
941.798	18.75
942.163	18.79
942.529	18.86
942.895	18.94
943.261	18.94
943.627	18.96
943.992	18.92
944.358	18.88
944.723	18.82
945.089	18.79
945.454	18.84
945.82	18.75
946.185	18.72
946.55	18.7
946.915	18.64
947.28	18.55
947.645	18.58
948.01	18.58
948.375	18.52
948.74	18.56
949.104	18.53
949.469	18.51
949.834	18.52
950.198	18.54
950.562	18.54
950.927	18.53
951.291	18.52
951.655	18.48
952.02	18.42
952.384	18.46
952.748	18.33
953.112	18.25
953.476	18.18
953.839	18.17
954.203	18.04
954.567	17.99
954.931	17.98
955.294	17.94
955.658	17.91
956.021	17.94
956.385	17.91
956.748	17.94
957.111	17.95
957.474	17.96
957.837	17.94
958.2	17.94
958.563	17.96
958.926	17.89
959.289	17.9
959.652	17.91
960.015	17.88
960.377	17.87
960.74	17.83
961.102	17.81
961.465	17.8
961.827	17.77
962.189	17.73
962.552	17.71
962.914	17.7
963.276	17.68
963.638	17.62
964	17.58
964.362	17.6
964.724	17.65
965.085	17.68
965.447	17.71
965.809	17.69
966.17	17.75
966.532	17.78
966.893	17.85
967.255	17.85
967.616	17.93
967.977	17.95
968.338	17.9
968.699	17.93
969.061	17.93
969.421	17.92
969.782	18
970.143	18.04
970.504	18.01
970.865	17.95
971.225	18
971.586	18.02
971.946	18.03
972.307	18.03
972.667	17.99
973.027	18.05
973.388	18.02
973.748	17.97
974.108	17.96
974.468	18
974.828	18.1
975.188	18.07
975.548	17.98
975.907	18.06
976.267	18.08
976.627	18.08
976.986	18.06
977.346	18.1
977.705	18.16
978.064	18.21
978.424	18.23
978.783	18.23
979.142	18.28
979.501	18.39
979.86	18.29
980.219	18.26
980.578	18.34
980.937	18.35
981.296	18.3
981.654	18.35
982.013	18.33
982.371	18.31
982.73	18.32
983.088	18.32
983.447	18.3
983.805	18.38
984.163	18.47
984.521	18.5
984.879	18.64
985.237	18.74
985.595	18.75
985.953	18.83
986.311	18.89
986.669	18.9
987.026	18.92
987.384	18.99
987.741	19.08
988.099	19.11
988.456	19.18
988.814	19.16
989.171	19.16
989.528	19.15
989.885	19.04
990.242	19.05
990.599	19.1
990.956	19.18
991.313	19.11
991.67	19.12
992.027	19.1
992.383	19.07
992.74	19.12
993.096	19.02
993.453	19.12
993.809	19.29
994.165	19.3
994.522	19.23
994.878	19.2
995.234	19.33
995.59	19.27
995.946	19.36
996.302	19.37
996.658	19.42
997.013	19.65
997.369	19.54
997.725	19.47
998.08	19.4
998.436	19.63
998.791	19.69
999.147	19.83
999.502	19.91
999.857	20.04
1000.212	19.97
1000.567	19.85
1000.922	19.73
1001.277	19.88
1001.632	20
1001.987	20.17
1002.342	20.12
1002.696	20.1
1003.051	19.82
1003.406	19.9
1003.76	19.78
1004.114	20.04
1004.469	20.11
1004.823	20.29
1005.177	20.43
1005.531	20.5
1005.885	20.6
1006.239	20.56
1006.593	20.65
1006.947	20.81
1007.301	20.88
1007.655	21.09
1008.008	21.1
1008.362	21.31
1008.715	21.39
1009.069	21.38
1009.422	21.27
1009.776	21.21
1010.129	21.35
1010.482	21.48
1010.835	21.75
1011.188	21.85
1011.541	21.73
1011.894	21.63
1012.247	21.53
1012.6	21.49
1012.952	21.47
1013.305	21.63
1013.657	21.82
1014.01	22
1014.362	22.19
1014.715	22.08
1015.067	22.09
1015.419	22.48
1015.771	22.79
1016.123	22.77
1016.475	22.97
1016.827	23.22
1017.179	23.3
1017.531	23.31
1017.883	23.49
1018.234	23.47
1018.586	23.26
1018.938	23.18
1019.289	23.21
1019.64	23.42
1019.992	23.86
1020.343	24.06
1020.694	23.85
1021.045	24.09
1021.396	24.24
1021.747	24.38
1022.098	24.52
1022.449	25.05
1022.8	25.42
1023.151	25.4
1023.501	25.47
1023.852	25.59
1024.202	25.61
1024.553	25.99
1024.903	25.96
1025.253	26.28
1025.604	26.51
1025.954	26.45
1026.304	27.21
1026.654	27.26
1027.004	27.49
1027.354	27.63
1027.703	27.8
1028.053	28.12
1028.403	28.26
1028.753	28.68
1029.102	28.79
1029.452	28.72
1029.801	29.13
1030.15	28.81
1030.499	29.08
897.758	443.32
901.051	458.46
904.343	461.31
907.636	452.44
910.928	447.4
914.22	450.17
917.511	440.82
920.803	423.56
924.094	405.28
927.384	410.05
930.675	400.26
933.965	397.74
937.255	390.66
940.544	374.74
943.834	362.72
947.123	356.89
950.411	341.09
953.7	333.91
956.988	326.03
960.276	314.85
963.563	311.92
966.851	294.09
970.138	289.5
973.424	273.59
976.711	267.51
979.997	257.01
983.283	250.67
986.568	243.5
989.853	240.14
993.138	231.76
996.423	227.32
999.708	220.6
1002.992	220.58
1006.275	215.15
1009.559	211.89
1012.842	208.39
1016.125	201.98
1019.408	198.32
1022.69	197.82
1025.972	192.77
1029.254	190.02
1032.536	187.22
1035.817	182.14
1039.098	180.46
1042.379	175.08
1045.659	174.92
1048.939	172.57
1052.219	171.27
1055.498	168.44
1058.778	165.22
1062.057	162.98
1065.335	160.93
1068.614	157.88
1071.892	155.68
1075.17	153.63
1078.447	152.19
1081.724	149.74
1085.001	145.59
1088.278	145.24
1091.554	144.28
1094.83	143.21
1098.106	142.35
1101.382	141.35
1104.657	140.93
1107.932	140.69
1111.206	139.77
1114.481	139.3
1117.755	138.33
1121.029	139.49
1124.302	137.05
1127.575	136.13
1130.848	135.76
1134.121	134.04
1137.393	133.91
1140.665	134.02
1143.937	132.21
1147.208	129.7
1150.48	127.99
1153.75	128.01
1157.021	126.33
1160.291	126.59
1163.561	125.68
1166.831	124.95
1170.101	124.23
1173.37	123.2
1176.639	121.57
1179.907	121.76
1183.176	122.33
1186.444	122.86
1189.711	122
1192.979	123.12
1196.246	122.78
1199.513	122.96
1202.78	122.6
1206.046	122.81
1209.312	123.56
1212.578	124.02
1215.843	125.71
1219.108	126.14
1222.373	127.23
1225.638	128.91
1228.902	131.5
1232.166	135.3
1235.43	135.75
1238.693	140.3
1241.956	143.18
1245.219	146.44
1248.482	147.48
1251.744	146.5
1255.006	147.74
1258.268	144.4
1261.529	143.15
1264.79	140.25
1268.051	137.46
1271.312	137.25
1274.572	133.75
1277.832	130.87
1281.092	129.45
1284.351	127.03
1287.61	127.2
1290.869	125.61
1294.128	125.93
1297.386	125.34
1300.644	124.45
1303.902	123.26
1307.159	122.34
1310.416	123.38
1313.673	124.71
1316.93	126.26
1320.186	128.41
1323.442	129.42
1326.697	131.83
1329.953	132.45
1333.208	137.01
1336.463	141.67
1339.717	145.23
1342.972	151.43
1346.226	154.1
1349.479	155.21
1352.733	159.37
1355.986	163.46
1359.238	166.67
1362.491	167.11
1365.743	174.19
1368.995	173.98
1372.247	174.38
1375.498	173.63
1378.749	178.43
1382	178.19
1385.251	177.16
1388.501	177.3
1391.751	176.82
1395	176.1
1398.25	178.32
1401.499	175.95
1404.748	175.17
1407.996	170.41
1411.244	170.09
1414.492	168.21
1417.74	162.9
1420.987	159.72
1424.234	157.63
1427.481	151.97
1430.728	148.31
1433.974	142.86
1437.22	138.75
1440.465	133.72
1443.711	129.85
1446.956	126.04
1450.201	120.4
1453.445	115.82
1456.689	112.44
1459.933	108.99
1463.177	104.76
1466.42	102.51
1469.663	99.99
1472.906	97.17
1476.148	95.28
1479.391	93.6
1482.633	91.91
1485.874	91.17
1489.115	90.86
1492.356	89.69
1495.597	88.17
1498.838	88.51
1502.078	87.92
1505.318	87.75
1508.557	87.49
1511.797	86.8
1515.036	86.85
1518.274	86.34
1521.513	85.81
1524.751	85.08
1527.989	86.13
1531.227	86.03
1534.464	85.89
1537.701	85.39
1540.938	84.97
1544.174	84.87
1547.41	85.23
1550.646	85.14
1553.882	85.4
1557.117	84.79
1560.352	85.29
1563.587	84.47
1566.821	84.29
1570.055	83.84
1573.289	84.37
1576.523	84.61
1579.756	84.41
1582.989	84.01
1586.222	84.12
1589.454	83.5
1592.686	84.27
1595.918	84.06
1599.15	83.68
1602.381	84.32
1605.612	84.42
1608.843	83.92
1612.073	84.04
1615.303	84.14
1618.533	84.34
1621.762	84.64
1624.992	85.48
1628.221	84.73
1631.449	85.05
1634.678	85.45
1637.906	84.92
1641.134	85.43
1644.361	85.28
1647.588	86.32
1650.815	86.53
1654.042	86.47
1657.269	85.83
1660.495	86.22
1663.72	86.23
1666.946	86.5
1670.171	86.68
1673.396	86.99
1676.621	87.18
1679.845	87.35
1683.069	86.27
1686.293	86.04
1689.517	86.77
1692.74	87.13
1695.963	86.71
1699.185	87.15
1702.408	86.67
1705.63	86.99
1708.852	87.91
1712.073	87.05
1715.294	87.31
1718.515	87.97
1721.736	88.25
1724.956	88.23
1728.176	88.26
1731.396	88.89
1734.616	88.9
1737.835	89.16
1741.054	88.66
1744.272	88.06
1747.491	88.58
1750.709	88.77
1753.927	88.6
1757.144	88.94
1760.361	88.7
1763.578	89.2
1766.795	89.29
1770.011	89.19
1773.227	89.59
1776.443	90.56
1779.658	90.08
1782.874	91.04
1786.089	90.62
1789.303	90.7
1792.518	91.39
1795.732	91.62
1798.945	92.29
1802.159	92.06
1805.372	93.08
1808.585	93.73
1811.797	94.36
1815.01	95.28
1818.222	95.35
1821.434	96.67
1824.645	96.81
1827.856	97.51
1831.067	97.99
1834.278	98.23
1837.488	99.48
1840.698	100.93
1843.908	100.56
1847.117	101.2
1850.326	101.66
1853.535	102.51
1856.744	102.84
1859.952	104.7
1863.16	104.08
1866.368	103.16
1869.575	103.81
1872.782	103.84
1875.989	101.05
1879.196	100.96
1882.402	99.29
1885.608	99.84
1888.814	98.4
1892.019	98.62
1895.224	96.24
1898.429	96.11
1901.634	96.64
1904.838	96.45
1908.042	95.79
1911.246	95.51
1914.449	95.78
1917.652	95.47
1920.855	95.66
1924.058	93.94
1927.26	92.74
1930.462	93.23
1933.664	93.72
1936.865	94.62
1940.066	92.7
1943.267	91.72
1946.467	93.56
1949.668	93.6
1952.868	94.06
1956.067	93.03
1959.267	94.8
1962.466	95.66
1965.665	96.85
1968.863	96.53
1972.061	96.83
1975.259	99.61
1978.457	101.22
1981.654	101.27
1984.852	102.22
1988.048	103.5
1991.245	105.58
1994.441	107.93
1997.637	110.34
2000.833	111.82
2004.028	113.89
2007.223	116.32
2010.418	118.06
2013.613	123.17
2016.807	127.39
2020.001	129.69
2023.194	132.53
2026.388	136.91
2029.581	143.94
2032.774	147.83
2035.966	152
2039.158	155.7
2042.35	159.4
2045.542	162.14
2048.733	169.74
2051.924	169.98
2055.115	172.63
2058.306	175.89
2061.496	178.26
2064.686	176.2
2067.875	176.92
2071.065	180.12
2074.254	181
2077.442	183.96
2080.631	187.86
2083.819	185.82
2087.007	192.37
2090.195	193.79
2093.382	193.18
2096.569	194.91
2099.756	199.95
2102.942	202.66
2106.128	206.88
2109.314	207.81
2112.5	210.63
2115.685	205.82
2118.87	206.93
2122.055	206.75
2125.239	212.41
2128.424	216.87
2131.608	216.36
2134.791	214.65
2137.974	216.06
2141.157	217.29
2144.34	219.5
2147.523	226.49
2150.705	234.68
2153.887	230.22
2157.068	231.99
2160.25	235.74
2163.431	236.44
2166.611	238.09
2169.792	244.97
2172.972	248.38
2176.152	247.07
2179.331	251.55
2182.511	247.84
2185.69	250.99
2188.868	261.59
2192.047	268.78
2195.225	271.27
2198.403	274.53
2201.58	271.99
2204.758	277.89
2207.935	278.4
2211.111	285.43
2214.288	287.47
2217.464	292.15
2220.64	294.13
2223.815	294.52
2226.991	289.23
2230.166	291.21
2233.34	297.99
2236.515	308.09
2239.689	306.19
2242.863	309.66
2246.036	308.03
2249.209	313.42
2252.382	310.81
2255.555	319.62
2258.727	322.74
2261.9	334.03
2265.071	339.18
2268.243	337.88
2271.414	344.54
2274.585	351.9
2277.756	352.97
2280.926	367.76
2284.096	371.57
2287.266	376.34
2290.436	367.29
2293.605	374.91
2296.774	387.48
2299.942	386.35
2303.111	395.67
2306.279	406.09
2309.447	403.35
2312.614	406.72
2315.781	410.78
2318.948	416.83
2322.115	421.42
2325.281	448.51
2328.447	443.52
2331.613	445.01
2334.779	448.56
2337.944	458.11
2341.109	463.93
2344.274	471.29
2347.438	481.61
2350.602	492.71
2353.766	517.92
2356.929	521.16
2360.092	525.07
2363.255	531.15
2366.418	536.4
2369.58	547.97
2372.742	552.92
2375.904	550.69
2379.066	567.82
2382.227	599.85
2385.388	599.35
2388.548	572.93
2391.709	568.13
2394.869	583.4
2398.029	584.85
2401.188	589.26
2404.347	607.55
2407.506	623.57
2410.665	600.24
2413.823	602.4
2416.981	602.96
2420.139	569.73
2423.296	619.59
2426.453	656.14
2429.61	627.42
2432.767	670.18
2435.923	686.99
2439.079	670.83
2442.235	682.5
2445.391	699.96
2448.546	691.99
2451.701	732.93
2454.855	786.51
2458.009	691.14
2461.163	703.47
2464.317	718.21
2467.471	702.92
2470.624	722.13
2473.777	707.12
2476.929	687.35
2480.082	731.83
2483.234	770.42
2486.385	773.55
2489.537	792.98
2492.688	876.77
2495.839	861.05
2498.989	883.34
2502.14	886.07
2505.29	851.89
2508.439	929.7
2511.589	949.69
2514.738	934.2
2517.887	923.54
2521.035	872.43
2524.183	856.8
2527.331	846.52
2530.479	830.02
2533.627	844.27
