Data from N_3_ofc_oh_4n_Splice17_01.txt Node
Date: Sat Feb 29 15:05:55 EST 2020
User: sa697716
Spectrometer: FLMS03696
Trigger mode: 0
Integration Time (sec): 3.180400E-1
Scans to average: 20
Electric dark correction enabled: true
Nonlinearity correction enabled: true
Boxcar width: 5
XAxis mode: Wavelengths
Number of Pixels in Spectrum: 2048
>>>>>Begin Spectral Data<<<<<
187.83	55.7
188.298	50.45
188.766	55.58
189.233	51.78
189.701	67
190.169	67.8
190.636	80.85
191.104	112.06
191.571	571.07
192.039	450.36
192.506	-825.22
192.974	-2762.79
193.441	487.19
193.908	59.26
194.375	54.49
194.842	208.99
195.31	120.82
195.777	162.9
196.244	120.11
196.711	98.16
197.177	96.63
197.644	94.72
198.111	92.6
198.578	92.71
199.045	92.89
199.511	93.33
199.978	93.78
200.445	93.52
200.911	93.35
201.378	93.22
201.844	94.28
202.31	94
202.777	94.31
203.243	94.81
203.709	95.14
204.176	94.62
204.642	93.82
205.108	93.24
205.574	92.97
206.04	92.4
206.506	91.56
206.972	90.77
207.438	90.54
207.903	89.55
208.369	87.98
208.835	86.45
209.301	85.41
209.766	83.84
210.232	81.76
210.697	79.87
211.163	78.38
211.628	76.76
212.094	75.09
212.559	73.37
213.024	71.94
213.49	70.53
213.955	68.74
214.42	66.67
214.885	64.54
215.35	62.13
215.815	58.97
216.28	55.25
216.745	51.11
217.21	46.55
217.675	42.33
218.14	38.56
218.604	35.13
219.069	32.45
219.534	30.11
219.998	28.14
220.463	26.51
220.927	25.12
221.392	23.89
221.856	22.88
222.32	22.03
222.785	21.28
223.249	20.6
223.713	20.07
224.177	19.51
224.642	18.99
225.106	18.53
225.57	18.09
226.034	17.7
226.497	17.33
226.961	16.97
227.425	16.61
227.889	16.27
228.353	15.95
228.816	15.64
229.28	15.29
229.744	15.03
230.207	14.77
230.671	14.51
231.134	14.24
231.597	14.01
232.061	13.77
232.524	13.59
232.987	13.39
233.45	13.19
233.914	13.02
234.377	12.86
234.84	12.68
235.303	12.51
235.766	12.36
236.229	12.23
236.691	12.09
237.154	11.95
237.617	11.82
238.08	11.7
238.542	11.58
239.005	11.48
239.468	11.36
239.93	11.27
240.393	11.17
240.855	11.04
241.317	10.93
241.78	10.83
242.242	10.73
242.704	10.62
243.166	10.52
243.629	10.44
244.091	10.32
244.553	10.23
245.015	10.13
245.477	10.03
245.939	9.95
246.4	9.85
246.862	9.78
247.324	9.72
247.786	9.64
248.247	9.56
248.709	9.46
249.17	9.39
249.632	9.31
250.093	9.23
250.555	9.16
251.016	9.1
251.477	9.03
251.939	8.95
252.4	8.87
252.861	8.8
253.322	8.74
253.783	8.7
254.244	8.64
254.705	8.58
255.166	8.53
255.627	8.48
256.088	8.4
256.549	8.35
257.009	8.29
257.47	8.24
257.931	8.18
258.391	8.11
258.852	8.03
259.312	7.99
259.773	7.93
260.233	7.86
260.694	7.8
261.154	7.76
261.614	7.71
262.074	7.66
262.534	7.6
262.994	7.55
263.455	7.51
263.915	7.47
264.374	7.42
264.834	7.39
265.294	7.34
265.754	7.3
266.214	7.26
266.673	7.22
267.133	7.17
267.593	7.15
268.052	7.12
268.512	7.09
268.971	7.06
269.431	7.04
269.89	7.01
270.349	6.99
270.809	6.97
271.268	6.95
271.727	6.93
272.186	6.91
272.645	6.89
273.104	6.87
273.563	6.86
274.022	6.84
274.481	6.81
274.94	6.8
275.399	6.78
275.857	6.77
276.316	6.75
276.775	6.73
277.233	6.7
277.692	6.68
278.15	6.66
278.609	6.64
279.067	6.62
279.525	6.61
279.984	6.6
280.442	6.6
280.9	6.58
281.358	6.56
281.816	6.55
282.274	6.55
282.732	6.54
283.19	6.55
283.648	6.54
284.106	6.53
284.564	6.52
285.021	6.51
285.479	6.5
285.937	6.49
286.394	6.48
286.852	6.48
287.309	6.46
287.767	6.44
288.224	6.42
288.682	6.4
289.139	6.38
289.596	6.35
290.053	6.31
290.511	6.28
290.968	6.25
291.425	6.23
291.882	6.2
292.339	6.17
292.796	6.14
293.252	6.12
293.709	6.09
294.166	6.07
294.623	6.05
295.079	6.04
295.536	6.02
295.992	6
296.449	5.97
296.905	5.95
297.362	5.94
297.818	5.92
298.274	5.9
298.731	5.89
299.187	5.88
299.643	5.86
300.099	5.85
300.555	5.85
301.011	5.83
301.467	5.82
301.923	5.82
302.379	5.81
302.835	5.8
303.291	5.79
303.746	5.79
304.202	5.78
304.658	5.77
305.113	5.76
305.569	5.75
306.024	5.75
306.479	5.75
306.935	5.74
307.39	5.73
307.845	5.73
308.301	5.73
308.756	5.73
309.211	5.73
309.666	5.73
310.121	5.73
310.576	5.73
311.031	5.73
311.486	5.74
311.94	5.73
312.395	5.74
312.85	5.75
313.305	5.74
313.759	5.75
314.214	5.74
314.668	5.74
315.123	5.73
315.577	5.73
316.032	5.72
316.486	5.71
316.94	5.71
317.394	5.68
317.849	5.67
318.303	5.65
318.757	5.62
319.211	5.61
319.665	5.58
320.119	5.57
320.572	5.57
321.026	5.55
321.48	5.54
321.934	5.53
322.387	5.53
322.841	5.52
323.295	5.5
323.748	5.5
324.202	5.5
324.655	5.49
325.108	5.48
325.562	5.46
326.015	5.46
326.468	5.44
326.921	5.43
327.374	5.43
327.827	5.43
328.28	5.42
328.733	5.41
329.186	5.41
329.639	5.41
330.092	5.41
330.545	5.42
330.997	5.41
331.45	5.42
331.903	5.42
332.355	5.41
332.808	5.42
333.26	5.42
333.713	5.44
334.165	5.45
334.617	5.46
335.069	5.47
335.522	5.47
335.974	5.49
336.426	5.49
336.878	5.5
337.33	5.5
337.782	5.51
338.234	5.51
338.686	5.51
339.137	5.5
339.589	5.49
340.041	5.48
340.493	5.46
340.944	5.45
341.396	5.44
341.847	5.42
342.299	5.39
342.75	5.37
343.201	5.35
343.653	5.32
344.104	5.31
344.555	5.3
345.006	5.27
345.457	5.26
345.908	5.25
346.359	5.24
346.81	5.24
347.261	5.23
347.712	5.23
348.163	5.23
348.613	5.23
349.064	5.21
349.515	5.2
349.965	5.2
350.416	5.21
350.866	5.21
351.317	5.2
351.767	5.2
352.217	5.19
352.668	5.19
353.118	5.19
353.568	5.19
354.018	5.2
354.468	5.2
354.918	5.21
355.368	5.21
355.818	5.21
356.268	5.22
356.718	5.22
357.168	5.22
357.617	5.22
358.067	5.22
358.517	5.21
358.966	5.21
359.416	5.22
359.865	5.21
360.315	5.21
360.764	5.21
361.213	5.2
361.663	5.2
362.112	5.22
362.561	5.21
363.01	5.22
363.459	5.24
363.908	5.24
364.357	5.24
364.806	5.23
365.255	5.24
365.703	5.24
366.152	5.25
366.601	5.25
367.05	5.25
367.498	5.25
367.947	5.24
368.395	5.24
368.844	5.24
369.292	5.24
369.74	5.25
370.189	5.26
370.637	5.25
371.085	5.25
371.533	5.25
371.981	5.26
372.429	5.25
372.877	5.25
373.325	5.24
373.773	5.24
374.221	5.23
374.669	5.23
375.116	5.22
375.564	5.21
376.012	5.22
376.459	5.22
376.907	5.22
377.354	5.22
377.801	5.24
378.249	5.25
378.696	5.27
379.143	5.29
379.591	5.29
380.038	5.31
380.485	5.33
380.932	5.34
381.379	5.34
381.826	5.37
382.273	5.38
382.72	5.4
383.166	5.4
383.613	5.41
384.06	5.41
384.506	5.43
384.953	5.44
385.4	5.47
385.846	5.5
386.292	5.54
386.739	5.57
387.185	5.63
387.631	5.68
388.078	5.74
388.524	5.77
388.97	5.83
389.416	5.89
389.862	5.96
390.308	6.06
390.754	6.17
391.2	6.28
391.645	6.38
392.091	6.47
392.537	6.58
392.983	6.71
393.428	6.92
393.874	7.17
394.319	7.42
394.765	7.69
395.21	7.94
395.655	8.22
396.101	8.53
396.546	8.88
396.991	9.26
397.436	9.63
397.881	10.03
398.326	10.42
398.771	10.77
399.216	11.13
399.661	11.46
400.106	11.79
400.551	12.05
400.995	12.27
401.44	12.46
401.885	12.65
402.329	12.86
402.774	13.07
403.218	13.28
403.663	13.53
404.107	13.79
404.551	14.08
404.995	14.32
405.44	14.57
405.884	14.81
406.328	15.11
406.772	15.45
407.216	15.81
407.66	16.15
408.104	16.46
408.547	16.72
408.991	16.94
409.435	17.16
409.879	17.45
410.322	17.8
410.766	18.17
411.209	18.49
411.653	18.79
412.096	19.03
412.54	19.27
412.983	19.51
413.426	19.78
413.869	20.06
414.312	20.38
414.756	20.63
415.199	20.84
415.642	21.04
416.085	21.24
416.527	21.38
416.97	21.46
417.413	21.48
417.856	21.43
418.298	21.39
418.741	21.41
419.184	21.4
419.626	21.44
420.069	21.52
420.511	21.59
420.953	21.65
421.396	21.75
421.838	21.94
422.28	22.2
422.722	22.49
423.164	22.72
423.606	22.9
424.048	23.05
424.49	23.13
424.932	23.02
425.374	22.77
425.816	22.39
426.258	21.99
426.699	21.67
427.141	21.55
427.582	21.65
428.024	21.89
428.465	22.18
428.907	22.44
429.348	22.7
429.789	23.03
430.231	23.56
430.672	24.35
431.113	25.26
431.554	26.14
431.995	26.84
432.436	27.33
432.877	27.67
433.318	27.94
433.759	28.22
434.2	28.58
434.64	29.07
435.081	29.56
435.522	29.98
435.962	30.3
436.403	30.58
436.843	30.79
437.284	31.03
437.724	31.32
438.164	31.66
438.604	32.07
439.045	32.47
439.485	32.85
439.925	33.14
440.365	33.35
440.805	33.49
441.245	33.59
441.685	33.72
442.125	33.91
442.564	34.15
443.004	34.36
443.444	34.62
443.883	34.89
444.323	35.17
444.762	35.47
445.202	35.84
445.641	36.27
446.081	36.81
446.52	37.31
446.959	37.77
447.398	38.13
447.837	38.41
448.276	38.49
448.716	38.58
449.154	38.64
449.593	38.69
450.032	38.67
450.471	38.62
450.91	38.45
451.349	38.27
451.787	38.13
452.226	38
452.664	37.9
453.103	37.89
453.541	37.85
453.98	37.72
454.418	37.56
454.856	37.39
455.295	37.18
455.733	37.03
456.171	36.9
456.609	36.77
457.047	36.68
457.485	36.62
457.923	36.6
458.361	36.61
458.798	36.7
459.236	36.79
459.674	36.86
460.111	36.96
460.549	37.03
460.987	37.13
461.424	37.22
461.862	37.3
462.299	37.37
462.736	37.43
463.173	37.54
463.611	37.68
464.048	37.91
464.485	38.16
464.922	38.49
465.359	38.84
465.796	39.09
466.233	39.37
466.67	39.67
467.106	40.07
467.543	40.52
467.98	40.93
468.416	41.29
468.853	41.58
469.29	41.92
469.726	42.2
470.162	42.51
470.599	42.83
471.035	43.14
471.471	43.35
471.907	43.44
472.344	43.48
472.78	43.52
473.216	43.58
473.652	43.66
474.088	43.68
474.523	43.66
474.959	43.61
475.395	43.59
475.831	43.51
476.266	43.46
476.702	43.44
477.138	43.36
477.573	43.26
478.008	43.11
478.444	42.87
478.879	42.63
479.314	42.36
479.75	42.05
480.185	41.69
480.62	41.26
481.055	40.68
481.49	39.93
481.925	39.12
482.36	38.37
482.795	37.7
483.229	37.2
483.664	36.77
484.099	36.4
484.534	36.05
484.968	35.8
485.403	35.63
485.837	35.63
486.271	35.77
486.706	35.95
487.14	36.07
487.574	36.1
488.009	36.05
488.443	35.98
488.877	35.91
489.311	35.87
489.745	35.81
490.179	35.79
490.613	35.76
491.046	35.75
491.48	35.76
491.914	35.82
492.348	35.94
492.781	36.05
493.215	36.16
493.648	36.24
494.082	36.28
494.515	36.32
494.948	36.34
495.382	36.36
495.815	36.36
496.248	36.35
496.681	36.32
497.114	36.27
497.547	36.23
497.98	36.23
498.413	36.28
498.846	36.39
499.279	36.49
499.711	36.57
500.144	36.66
500.577	36.83
501.009	37.07
501.442	37.38
501.874	37.7
502.306	38.05
502.739	38.32
503.171	38.57
503.603	38.81
504.036	39.07
504.468	39.38
504.9	39.73
505.332	40.01
505.764	40.29
506.196	40.53
506.627	40.82
507.059	41.11
507.491	41.44
507.923	41.79
508.354	42.13
508.786	42.46
509.217	42.73
509.649	43
510.08	43.3
510.512	43.61
510.943	43.95
511.374	44.25
511.805	44.47
512.237	44.62
512.668	44.72
513.099	44.87
513.53	45.01
513.961	45.23
514.391	45.47
514.822	45.79
515.253	46.14
515.684	46.49
516.114	46.91
516.545	47.39
516.975	48
517.406	48.69
517.836	49.34
518.267	49.99
518.697	50.58
519.127	51.19
519.558	51.75
519.988	52.28
520.418	52.79
520.848	53.28
521.278	53.74
521.708	54.09
522.138	54.3
522.567	54.52
522.997	54.76
523.427	55.05
523.857	55.35
524.286	55.68
524.716	55.99
525.145	56.29
525.575	56.58
526.004	56.91
526.433	57.33
526.863	57.84
527.292	58.33
527.721	58.75
528.15	59.06
528.579	59.28
529.008	59.43
529.437	59.57
529.866	59.69
530.295	59.83
530.724	59.99
531.152	60.13
531.581	60.24
532.01	60.33
532.438	60.43
532.867	60.58
533.295	60.73
533.723	60.9
534.152	61.04
534.58	61.15
535.008	61.18
535.436	61.16
535.865	61.08
536.293	61
536.721	60.97
537.149	60.98
537.576	61.01
538.004	61.06
538.432	61.08
538.86	61.11
539.287	61.19
539.715	61.31
540.143	61.47
540.57	61.66
540.998	61.9
541.425	62.12
541.852	62.32
542.28	62.5
542.707	62.68
543.134	62.85
543.561	62.96
543.988	63.11
544.415	63.26
544.842	63.4
545.269	63.57
545.696	63.7
546.123	63.84
546.549	64
546.976	64.14
547.403	64.25
547.829	64.4
548.256	64.57
548.682	64.68
549.108	64.8
549.535	64.91
549.961	64.96
550.387	65.05
550.813	65.14
551.24	65.2
551.666	65.25
552.092	65.27
552.518	65.24
552.943	65.22
553.369	65.2
553.795	65.13
554.221	64.98
554.646	64.82
555.072	64.61
555.498	64.37
555.923	64.15
556.349	63.95
556.774	63.79
557.199	63.64
557.625	63.45
558.05	63.23
558.475	63.01
558.9	62.86
559.325	62.71
559.75	62.54
560.175	62.36
560.6	62.12
561.025	61.85
561.449	61.5
561.874	61.15
562.299	60.86
562.723	60.54
563.148	60.21
563.572	59.86
563.997	59.47
564.421	59.06
564.846	58.63
565.27	58.26
565.694	57.82
566.118	57.41
566.542	57.01
566.966	56.54
567.39	56.12
567.814	55.73
568.238	55.35
568.662	55.03
569.086	54.76
569.509	54.5
569.933	54.2
570.357	53.97
570.78	53.73
571.204	53.49
571.627	53.3
572.05	53.11
572.474	52.9
572.897	52.7
573.32	52.48
573.743	52.24
574.166	51.99
574.589	51.79
575.012	51.63
575.435	51.51
575.858	51.39
576.281	51.28
576.704	51.21
577.126	51.14
577.549	51.11
577.972	51.1
578.394	51.09
578.817	51.1
579.239	51.15
579.661	51.15
580.084	51.14
580.506	51.13
580.928	51.06
581.35	50.96
581.772	50.86
582.194	50.7
582.616	50.57
583.038	50.44
583.46	50.31
583.882	50.09
584.303	49.83
584.725	49.49
585.147	49.12
585.568	48.81
585.99	48.55
586.411	48.35
586.833	48.16
587.254	47.93
587.675	47.72
588.096	47.55
588.518	47.42
588.939	47.34
589.36	47.34
589.781	47.36
590.202	47.38
590.623	47.34
591.043	47.23
591.464	47.12
591.885	47.01
592.305	46.95
592.726	46.81
593.147	46.7
593.567	46.56
593.987	46.43
594.408	46.27
594.828	46.11
595.248	45.96
595.669	45.79
596.089	45.61
596.509	45.41
596.929	45.17
597.349	44.91
597.769	44.66
598.189	44.46
598.608	44.25
599.028	44.05
599.448	43.9
599.867	43.73
600.287	43.6
600.706	43.45
601.126	43.31
601.545	43.17
601.965	43.08
602.384	42.96
602.803	42.82
603.222	42.66
603.641	42.52
604.061	42.33
604.48	42.13
604.898	41.94
605.317	41.76
605.736	41.54
606.155	41.33
606.574	41.12
606.992	40.91
607.411	40.73
607.829	40.51
608.248	40.33
608.666	40.14
609.085	39.97
609.503	39.76
609.921	39.54
610.339	39.39
610.758	39.23
611.176	39.04
611.594	38.82
612.012	38.59
612.43	38.42
612.847	38.22
613.265	38.04
613.683	37.87
614.101	37.71
614.518	37.58
614.936	37.45
615.353	37.31
615.771	37.22
616.188	37.17
616.606	37.09
617.023	37.01
617.44	36.93
617.857	36.81
618.274	36.7
618.691	36.59
619.108	36.44
619.525	36.28
619.942	36.12
620.359	35.95
620.776	35.75
621.192	35.57
621.609	35.4
622.026	35.25
622.442	35.12
622.859	34.95
623.275	34.82
623.691	34.66
624.108	34.52
624.524	34.38
624.94	34.24
625.356	34.11
625.772	34
626.188	33.9
626.604	33.78
627.02	33.67
627.436	33.58
627.852	33.49
628.268	33.44
628.683	33.41
629.099	33.4
629.514	33.4
629.93	33.38
630.345	33.36
630.761	33.35
631.176	33.31
631.591	33.28
632.007	33.24
632.422	33.2
632.837	33.16
633.252	33.09
633.667	33.01
634.082	32.93
634.497	32.85
634.911	32.74
635.326	32.59
635.741	32.44
636.155	32.29
636.57	32.14
636.984	31.97
637.399	31.77
637.813	31.58
638.228	31.39
638.642	31.18
639.056	30.99
639.47	30.8
639.884	30.63
640.298	30.46
640.712	30.26
641.126	30.09
641.54	29.9
641.954	29.72
642.368	29.53
642.781	29.32
643.195	29.11
643.609	28.91
644.022	28.72
644.436	28.52
644.849	28.31
645.262	28.1
645.676	27.87
646.089	27.71
646.502	27.55
646.915	27.45
647.328	27.34
647.741	27.22
648.154	27.14
648.567	27.06
648.98	26.99
649.393	26.94
649.805	26.9
650.218	26.87
650.631	26.76
651.043	26.64
651.456	26.41
651.868	26.13
652.28	25.84
652.693	25.55
653.105	25.29
653.517	25.09
653.929	24.92
654.341	24.81
654.753	24.71
655.165	24.64
655.577	24.58
655.989	24.63
656.401	24.71
656.813	24.85
657.224	24.95
657.636	25.01
658.047	25.03
658.459	25.01
658.87	24.92
659.282	24.82
659.693	24.72
660.104	24.61
660.515	24.48
660.926	24.39
661.338	24.27
661.749	24.15
662.159	24.04
662.57	23.89
662.981	23.75
663.392	23.61
663.803	23.48
664.213	23.36
664.624	23.27
665.035	23.14
665.445	23.01
665.855	22.88
666.266	22.76
666.676	22.63
667.086	22.54
667.497	22.42
667.907	22.33
668.317	22.21
668.727	22.1
669.137	21.98
669.547	21.89
669.956	21.81
670.366	21.75
670.776	21.65
671.186	21.58
671.595	21.51
672.005	21.46
672.414	21.41
672.824	21.38
673.233	21.35
673.642	21.3
674.052	21.28
674.461	21.24
674.87	21.19
675.279	21.18
675.688	21.16
676.097	21.15
676.506	21.14
676.915	21.14
677.323	21.14
677.732	21.16
678.141	21.19
678.549	21.2
678.958	21.25
679.366	21.29
679.775	21.32
680.183	21.35
680.592	21.4
681	21.45
681.408	21.5
681.816	21.51
682.224	21.45
682.632	21.34
683.04	21.13
683.448	20.93
683.856	20.78
684.264	20.69
684.671	20.62
685.079	20.59
685.487	20.61
685.894	20.67
686.302	20.81
686.709	21.08
687.116	21.49
687.524	22.04
687.931	22.64
688.338	23.27
688.745	23.9
689.152	24.58
689.559	25.24
689.966	25.9
690.373	26.62
690.78	27.34
691.187	28.05
691.593	28.75
692	29.48
692.407	30.21
692.813	30.93
693.22	31.67
693.626	32.41
694.032	33.16
694.439	33.91
694.845	34.64
695.251	35.35
695.657	36.05
696.063	36.77
696.469	37.43
696.875	38.08
697.281	38.72
697.687	39.35
698.093	39.97
698.498	40.57
698.904	41.2
699.31	41.81
699.715	42.46
700.12	43.08
700.526	43.73
700.931	44.38
701.337	45.03
701.742	45.66
702.147	46.31
702.552	46.96
702.957	47.57
703.362	48.18
703.767	48.77
704.172	49.34
704.577	49.91
704.981	50.44
705.386	50.94
705.791	51.47
706.195	51.99
706.6	52.46
707.004	52.93
707.408	53.44
707.813	53.89
708.217	54.33
708.621	54.77
709.025	55.2
709.43	55.6
709.834	56.05
710.237	56.43
710.641	56.85
711.045	57.24
711.449	57.61
711.853	57.96
712.256	58.28
712.66	58.54
713.064	58.78
713.467	58.97
713.87	59.14
714.274	59.28
714.677	59.36
715.08	59.38
715.484	59.47
715.887	59.53
716.29	59.63
716.693	59.78
717.096	60.07
717.499	60.38
717.901	60.74
718.304	61.17
718.707	61.57
719.109	62.03
719.512	62.49
719.915	62.88
720.317	63.27
720.719	63.6
721.122	63.9
721.524	64.16
721.926	64.41
722.328	64.62
722.731	64.77
723.133	64.95
723.535	65.15
723.937	65.35
724.338	65.55
724.74	65.74
725.142	65.9
725.544	66.1
725.945	66.29
726.347	66.5
726.748	66.62
727.15	66.8
727.551	67
727.952	67.19
728.354	67.4
728.755	67.64
729.156	67.9
729.557	68.24
729.958	68.56
730.359	68.81
730.76	69.01
731.161	69.27
731.562	69.52
731.962	69.72
732.363	69.9
732.763	70.11
733.164	70.21
733.564	70.32
733.965	70.39
734.365	70.41
734.766	70.45
735.166	70.49
735.566	70.51
735.966	70.5
736.366	70.52
736.766	70.53
737.166	70.55
737.566	70.59
737.966	70.6
738.365	70.64
738.765	70.71
739.165	70.77
739.564	70.83
739.964	70.91
740.363	71.01
740.763	71.04
741.162	71.11
741.561	71.15
741.96	71.22
742.36	71.3
742.759	71.35
743.158	71.39
743.557	71.46
743.955	71.54
744.354	71.58
744.753	71.63
745.152	71.69
745.55	71.74
745.949	71.79
746.348	71.82
746.746	71.84
747.144	71.9
747.543	71.93
747.941	71.95
748.339	71.98
748.737	72.05
749.136	72.04
749.534	72.07
749.932	72.1
750.33	72.1
750.727	72.13
751.125	72.15
751.523	72.11
751.921	72.11
752.318	72.1
752.716	72.05
753.113	71.99
753.511	71.97
753.908	71.91
754.305	71.8
754.703	71.62
755.1	71.23
755.497	70.59
755.894	69.67
756.291	68.54
756.688	67.31
757.085	66.14
757.482	65.07
757.878	64.04
758.275	63.03
758.672	62.05
759.068	61.16
759.465	60.45
759.861	60.06
760.258	60.02
760.654	60.29
761.05	60.72
761.447	61.21
761.843	61.66
762.239	62.17
762.635	62.75
763.031	63.48
763.427	64.26
763.822	65.09
764.218	65.94
764.614	66.8
765.01	67.56
765.405	68.26
765.801	68.91
766.196	69.53
766.592	70.1
766.987	70.59
767.382	70.9
767.778	71.17
768.173	71.42
768.568	71.54
768.963	71.66
769.358	71.75
769.753	71.91
770.148	72
770.542	72.01
770.937	72.02
771.332	72.04
771.726	72.08
772.121	72.13
772.515	72.14
772.91	72.2
773.304	72.21
773.699	72.21
774.093	72.12
774.487	72.09
774.881	72.12
775.275	72.11
775.669	72.08
776.063	72.04
776.457	71.97
776.851	71.93
777.245	71.91
777.638	71.9
778.032	71.92
778.425	71.96
778.819	71.93
779.212	71.86
779.606	71.83
779.999	71.79
780.392	71.75
780.786	71.72
781.179	71.69
781.572	71.66
781.965	71.59
782.358	71.46
782.751	71.36
783.143	71.32
783.536	71.3
783.929	71.25
784.322	71.17
784.714	71.13
785.107	71.08
785.499	71.02
785.891	70.92
786.284	70.83
786.676	70.82
787.068	70.74
787.46	70.61
787.852	70.51
788.245	70.39
788.636	70.28
789.028	70.16
789.42	70.01
789.812	69.91
790.204	69.79
790.595	69.69
790.987	69.6
791.378	69.52
791.77	69.49
792.161	69.4
792.553	69.35
792.944	69.33
793.335	69.28
793.726	69.23
794.117	69.18
794.508	69.17
794.899	69.11
795.29	69.02
795.681	68.99
796.072	68.9
796.463	68.84
796.853	68.73
797.244	68.62
797.634	68.51
798.025	68.44
798.415	68.32
798.806	68.19
799.196	68.12
799.586	68.05
799.976	67.94
800.366	67.83
800.756	67.71
801.146	67.62
801.536	67.53
801.926	67.45
802.316	67.38
802.706	67.32
803.095	67.25
803.485	67.14
803.874	67.05
804.264	66.98
804.653	66.87
805.043	66.74
805.432	66.62
805.821	66.51
806.21	66.43
806.599	66.33
806.988	66.24
807.377	66.12
807.766	65.99
808.155	65.89
808.544	65.73
808.933	65.59
809.321	65.5
809.71	65.39
810.098	65.21
810.487	65.01
810.875	64.76
811.264	64.55
811.652	64.34
812.04	64.13
812.428	63.91
812.816	63.73
813.204	63.57
813.592	63.38
813.98	63.18
814.368	63.04
814.756	62.92
815.144	62.85
815.531	62.74
815.919	62.63
816.306	62.56
816.694	62.53
817.081	62.46
817.469	62.42
817.856	62.39
818.243	62.31
818.63	62.24
819.017	62.16
819.404	62.03
819.791	61.98
820.178	61.94
820.565	61.87
820.952	61.79
821.339	61.77
821.725	61.7
822.112	61.64
822.498	61.64
822.885	61.64
823.271	61.63
823.657	61.63
824.044	61.57
824.43	61.51
824.816	61.44
825.202	61.35
825.588	61.24
825.974	61.16
826.36	61.05
826.746	60.97
827.132	60.84
827.517	60.75
827.903	60.65
828.289	60.59
828.674	60.48
829.06	60.41
829.445	60.34
829.83	60.27
830.216	60.19
830.601	60.18
830.986	60.13
831.371	60.13
831.756	60.05
832.141	60.05
832.526	59.97
832.911	59.97
833.295	59.95
833.68	59.94
834.065	59.89
834.449	59.84
834.834	59.75
835.218	59.69
835.603	59.62
835.987	59.56
836.371	59.51
836.755	59.49
837.139	59.42
837.524	59.37
837.908	59.27
838.291	59.24
838.675	59.24
839.059	59.2
839.443	59.15
839.827	59.08
840.21	59.07
840.594	59.01
840.977	58.95
841.361	58.93
841.744	58.9
842.127	58.85
842.511	58.81
842.894	58.71
843.277	58.7
843.66	58.67
844.043	58.66
844.426	58.62
844.809	58.55
845.191	58.52
845.574	58.43
845.957	58.33
846.339	58.28
846.722	58.24
847.104	58.22
847.487	58.17
847.869	58.12
848.252	58.06
848.634	58.02
849.016	58
849.398	57.95
849.78	57.93
850.162	57.88
850.544	57.85
850.926	57.77
851.307	57.7
851.689	57.64
852.071	57.58
852.452	57.57
852.834	57.53
853.215	57.5
853.597	57.5
853.978	57.46
854.359	57.48
854.741	57.51
855.122	57.52
855.503	57.55
855.884	57.53
856.265	57.54
856.646	57.51
857.026	57.49
857.407	57.43
857.788	57.41
858.169	57.41
858.549	57.4
858.93	57.35
859.31	57.35
859.69	57.32
860.071	57.3
860.451	57.28
860.831	57.25
861.211	57.2
861.591	57.21
861.971	57.15
862.351	57.1
862.731	57.05
863.111	57.01
863.491	56.95
863.87	56.89
864.25	56.87
864.629	56.81
865.009	56.77
865.388	56.74
865.768	56.7
866.147	56.71
866.526	56.72
866.905	56.74
867.284	56.74
867.663	56.71
868.042	56.72
868.421	56.73
868.8	56.74
869.179	56.76
869.558	56.75
869.936	56.73
870.315	56.72
870.693	56.7
871.072	56.66
871.45	56.65
871.828	56.63
872.207	56.63
872.585	56.59
872.963	56.57
873.341	56.54
873.719	56.54
874.097	56.53
874.475	56.53
874.853	56.52
875.23	56.51
875.608	56.51
875.986	56.53
876.363	56.46
876.741	56.45
877.118	56.42
877.495	56.41
877.873	56.39
878.25	56.4
878.627	56.36
879.004	56.35
879.381	56.32
879.758	56.26
880.135	56.26
880.512	56.25
880.889	56.26
881.265	56.27
881.642	56.27
882.019	56.24
882.395	56.17
882.772	56.14
883.148	56.08
883.524	56.06
883.901	56.05
884.277	56.01
884.653	55.99
885.029	55.95
885.405	55.9
885.781	55.83
886.157	55.83
886.532	55.83
886.908	55.82
887.284	55.83
887.659	55.8
888.035	55.77
888.411	55.72
888.786	55.69
889.161	55.66
889.537	55.63
889.912	55.61
890.287	55.54
890.662	55.49
891.037	55.42
891.412	55.34
891.787	55.27
892.162	55.18
892.536	55.14
892.911	55.06
893.286	55
893.66	54.95
894.035	54.88
894.409	54.84
894.784	54.78
895.158	54.75
895.532	54.69
895.906	54.66
896.281	54.64
896.655	54.61
897.029	54.59
897.402	54.56
897.776	54.52
898.15	54.49
898.524	54.47
898.898	54.43
899.271	54.43
899.645	54.45
900.018	54.44
900.392	54.45
900.765	54.46
901.138	54.48
901.511	54.5
901.884	54.55
902.258	54.58
902.631	54.61
903.003	54.64
903.376	54.62
903.749	54.65
904.122	54.66
904.495	54.65
904.867	54.63
905.24	54.63
905.612	54.6
905.985	54.56
906.357	54.51
906.729	54.49
907.102	54.48
907.474	54.51
907.846	54.48
908.218	54.45
908.59	54.46
908.962	54.45
909.334	54.44
909.705	54.46
910.077	54.47
910.449	54.52
910.82	54.51
911.192	54.53
911.563	54.49
911.935	54.47
912.306	54.48
912.677	54.5
913.048	54.52
913.419	54.49
913.79	54.48
914.161	54.45
914.532	54.42
914.903	54.43
915.274	54.39
915.645	54.4
916.015	54.43
916.386	54.42
916.756	54.34
917.127	54.36
917.497	54.39
917.868	54.4
918.238	54.41
918.608	54.43
918.978	54.41
919.348	54.41
919.718	54.41
920.088	54.43
920.458	54.46
920.828	54.48
921.198	54.47
921.567	54.42
921.937	54.36
922.306	54.39
922.676	54.38
923.045	54.34
923.415	54.34
923.784	54.34
924.153	54.32
924.522	54.3
924.891	54.27
925.26	54.2
925.629	54.22
925.998	54.24
926.367	54.17
926.736	54.13
927.104	54.16
927.473	54.14
927.842	54.06
928.21	54.06
928.578	53.96
928.947	53.94
929.315	53.92
929.683	53.87
930.051	53.82
930.42	53.79
930.788	53.74
931.156	53.63
931.523	53.58
931.891	53.53
932.259	53.42
932.627	53.37
932.994	53.31
933.362	53.25
933.729	53.17
934.097	53.12
934.464	53.06
934.831	53.02
935.199	53.01
935.566	53
935.933	53.02
936.3	52.99
936.667	53.05
937.034	53.05
937.401	53.09
937.767	53.19
938.134	53.23
938.501	53.28
938.867	53.42
939.234	53.56
939.6	53.66
939.967	53.8
940.333	53.95
940.699	54.06
941.065	54.23
941.431	54.36
941.798	54.45
942.163	54.64
942.529	54.84
942.895	54.92
943.261	54.99
943.627	55.14
943.992	55.11
944.358	55.23
944.723	55.28
945.089	55.33
945.454	55.43
945.82	55.44
946.185	55.4
946.55	55.44
946.915	55.36
947.28	55.31
947.645	55.22
948.01	55.18
948.375	55.08
948.74	54.98
949.104	54.94
949.469	54.74
949.834	54.58
950.198	54.45
950.562	54.3
950.927	54.31
951.291	54.19
951.655	54.11
952.02	54.07
952.384	54.1
952.748	54.04
953.112	53.98
953.476	54.04
953.839	54.04
954.203	53.96
954.567	53.88
954.931	53.83
955.294	53.84
955.658	53.77
956.021	53.73
956.385	53.69
956.748	53.68
957.111	53.57
957.474	53.48
957.837	53.47
958.2	53.49
958.563	53.51
958.926	53.39
959.289	53.36
959.652	53.34
960.015	53.35
960.377	53.21
960.74	53.16
961.102	53.17
961.465	53.25
961.827	53.23
962.189	53.2
962.552	53.1
962.914	53.11
963.276	53.11
963.638	53.11
964	53.07
964.362	53.14
964.724	53.15
965.085	53.21
965.447	53.08
965.809	53.01
966.17	53.01
966.532	53.07
966.893	53.13
967.255	53.06
967.616	53.06
967.977	53.05
968.338	53.03
968.699	53.03
969.061	52.94
969.421	53.01
969.782	53.06
970.143	53.1
970.504	53.07
970.865	53
971.225	53.02
971.586	53.06
971.946	53.08
972.307	53.04
972.667	53.05
973.027	53.13
973.388	53.14
973.748	53.12
974.108	53.12
974.468	53.18
974.828	53.26
975.188	53.31
975.548	53.25
975.907	53.26
976.267	53.29
976.627	53.29
976.986	53.25
977.346	53.2
977.705	53.24
978.064	53.24
978.424	53.18
978.783	53.24
979.142	53.3
979.501	53.27
979.86	53.23
980.219	53.23
980.578	53.27
980.937	53.3
981.296	53.35
981.654	53.47
982.013	53.52
982.371	53.65
982.73	53.56
983.088	53.52
983.447	53.64
983.805	53.7
984.163	53.77
984.521	53.76
984.879	53.82
985.237	53.94
985.595	53.89
985.953	53.86
986.311	53.88
986.669	53.97
987.026	54.06
987.384	54.06
987.741	54.19
988.099	54.3
988.456	54.41
988.814	54.38
989.171	54.31
989.528	54.3
989.885	54.31
990.242	54.36
990.599	54.43
990.956	54.42
991.313	54.44
991.67	54.48
992.027	54.47
992.383	54.53
992.74	54.69
993.096	54.76
993.453	54.89
993.809	55.13
994.165	55.09
994.522	55.16
994.878	55.16
995.234	55.12
995.59	55.05
995.946	55.05
996.302	54.95
996.658	54.91
997.013	55.03
997.369	55.02
997.725	55
998.08	55.01
998.436	55.05
998.791	55.23
999.147	55.39
999.502	55.43
999.857	55.51
1000.212	55.65
1000.567	55.7
1000.922	55.63
1001.277	55.59
1001.632	55.59
1001.987	55.73
1002.342	55.7
1002.696	55.59
1003.051	55.43
1003.406	55.55
1003.76	55.56
1004.114	55.76
1004.469	55.76
1004.823	55.87
1005.177	56.28
1005.531	56.34
1005.885	56.48
1006.239	56.68
1006.593	56.83
1006.947	57.13
1007.301	57.15
1007.655	57.4
1008.008	57.29
1008.362	57.49
1008.715	57.61
1009.069	57.3
1009.422	57.21
1009.776	57.16
1010.129	57
1010.482	57.2
1010.835	57.36
1011.188	57.44
1011.541	57.36
1011.894	57.54
1012.247	57.42
1012.6	57.4
1012.952	57.7
1013.305	57.84
1013.657	57.87
1014.01	58.19
1014.362	58.27
1014.715	58.14
1015.067	58.39
1015.419	58.68
1015.771	59.04
1016.123	59.33
1016.475	59.57
1016.827	59.69
1017.179	60.12
1017.531	60.53
1017.883	60.82
1018.234	60.92
1018.586	61.33
1018.938	61.36
1019.289	61.34
1019.64	61.39
1019.992	61.58
1020.343	61.5
1020.694	61.79
1021.045	61.97
1021.396	62.04
1021.747	62.01
1022.098	62.02
1022.449	62.15
1022.8	62.49
1023.151	62.75
1023.501	62.51
1023.852	62.82
1024.202	62.95
1024.553	62.8
1024.903	62.73
1025.253	62.92
1025.604	63.01
1025.954	63.16
1026.304	63.87
1026.654	63.81
1027.004	64.05
1027.354	64.51
1027.703	64.48
1028.053	64.52
1028.403	64.81
1028.753	65.27
1029.102	65.44
1029.452	65.76
1029.801	66.01
1030.15	65.48
1030.499	65.86
897.758	598.17
901.051	615.62
904.343	620.13
907.636	606.89
910.928	599.97
914.22	610.37
917.511	596.27
920.803	573.81
924.094	548.21
927.384	554.97
930.675	538.37
933.965	532.56
937.255	527.33
940.544	504.8
943.834	487.87
947.123	478.01
950.411	455.83
953.7	450.22
956.988	434.87
960.276	417.79
963.563	410.43
966.851	391.11
970.138	384.27
973.424	359.58
976.711	355.15
979.997	338.99
983.283	332.62
986.568	320.7
989.853	312.89
993.138	303.44
996.423	298.56
999.708	292.43
1002.992	292.77
1006.275	281.36
1009.559	279.28
1012.842	272.19
1016.125	267.73
1019.408	262.18
1022.69	258.55
1025.972	255.94
1029.254	249.63
1032.536	245.18
1035.817	236.65
1039.098	232.93
1042.379	230.73
1045.659	228.13
1048.939	225.86
1052.219	220.1
1055.498	217.22
1058.778	214.93
1062.057	210.72
1065.335	209.89
1068.614	206.28
1071.892	204.28
1075.17	199.55
1078.447	196.43
1081.724	195.02
1085.001	189.96
1088.278	191.46
1091.554	190.54
1094.83	188.89
1098.106	186.95
1101.382	185.01
1104.657	184.67
1107.932	183.97
1111.206	183.77
1114.481	181.63
1117.755	180.04
1121.029	180.45
1124.302	177.23
1127.575	173.75
1130.848	173.32
1134.121	170.92
1137.393	170.93
1140.665	170.34
1143.937	168.63
1147.208	166.83
1150.48	165.9
1153.75	164.12
1157.021	163.18
1160.291	162.68
1163.561	162.68
1166.831	160.56
1170.101	160.59
1173.37	159.09
1176.639	157.01
1179.907	157.21
1183.176	156.49
1186.444	156.62
1189.711	155.75
1192.979	156.85
1196.246	156.72
1199.513	156.14
1202.78	156.7
1206.046	156.67
1209.312	157.25
1212.578	158.61
1215.843	159.84
1219.108	161.19
1222.373	163.91
1225.638	166.62
1228.902	169.63
1232.166	173.94
1235.43	176.96
1238.693	180.96
1241.956	185.48
1245.219	189.99
1248.482	190.67
1251.744	190.64
1255.006	189.95
1258.268	185.47
1261.529	184.45
1264.79	179.06
1268.051	177.06
1271.312	175.76
1274.572	172.65
1277.832	167.49
1281.092	165.49
1284.351	162.46
1287.61	162.19
1290.869	162.48
1294.128	161.64
1297.386	160.51
1300.644	159.86
1303.902	158.28
1307.159	156.52
1310.416	157.86
1313.673	160.61
1316.93	161.59
1320.186	163.89
1323.442	165.83
1326.697	168.4
1329.953	169.58
1333.208	174.86
1336.463	182.63
1339.717	186.03
1342.972	194.99
1346.226	198.73
1349.479	199.82
1352.733	208.12
1355.986	214.57
1359.238	218.39
1362.491	220.83
1365.743	229.08
1368.995	230.34
1372.247	231.09
1375.498	230.02
1378.749	237.87
1382	238.29
1385.251	235.82
1388.501	235.18
1391.751	236.73
1395	234.51
1398.25	235.81
1401.499	234.88
1404.748	234.17
1407.996	227.73
1411.244	227.59
1414.492	223
1417.74	217.67
1420.987	213.69
1424.234	211.04
1427.481	201.78
1430.728	196.85
1433.974	189.66
1437.22	183.22
1440.465	178.23
1443.711	172.52
1446.956	167.27
1450.201	161.07
1453.445	153.67
1456.689	149.52
1459.933	144.09
1463.177	138.9
1466.42	136.25
1469.663	133.13
1472.906	129.81
1476.148	126.12
1479.391	123.15
1482.633	121.2
1485.874	119.21
1489.115	118.57
1492.356	116.6
1495.597	114.83
1498.838	114.2
1502.078	113.52
1505.318	112.9
1508.557	112.45
1511.797	111.29
1515.036	110.87
1518.274	111.15
1521.513	109.4
1524.751	108.35
1527.989	109.98
1531.227	109.92
1534.464	109.82
1537.701	108.18
1540.938	107.67
1544.174	107.64
1547.41	107.67
1550.646	107.68
1553.882	107.23
1557.117	107.71
1560.352	107.77
1563.587	106.41
1566.821	106.27
1570.055	105.46
1573.289	105.96
1576.523	106.11
1579.756	105.79
1582.989	106.06
1586.222	105.7
1589.454	105.51
1592.686	105.84
1595.918	105.7
1599.15	105.21
1602.381	105.47
1605.612	106.1
1608.843	106.51
1612.073	106.33
1615.303	106.58
1618.533	106.01
1621.762	106.84
1624.992	106.99
1628.221	106.33
1631.449	106.89
1634.678	107.27
1637.906	106.64
1641.134	106.84
1644.361	106.47
1647.588	107.05
1650.815	107.09
1654.042	107.14
1657.269	106.28
1660.495	106.64
1663.72	106.79
1666.946	106.89
1670.171	107.04
1673.396	108.36
1676.621	108.54
1679.845	108.85
1683.069	108.54
1686.293	108.42
1689.517	109.11
1692.74	109.77
1695.963	109.62
1699.185	110.25
1702.408	109.92
1705.63	110.35
1708.852	110.38
1712.073	109.89
1715.294	109.94
1718.515	110.36
1721.736	110.34
1724.956	109.98
1728.176	109.92
1731.396	110.72
1734.616	110.35
1737.835	110.84
1741.054	110.21
1744.272	110.11
1747.491	110.39
1750.709	111.51
1753.927	111.47
1757.144	112
1760.361	112.49
1763.578	113.02
1766.795	112.86
1770.011	113.26
1773.227	113.51
1776.443	114.94
1779.658	114.8
1782.874	115.5
1786.089	114.25
1789.303	114.67
1792.518	116.03
1795.732	116.52
1798.945	117.6
1802.159	117.98
1805.372	119.56
1808.585	120.62
1811.797	121.12
1815.01	122.02
1818.222	122.98
1821.434	124.26
1824.645	124.88
1827.856	126.04
1831.067	126.81
1834.278	127.75
1837.488	128.77
1840.698	129.37
1843.908	129.42
1847.117	130.54
1850.326	132.03
1853.535	132.23
1856.744	133.64
1859.952	135.28
1863.16	134.76
1866.368	133.66
1869.575	134.05
1872.782	133.28
1875.989	132.28
1879.196	132.1
1882.402	130.52
1885.608	129.98
1888.814	129.11
1892.019	130.34
1895.224	127.8
1898.429	127.47
1901.634	128
1904.838	128.38
1908.042	128.73
1911.246	128.44
1914.449	128.57
1917.652	128.42
1920.855	129.21
1924.058	128.42
1927.26	126.84
1930.462	128.18
1933.664	128.92
1936.865	129.44
1940.066	127.3
1943.267	125.18
1946.467	126.86
1949.668	126.68
1952.868	126.72
1956.067	126.23
1959.267	126.95
1962.466	127.6
1965.665	129.81
1968.863	129.11
1972.061	130.44
1975.259	133.1
1978.457	136.17
1981.654	136.25
1984.852	137.56
1988.048	139.42
1991.245	141.62
1994.441	145.33
1997.637	147.19
2000.833	148.23
2004.028	150.35
2007.223	154.33
2010.418	156.85
2013.613	163.53
2016.807	167.6
2020.001	171.51
2023.194	176.2
2026.388	181.72
2029.581	190.6
2032.774	197.6
2035.966	203.53
2039.158	209.74
2042.35	213.68
2045.542	218.07
2048.733	227.62
2051.924	230.57
2055.115	233.19
2058.306	236.34
2061.496	241.59
2064.686	239.24
2067.875	239.5
2071.065	242.02
2074.254	242.01
2077.442	249.01
2080.631	251.64
2083.819	250.03
2087.007	255.33
2090.195	261.09
2093.382	261.85
2096.569	261.86
2099.756	266.29
2102.942	270.61
2106.128	277.14
2109.314	278.96
2112.5	278.32
2115.685	278.51
2118.87	279.3
2122.055	279.18
2125.239	283.48
2128.424	289.24
2131.608	287.76
2134.791	289.43
2137.974	289.56
2141.157	290.5
2144.34	294.37
2147.523	301.26
2150.705	306.89
2153.887	305.12
2157.068	309.31
2160.25	312.37
2163.431	312.35
2166.611	317.07
2169.792	322.41
2172.972	326.36
2176.152	327.29
2179.331	333.27
2182.511	330.83
2185.69	334.02
2188.868	344.7
2192.047	354.76
2195.225	358.49
2198.403	363.81
2201.58	356.87
2204.758	368.82
2207.935	371.31
2211.111	378.44
2214.288	382.67
2217.464	387.95
2220.64	390.14
2223.815	393.09
2226.991	386.32
2230.166	390.5
2233.34	399.37
2236.515	417.16
2239.689	412.71
2242.863	417.03
2246.036	414.74
2249.209	422.43
2252.382	419.37
2255.555	435
2258.727	436.03
2261.9	455.44
2265.071	459.15
2268.243	455.17
2271.414	465.58
2274.585	474.73
2277.756	476.27
2280.926	493.21
2284.096	495.67
2287.266	501.22
2290.436	490.3
2293.605	504.25
2296.774	515.65
2299.942	516.75
2303.111	532.69
2306.279	542.63
2309.447	542.9
2312.614	550.86
2315.781	562.09
2318.948	566.96
2322.115	577.72
2325.281	608.72
2328.447	601.16
2331.613	604.29
2334.779	612.56
2337.944	622.72
2341.109	633.07
2344.274	640.81
2347.438	655.19
2350.602	668.25
2353.766	715.18
2356.929	716.85
2360.092	723.13
2363.255	726.49
2366.418	732.38
2369.58	749.17
2372.742	755.35
2375.904	750.4
2379.066	773.12
2382.227	810.76
2385.388	813.31
2388.548	762.09
2391.709	754.16
2394.869	780.92
2398.029	787.73
2401.188	788.76
2404.347	812.57
2407.506	830.94
2410.665	806.58
2413.823	808.14
2416.981	810.83
2420.139	763.16
2423.296	829.02
2426.453	889.56
2429.61	843.11
2432.767	896.97
2435.923	925.16
2439.079	899.27
2442.235	924.44
2445.391	943.66
2448.546	932.57
2451.701	985.26
2454.855	1055.37
2458.009	927.7
2461.163	940.32
2464.317	956.52
2467.471	937.47
2470.624	971.84
2473.777	947.82
2476.929	913.01
2480.082	973.44
2483.234	1024.41
2486.385	1041.5
2489.537	1069.73
2492.688	1189.79
2495.839	1172.65
2498.989	1205.03
2502.14	1212.09
2505.29	1157.12
2508.439	1286.79
2511.589	1317
2514.738	1270.13
2517.887	1256.52
2521.035	1183.2
2524.183	1160.45
2527.331	1147.15
2530.479	1112.89
2533.627	1143.44
