Data from N_3_ofc_oh_4n_Splice17_20.txt Node
Date: Sat Feb 29 15:06:34 EST 2020
User: sa697716
Spectrometer: FLMS03696
Trigger mode: 0
Integration Time (sec): 3.180400E-1
Scans to average: 20
Electric dark correction enabled: true
Nonlinearity correction enabled: true
Boxcar width: 5
XAxis mode: Wavelengths
Number of Pixels in Spectrum: 2048
>>>>>Begin Spectral Data<<<<<
187.83	90.19
188.298	76.28
188.766	83.69
189.233	90.01
189.701	105.42
190.169	101.87
190.636	86.32
191.104	97.44
191.571	290.7
192.039	256.12
192.506	-7.07
192.974	-843.25
193.441	668.12
193.908	3.55
194.375	17.88
194.842	209.07
195.31	146.94
195.777	114.23
196.244	106.34
196.711	95.56
197.177	92.72
197.644	91.74
198.111	92.74
198.578	93.13
199.045	93.82
199.511	94.39
199.978	94.37
200.445	94.13
200.911	94.29
201.378	94.25
201.844	94.89
202.31	95.2
202.777	95.27
203.243	95.69
203.709	95.61
204.176	95.04
204.642	94.23
205.108	93.55
205.574	93.53
206.04	92.35
206.506	91.76
206.972	90.93
207.438	90.29
207.903	89.47
208.369	87.3
208.835	86.48
209.301	85.5
209.766	84.01
210.232	82.63
210.697	81.34
211.163	80.44
211.628	79.36
212.094	77.79
212.559	76.24
213.024	74.83
213.49	73.9
213.955	72.21
214.42	70.52
214.885	68.57
215.35	66.04
215.815	62.36
216.28	58.75
216.745	54.54
217.21	50.47
217.675	46.78
218.14	43.1
218.604	39.92
219.069	37.23
219.534	34.92
219.998	33.1
220.463	31.56
220.927	30.21
221.392	29.01
221.856	28.04
222.32	27.16
222.785	26.32
223.249	25.72
223.713	25.13
224.177	24.59
224.642	24.12
225.106	23.65
225.57	23.18
226.034	22.78
226.497	22.4
226.961	22
227.425	21.65
227.889	21.32
228.353	20.97
228.816	20.64
229.28	20.3
229.744	19.98
230.207	19.67
230.671	19.37
231.134	19.09
231.597	18.79
232.061	18.54
232.524	18.32
232.987	18.1
233.45	17.86
233.914	17.63
234.377	17.43
234.84	17.24
235.303	17.03
235.766	16.86
236.229	16.69
236.691	16.56
237.154	16.4
237.617	16.25
238.08	16.11
238.542	15.97
239.005	15.85
239.468	15.7
239.93	15.57
240.393	15.44
240.855	15.29
241.317	15.17
241.78	15.04
242.242	14.9
242.704	14.77
243.166	14.62
243.629	14.5
244.091	14.37
244.553	14.26
245.015	14.13
245.477	14
245.939	13.89
246.4	13.75
246.862	13.64
247.324	13.53
247.786	13.42
248.247	13.31
248.709	13.2
249.17	13.09
249.632	12.98
250.093	12.87
250.555	12.79
251.016	12.7
251.477	12.6
251.939	12.52
252.4	12.42
252.861	12.33
253.322	12.25
253.783	12.17
254.244	12.09
254.705	12
255.166	11.94
255.627	11.88
256.088	11.79
256.549	11.72
257.009	11.63
257.47	11.57
257.931	11.47
258.391	11.38
258.852	11.29
259.312	11.21
259.773	11.13
260.233	11.03
260.694	10.94
261.154	10.86
261.614	10.77
262.074	10.69
262.534	10.6
262.994	10.53
263.455	10.46
263.915	10.39
264.374	10.32
264.834	10.26
265.294	10.19
265.754	10.11
266.214	10.05
266.673	10
267.133	9.94
267.593	9.89
268.052	9.83
268.512	9.78
268.971	9.73
269.431	9.68
269.89	9.64
270.349	9.6
270.809	9.57
271.268	9.53
271.727	9.49
272.186	9.46
272.645	9.42
273.104	9.39
273.563	9.36
274.022	9.33
274.481	9.29
274.94	9.25
275.399	9.22
275.857	9.18
276.316	9.14
276.775	9.11
277.233	9.07
277.692	9.05
278.15	9.01
278.609	8.98
279.067	8.94
279.525	8.91
279.984	8.9
280.442	8.87
280.9	8.85
281.358	8.83
281.816	8.8
282.274	8.78
282.732	8.76
283.19	8.75
283.648	8.73
284.106	8.71
284.564	8.71
285.021	8.71
285.479	8.7
285.937	8.69
286.394	8.68
286.852	8.68
287.309	8.67
287.767	8.65
288.224	8.64
288.682	8.61
289.139	8.58
289.596	8.53
290.053	8.48
290.511	8.43
290.968	8.39
291.425	8.35
291.882	8.31
292.339	8.27
292.796	8.21
293.252	8.17
293.709	8.14
294.166	8.11
294.623	8.09
295.079	8.06
295.536	8.05
295.992	8.02
296.449	8
296.905	7.97
297.362	7.95
297.818	7.93
298.274	7.91
298.731	7.88
299.187	7.87
299.643	7.84
300.099	7.82
300.555	7.79
301.011	7.76
301.467	7.74
301.923	7.72
302.379	7.7
302.835	7.68
303.291	7.67
303.746	7.66
304.202	7.65
304.658	7.63
305.113	7.62
305.569	7.62
306.024	7.61
306.479	7.6
306.935	7.6
307.39	7.6
307.845	7.6
308.301	7.6
308.756	7.6
309.211	7.61
309.666	7.62
310.121	7.62
310.576	7.62
311.031	7.63
311.486	7.64
311.94	7.64
312.395	7.64
312.85	7.65
313.305	7.67
313.759	7.67
314.214	7.68
314.668	7.68
315.123	7.68
315.577	7.68
316.032	7.69
316.486	7.68
316.94	7.68
317.394	7.67
317.849	7.65
318.303	7.64
318.757	7.61
319.211	7.58
319.665	7.56
320.119	7.53
320.572	7.52
321.026	7.49
321.48	7.48
321.934	7.47
322.387	7.45
322.841	7.43
323.295	7.41
323.748	7.4
324.202	7.4
324.655	7.4
325.108	7.38
325.562	7.36
326.015	7.35
326.468	7.33
326.921	7.32
327.374	7.3
327.827	7.3
328.28	7.29
328.733	7.29
329.186	7.28
329.639	7.27
330.092	7.28
330.545	7.29
330.997	7.28
331.45	7.29
331.903	7.29
332.355	7.29
332.808	7.31
333.26	7.31
333.713	7.33
334.165	7.34
334.617	7.35
335.069	7.35
335.522	7.37
335.974	7.39
336.426	7.41
336.878	7.41
337.33	7.43
337.782	7.43
338.234	7.43
338.686	7.42
339.137	7.41
339.589	7.4
340.041	7.4
340.493	7.38
340.944	7.36
341.396	7.35
341.847	7.32
342.299	7.29
342.75	7.26
343.201	7.22
343.653	7.2
344.104	7.18
344.555	7.15
345.006	7.11
345.457	7.08
345.908	7.07
346.359	7.05
346.81	7.05
347.261	7.04
347.712	7.04
348.163	7.04
348.613	7.03
349.064	7
349.515	6.99
349.965	6.98
350.416	6.98
350.866	6.97
351.317	6.96
351.767	6.95
352.217	6.95
352.668	6.95
353.118	6.95
353.568	6.97
354.018	6.99
354.468	6.99
354.918	7.01
355.368	7.02
355.818	7.02
356.268	7.04
356.718	7.03
357.168	7.03
357.617	7.02
358.067	7.02
358.517	7.01
358.966	7.01
359.416	7.03
359.865	7.02
360.315	7.01
360.764	7.01
361.213	7
361.663	7
362.112	7.01
362.561	7.01
363.01	7.02
363.459	7.02
363.908	7.02
364.357	7.01
364.806	7
365.255	7
365.703	7
366.152	7
366.601	7
367.05	7
367.498	7
367.947	6.99
368.395	7
368.844	6.99
369.292	6.99
369.74	7
370.189	6.99
370.637	7
371.085	7.01
371.533	7
371.981	7.01
372.429	7.01
372.877	7
373.325	6.99
373.773	7
374.221	7.01
374.669	7.01
375.116	7.02
375.564	7.02
376.012	7.02
376.459	7.03
376.907	7.02
377.354	7.03
377.801	7.04
378.249	7.06
378.696	7.07
379.143	7.07
379.591	7.08
380.038	7.09
380.485	7.1
380.932	7.11
381.379	7.13
381.826	7.15
382.273	7.16
382.72	7.17
383.166	7.17
383.613	7.18
384.06	7.19
384.506	7.21
384.953	7.21
385.4	7.23
385.846	7.24
386.292	7.25
386.739	7.25
387.185	7.29
387.631	7.3
388.078	7.32
388.524	7.33
388.97	7.35
389.416	7.35
389.862	7.38
390.308	7.38
390.754	7.4
391.2	7.42
391.645	7.46
392.091	7.48
392.537	7.51
392.983	7.54
393.428	7.58
393.874	7.62
394.319	7.66
394.765	7.68
395.21	7.69
395.655	7.72
396.101	7.74
396.546	7.76
396.991	7.78
397.436	7.79
397.881	7.81
398.326	7.82
398.771	7.85
399.216	7.88
399.661	7.91
400.106	7.95
400.551	7.96
400.995	7.96
401.44	7.96
401.885	7.96
402.329	7.98
402.774	7.97
403.218	7.97
403.663	7.97
404.107	7.98
404.551	7.99
404.995	7.98
405.44	8
405.884	8.02
406.328	8.03
406.772	8.05
407.216	8.06
407.66	8.08
408.104	8.1
408.547	8.11
408.991	8.1
409.435	8.1
409.879	8.12
410.322	8.14
410.766	8.15
411.209	8.16
411.653	8.16
412.096	8.17
412.54	8.18
412.983	8.19
413.426	8.23
413.869	8.26
414.312	8.29
414.756	8.33
415.199	8.35
415.642	8.4
416.085	8.43
416.527	8.47
416.97	8.49
417.413	8.49
417.856	8.48
418.298	8.44
418.741	8.42
419.184	8.42
419.626	8.41
420.069	8.42
420.511	8.39
420.953	8.38
421.396	8.39
421.838	8.41
422.28	8.43
422.722	8.47
423.164	8.5
423.606	8.54
424.048	8.54
424.49	8.56
424.932	8.55
425.374	8.54
425.816	8.55
426.258	8.52
426.699	8.48
427.141	8.47
427.582	8.46
428.024	8.46
428.465	8.47
428.907	8.51
429.348	8.52
429.789	8.54
430.231	8.55
430.672	8.56
431.113	8.61
431.554	8.67
431.995	8.71
432.436	8.74
432.877	8.77
433.318	8.79
433.759	8.81
434.2	8.84
434.64	8.88
435.081	8.94
435.522	8.98
435.962	9.01
436.403	9.05
436.843	9.09
437.284	9.11
437.724	9.16
438.164	9.18
438.604	9.21
439.045	9.21
439.485	9.26
439.925	9.29
440.365	9.32
440.805	9.34
441.245	9.34
441.685	9.38
442.125	9.42
442.564	9.45
443.004	9.51
443.444	9.55
443.883	9.61
444.323	9.63
444.762	9.68
445.202	9.76
445.641	9.81
446.081	9.88
446.52	9.92
446.959	9.97
447.398	10.03
447.837	10.08
448.276	10.13
448.716	10.18
449.154	10.23
449.593	10.28
450.032	10.29
450.471	10.33
450.91	10.33
451.349	10.36
451.787	10.38
452.226	10.36
452.664	10.35
453.103	10.34
453.541	10.34
453.98	10.34
454.418	10.32
454.856	10.28
455.295	10.25
455.733	10.25
456.171	10.24
456.609	10.24
457.047	10.23
457.485	10.24
457.923	10.23
458.361	10.22
458.798	10.22
459.236	10.22
459.674	10.24
460.111	10.24
460.549	10.23
460.987	10.22
461.424	10.2
461.862	10.2
462.299	10.2
462.736	10.19
463.173	10.2
463.611	10.19
464.048	10.2
464.485	10.17
464.922	10.17
465.359	10.19
465.796	10.2
466.233	10.21
466.67	10.21
467.106	10.21
467.543	10.23
467.98	10.22
468.416	10.24
468.853	10.26
469.29	10.29
469.726	10.32
470.162	10.32
470.599	10.31
471.035	10.33
471.471	10.32
471.907	10.31
472.344	10.32
472.78	10.34
473.216	10.36
473.652	10.34
474.088	10.35
474.523	10.35
474.959	10.33
475.395	10.34
475.831	10.35
476.266	10.35
476.702	10.36
477.138	10.35
477.573	10.32
478.008	10.31
478.444	10.31
478.879	10.3
479.314	10.3
479.75	10.31
480.185	10.3
480.62	10.29
481.055	10.28
481.49	10.26
481.925	10.24
482.36	10.23
482.795	10.22
483.229	10.21
483.664	10.19
484.099	10.18
484.534	10.17
484.968	10.16
485.403	10.15
485.837	10.16
486.271	10.15
486.706	10.16
487.14	10.17
487.574	10.17
488.009	10.18
488.443	10.2
488.877	10.21
489.311	10.21
489.745	10.24
490.179	10.26
490.613	10.28
491.046	10.31
491.48	10.35
491.914	10.39
492.348	10.43
492.781	10.46
493.215	10.48
493.648	10.54
494.082	10.61
494.515	10.66
494.948	10.72
495.382	10.77
495.815	10.84
496.248	10.89
496.681	10.95
497.114	11.03
497.547	11.12
497.98	11.22
498.413	11.3
498.846	11.38
499.279	11.48
499.711	11.57
500.144	11.68
500.577	11.79
501.009	11.93
501.442	12.06
501.874	12.19
502.306	12.32
502.739	12.46
503.171	12.62
503.603	12.8
504.036	12.98
504.468	13.16
504.9	13.36
505.332	13.57
505.764	13.79
506.196	14.02
506.627	14.25
507.059	14.48
507.491	14.72
507.923	14.98
508.354	15.24
508.786	15.5
509.217	15.76
509.649	16.04
510.08	16.34
510.512	16.62
510.943	16.91
511.374	17.23
511.805	17.57
512.237	17.91
512.668	18.25
513.099	18.61
513.53	18.98
513.961	19.35
514.391	19.73
514.822	20.11
515.253	20.5
515.684	20.88
516.114	21.3
516.545	21.7
516.975	22.09
517.406	22.49
517.836	22.89
518.267	23.3
518.697	23.7
519.127	24.12
519.558	24.51
519.988	24.91
520.418	25.31
520.848	25.7
521.278	26.09
521.708	26.53
522.138	26.91
522.567	27.28
522.997	27.62
523.427	28.01
523.857	28.33
524.286	28.68
524.716	29.02
525.145	29.35
525.575	29.67
526.004	29.97
526.433	30.23
526.863	30.55
527.292	30.82
527.721	31.12
528.15	31.37
528.579	31.63
529.008	31.88
529.437	32.14
529.866	32.34
530.295	32.57
530.724	32.82
531.152	33.01
531.581	33.19
532.01	33.39
532.438	33.53
532.867	33.69
533.295	33.88
533.723	34.04
534.152	34.16
534.58	34.3
535.008	34.38
535.436	34.48
535.865	34.56
536.293	34.65
536.721	34.74
537.149	34.82
537.576	34.9
538.004	34.92
538.432	34.96
538.86	35.04
539.287	35.09
539.715	35.16
540.143	35.18
540.57	35.24
540.998	35.28
541.425	35.32
541.852	35.37
542.28	35.41
542.707	35.47
543.134	35.51
543.561	35.54
543.988	35.59
544.415	35.65
544.842	35.71
545.269	35.77
545.696	35.81
546.123	35.84
546.549	35.9
546.976	35.95
547.403	35.98
547.829	36.03
548.256	36.08
548.682	36.12
549.108	36.16
549.535	36.18
549.961	36.22
550.387	36.24
550.813	36.25
551.24	36.27
551.666	36.31
552.092	36.33
552.518	36.34
552.943	36.34
553.369	36.31
553.795	36.3
554.221	36.28
554.646	36.25
555.072	36.23
555.498	36.21
555.923	36.16
556.349	36.07
556.774	36.01
557.199	35.95
557.625	35.87
558.05	35.79
558.475	35.67
558.9	35.59
559.325	35.47
559.75	35.33
560.175	35.19
560.6	35.04
561.025	34.9
561.449	34.74
561.874	34.57
562.299	34.41
562.723	34.24
563.148	34.06
563.572	33.86
563.997	33.67
564.421	33.47
564.846	33.28
565.27	33.07
565.694	32.85
566.118	32.63
566.542	32.41
566.966	32.19
567.39	31.96
567.814	31.74
568.238	31.49
568.662	31.26
569.086	31.04
569.509	30.8
569.933	30.55
570.357	30.31
570.78	30.07
571.204	29.84
571.627	29.61
572.05	29.4
572.474	29.18
572.897	28.97
573.32	28.77
573.743	28.58
574.166	28.41
574.589	28.24
575.012	28.09
575.435	27.91
575.858	27.77
576.281	27.62
576.704	27.48
577.126	27.33
577.549	27.23
577.972	27.11
578.394	26.98
578.817	26.84
579.239	26.73
579.661	26.61
580.084	26.52
580.506	26.41
580.928	26.29
581.35	26.18
581.772	26.09
582.194	25.96
582.616	25.85
583.038	25.75
583.46	25.66
583.882	25.56
584.303	25.47
584.725	25.38
585.147	25.28
585.568	25.18
585.99	25.1
586.411	25.01
586.833	24.92
587.254	24.84
587.675	24.77
588.096	24.68
588.518	24.62
588.939	24.53
589.36	24.45
589.781	24.39
590.202	24.32
590.623	24.25
591.043	24.2
591.464	24.14
591.885	24.1
592.305	24.03
592.726	23.96
593.147	23.91
593.567	23.83
593.987	23.79
594.408	23.72
594.828	23.68
595.248	23.65
595.669	23.58
596.089	23.54
596.509	23.45
596.929	23.4
597.349	23.34
597.769	23.29
598.189	23.25
598.608	23.19
599.028	23.12
599.448	23.07
599.867	22.99
600.287	22.93
600.706	22.86
601.126	22.81
601.545	22.75
601.965	22.7
602.384	22.63
602.803	22.56
603.222	22.48
603.641	22.42
604.061	22.33
604.48	22.25
604.898	22.16
605.317	22.08
605.736	21.97
606.155	21.88
606.574	21.77
606.992	21.67
607.411	21.58
607.829	21.44
608.248	21.34
608.666	21.25
609.085	21.17
609.503	21.06
609.921	20.98
610.339	20.91
610.758	20.81
611.176	20.72
611.594	20.62
612.012	20.52
612.43	20.46
612.847	20.37
613.265	20.3
613.683	20.18
614.101	20.09
614.518	19.97
614.936	19.86
615.353	19.77
615.771	19.68
616.188	19.6
616.606	19.53
617.023	19.46
617.44	19.39
617.857	19.3
618.274	19.24
618.691	19.19
619.108	19.14
619.525	19.09
619.942	19.04
620.359	19.01
620.776	18.98
621.192	18.93
621.609	18.89
622.026	18.85
622.442	18.81
622.859	18.79
623.275	18.77
623.691	18.75
624.108	18.73
624.524	18.71
624.94	18.67
625.356	18.63
625.772	18.63
626.188	18.61
626.604	18.57
627.02	18.55
627.436	18.53
627.852	18.48
628.268	18.46
628.683	18.43
629.099	18.4
629.514	18.38
629.93	18.34
630.345	18.29
630.761	18.24
631.176	18.21
631.591	18.16
632.007	18.08
632.422	18.02
632.837	17.93
633.252	17.84
633.667	17.74
634.082	17.63
634.497	17.52
634.911	17.4
635.326	17.26
635.741	17.11
636.155	16.96
636.57	16.82
636.984	16.65
637.399	16.49
637.813	16.32
638.228	16.16
638.642	16
639.056	15.83
639.47	15.65
639.884	15.47
640.298	15.29
640.712	15.12
641.126	14.95
641.54	14.78
641.954	14.64
642.368	14.47
642.781	14.32
643.195	14.15
643.609	14
644.022	13.86
644.436	13.73
644.849	13.6
645.262	13.5
645.676	13.38
646.089	13.26
646.502	13.15
646.915	13.06
647.328	12.96
647.741	12.88
648.154	12.82
648.567	12.75
648.98	12.68
649.393	12.62
649.805	12.56
650.218	12.51
650.631	12.47
651.043	12.42
651.456	12.39
651.868	12.37
652.28	12.34
652.693	12.29
653.105	12.25
653.517	12.22
653.929	12.17
654.341	12.13
654.753	12.08
655.165	12.02
655.577	11.96
655.989	11.88
656.401	11.81
656.813	11.72
657.224	11.64
657.636	11.57
658.047	11.48
658.459	11.39
658.87	11.32
659.282	11.24
659.693	11.14
660.104	11.06
660.515	10.97
660.926	10.89
661.338	10.82
661.749	10.73
662.159	10.65
662.57	10.57
662.981	10.5
663.392	10.41
663.803	10.33
664.213	10.27
664.624	10.21
665.035	10.14
665.445	10.08
665.855	10.02
666.266	9.98
666.676	9.94
667.086	9.9
667.497	9.85
667.907	9.81
668.317	9.78
668.727	9.75
669.137	9.72
669.547	9.72
669.956	9.69
670.366	9.69
670.776	9.67
671.186	9.67
671.595	9.66
672.005	9.67
672.414	9.68
672.824	9.69
673.233	9.69
673.642	9.69
674.052	9.7
674.461	9.71
674.87	9.71
675.279	9.71
675.688	9.73
676.097	9.75
676.506	9.76
676.915	9.79
677.323	9.83
677.732	9.89
678.141	9.95
678.549	10.02
678.958	10.09
679.366	10.15
679.775	10.25
680.183	10.33
680.592	10.43
681	10.53
681.408	10.65
681.816	10.77
682.224	10.91
682.632	11.08
683.04	11.22
683.448	11.42
683.856	11.65
684.264	11.89
684.671	12.17
685.079	12.46
685.487	12.8
685.894	13.15
686.302	13.54
686.709	13.94
687.116	14.39
687.524	14.89
687.931	15.42
688.338	15.98
688.745	16.57
689.152	17.2
689.559	17.85
689.966	18.52
690.373	19.24
690.78	19.97
691.187	20.74
691.593	21.51
692	22.33
692.407	23.14
692.813	23.99
693.22	24.83
693.626	25.69
694.032	26.58
694.439	27.47
694.845	28.37
695.251	29.25
695.657	30.14
696.063	31.06
696.469	31.96
696.875	32.82
697.281	33.67
697.687	34.57
698.093	35.41
698.498	36.23
698.904	37.1
699.31	37.91
699.715	38.75
700.12	39.55
700.526	40.35
700.931	41.11
701.337	41.89
701.742	42.64
702.147	43.4
702.552	44.13
702.957	44.87
703.362	45.56
703.767	46.24
704.172	46.94
704.577	47.6
704.981	48.24
705.386	48.9
705.791	49.55
706.195	50.18
706.6	50.75
707.004	51.38
707.408	51.95
707.813	52.53
708.217	53.11
708.621	53.67
709.025	54.22
709.43	54.75
709.834	55.31
710.237	55.82
710.641	56.36
711.045	56.85
711.449	57.35
711.853	57.86
712.256	58.35
712.66	58.79
713.064	59.25
713.467	59.69
713.87	60.13
714.274	60.56
714.677	60.97
715.08	61.36
715.484	61.79
715.887	62.17
716.29	62.55
716.693	62.92
717.096	63.31
717.499	63.71
717.901	64.07
718.304	64.47
718.707	64.8
719.109	65.19
719.512	65.54
719.915	65.89
720.317	66.27
720.719	66.59
721.122	66.9
721.524	67.22
721.926	67.52
722.328	67.79
722.731	68.09
723.133	68.39
723.535	68.65
723.937	68.92
724.338	69.13
724.74	69.34
725.142	69.58
725.544	69.82
725.945	70.06
726.347	70.27
726.748	70.49
727.15	70.63
727.551	70.82
727.952	71.01
728.354	71.19
728.755	71.37
729.156	71.57
729.557	71.76
729.958	71.93
730.359	72.02
730.76	72.12
731.161	72.27
731.562	72.44
731.962	72.54
732.363	72.65
732.763	72.78
733.164	72.9
733.564	72.96
733.965	73.04
734.365	73.08
734.766	73.21
735.166	73.31
735.566	73.37
735.966	73.45
736.366	73.51
736.766	73.59
737.166	73.65
737.566	73.69
737.966	73.78
738.365	73.86
738.765	73.99
739.165	74.01
739.564	74.06
739.964	74.1
740.363	74.14
740.763	74.2
741.162	74.22
741.561	74.27
741.96	74.37
742.36	74.39
742.759	74.39
743.158	74.38
743.557	74.45
743.955	74.55
744.354	74.63
744.753	74.7
745.152	74.78
745.55	74.84
745.949	74.88
746.348	74.91
746.746	74.95
747.144	75.06
747.543	75.13
747.941	75.19
748.339	75.23
748.737	75.31
749.136	75.35
749.534	75.41
749.932	75.44
750.33	75.46
750.727	75.49
751.125	75.53
751.523	75.48
751.921	75.48
752.318	75.46
752.716	75.42
753.113	75.38
753.511	75.31
753.908	75.26
754.305	75.23
754.703	75.18
755.1	75.13
755.497	75.09
755.894	75.12
756.291	75.08
756.688	75.1
757.085	75.1
757.482	75.07
757.878	75.12
758.275	75.14
758.672	75.15
759.068	75.19
759.465	75.2
759.861	75.19
760.258	75.15
760.654	75.17
761.05	75.15
761.447	75.17
761.843	75.14
762.239	75.13
762.635	75.09
763.031	75.09
763.427	75.06
763.822	75.01
764.218	75.03
764.614	75.02
765.01	75
765.405	74.96
765.801	74.92
766.196	74.93
766.592	74.92
766.987	74.91
767.382	74.89
767.778	74.9
768.173	74.92
768.568	74.88
768.963	74.87
769.358	74.88
769.753	74.96
770.148	74.99
770.542	75
770.937	75
771.332	74.97
771.726	74.99
772.121	74.99
772.515	74.99
772.91	75.04
773.304	75.06
773.699	75.04
774.093	74.96
774.487	74.94
774.881	74.94
775.275	74.93
775.669	74.98
776.063	74.96
776.457	74.89
776.851	74.85
777.245	74.87
777.638	74.87
778.032	74.92
778.425	74.94
778.819	74.95
779.212	74.96
779.606	74.98
779.999	74.97
780.392	74.96
780.786	75.03
781.179	75.11
781.572	75.1
781.965	75.14
782.358	75.1
782.751	75.12
783.143	75.13
783.536	75.19
783.929	75.23
784.322	75.24
784.714	75.28
785.107	75.32
785.499	75.29
785.891	75.31
786.284	75.29
786.676	75.34
787.068	75.31
787.46	75.29
787.852	75.27
788.245	75.28
788.636	75.3
789.028	75.3
789.42	75.28
789.812	75.34
790.204	75.28
790.595	75.27
790.987	75.26
791.378	75.32
791.77	75.37
792.161	75.36
792.553	75.34
792.944	75.35
793.335	75.39
793.726	75.35
794.117	75.32
794.508	75.4
794.899	75.39
795.29	75.37
795.681	75.39
796.072	75.4
796.463	75.4
796.853	75.4
797.244	75.39
797.634	75.34
798.025	75.39
798.415	75.42
798.806	75.42
799.196	75.48
799.586	75.54
799.976	75.52
800.366	75.54
800.756	75.57
801.146	75.57
801.536	75.59
801.926	75.62
802.316	75.64
802.706	75.67
803.095	75.68
803.485	75.69
803.874	75.71
804.264	75.75
804.653	75.73
805.043	75.72
805.432	75.71
805.821	75.71
806.21	75.78
806.599	75.85
806.988	75.85
807.377	75.9
807.766	75.91
808.155	75.89
808.544	75.88
808.933	75.89
809.321	75.94
809.71	76.04
810.098	76.04
810.487	76.02
810.875	75.98
811.264	76.04
811.652	76.03
812.04	76.06
812.428	76.13
812.816	76.17
813.204	76.18
813.592	76.15
813.98	76.14
814.368	76.15
814.756	76.15
815.144	76.22
815.531	76.19
815.919	76.17
816.306	76.15
816.694	76.15
817.081	76.16
817.469	76.21
817.856	76.3
818.243	76.27
818.63	76.36
819.017	76.38
819.404	76.31
819.791	76.32
820.178	76.38
820.565	76.4
820.952	76.38
821.339	76.44
821.725	76.43
822.112	76.4
822.498	76.41
822.885	76.37
823.271	76.38
823.657	76.39
824.044	76.39
824.43	76.38
824.816	76.37
825.202	76.36
825.588	76.31
825.974	76.28
826.36	76.24
826.746	76.28
827.132	76.26
827.517	76.25
827.903	76.26
828.289	76.24
828.674	76.19
829.06	76.2
829.445	76.24
829.83	76.2
830.216	76.16
830.601	76.15
830.986	76.08
831.371	76.09
831.756	76.02
832.141	75.99
832.526	75.96
832.911	76.01
833.295	75.99
833.68	75.94
834.065	75.93
834.449	75.91
834.834	75.9
835.218	75.91
835.603	75.89
835.987	75.88
836.371	75.91
836.755	75.89
837.139	75.8
837.524	75.74
837.908	75.72
838.291	75.7
838.675	75.69
839.059	75.65
839.443	75.6
839.827	75.54
840.21	75.57
840.594	75.54
840.977	75.51
841.361	75.53
841.744	75.56
842.127	75.54
842.511	75.5
842.894	75.5
843.277	75.49
843.66	75.51
844.043	75.54
844.426	75.49
844.809	75.44
845.191	75.42
845.574	75.39
845.957	75.32
846.339	75.31
846.722	75.34
847.104	75.34
847.487	75.36
847.869	75.33
848.252	75.3
848.634	75.35
849.016	75.37
849.398	75.38
849.78	75.4
850.162	75.41
850.544	75.42
850.926	75.38
851.307	75.39
851.689	75.37
852.071	75.38
852.452	75.39
852.834	75.36
853.215	75.36
853.597	75.37
853.978	75.33
854.359	75.34
854.741	75.35
855.122	75.38
855.503	75.35
855.884	75.32
856.265	75.3
856.646	75.28
857.026	75.29
857.407	75.24
857.788	75.26
858.169	75.25
858.549	75.24
858.93	75.23
859.31	75.18
859.69	75.19
860.071	75.2
860.451	75.22
860.831	75.22
861.211	75.19
861.591	75.22
861.971	75.17
862.351	75.17
862.731	75.18
863.111	75.19
863.491	75.21
863.87	75.21
864.25	75.24
864.629	75.22
865.009	75.21
865.388	75.21
865.768	75.22
866.147	75.29
866.526	75.3
866.905	75.29
867.284	75.28
867.663	75.28
868.042	75.26
868.421	75.23
868.8	75.24
869.179	75.28
869.558	75.29
869.936	75.26
870.315	75.22
870.693	75.22
871.072	75.22
871.45	75.21
871.828	75.2
872.207	75.24
872.585	75.24
872.963	75.2
873.341	75.17
873.719	75.14
874.097	75.14
874.475	75.15
874.853	75.17
875.23	75.19
875.608	75.21
875.986	75.23
876.363	75.2
876.741	75.2
877.118	75.2
877.495	75.21
877.873	75.22
878.25	75.2
878.627	75.18
879.004	75.15
879.381	75.13
879.758	75.09
880.135	75.06
880.512	75.09
880.889	75.13
881.265	75.19
881.642	75.2
882.019	75.21
882.395	75.2
882.772	75.21
883.148	75.2
883.524	75.21
883.901	75.2
884.277	75.19
884.653	75.13
885.029	75.11
885.405	75.03
885.781	74.94
886.157	74.89
886.532	74.88
886.908	74.89
887.284	74.9
887.659	74.87
888.035	74.86
888.411	74.84
888.786	74.81
889.161	74.78
889.537	74.76
889.912	74.78
890.287	74.74
890.662	74.71
891.037	74.63
891.412	74.53
891.787	74.48
892.162	74.4
892.536	74.35
892.911	74.32
893.286	74.25
893.66	74.22
894.035	74.16
894.409	74.15
894.784	74.13
895.158	74.1
895.532	74.09
895.906	74.05
896.281	74.06
896.655	74.07
897.029	74.05
897.402	74.08
897.776	74.08
898.15	74.09
898.524	74.07
898.898	74.04
899.271	74.04
899.645	74.05
900.018	74.1
900.392	74.13
900.765	74.16
901.138	74.18
901.511	74.19
901.884	74.19
902.258	74.21
902.631	74.23
903.003	74.27
903.376	74.29
903.749	74.33
904.122	74.33
904.495	74.34
904.867	74.3
905.24	74.31
905.612	74.32
905.985	74.32
906.357	74.31
906.729	74.33
907.102	74.36
907.474	74.39
907.846	74.39
908.218	74.38
908.59	74.38
908.962	74.4
909.334	74.38
909.705	74.42
910.077	74.45
910.449	74.5
910.82	74.51
911.192	74.47
911.563	74.46
911.935	74.49
912.306	74.5
912.677	74.52
913.048	74.52
913.419	74.56
913.79	74.55
914.161	74.57
914.532	74.52
914.903	74.49
915.274	74.49
915.645	74.5
916.015	74.5
916.386	74.47
916.756	74.42
917.127	74.43
917.497	74.39
917.868	74.37
918.238	74.39
918.608	74.43
918.978	74.42
919.348	74.39
919.718	74.38
920.088	74.39
920.458	74.45
920.828	74.5
921.198	74.51
921.567	74.5
921.937	74.51
922.306	74.42
922.676	74.41
923.045	74.41
923.415	74.45
923.784	74.46
924.153	74.39
924.522	74.34
924.891	74.29
925.26	74.28
925.629	74.28
925.998	74.28
926.367	74.3
926.736	74.26
927.104	74.29
927.473	74.27
927.842	74.23
928.21	74.26
928.578	74.25
928.947	74.22
929.315	74.21
929.683	74.21
930.051	74.15
930.42	74.15
930.788	74.2
931.156	74.18
931.523	74.19
931.891	74.13
932.259	74.07
932.627	73.97
932.994	74.02
933.362	73.98
933.729	73.92
934.097	73.86
934.464	73.76
934.831	73.63
935.199	73.62
935.566	73.56
935.933	73.61
936.3	73.54
936.667	73.52
937.034	73.43
937.401	73.45
937.767	73.52
938.134	73.55
938.501	73.59
938.867	73.74
939.234	73.79
939.6	73.77
939.967	73.83
940.333	74.03
940.699	74.26
941.065	74.46
941.431	74.65
941.798	74.75
942.163	74.99
942.529	75.18
942.895	75.24
943.261	75.3
943.627	75.52
943.992	75.6
944.358	75.63
944.723	75.61
945.089	75.65
945.454	75.62
945.82	75.6
946.185	75.57
946.55	75.69
946.915	75.75
947.28	75.73
947.645	75.68
948.01	75.66
948.375	75.64
948.74	75.55
949.104	75.48
949.469	75.23
949.834	75.11
950.198	74.9
950.562	74.67
950.927	74.48
951.291	74.43
951.655	74.36
952.02	74.3
952.384	74.31
952.748	74.3
953.112	74.21
953.476	74.31
953.839	74.27
954.203	74.37
954.567	74.37
954.931	74.4
955.294	74.34
955.658	74.28
956.021	74.21
956.385	74.09
956.748	74.11
957.111	74.06
957.474	74.03
957.837	74.07
958.2	73.94
958.563	73.91
958.926	73.77
959.289	73.78
959.652	73.86
960.015	73.83
960.377	73.86
960.74	73.77
961.102	73.84
961.465	73.86
961.827	73.67
962.189	73.62
962.552	73.58
962.914	73.64
963.276	73.57
963.638	73.45
964	73.43
964.362	73.36
964.724	73.28
965.085	73.25
965.447	73.12
965.809	73.11
966.17	73.17
966.532	73.17
966.893	73.17
967.255	73.12
967.616	73.12
967.977	73.05
968.338	73.08
968.699	73.12
969.061	73.05
969.421	73.15
969.782	73.22
970.143	73.12
970.504	73.08
970.865	72.99
971.225	73.02
971.586	73.08
971.946	73.14
972.307	73.13
972.667	73.14
973.027	73.17
973.388	73.08
973.748	73.1
974.108	73.15
974.468	73.17
974.828	73.22
975.188	73.31
975.548	73.25
975.907	73.24
976.267	73.27
976.627	73.27
976.986	73.33
977.346	73.35
977.705	73.39
978.064	73.41
978.424	73.35
978.783	73.44
979.142	73.34
979.501	73.25
979.86	73.25
980.219	73.17
980.578	73.18
980.937	73.17
981.296	73.2
981.654	73.28
982.013	73.31
982.371	73.41
982.73	73.34
983.088	73.33
983.447	73.41
983.805	73.43
984.163	73.46
984.521	73.35
984.879	73.36
985.237	73.36
985.595	73.35
985.953	73.36
986.311	73.5
986.669	73.54
987.026	73.63
987.384	73.66
987.741	73.76
988.099	73.88
988.456	74.04
988.814	74.15
989.171	74.19
989.528	74.06
989.885	74.1
990.242	74.07
990.599	74.15
990.956	74.28
991.313	74.3
991.67	74.38
992.027	74.25
992.383	74.36
992.74	74.28
993.096	74.19
993.453	74.31
993.809	74.46
994.165	74.42
994.522	74.54
994.878	74.51
995.234	74.59
995.59	74.51
995.946	74.67
996.302	74.65
996.658	74.66
997.013	74.82
997.369	74.94
997.725	75.06
998.08	75.14
998.436	75.01
998.791	74.88
999.147	74.9
999.502	75.04
999.857	75.15
1000.212	75.2
1000.567	75.26
1000.922	75.51
1001.277	75.43
1001.632	75.3
1001.987	75.38
1002.342	75.67
1002.696	76.08
1003.051	76.09
1003.406	76.04
1003.76	75.95
1004.114	76.01
1004.469	76.06
1004.823	75.88
1005.177	76.1
1005.531	76.05
1005.885	76.18
1006.239	76.13
1006.593	75.87
1006.947	75.93
1007.301	76.04
1007.655	76.21
1008.008	76.09
1008.362	76.36
1008.715	76.43
1009.069	76.2
1009.422	76.27
1009.776	76.13
1010.129	76.15
1010.482	76.45
1010.835	76.78
1011.188	76.68
1011.541	76.63
1011.894	76.86
1012.247	76.61
1012.6	76.78
1012.952	77.21
1013.305	77.3
1013.657	77.42
1014.01	77.35
1014.362	77.25
1014.715	76.93
1015.067	77.36
1015.419	77.75
1015.771	78.18
1016.123	78.33
1016.475	78.43
1016.827	78.63
1017.179	78.82
1017.531	78.86
1017.883	79.25
1018.234	79.4
1018.586	79.75
1018.938	79.67
1019.289	79.36
1019.64	79.32
1019.992	79.6
1020.343	79.55
1020.694	79.38
1021.045	79.39
1021.396	79.49
1021.747	79.19
1022.098	79.18
1022.449	79.09
1022.8	79.27
1023.151	79.76
1023.501	79.73
1023.852	80.12
1024.202	80.37
1024.553	79.93
1024.903	80.09
1025.253	80.4
1025.604	80.51
1025.954	80.68
1026.304	81.56
1026.654	81.57
1027.004	81.73
1027.354	81.94
1027.703	81.44
1028.053	81.26
1028.403	81.68
1028.753	82.1
1029.102	81.96
1029.452	82.09
1029.801	82.08
1030.15	81.5
1030.499	81.43
897.758	616.04
901.051	634.28
904.343	639.94
907.636	627.19
910.928	616.91
914.22	632.41
917.511	614.93
920.803	589.65
924.094	567.96
927.384	574.12
930.675	556.6
933.965	552.38
937.255	550.67
940.544	526.97
943.834	508.04
947.123	501.06
950.411	471.29
953.7	465.96
956.988	454.32
960.276	433.6
963.563	425.73
966.851	404.18
970.138	399.04
973.424	371.15
976.711	366.48
979.997	351.29
983.283	344.54
986.568	334.25
989.853	326.79
993.138	314.4
996.423	310.37
999.708	303.55
1002.992	306.01
1006.275	294.49
1009.559	293.23
1012.842	285.19
1016.125	279.53
1019.408	274.86
1022.69	271.13
1025.972	268.63
1029.254	262.95
1032.536	258.28
1035.817	251.14
1039.098	246.34
1042.379	242.64
1045.659	239.33
1048.939	237.78
1052.219	233
1055.498	228.75
1058.778	226.24
1062.057	222.3
1065.335	220.71
1068.614	217.32
1071.892	214.52
1075.17	210.32
1078.447	208.06
1081.724	205.58
1085.001	201.9
1088.278	202.79
1091.554	201.02
1094.83	199.87
1098.106	197.55
1101.382	196.35
1104.657	196.04
1107.932	195.06
1111.206	194.53
1114.481	192.67
1117.755	192.08
1121.029	190.81
1124.302	187.87
1127.575	185.35
1130.848	184.58
1134.121	182.14
1137.393	182.33
1140.665	181.18
1143.937	179.99
1147.208	177.89
1150.48	176.06
1153.75	174.01
1157.021	173.35
1160.291	172.66
1163.561	172.15
1166.831	170.22
1170.101	169.9
1173.37	168.54
1176.639	166.69
1179.907	166.27
1183.176	166.42
1186.444	166.98
1189.711	166.34
1192.979	167.39
1196.246	167.1
1199.513	167.39
1202.78	168.36
1206.046	168.22
1209.312	168.93
1212.578	169.71
1215.843	172.02
1219.108	172.34
1222.373	174.98
1225.638	177.82
1228.902	180.49
1232.166	185.69
1235.43	188.72
1238.693	192.53
1241.956	197.22
1245.219	201.69
1248.482	204.16
1251.744	203.11
1255.006	203.11
1258.268	198.06
1261.529	196.97
1264.79	192.7
1268.051	189.28
1271.312	187.01
1274.572	184.24
1277.832	179.21
1281.092	176.93
1284.351	172.87
1287.61	172.68
1290.869	173.03
1294.128	172.68
1297.386	171.36
1300.644	170.44
1303.902	168.91
1307.159	167.29
1310.416	168.33
1313.673	171.01
1316.93	171.28
1320.186	174.21
1323.442	176.15
1326.697	179.08
1329.953	180.27
1333.208	185.53
1336.463	193.39
1339.717	197.57
1342.972	206.98
1346.226	210.6
1349.479	211.69
1352.733	221.01
1355.986	226.73
1359.238	230.8
1362.491	231
1365.743	239.26
1368.995	240.39
1372.247	239.27
1375.498	238.45
1378.749	245.83
1382	245.83
1385.251	244.25
1388.501	244.51
1391.751	245.2
1395	243.6
1398.25	245.72
1401.499	244.75
1404.748	244.35
1407.996	238.08
1411.244	237.97
1414.492	233.83
1417.74	227.84
1420.987	222.55
1424.234	218.33
1427.481	209.05
1430.728	204.07
1433.974	197.97
1437.22	190.74
1440.465	184.89
1443.711	179.74
1446.956	174.46
1450.201	167.7
1453.445	160.33
1456.689	156.14
1459.933	151
1463.177	146.11
1466.42	143.13
1469.663	139.3
1472.906	135.99
1476.148	133.08
1479.391	129.86
1482.633	127.7
1485.874	126.15
1489.115	125.54
1492.356	123.2
1495.597	121.45
1498.838	120.98
1502.078	120.19
1505.318	119.74
1508.557	119
1511.797	117.34
1515.036	117.83
1518.274	117.61
1521.513	115.67
1524.751	115.08
1527.989	117.09
1531.227	116.9
1534.464	116.99
1537.701	115.54
1540.938	114.74
1544.174	115.11
1547.41	115.01
1550.646	114.64
1553.882	114.76
1557.117	115.19
1560.352	115.28
1563.587	113.97
1566.821	113.95
1570.055	112.99
1573.289	113.62
1576.523	114.01
1579.756	113.5
1582.989	114.12
1586.222	113.47
1589.454	113.95
1592.686	114.19
1595.918	114.16
1599.15	113.74
1602.381	114.17
1605.612	114.62
1608.843	114.54
1612.073	114.81
1615.303	115.16
1618.533	114.65
1621.762	115.49
1624.992	114.72
1628.221	114.09
1631.449	114.62
1634.678	114.83
1637.906	114.42
1641.134	114.47
1644.361	114.54
1647.588	114.88
1650.815	114.95
1654.042	114.77
1657.269	113.8
1660.495	114.2
1663.72	114.59
1666.946	114.56
1670.171	115.03
1673.396	115.66
1676.621	116.2
1679.845	116.34
1683.069	116.05
1686.293	115.55
1689.517	116.35
1692.74	117.25
1695.963	117.1
1699.185	117.56
1702.408	117.07
1705.63	117.14
1708.852	117.69
1712.073	117.12
1715.294	117.02
1718.515	116.93
1721.736	117.41
1724.956	117.53
1728.176	117.45
1731.396	118.02
1734.616	117.93
1737.835	118.5
1741.054	118.14
1744.272	117.84
1747.491	118.55
1750.709	119.16
1753.927	119.56
1757.144	119.69
1760.361	119.95
1763.578	120.54
1766.795	120.42
1770.011	120.89
1773.227	121.21
1776.443	122.42
1779.658	122.09
1782.874	121.95
1786.089	122.09
1789.303	122.46
1792.518	123.42
1795.732	123.83
1798.945	124.76
1802.159	125.36
1805.372	126.53
1808.585	127.12
1811.797	128.01
1815.01	128.8
1818.222	130.17
1821.434	130.69
1824.645	131.72
1827.856	133.32
1831.067	133.86
1834.278	134.91
1837.488	135.63
1840.698	136.29
1843.908	136.74
1847.117	137.59
1850.326	139.37
1853.535	139.52
1856.744	140.74
1859.952	141.9
1863.16	141.47
1866.368	140.09
1869.575	140.64
1872.782	140.42
1875.989	138.62
1879.196	137.79
1882.402	136.15
1885.608	135.25
1888.814	134.6
1892.019	135.14
1895.224	132.12
1898.429	132.48
1901.634	133.37
1904.838	132.87
1908.042	132.98
1911.246	133.47
1914.449	133.78
1917.652	133.52
1920.855	134.34
1924.058	132.87
1927.26	132.01
1930.462	133.81
1933.664	133.1
1936.865	134.43
1940.066	132.22
1943.267	129.86
1946.467	131.84
1949.668	131.8
1952.868	132.4
1956.067	131.81
1959.267	131.7
1962.466	132.16
1965.665	133.89
1968.863	133.78
1972.061	134.71
1975.259	137.78
1978.457	141.64
1981.654	140.66
1984.852	142.03
1988.048	143.82
1991.245	146.16
1994.441	150.65
1997.637	153.27
2000.833	154.55
2004.028	157.49
2007.223	161.32
2010.418	164.45
2013.613	169.79
2016.807	175.34
2020.001	178.86
2023.194	183.45
2026.388	189.05
2029.581	198.61
2032.774	206.04
2035.966	211.61
2039.158	217.68
2042.35	220.54
2045.542	225.03
2048.733	235.99
2051.924	237.55
2055.115	242.23
2058.306	244.68
2061.496	250.37
2064.686	248.49
2067.875	245.41
2071.065	247.18
2074.254	248.02
2077.442	254.4
2080.631	257.76
2083.819	255.56
2087.007	263.78
2090.195	265.77
2093.382	266.3
2096.569	266.85
2099.756	271.94
2102.942	278.69
2106.128	286.52
2109.314	287.05
2112.5	287.79
2115.685	286.23
2118.87	286.8
2122.055	284.47
2125.239	291.66
2128.424	300.24
2131.608	296.61
2134.791	299.2
2137.974	299.33
2141.157	300.31
2144.34	304.74
2147.523	311.85
2150.705	318.72
2153.887	316.59
2157.068	320.89
2160.25	323.14
2163.431	321.79
2166.611	329.18
2169.792	331.73
2172.972	337.08
2176.152	336.37
2179.331	343.48
2182.511	341.7
2185.69	344.7
2188.868	357.05
2192.047	366.51
2195.225	370.44
2198.403	377.26
2201.58	370.63
2204.758	386.26
2207.935	388.52
2211.111	398.99
2214.288	400.97
2217.464	405.77
2220.64	409.02
2223.815	411.41
2226.991	404.62
2230.166	408.65
2233.34	417.49
2236.515	432.99
2239.689	424.96
2242.863	431.88
2246.036	428.05
2249.209	440.2
2252.382	436.27
2255.555	451.77
2258.727	452.74
2261.9	473.26
2265.071	478.79
2268.243	471.27
2271.414	484.45
2274.585	495.61
2277.756	493.62
2280.926	515.18
2284.096	514.43
2287.266	522.17
2290.436	511.97
2293.605	523.64
2296.774	536.24
2299.942	536.54
2303.111	555.38
2306.279	564.12
2309.447	563.35
2312.614	566.06
2315.781	577.3
2318.948	580.14
2322.115	589.41
2325.281	619.85
2328.447	613.14
2331.613	617.45
2334.779	624.19
2337.944	640.27
2341.109	649.31
2344.274	657.87
2347.438	677.26
2350.602	684.78
2353.766	734.97
2356.929	736.13
2360.092	741.82
2363.255	749.67
2366.418	754.79
2369.58	770.57
2372.742	765.18
2375.904	763.49
2379.066	785.25
2382.227	833.28
2385.388	832.05
2388.548	782.35
2391.709	778.96
2394.869	804.27
2398.029	802.53
2401.188	807.5
2404.347	832.92
2407.506	856.96
2410.665	823.66
2413.823	830.3
2416.981	824.8
2420.139	786.19
2423.296	847.73
2426.453	906.58
2429.61	862.15
2432.767	926.62
2435.923	950.14
2439.079	927.76
2442.235	951.49
2445.391	975.88
2448.546	962.25
2451.701	1015.5
2454.855	1085.77
2458.009	959.94
2461.163	972.23
2464.317	991.33
2467.471	964.79
2470.624	1001.94
2473.777	972.72
2476.929	936.02
2480.082	1002.02
2483.234	1052.22
2486.385	1076.67
2489.537	1098.71
2492.688	1222.62
2495.839	1193.98
2498.989	1225.9
2502.14	1235.55
2505.29	1174.99
2508.439	1317.25
2511.589	1353.53
2514.738	1306.96
2517.887	1292.3
2521.035	1203.42
2524.183	1189.26
2527.331	1171.4
2530.479	1148.12
2533.627	1175.08
