Data from N_3_dec_va_2n_Splice17_20.txt Node
Date: Sat Feb 29 15:03:19 EST 2020
User: sa697716
Spectrometer: FLMS03696
Trigger mode: 0
Integration Time (sec): 3.180400E-1
Scans to average: 20
Electric dark correction enabled: true
Nonlinearity correction enabled: true
Boxcar width: 5
XAxis mode: Wavelengths
Number of Pixels in Spectrum: 2048
>>>>>Begin Spectral Data<<<<<
187.83	78.13
188.298	72.65
188.766	77.61
189.233	71.69
189.701	78.41
190.169	79.64
190.636	74.65
191.104	68.71
191.571	184.21
192.039	137.72
192.506	77.27
192.974	1957.86
193.441	104.07
193.908	59.64
194.375	45.33
194.842	134.2
195.31	91.38
195.777	63.2
196.244	79.46
196.711	83.78
197.177	81.71
197.644	83.07
198.111	84.5
198.578	85.06
199.045	86.04
199.511	86.17
199.978	86.37
200.445	86.36
200.911	86.59
201.378	86.71
201.844	87.47
202.31	88.44
202.777	88.3
203.243	88.53
203.709	88.79
204.176	88.04
204.642	87.28
205.108	86.73
205.574	86.7
206.04	86.06
206.506	85.27
206.972	84.36
207.438	83.37
207.903	82.62
208.369	80.96
208.835	79.81
209.301	78.88
209.766	77.66
210.232	76.52
210.697	74.99
211.163	73.53
211.628	72.11
212.094	70.8
212.559	69.16
213.024	67.82
213.49	66.34
213.955	64.55
214.42	62.68
214.885	60.58
215.35	58.01
215.815	54.65
216.28	51.31
216.745	47.58
217.21	43.54
217.675	39.9
218.14	36.37
218.604	33.37
219.069	30.79
219.534	28.59
219.998	26.71
220.463	25.18
220.927	23.92
221.392	22.78
221.856	21.76
222.32	20.92
222.785	20.16
223.249	19.5
223.713	18.94
224.177	18.37
224.642	17.91
225.106	17.48
225.57	17.05
226.034	16.64
226.497	16.25
226.961	15.89
227.425	15.5
227.889	15.19
228.353	14.86
228.816	14.56
229.28	14.23
229.744	13.94
230.207	13.69
230.671	13.43
231.134	13.18
231.597	12.93
232.061	12.71
232.524	12.53
232.987	12.32
233.45	12.13
233.914	11.93
234.377	11.78
234.84	11.62
235.303	11.46
235.766	11.29
236.229	11.16
236.691	11.05
237.154	10.94
237.617	10.82
238.08	10.71
238.542	10.6
239.005	10.49
239.468	10.37
239.93	10.26
240.393	10.16
240.855	10.05
241.317	9.94
241.78	9.81
242.242	9.69
242.704	9.58
243.166	9.47
243.629	9.37
244.091	9.28
244.553	9.19
245.015	9.09
245.477	8.97
245.939	8.88
246.4	8.78
246.862	8.7
247.324	8.62
247.786	8.54
248.247	8.45
248.709	8.36
249.17	8.28
249.632	8.2
250.093	8.11
250.555	8.04
251.016	7.97
251.477	7.9
251.939	7.82
252.4	7.75
252.861	7.68
253.322	7.62
253.783	7.57
254.244	7.51
254.705	7.45
255.166	7.41
255.627	7.36
256.088	7.29
256.549	7.24
257.009	7.18
257.47	7.13
257.931	7.06
258.391	7
258.852	6.93
259.312	6.87
259.773	6.8
260.233	6.73
260.694	6.67
261.154	6.6
261.614	6.54
262.074	6.49
262.534	6.42
262.994	6.37
263.455	6.31
263.915	6.25
264.374	6.2
264.834	6.16
265.294	6.1
265.754	6.06
266.214	6.02
266.673	5.97
267.133	5.94
267.593	5.9
268.052	5.86
268.512	5.83
268.971	5.8
269.431	5.78
269.89	5.74
270.349	5.71
270.809	5.69
271.268	5.67
271.727	5.66
272.186	5.63
272.645	5.61
273.104	5.59
273.563	5.57
274.022	5.55
274.481	5.53
274.94	5.51
275.399	5.49
275.857	5.48
276.316	5.45
276.775	5.42
277.233	5.4
277.692	5.38
278.15	5.36
278.609	5.32
279.067	5.3
279.525	5.28
279.984	5.27
280.442	5.25
280.9	5.23
281.358	5.22
281.816	5.21
282.274	5.19
282.732	5.18
283.19	5.17
283.648	5.17
284.106	5.16
284.564	5.17
285.021	5.16
285.479	5.16
285.937	5.15
286.394	5.14
286.852	5.13
287.309	5.13
287.767	5.11
288.224	5.1
288.682	5.08
289.139	5.06
289.596	5.03
290.053	4.99
290.511	4.96
290.968	4.92
291.425	4.9
291.882	4.87
292.339	4.84
292.796	4.81
293.252	4.78
293.709	4.75
294.166	4.73
294.623	4.71
295.079	4.69
295.536	4.67
295.992	4.65
296.449	4.64
296.905	4.61
297.362	4.59
297.818	4.58
298.274	4.56
298.731	4.54
299.187	4.53
299.643	4.51
300.099	4.5
300.555	4.49
301.011	4.47
301.467	4.46
301.923	4.46
302.379	4.45
302.835	4.45
303.291	4.44
303.746	4.43
304.202	4.42
304.658	4.42
305.113	4.41
305.569	4.41
306.024	4.41
306.479	4.4
306.935	4.39
307.39	4.39
307.845	4.39
308.301	4.38
308.756	4.39
309.211	4.39
309.666	4.39
310.121	4.38
310.576	4.37
311.031	4.36
311.486	4.37
311.94	4.37
312.395	4.37
312.85	4.37
313.305	4.37
313.759	4.37
314.214	4.36
314.668	4.37
315.123	4.38
315.577	4.38
316.032	4.37
316.486	4.35
316.94	4.35
317.394	4.34
317.849	4.32
318.303	4.31
318.757	4.28
319.211	4.26
319.665	4.24
320.119	4.21
320.572	4.2
321.026	4.19
321.48	4.18
321.934	4.18
322.387	4.16
322.841	4.15
323.295	4.15
323.748	4.14
324.202	4.14
324.655	4.14
325.108	4.13
325.562	4.11
326.015	4.1
326.468	4.09
326.921	4.07
327.374	4.06
327.827	4.06
328.28	4.05
328.733	4.04
329.186	4.04
329.639	4.03
330.092	4.03
330.545	4.04
330.997	4.05
331.45	4.05
331.903	4.05
332.355	4.06
332.808	4.05
333.26	4.06
333.713	4.08
334.165	4.09
334.617	4.09
335.069	4.1
335.522	4.11
335.974	4.11
336.426	4.11
336.878	4.12
337.33	4.13
337.782	4.13
338.234	4.14
338.686	4.13
339.137	4.13
339.589	4.13
340.041	4.12
340.493	4.09
340.944	4.07
341.396	4.06
341.847	4.05
342.299	4.01
342.75	3.99
343.201	3.97
343.653	3.95
344.104	3.93
344.555	3.91
345.006	3.89
345.457	3.89
345.908	3.88
346.359	3.87
346.81	3.86
347.261	3.85
347.712	3.84
348.163	3.85
348.613	3.83
349.064	3.8
349.515	3.8
349.965	3.79
350.416	3.78
350.866	3.78
351.317	3.77
351.767	3.77
352.217	3.77
352.668	3.77
353.118	3.77
353.568	3.78
354.018	3.79
354.468	3.79
354.918	3.8
355.368	3.81
355.818	3.81
356.268	3.81
356.718	3.82
357.168	3.82
357.617	3.82
358.067	3.81
358.517	3.81
358.966	3.82
359.416	3.81
359.865	3.8
360.315	3.79
360.764	3.79
361.213	3.78
361.663	3.78
362.112	3.79
362.561	3.78
363.01	3.78
363.459	3.77
363.908	3.78
364.357	3.79
364.806	3.78
365.255	3.78
365.703	3.79
366.152	3.79
366.601	3.79
367.05	3.79
367.498	3.79
367.947	3.78
368.395	3.79
368.844	3.79
369.292	3.78
369.74	3.78
370.189	3.78
370.637	3.78
371.085	3.78
371.533	3.77
371.981	3.77
372.429	3.75
372.877	3.75
373.325	3.73
373.773	3.72
374.221	3.72
374.669	3.71
375.116	3.69
375.564	3.69
376.012	3.69
376.459	3.69
376.907	3.69
377.354	3.7
377.801	3.71
378.249	3.71
378.696	3.71
379.143	3.71
379.591	3.72
380.038	3.73
380.485	3.72
380.932	3.71
381.379	3.71
381.826	3.7
382.273	3.7
382.72	3.7
383.166	3.69
383.613	3.69
384.06	3.69
384.506	3.68
384.953	3.68
385.4	3.68
385.846	3.68
386.292	3.69
386.739	3.68
387.185	3.69
387.631	3.68
388.078	3.68
388.524	3.66
388.97	3.65
389.416	3.65
389.862	3.64
390.308	3.64
390.754	3.63
391.2	3.64
391.645	3.66
392.091	3.66
392.537	3.68
392.983	3.69
393.428	3.71
393.874	3.73
394.319	3.75
394.765	3.75
395.21	3.76
395.655	3.77
396.101	3.78
396.546	3.79
396.991	3.81
397.436	3.81
397.881	3.81
398.326	3.84
398.771	3.86
399.216	3.88
399.661	3.91
400.106	3.95
400.551	3.97
400.995	3.96
401.44	3.97
401.885	3.98
402.329	4.01
402.774	4.02
403.218	4.03
403.663	4.04
404.107	4.06
404.551	4.08
404.995	4.08
405.44	4.09
405.884	4.11
406.328	4.13
406.772	4.13
407.216	4.15
407.66	4.17
408.104	4.19
408.547	4.21
408.991	4.22
409.435	4.22
409.879	4.25
410.322	4.29
410.766	4.31
411.209	4.34
411.653	4.36
412.096	4.36
412.54	4.37
412.983	4.39
413.426	4.41
413.869	4.44
414.312	4.48
414.756	4.5
415.199	4.53
415.642	4.57
416.085	4.59
416.527	4.63
416.97	4.67
417.413	4.67
417.856	4.68
418.298	4.67
418.741	4.67
419.184	4.67
419.626	4.67
420.069	4.66
420.511	4.66
420.953	4.66
421.396	4.67
421.838	4.71
422.28	4.74
422.722	4.77
423.164	4.79
423.606	4.82
424.048	4.81
424.49	4.82
424.932	4.84
425.374	4.83
425.816	4.82
426.258	4.8
426.699	4.76
427.141	4.74
427.582	4.73
428.024	4.75
428.465	4.75
428.907	4.79
429.348	4.79
429.789	4.8
430.231	4.81
430.672	4.84
431.113	4.88
431.554	4.92
431.995	4.94
432.436	4.96
432.877	4.96
433.318	4.95
433.759	4.95
434.2	4.98
434.64	5.01
435.081	5.01
435.522	5.04
435.962	5.06
436.403	5.1
436.843	5.14
437.284	5.16
437.724	5.19
438.164	5.21
438.604	5.24
439.045	5.26
439.485	5.28
439.925	5.29
440.365	5.29
440.805	5.28
441.245	5.26
441.685	5.29
442.125	5.31
442.564	5.32
443.004	5.34
443.444	5.35
443.883	5.37
444.323	5.39
444.762	5.44
445.202	5.49
445.641	5.52
446.081	5.55
446.52	5.54
446.959	5.57
447.398	5.62
447.837	5.67
448.276	5.68
448.716	5.71
449.154	5.73
449.593	5.74
450.032	5.76
450.471	5.77
450.91	5.79
451.349	5.8
451.787	5.8
452.226	5.78
452.664	5.75
453.103	5.74
453.541	5.73
453.98	5.71
454.418	5.7
454.856	5.65
455.295	5.62
455.733	5.6
456.171	5.6
456.609	5.59
457.047	5.57
457.485	5.55
457.923	5.55
458.361	5.52
458.798	5.52
459.236	5.51
459.674	5.52
460.111	5.53
460.549	5.51
460.987	5.5
461.424	5.48
461.862	5.48
462.299	5.49
462.736	5.5
463.173	5.51
463.611	5.5
464.048	5.5
464.485	5.5
464.922	5.51
465.359	5.53
465.796	5.52
466.233	5.54
466.67	5.55
467.106	5.54
467.543	5.53
467.98	5.53
468.416	5.54
468.853	5.54
469.29	5.54
469.726	5.55
470.162	5.53
470.599	5.54
471.035	5.55
471.471	5.53
471.907	5.53
472.344	5.53
472.78	5.53
473.216	5.52
473.652	5.52
474.088	5.52
474.523	5.5
474.959	5.49
475.395	5.48
475.831	5.47
476.266	5.47
476.702	5.46
477.138	5.43
477.573	5.4
478.008	5.41
478.444	5.37
478.879	5.36
479.314	5.36
479.75	5.35
480.185	5.34
480.62	5.33
481.055	5.32
481.49	5.29
481.925	5.29
482.36	5.28
482.795	5.26
483.229	5.26
483.664	5.24
484.099	5.23
484.534	5.22
484.968	5.22
485.403	5.21
485.837	5.21
486.271	5.21
486.706	5.21
487.14	5.22
487.574	5.23
488.009	5.25
488.443	5.28
488.877	5.3
489.311	5.32
489.745	5.33
490.179	5.36
490.613	5.39
491.046	5.42
491.48	5.46
491.914	5.5
492.348	5.54
492.781	5.59
493.215	5.63
493.648	5.68
494.082	5.74
494.515	5.79
494.948	5.85
495.382	5.91
495.815	5.98
496.248	6.05
496.681	6.12
497.114	6.19
497.547	6.25
497.98	6.34
498.413	6.42
498.846	6.52
499.279	6.62
499.711	6.72
500.144	6.84
500.577	6.97
501.009	7.08
501.442	7.22
501.874	7.36
502.306	7.52
502.739	7.66
503.171	7.82
503.603	7.98
504.036	8.17
504.468	8.35
504.9	8.54
505.332	8.72
505.764	8.95
506.196	9.16
506.627	9.38
507.059	9.6
507.491	9.83
507.923	10.07
508.354	10.32
508.786	10.56
509.217	10.81
509.649	11.09
510.08	11.39
510.512	11.66
510.943	11.96
511.374	12.26
511.805	12.58
512.237	12.9
512.668	13.23
513.099	13.57
513.53	13.92
513.961	14.27
514.391	14.61
514.822	14.93
515.253	15.29
515.684	15.64
516.114	16
516.545	16.36
516.975	16.73
517.406	17.09
517.836	17.47
518.267	17.84
518.697	18.2
519.127	18.58
519.558	18.96
519.988	19.32
520.418	19.67
520.848	20.02
521.278	20.37
521.708	20.73
522.138	21.07
522.567	21.4
522.997	21.72
523.427	22.05
523.857	22.35
524.286	22.65
524.716	22.94
525.145	23.24
525.575	23.52
526.004	23.79
526.433	24.03
526.863	24.27
527.292	24.5
527.721	24.72
528.15	24.95
528.579	25.17
529.008	25.37
529.437	25.56
529.866	25.73
530.295	25.9
530.724	26.09
531.152	26.25
531.581	26.42
532.01	26.56
532.438	26.68
532.867	26.8
533.295	26.92
533.723	27.04
534.152	27.15
534.58	27.24
535.008	27.32
535.436	27.38
535.865	27.45
536.293	27.52
536.721	27.58
537.149	27.66
537.576	27.72
538.004	27.75
538.432	27.78
538.86	27.83
539.287	27.88
539.715	27.93
540.143	27.97
540.57	28.01
540.998	28.02
541.425	28.07
541.852	28.09
542.28	28.1
542.707	28.15
543.134	28.2
543.561	28.21
543.988	28.24
544.415	28.27
544.842	28.29
545.269	28.32
545.696	28.36
546.123	28.4
546.549	28.45
546.976	28.49
547.403	28.51
547.829	28.55
548.256	28.6
548.682	28.62
549.108	28.66
549.535	28.72
549.961	28.74
550.387	28.74
550.813	28.73
551.24	28.73
551.666	28.74
552.092	28.76
552.518	28.73
552.943	28.73
553.369	28.71
553.795	28.67
554.221	28.61
554.646	28.58
555.072	28.54
555.498	28.5
555.923	28.45
556.349	28.37
556.774	28.27
557.199	28.21
557.625	28.11
558.05	28.01
558.475	27.93
558.9	27.83
559.325	27.72
559.75	27.6
560.175	27.48
560.6	27.33
561.025	27.21
561.449	27.07
561.874	26.9
562.299	26.75
562.723	26.61
563.148	26.42
563.572	26.27
563.997	26.11
564.421	25.93
564.846	25.76
565.27	25.58
565.694	25.38
566.118	25.19
566.542	25
566.966	24.81
567.39	24.6
567.814	24.4
568.238	24.17
568.662	23.94
569.086	23.73
569.509	23.51
569.933	23.3
570.357	23.08
570.78	22.87
571.204	22.66
571.627	22.44
572.05	22.24
572.474	22.04
572.897	21.86
573.32	21.68
573.743	21.5
574.166	21.33
574.589	21.17
575.012	21.03
575.435	20.87
575.858	20.72
576.281	20.59
576.704	20.45
577.126	20.32
577.549	20.21
577.972	20.1
578.394	19.96
578.817	19.85
579.239	19.74
579.661	19.63
580.084	19.54
580.506	19.44
580.928	19.32
581.35	19.23
581.772	19.13
582.194	19.03
582.616	18.93
583.038	18.86
583.46	18.76
583.882	18.67
584.303	18.58
584.725	18.5
585.147	18.41
585.568	18.33
585.99	18.25
586.411	18.18
586.833	18.11
587.254	18.02
587.675	17.95
588.096	17.92
588.518	17.85
588.939	17.79
589.36	17.72
589.781	17.66
590.202	17.59
590.623	17.54
591.043	17.46
591.464	17.4
591.885	17.35
592.305	17.3
592.726	17.23
593.147	17.19
593.567	17.14
593.987	17.11
594.408	17.07
594.828	17.02
595.248	17
595.669	16.98
596.089	16.95
596.509	16.9
596.929	16.84
597.349	16.79
597.769	16.72
598.189	16.69
598.608	16.61
599.028	16.55
599.448	16.51
599.867	16.45
600.287	16.38
600.706	16.32
601.126	16.27
601.545	16.2
601.965	16.14
602.384	16.09
602.803	16.02
603.222	15.97
603.641	15.9
604.061	15.83
604.48	15.74
604.898	15.66
605.317	15.59
605.736	15.51
606.155	15.43
606.574	15.34
606.992	15.25
607.411	15.16
607.829	15.03
608.248	14.93
608.666	14.84
609.085	14.75
609.503	14.66
609.921	14.55
610.339	14.46
610.758	14.37
611.176	14.28
611.594	14.19
612.012	14.1
612.43	14.04
612.847	13.95
613.265	13.87
613.683	13.78
614.101	13.67
614.518	13.58
614.936	13.49
615.353	13.41
615.771	13.31
616.188	13.23
616.606	13.16
617.023	13.09
617.44	13.02
617.857	12.95
618.274	12.89
618.691	12.86
619.108	12.81
619.525	12.75
619.942	12.7
620.359	12.67
620.776	12.63
621.192	12.59
621.609	12.55
622.026	12.52
622.442	12.48
622.859	12.46
623.275	12.42
623.691	12.4
624.108	12.38
624.524	12.36
624.94	12.33
625.356	12.3
625.772	12.28
626.188	12.27
626.604	12.23
627.02	12.22
627.436	12.19
627.852	12.16
628.268	12.14
628.683	12.11
629.099	12.08
629.514	12.06
629.93	12.03
630.345	11.98
630.761	11.94
631.176	11.91
631.591	11.86
632.007	11.81
632.422	11.76
632.837	11.71
633.252	11.65
633.667	11.57
634.082	11.48
634.497	11.39
634.911	11.31
635.326	11.2
635.741	11.09
636.155	10.98
636.57	10.86
636.984	10.72
637.399	10.58
637.813	10.44
638.228	10.3
638.642	10.18
639.056	10.06
639.47	9.91
639.884	9.78
640.298	9.65
640.712	9.5
641.126	9.36
641.54	9.23
641.954	9.13
642.368	8.99
642.781	8.87
643.195	8.73
643.609	8.61
644.022	8.5
644.436	8.39
644.849	8.28
645.262	8.19
645.676	8.09
646.089	7.99
646.502	7.89
646.915	7.82
647.328	7.76
647.741	7.67
648.154	7.62
648.567	7.57
648.98	7.51
649.393	7.46
649.805	7.39
650.218	7.35
650.631	7.33
651.043	7.3
651.456	7.26
651.868	7.22
652.28	7.19
652.693	7.13
653.105	7.09
653.517	7.06
653.929	7.03
654.341	6.99
654.753	6.92
655.165	6.86
655.577	6.8
655.989	6.72
656.401	6.65
656.813	6.57
657.224	6.51
657.636	6.44
658.047	6.35
658.459	6.26
658.87	6.18
659.282	6.12
659.693	6.05
660.104	5.96
660.515	5.89
660.926	5.83
661.338	5.76
661.749	5.67
662.159	5.59
662.57	5.52
662.981	5.47
663.392	5.4
663.803	5.33
664.213	5.28
664.624	5.24
665.035	5.19
665.445	5.15
665.855	5.11
666.266	5.09
666.676	5.08
667.086	5.06
667.497	5.02
667.907	4.99
668.317	4.98
668.727	4.98
669.137	4.97
669.547	4.97
669.956	4.96
670.366	4.97
670.776	4.96
671.186	4.96
671.595	4.97
672.005	5
672.414	5.01
672.824	5.03
673.233	5.04
673.642	5.04
674.052	5.05
674.461	5.06
674.87	5.09
675.279	5.11
675.688	5.12
676.097	5.14
676.506	5.15
676.915	5.19
677.323	5.22
677.732	5.27
678.141	5.32
678.549	5.37
678.958	5.42
679.366	5.48
679.775	5.55
680.183	5.61
680.592	5.7
681	5.78
681.408	5.86
681.816	5.95
682.224	6.05
682.632	6.17
683.04	6.32
683.448	6.48
683.856	6.64
684.264	6.84
684.671	7.05
685.079	7.28
685.487	7.55
685.894	7.83
686.302	8.14
686.709	8.47
687.116	8.84
687.524	9.21
687.931	9.63
688.338	10.09
688.745	10.58
689.152	11.1
689.559	11.63
689.966	12.19
690.373	12.79
690.78	13.41
691.187	14.06
691.593	14.71
692	15.41
692.407	16.12
692.813	16.85
693.22	17.57
693.626	18.29
694.032	19.06
694.439	19.83
694.845	20.59
695.251	21.35
695.657	22.09
696.063	22.88
696.469	23.65
696.875	24.39
697.281	25.12
697.687	25.87
698.093	26.61
698.498	27.36
698.904	28.08
699.31	28.78
699.715	29.5
700.12	30.22
700.526	30.91
700.931	31.56
701.337	32.21
701.742	32.84
702.147	33.49
702.552	34.15
702.957	34.75
703.362	35.36
703.767	35.93
704.172	36.52
704.577	37.1
704.981	37.65
705.386	38.21
705.791	38.77
706.195	39.33
706.6	39.84
707.004	40.32
707.408	40.85
707.813	41.35
708.217	41.84
708.621	42.32
709.025	42.79
709.43	43.26
709.834	43.74
710.237	44.2
710.641	44.68
711.045	45.11
711.449	45.56
711.853	45.97
712.256	46.42
712.66	46.85
713.064	47.27
713.467	47.69
713.87	48.12
714.274	48.53
714.677	48.89
715.08	49.24
715.484	49.64
715.887	50.03
716.29	50.38
716.693	50.69
717.096	51.05
717.499	51.38
717.901	51.67
718.304	51.95
718.707	52.24
719.109	52.56
719.512	52.87
719.915	53.15
720.317	53.43
720.719	53.72
721.122	54.01
721.524	54.27
721.926	54.56
722.328	54.83
722.731	55.12
723.133	55.33
723.535	55.57
723.937	55.81
724.338	56
724.74	56.21
725.142	56.37
725.544	56.52
725.945	56.67
726.347	56.87
726.748	57.02
727.15	57.17
727.551	57.37
727.952	57.53
728.354	57.72
728.755	57.89
729.156	58.03
729.557	58.24
729.958	58.43
730.359	58.6
730.76	58.7
731.161	58.81
731.562	58.93
731.962	59.04
732.363	59.14
732.763	59.22
733.164	59.3
733.564	59.36
733.965	59.42
734.365	59.48
734.766	59.56
735.166	59.64
735.566	59.68
735.966	59.73
736.366	59.78
736.766	59.83
737.166	59.91
737.566	59.97
737.966	60.05
738.365	60.11
738.765	60.17
739.165	60.19
739.564	60.25
739.964	60.35
740.363	60.42
740.763	60.42
741.162	60.46
741.561	60.51
741.96	60.57
742.36	60.62
742.759	60.66
743.158	60.65
743.557	60.68
743.955	60.73
744.354	60.77
744.753	60.84
745.152	60.93
745.55	60.98
745.949	60.99
746.348	61
746.746	61.03
747.144	61.09
747.543	61.16
747.941	61.23
748.339	61.28
748.737	61.32
749.136	61.33
749.534	61.37
749.932	61.39
750.33	61.38
750.727	61.41
751.125	61.44
751.523	61.42
751.921	61.43
752.318	61.41
752.716	61.37
753.113	61.35
753.511	61.33
753.908	61.29
754.305	61.25
754.703	61.27
755.1	61.24
755.497	61.2
755.894	61.17
756.291	61.15
756.688	61.15
757.085	61.13
757.482	61.13
757.878	61.15
758.275	61.14
758.672	61.17
759.068	61.18
759.465	61.2
759.861	61.2
760.258	61.19
760.654	61.19
761.05	61.18
761.447	61.18
761.843	61.17
762.239	61.15
762.635	61.15
763.031	61.17
763.427	61.12
763.822	61.07
764.218	61.07
764.614	61.07
765.01	61.07
765.405	61.06
765.801	61.03
766.196	61.01
766.592	61
766.987	60.99
767.382	61
767.778	61.05
768.173	61.09
768.568	61.07
768.963	61.07
769.358	61.07
769.753	61.08
770.148	61.11
770.542	61.12
770.937	61.11
771.332	61.13
771.726	61.07
772.121	61.01
772.515	60.99
772.91	61.02
773.304	61.04
773.699	61.04
774.093	61.01
774.487	60.98
774.881	60.99
775.275	61.02
775.669	61
776.063	61.02
776.457	61.04
776.851	61.01
777.245	61.03
777.638	61
778.032	61
778.425	61.03
778.819	61.02
779.212	61
779.606	60.98
779.999	60.95
780.392	60.95
780.786	60.97
781.179	61.01
781.572	61
781.965	61.02
782.358	60.99
782.751	60.98
783.143	61
783.536	61.05
783.929	61.09
784.322	61.13
784.714	61.11
785.107	61.13
785.499	61.14
785.891	61.14
786.284	61.11
786.676	61.17
787.068	61.2
787.46	61.22
787.852	61.21
788.245	61.17
788.636	61.15
789.028	61.19
789.42	61.18
789.812	61.19
790.204	61.15
790.595	61.18
790.987	61.19
791.378	61.16
791.77	61.16
792.161	61.16
792.553	61.18
792.944	61.21
793.335	61.22
793.726	61.2
794.117	61.2
794.508	61.27
794.899	61.3
795.29	61.27
795.681	61.28
796.072	61.29
796.463	61.26
796.853	61.28
797.244	61.28
797.634	61.28
798.025	61.32
798.415	61.3
798.806	61.29
799.196	61.3
799.586	61.33
799.976	61.33
800.366	61.33
800.756	61.36
801.146	61.38
801.536	61.38
801.926	61.36
802.316	61.38
802.706	61.42
803.095	61.44
803.485	61.46
803.874	61.47
804.264	61.56
804.653	61.56
805.043	61.56
805.432	61.55
805.821	61.54
806.21	61.65
806.599	61.68
806.988	61.67
807.377	61.71
807.766	61.71
808.155	61.76
808.544	61.71
808.933	61.76
809.321	61.81
809.71	61.87
810.098	61.91
810.487	61.89
810.875	61.85
811.264	61.88
811.652	61.9
812.04	61.9
812.428	61.92
812.816	61.98
813.204	61.99
813.592	62
813.98	61.99
814.368	62.01
814.756	62.02
815.144	62.09
815.531	62.12
815.919	62.13
816.306	62.12
816.694	62.13
817.081	62.08
817.469	62.1
817.856	62.13
818.243	62.11
818.63	62.14
819.017	62.17
819.404	62.14
819.791	62.09
820.178	62.11
820.565	62.16
820.952	62.14
821.339	62.17
821.725	62.16
822.112	62.14
822.498	62.16
822.885	62.14
823.271	62.13
823.657	62.19
824.044	62.19
824.43	62.2
824.816	62.17
825.202	62.15
825.588	62.17
825.974	62.16
826.36	62.14
826.746	62.14
827.132	62.12
827.517	62.1
827.903	62.06
828.289	62.1
828.674	62.04
829.06	62.02
829.445	62.05
829.83	61.99
830.216	61.99
830.601	61.98
830.986	61.94
831.371	61.94
831.756	61.9
832.141	61.9
832.526	61.84
832.911	61.83
833.295	61.82
833.68	61.78
834.065	61.81
834.449	61.77
834.834	61.74
835.218	61.73
835.603	61.72
835.987	61.69
836.371	61.66
836.755	61.62
837.139	61.6
837.524	61.62
837.908	61.57
838.291	61.54
838.675	61.53
839.059	61.57
839.443	61.56
839.827	61.52
840.21	61.57
840.594	61.54
840.977	61.54
841.361	61.56
841.744	61.53
842.127	61.54
842.511	61.52
842.894	61.46
843.277	61.43
843.66	61.42
844.043	61.41
844.426	61.36
844.809	61.37
845.191	61.35
845.574	61.31
845.957	61.28
846.339	61.27
846.722	61.25
847.104	61.28
847.487	61.28
847.869	61.24
848.252	61.23
848.634	61.27
849.016	61.3
849.398	61.28
849.78	61.28
850.162	61.31
850.544	61.33
850.926	61.32
851.307	61.32
851.689	61.31
852.071	61.33
852.452	61.33
852.834	61.28
853.215	61.25
853.597	61.28
853.978	61.27
854.359	61.25
854.741	61.27
855.122	61.29
855.503	61.29
855.884	61.25
856.265	61.25
856.646	61.22
857.026	61.25
857.407	61.21
857.788	61.24
858.169	61.26
858.549	61.27
858.93	61.22
859.31	61.21
859.69	61.18
860.071	61.2
860.451	61.21
860.831	61.23
861.211	61.21
861.591	61.25
861.971	61.18
862.351	61.21
862.731	61.21
863.111	61.21
863.491	61.22
863.87	61.21
864.25	61.22
864.629	61.16
865.009	61.15
865.388	61.14
865.768	61.13
866.147	61.16
866.526	61.12
866.905	61.12
867.284	61.15
867.663	61.15
868.042	61.16
868.421	61.15
868.8	61.23
869.179	61.26
869.558	61.28
869.936	61.24
870.315	61.23
870.693	61.24
871.072	61.22
871.45	61.19
871.828	61.19
872.207	61.2
872.585	61.2
872.963	61.16
873.341	61.15
873.719	61.13
874.097	61.14
874.475	61.15
874.853	61.16
875.23	61.18
875.608	61.21
875.986	61.18
876.363	61.17
876.741	61.16
877.118	61.16
877.495	61.15
877.873	61.13
878.25	61.15
878.627	61.14
879.004	61.13
879.381	61.11
879.758	61.06
880.135	61.06
880.512	61.04
880.889	61.05
881.265	61.08
881.642	61.05
882.019	61.09
882.395	61.1
882.772	61.09
883.148	61.05
883.524	61.06
883.901	61.08
884.277	61.08
884.653	61.08
885.029	61.04
885.405	60.98
885.781	60.96
886.157	60.93
886.532	60.88
886.908	60.9
887.284	60.91
887.659	60.89
888.035	60.89
888.411	60.84
888.786	60.81
889.161	60.82
889.537	60.81
889.912	60.79
890.287	60.75
890.662	60.73
891.037	60.64
891.412	60.59
891.787	60.57
892.162	60.5
892.536	60.49
892.911	60.48
893.286	60.42
893.66	60.42
894.035	60.37
894.409	60.35
894.784	60.32
895.158	60.31
895.532	60.3
895.906	60.27
896.281	60.26
896.655	60.26
897.029	60.24
897.402	60.24
897.776	60.21
898.15	60.22
898.524	60.23
898.898	60.22
899.271	60.23
899.645	60.21
900.018	60.2
900.392	60.22
900.765	60.24
901.138	60.26
901.511	60.28
901.884	60.31
902.258	60.31
902.631	60.33
903.003	60.36
903.376	60.37
903.749	60.44
904.122	60.48
904.495	60.5
904.867	60.49
905.24	60.48
905.612	60.47
905.985	60.46
906.357	60.46
906.729	60.46
907.102	60.43
907.474	60.46
907.846	60.46
908.218	60.43
908.59	60.43
908.962	60.41
909.334	60.42
909.705	60.42
910.077	60.39
910.449	60.41
910.82	60.41
911.192	60.43
911.563	60.38
911.935	60.32
912.306	60.34
912.677	60.31
913.048	60.29
913.419	60.26
913.79	60.29
914.161	60.3
914.532	60.29
914.903	60.26
915.274	60.24
915.645	60.26
916.015	60.31
916.386	60.3
916.756	60.28
917.127	60.31
917.497	60.32
917.868	60.28
918.238	60.29
918.608	60.27
918.978	60.3
919.348	60.28
919.718	60.28
920.088	60.27
920.458	60.3
920.828	60.35
921.198	60.34
921.567	60.34
921.937	60.4
922.306	60.4
922.676	60.46
923.045	60.43
923.415	60.48
923.784	60.5
924.153	60.5
924.522	60.51
924.891	60.48
925.26	60.49
925.629	60.5
925.998	60.5
926.367	60.52
926.736	60.49
927.104	60.49
927.473	60.49
927.842	60.47
928.21	60.46
928.578	60.38
928.947	60.39
929.315	60.35
929.683	60.35
930.051	60.29
930.42	60.3
930.788	60.27
931.156	60.26
931.523	60.23
931.891	60.16
932.259	60.11
932.627	60.09
932.994	60.08
933.362	60.04
933.729	59.96
934.097	59.93
934.464	59.83
934.831	59.8
935.199	59.8
935.566	59.73
935.933	59.75
936.3	59.71
936.667	59.71
937.034	59.61
937.401	59.6
937.767	59.63
938.134	59.65
938.501	59.66
938.867	59.73
939.234	59.81
939.6	59.88
939.967	59.95
940.333	60.15
940.699	60.32
941.065	60.54
941.431	60.7
941.798	60.87
942.163	60.99
942.529	61.2
942.895	61.25
943.261	61.32
943.627	61.44
943.992	61.54
944.358	61.5
944.723	61.46
945.089	61.55
945.454	61.61
945.82	61.5
946.185	61.61
946.55	61.62
946.915	61.66
947.28	61.57
947.645	61.52
948.01	61.54
948.375	61.55
948.74	61.49
949.104	61.38
949.469	61.24
949.834	61.2
950.198	61.04
950.562	61.01
950.927	60.91
951.291	60.94
951.655	60.94
952.02	60.81
952.384	60.82
952.748	60.88
953.112	60.9
953.476	60.93
953.839	60.94
954.203	60.95
954.567	60.82
954.931	60.83
955.294	60.71
955.658	60.59
956.021	60.55
956.385	60.5
956.748	60.45
957.111	60.33
957.474	60.31
957.837	60.25
958.2	60.14
958.563	60.1
958.926	60.02
959.289	60.11
959.652	60.12
960.015	60.13
960.377	60.06
960.74	59.96
961.102	59.93
961.465	59.94
961.827	59.86
962.189	59.92
962.552	59.9
962.914	59.92
963.276	59.8
963.638	59.77
964	59.73
964.362	59.75
964.724	59.76
965.085	59.71
965.447	59.65
965.809	59.64
966.17	59.65
966.532	59.62
966.893	59.56
967.255	59.56
967.616	59.58
967.977	59.64
968.338	59.56
968.699	59.55
969.061	59.51
969.421	59.56
969.782	59.62
970.143	59.58
970.504	59.59
970.865	59.58
971.225	59.59
971.586	59.64
971.946	59.59
972.307	59.58
972.667	59.6
973.027	59.74
973.388	59.68
973.748	59.59
974.108	59.55
974.468	59.52
974.828	59.57
975.188	59.6
975.548	59.56
975.907	59.56
976.267	59.61
976.627	59.65
976.986	59.58
977.346	59.57
977.705	59.66
978.064	59.71
978.424	59.73
978.783	59.81
979.142	59.76
979.501	59.73
979.86	59.74
980.219	59.69
980.578	59.63
980.937	59.67
981.296	59.7
981.654	59.79
982.013	59.79
982.371	59.87
982.73	59.8
983.088	59.79
983.447	59.84
983.805	59.89
984.163	59.95
984.521	59.93
984.879	60.03
985.237	60.11
985.595	60.06
985.953	60.16
986.311	60.28
986.669	60.32
987.026	60.45
987.384	60.46
987.741	60.42
988.099	60.49
988.456	60.59
988.814	60.46
989.171	60.42
989.528	60.43
989.885	60.35
990.242	60.21
990.599	60.16
990.956	60.12
991.313	60.17
991.67	60.24
992.027	60.17
992.383	60.21
992.74	60.34
993.096	60.33
993.453	60.32
993.809	60.49
994.165	60.58
994.522	60.7
994.878	60.65
995.234	60.56
995.59	60.5
995.946	60.65
996.302	60.6
996.658	60.56
997.013	60.71
997.369	60.77
997.725	60.76
998.08	60.69
998.436	60.77
998.791	60.76
999.147	60.87
999.502	60.92
999.857	61.05
1000.212	61.11
1000.567	61.23
1000.922	61.35
1001.277	61.28
1001.632	61.38
1001.987	61.51
1002.342	61.64
1002.696	61.89
1003.051	61.8
1003.406	61.81
1003.76	61.61
1004.114	61.85
1004.469	61.82
1004.823	61.7
1005.177	61.97
1005.531	61.69
1005.885	61.81
1006.239	61.63
1006.593	61.55
1006.947	61.65
1007.301	61.8
1007.655	62
1008.008	61.83
1008.362	61.92
1008.715	61.85
1009.069	61.73
1009.422	61.74
1009.776	61.76
1010.129	61.83
1010.482	62.16
1010.835	62.5
1011.188	62.36
1011.541	62.22
1011.894	62.48
1012.247	62.57
1012.6	62.83
1012.952	63.08
1013.305	63.46
1013.657	63.5
1014.01	63.77
1014.362	63.69
1014.715	63.65
1015.067	64.09
1015.419	64.39
1015.771	64.46
1016.123	64.57
1016.475	64.93
1016.827	65.12
1017.179	65.09
1017.531	65.28
1017.883	65.88
1018.234	66.11
1018.586	66.19
1018.938	66.03
1019.289	66.02
1019.64	66.35
1019.992	66.44
1020.343	66.12
1020.694	66.03
1021.045	66.17
1021.396	66.41
1021.747	65.79
1022.098	65.9
1022.449	65.94
1022.8	66.25
1023.151	66.3
1023.501	66.16
1023.852	66.36
1024.202	66.56
1024.553	66.46
1024.903	66.95
1025.253	66.9
1025.604	67.09
1025.954	67.07
1026.304	67.75
1026.654	67.89
1027.004	68.22
1027.354	68.26
1027.703	68.37
1028.053	68.64
1028.403	68.85
1028.753	69.08
1029.102	69.03
1029.452	69.1
1029.801	68.99
1030.15	68.64
1030.499	68.61
897.758	550.22
901.051	558.1
904.343	564.59
907.636	554.01
910.928	544.89
914.22	556.27
917.511	542.99
920.803	519.44
924.094	500.63
927.384	507.09
930.675	490.06
933.965	484.43
937.255	482.36
940.544	460.66
943.834	444.21
947.123	438.1
950.411	415.78
953.7	409.04
956.988	401.35
960.276	381.34
963.563	374.85
966.851	356.03
970.138	351.67
973.424	330.38
976.711	325.89
979.997	313.13
983.283	305.59
986.568	295.15
989.853	290.02
993.138	278.94
996.423	275.14
999.708	269.03
1002.992	270.65
1006.275	259.89
1009.559	257.28
1012.842	250.72
1016.125	243.71
1019.408	239.73
1022.69	237.78
1025.972	233.75
1029.254	227.67
1032.536	224.71
1035.817	217.14
1039.098	213.22
1042.379	209.14
1045.659	206.91
1048.939	204.33
1052.219	201.69
1055.498	199.46
1058.778	196.47
1062.057	193.52
1065.335	193.12
1068.614	189.35
1071.892	187.74
1075.17	183.78
1078.447	182.75
1081.724	181.42
1085.001	176.77
1088.278	176.54
1091.554	174.51
1094.83	173.49
1098.106	170.98
1101.382	169.97
1104.657	169.37
1107.932	168.9
1111.206	168.62
1114.481	167.7
1117.755	166.21
1121.029	166.87
1124.302	164.55
1127.575	162.43
1130.848	161.76
1134.121	159.89
1137.393	159.65
1140.665	159.26
1143.937	157.39
1147.208	155.33
1150.48	152.94
1153.75	151.99
1157.021	150.86
1160.291	150.23
1163.561	150.37
1166.831	148.49
1170.101	148.02
1173.37	147.07
1176.639	145.05
1179.907	145.89
1183.176	145.88
1186.444	146.11
1189.711	145.08
1192.979	146.75
1196.246	146.78
1199.513	146.29
1202.78	147.1
1206.046	147.12
1209.312	147.73
1212.578	148.8
1215.843	150.7
1219.108	151.08
1222.373	153.49
1225.638	156.19
1228.902	158.69
1232.166	163.32
1235.43	164.78
1238.693	168.39
1241.956	173.17
1245.219	176.77
1248.482	178.34
1251.744	176.67
1255.006	177.53
1258.268	173.16
1261.529	171.76
1264.79	167.51
1268.051	164.65
1271.312	163.49
1274.572	160.62
1277.832	156.47
1281.092	154.53
1284.351	151.58
1287.61	151.5
1290.869	150.59
1294.128	149.98
1297.386	149.16
1300.644	148.22
1303.902	147.06
1307.159	146.76
1310.416	147.57
1313.673	149.24
1316.93	150.23
1320.186	152.8
1323.442	154.25
1326.697	157.4
1329.953	158.73
1333.208	163.89
1336.463	170.52
1339.717	173.44
1342.972	181.94
1346.226	185.15
1349.479	186.18
1352.733	194.08
1355.986	197.97
1359.238	202.04
1362.491	203.85
1365.743	210.93
1368.995	210.98
1372.247	214.47
1375.498	213.76
1378.749	219.39
1382	221.14
1385.251	219.23
1388.501	218.06
1391.751	220.34
1395	218.53
1398.25	219.99
1401.499	219.71
1404.748	220.67
1407.996	211.53
1411.244	212.06
1414.492	208.54
1417.74	201.38
1420.987	198.5
1424.234	195.43
1427.481	188.38
1430.728	183.24
1433.974	177.3
1437.22	171.72
1440.465	164.94
1443.711	160.57
1446.956	155.56
1450.201	149.41
1453.445	144.77
1456.689	140.25
1459.933	135.88
1463.177	130.59
1466.42	129.02
1469.663	125.43
1472.906	122.17
1476.148	120.2
1479.391	117.45
1482.633	115.83
1485.874	113.62
1489.115	112.55
1492.356	111.37
1495.597	109.59
1498.838	109.46
1502.078	108.34
1505.318	108.21
1508.557	107.8
1511.797	106.52
1515.036	106.32
1518.274	105.4
1521.513	104.94
1524.751	104.16
1527.989	105.2
1531.227	105.5
1534.464	104.77
1537.701	103.84
1540.938	103
1544.174	103.22
1547.41	103.6
1550.646	103.28
1553.882	103.71
1557.117	103.25
1560.352	103.37
1563.587	102.34
1566.821	101.94
1570.055	101.71
1573.289	102.2
1576.523	102.2
1579.756	101.44
1582.989	101.71
1586.222	101.62
1589.454	101.27
1592.686	101.52
1595.918	101.18
1599.15	100.84
1602.381	101.46
1605.612	101.81
1608.843	101.2
1612.073	101.71
1615.303	101.88
1618.533	101.46
1621.762	101.44
1624.992	101.87
1628.221	101.42
1631.449	101.92
1634.678	101.71
1637.906	101.47
1641.134	101.7
1644.361	101.84
1647.588	102.05
1650.815	102.1
1654.042	101.87
1657.269	101.63
1660.495	102.13
1663.72	101.87
1666.946	102.11
1670.171	102.88
1673.396	103.58
1676.621	102.84
1679.845	102.89
1683.069	102.72
1686.293	102.64
1689.517	103.04
1692.74	103.65
1695.963	103.47
1699.185	104.61
1702.408	103.54
1705.63	103.69
1708.852	104
1712.073	104.24
1715.294	104.35
1718.515	104.88
1721.736	105.07
1724.956	104.95
1728.176	104.71
1731.396	105.34
1734.616	105.72
1737.835	106.64
1741.054	106.01
1744.272	105.7
1747.491	105.88
1750.709	106.83
1753.927	106.68
1757.144	107.33
1760.361	107.62
1763.578	108.39
1766.795	108.48
1770.011	107.81
1773.227	108.05
1776.443	109.56
1779.658	108.84
1782.874	109.77
1786.089	109.11
1789.303	109.52
1792.518	110.05
1795.732	110.95
1798.945	111.78
1802.159	111.41
1805.372	112.92
1808.585	113.96
1811.797	114.12
1815.01	115.23
1818.222	116.18
1821.434	116.98
1824.645	117.69
1827.856	119.25
1831.067	119.29
1834.278	120.32
1837.488	121.73
1840.698	122.71
1843.908	122.81
1847.117	124.04
1850.326	125.25
1853.535	125.47
1856.744	126.99
1859.952	128.2
1863.16	127.51
1866.368	127.3
1869.575	127.49
1872.782	126.97
1875.989	124.95
1879.196	124.75
1882.402	122.87
1885.608	122.7
1888.814	122.03
1892.019	122.41
1895.224	119.68
1898.429	119.42
1901.634	119.46
1904.838	119.19
1908.042	119.46
1911.246	119.92
1914.449	119.76
1917.652	118.66
1920.855	119.87
1924.058	118.36
1927.26	117.29
1930.462	118
1933.664	118.12
1936.865	119.66
1940.066	117.55
1943.267	116.22
1946.467	117.1
1949.668	117.12
1952.868	118.94
1956.067	117.55
1959.267	119.46
1962.466	119.95
1965.665	122.44
1968.863	122.01
1972.061	121.85
1975.259	124.64
1978.457	126.58
1981.654	127.93
1984.852	129.17
1988.048	130.5
1991.245	132.2
1994.441	134.14
1997.637	136.54
2000.833	137.98
2004.028	140.38
2007.223	145.04
2010.418	147.89
2013.613	153.44
2016.807	156.74
2020.001	159.06
2023.194	164.48
2026.388	171.03
2029.581	179.64
2032.774	185.55
2035.966	191.44
2039.158	196.5
2042.35	199.01
2045.542	203.44
2048.733	211.66
2051.924	213.95
2055.115	216.58
2058.306	217.92
2061.496	220.69
2064.686	218.92
2067.875	217.56
2071.065	217.87
2074.254	219.2
2077.442	226.5
2080.631	227.81
2083.819	228.27
2087.007	233.34
2090.195	239.26
2093.382	238.99
2096.569	240.24
2099.756	244.1
2102.942	250.55
2106.128	258.59
2109.314	258.94
2112.5	256.87
2115.685	257.44
2118.87	257.89
2122.055	257.39
2125.239	263.01
2128.424	270.7
2131.608	265.94
2134.791	269.17
2137.974	267.62
2141.157	268.06
2144.34	272.91
2147.523	279.19
2150.705	284.54
2153.887	281.35
2157.068	284.24
2160.25	283.8
2163.431	283.65
2166.611	290.63
2169.792	292.04
2172.972	297.76
2176.152	297.98
2179.331	302.51
2182.511	301.66
2185.69	306.53
2188.868	317.24
2192.047	325.36
2195.225	332.74
2198.403	335.1
2201.58	329.1
2204.758	345.33
2207.935	346.82
2211.111	354.54
2214.288	356.02
2217.464	360.1
2220.64	361.94
2223.815	364.31
2226.991	358.92
2230.166	362.33
2233.34	370.4
2236.515	385.12
2239.689	376.7
2242.863	380.15
2246.036	377.03
2249.209	388.6
2252.382	385.33
2255.555	395.95
2258.727	398.32
2261.9	413.69
2265.071	417.7
2268.243	415.2
2271.414	426.31
2274.585	433.81
2277.756	435.92
2280.926	450.94
2284.096	452.09
2287.266	457.15
2290.436	448.17
2293.605	457.1
2296.774	470.3
2299.942	471.75
2303.111	488.12
2306.279	495.81
2309.447	498.08
2312.614	499.62
2315.781	514.3
2318.948	511.74
2322.115	522.73
2325.281	553.27
2328.447	549.25
2331.613	554.22
2334.779	558.94
2337.944	566.28
2341.109	575.52
2344.274	583.26
2347.438	598.57
2350.602	605.01
2353.766	650.26
2356.929	650.47
2360.092	657.4
2363.255	661.83
2366.418	666.03
2369.58	684.08
2372.742	681
2375.904	682.1
2379.066	700.29
2382.227	742.34
2385.388	734.81
2388.548	697.96
2391.709	689.93
2394.869	708.96
2398.029	714.33
2401.188	717.91
2404.347	734.66
2407.506	760.62
2410.665	733.75
2413.823	734.67
2416.981	734.83
2420.139	701.71
2423.296	759.44
2426.453	815.11
2429.61	771.63
2432.767	822.57
2435.923	841.96
2439.079	824.67
2442.235	843.5
2445.391	858.92
2448.546	856.24
2451.701	898.96
2454.855	966.33
2458.009	851.6
2461.163	858.52
2464.317	873.05
2467.471	854.39
2470.624	888.41
2473.777	865.01
2476.929	841.79
2480.082	901.21
2483.234	944.06
2486.385	966.4
2489.537	987.22
2492.688	1094.06
2495.839	1068.78
2498.989	1108.68
2502.14	1111.32
2505.29	1063.65
2508.439	1178.05
2511.589	1203.67
2514.738	1159.11
2517.887	1143.92
2521.035	1076.29
2524.183	1057.09
2527.331	1045.78
2530.479	1029.73
2533.627	1048.86
