Data from N_3_ofc_oh_4n_Splice17_04.txt Node
Date: Sat Feb 29 15:06:02 EST 2020
User: sa697716
Spectrometer: FLMS03696
Trigger mode: 0
Integration Time (sec): 3.180400E-1
Scans to average: 20
Electric dark correction enabled: true
Nonlinearity correction enabled: true
Boxcar width: 5
XAxis mode: Wavelengths
Number of Pixels in Spectrum: 2048
>>>>>Begin Spectral Data<<<<<
187.83	121.16
188.298	116.64
188.766	105.63
189.233	107.31
189.701	108.17
190.169	115.56
190.636	108.37
191.104	117.21
191.571	318.68
192.039	175.15
192.506	-250.96
192.974	-2213.99
193.441	524.73
193.908	-26.63
194.375	-5.34
194.842	58.48
195.31	18.56
195.777	-22.35
196.244	71.85
196.711	92.99
197.177	92.61
197.644	94.88
198.111	94.76
198.578	95.79
199.045	97.78
199.511	97.65
199.978	97.85
200.445	98.33
200.911	98.59
201.378	98.89
201.844	99.88
202.31	101.01
202.777	101.15
203.243	102.02
203.709	101.75
204.176	100.83
204.642	100.26
205.108	99.81
205.574	99.62
206.04	99.21
206.506	98.24
206.972	97.12
207.438	96.13
207.903	94.88
208.369	93.07
208.835	91.97
209.301	90.84
209.766	89.34
210.232	87.93
210.697	86.56
211.163	84.93
211.628	83.49
212.094	81.88
212.559	80.38
213.024	78.68
213.49	77.22
213.955	75.2
214.42	73.33
214.885	70.88
215.35	68.27
215.815	64.81
216.28	61.13
216.745	56.76
217.21	52.44
217.675	48.16
218.14	44.33
218.604	40.94
219.069	38.18
219.534	35.75
219.998	33.82
220.463	32.02
220.927	30.59
221.392	29.28
221.856	28.27
222.32	27.33
222.785	26.53
223.249	25.89
223.713	25.31
224.177	24.7
224.642	24.13
225.106	23.62
225.57	23.15
226.034	22.71
226.497	22.26
226.961	21.81
227.425	21.38
227.889	21.02
228.353	20.65
228.816	20.29
229.28	19.92
229.744	19.63
230.207	19.31
230.671	19.01
231.134	18.68
231.597	18.41
232.061	18.16
232.524	17.93
232.987	17.68
233.45	17.41
233.914	17.17
234.377	16.94
234.84	16.72
235.303	16.53
235.766	16.34
236.229	16.16
236.691	15.98
237.154	15.82
237.617	15.65
238.08	15.48
238.542	15.33
239.005	15.21
239.468	15.08
239.93	14.94
240.393	14.79
240.855	14.62
241.317	14.49
241.78	14.36
242.242	14.22
242.704	14.09
243.166	13.96
243.629	13.84
244.091	13.7
244.553	13.55
245.015	13.43
245.477	13.3
245.939	13.19
246.4	13.07
246.862	12.94
247.324	12.84
247.786	12.72
248.247	12.61
248.709	12.49
249.17	12.38
249.632	12.27
250.093	12.15
250.555	12.06
251.016	11.96
251.477	11.86
251.939	11.77
252.4	11.67
252.861	11.58
253.322	11.49
253.783	11.42
254.244	11.34
254.705	11.27
255.166	11.21
255.627	11.14
256.088	11.06
256.549	10.99
257.009	10.91
257.47	10.84
257.931	10.77
258.391	10.69
258.852	10.61
259.312	10.54
259.773	10.47
260.233	10.39
260.694	10.31
261.154	10.23
261.614	10.16
262.074	10.1
262.534	10.02
262.994	9.95
263.455	9.89
263.915	9.83
264.374	9.77
264.834	9.71
265.294	9.65
265.754	9.6
266.214	9.54
266.673	9.5
267.133	9.46
267.593	9.42
268.052	9.38
268.512	9.34
268.971	9.29
269.431	9.25
269.89	9.22
270.349	9.19
270.809	9.16
271.268	9.13
271.727	9.11
272.186	9.08
272.645	9.05
273.104	9.02
273.563	8.99
274.022	8.97
274.481	8.95
274.94	8.92
275.399	8.9
275.857	8.87
276.316	8.83
276.775	8.8
277.233	8.77
277.692	8.74
278.15	8.7
278.609	8.67
279.067	8.64
279.525	8.62
279.984	8.59
280.442	8.57
280.9	8.56
281.358	8.54
281.816	8.52
282.274	8.5
282.732	8.49
283.19	8.48
283.648	8.47
284.106	8.46
284.564	8.45
285.021	8.44
285.479	8.44
285.937	8.43
286.394	8.42
286.852	8.4
287.309	8.39
287.767	8.37
288.224	8.35
288.682	8.32
289.139	8.29
289.596	8.26
290.053	8.22
290.511	8.17
290.968	8.12
291.425	8.08
291.882	8.05
292.339	8
292.796	7.95
293.252	7.9
293.709	7.87
294.166	7.84
294.623	7.81
295.079	7.78
295.536	7.75
295.992	7.73
296.449	7.71
296.905	7.68
297.362	7.66
297.818	7.65
298.274	7.64
298.731	7.62
299.187	7.6
299.643	7.58
300.099	7.57
300.555	7.55
301.011	7.53
301.467	7.51
301.923	7.5
302.379	7.49
302.835	7.48
303.291	7.46
303.746	7.45
304.202	7.43
304.658	7.42
305.113	7.41
305.569	7.4
306.024	7.4
306.479	7.39
306.935	7.39
307.39	7.39
307.845	7.39
308.301	7.39
308.756	7.39
309.211	7.4
309.666	7.41
310.121	7.41
310.576	7.41
311.031	7.42
311.486	7.42
311.94	7.42
312.395	7.41
312.85	7.41
313.305	7.41
313.759	7.4
314.214	7.4
314.668	7.39
315.123	7.39
315.577	7.38
316.032	7.37
316.486	7.36
316.94	7.35
317.394	7.33
317.849	7.31
318.303	7.29
318.757	7.27
319.211	7.24
319.665	7.22
320.119	7.2
320.572	7.18
321.026	7.17
321.48	7.15
321.934	7.15
322.387	7.13
322.841	7.11
323.295	7.11
323.748	7.11
324.202	7.1
324.655	7.09
325.108	7.07
325.562	7.05
326.015	7.04
326.468	7.02
326.921	7.01
327.374	7
327.827	7
328.28	6.98
328.733	6.96
329.186	6.96
329.639	6.95
330.092	6.94
330.545	6.95
330.997	6.95
331.45	6.96
331.903	6.96
332.355	6.96
332.808	6.97
333.26	6.98
333.713	7.01
334.165	7.02
334.617	7.03
335.069	7.05
335.522	7.06
335.974	7.07
336.426	7.08
336.878	7.08
337.33	7.08
337.782	7.1
338.234	7.1
338.686	7.1
339.137	7.1
339.589	7.1
340.041	7.09
340.493	7.06
340.944	7.05
341.396	7.04
341.847	7.01
342.299	6.98
342.75	6.95
343.201	6.93
343.653	6.9
344.104	6.88
344.555	6.85
345.006	6.82
345.457	6.82
345.908	6.8
346.359	6.79
346.81	6.78
347.261	6.78
347.712	6.77
348.163	6.76
348.613	6.75
349.064	6.73
349.515	6.72
349.965	6.73
350.416	6.72
350.866	6.72
351.317	6.72
351.767	6.72
352.217	6.73
352.668	6.73
353.118	6.74
353.568	6.76
354.018	6.78
354.468	6.78
354.918	6.78
355.368	6.78
355.818	6.79
356.268	6.79
356.718	6.78
357.168	6.77
357.617	6.77
358.067	6.75
358.517	6.74
358.966	6.74
359.416	6.74
359.865	6.75
360.315	6.74
360.764	6.75
361.213	6.76
361.663	6.78
362.112	6.79
362.561	6.79
363.01	6.8
363.459	6.79
363.908	6.8
364.357	6.81
364.806	6.8
365.255	6.81
365.703	6.81
366.152	6.8
366.601	6.79
367.05	6.78
367.498	6.79
367.947	6.79
368.395	6.8
368.844	6.79
369.292	6.78
369.74	6.79
370.189	6.8
370.637	6.8
371.085	6.79
371.533	6.8
371.981	6.8
372.429	6.8
372.877	6.8
373.325	6.79
373.773	6.8
374.221	6.8
374.669	6.8
375.116	6.78
375.564	6.77
376.012	6.79
376.459	6.8
376.907	6.82
377.354	6.83
377.801	6.85
378.249	6.86
378.696	6.87
379.143	6.89
379.591	6.9
380.038	6.93
380.485	6.96
380.932	6.96
381.379	6.96
381.826	6.97
382.273	6.98
382.72	6.99
383.166	6.99
383.613	7
384.06	7.02
384.506	7.02
384.953	7.03
385.4	7.04
385.846	7.05
386.292	7.07
386.739	7.08
387.185	7.11
387.631	7.13
388.078	7.17
388.524	7.18
388.97	7.19
389.416	7.2
389.862	7.21
390.308	7.23
390.754	7.27
391.2	7.3
391.645	7.32
392.091	7.34
392.537	7.37
392.983	7.39
393.428	7.43
393.874	7.47
394.319	7.5
394.765	7.53
395.21	7.55
395.655	7.56
396.101	7.58
396.546	7.61
396.991	7.62
397.436	7.63
397.881	7.66
398.326	7.69
398.771	7.72
399.216	7.76
399.661	7.79
400.106	7.83
400.551	7.84
400.995	7.84
401.44	7.84
401.885	7.85
402.329	7.86
402.774	7.86
403.218	7.87
403.663	7.87
404.107	7.87
404.551	7.89
404.995	7.88
405.44	7.9
405.884	7.91
406.328	7.93
406.772	7.96
407.216	7.98
407.66	8
408.104	8
408.547	8.01
408.991	8.01
409.435	8.01
409.879	8.02
410.322	8.05
410.766	8.07
411.209	8.1
411.653	8.08
412.096	8.1
412.54	8.11
412.983	8.13
413.426	8.16
413.869	8.21
414.312	8.25
414.756	8.28
415.199	8.29
415.642	8.33
416.085	8.35
416.527	8.39
416.97	8.39
417.413	8.39
417.856	8.38
418.298	8.35
418.741	8.34
419.184	8.32
419.626	8.33
420.069	8.32
420.511	8.3
420.953	8.28
421.396	8.3
421.838	8.31
422.28	8.35
422.722	8.37
423.164	8.4
423.606	8.43
424.048	8.44
424.49	8.45
424.932	8.47
425.374	8.46
425.816	8.45
426.258	8.43
426.699	8.4
427.141	8.37
427.582	8.37
428.024	8.38
428.465	8.38
428.907	8.41
429.348	8.41
429.789	8.41
430.231	8.42
430.672	8.47
431.113	8.5
431.554	8.54
431.995	8.59
432.436	8.6
432.877	8.59
433.318	8.59
433.759	8.61
434.2	8.64
434.64	8.68
435.081	8.69
435.522	8.71
435.962	8.74
436.403	8.78
436.843	8.79
437.284	8.83
437.724	8.87
438.164	8.91
438.604	8.94
439.045	8.96
439.485	8.97
439.925	8.99
440.365	8.99
440.805	9
441.245	8.98
441.685	9.01
442.125	9.04
442.564	9.05
443.004	9.08
443.444	9.1
443.883	9.13
444.323	9.16
444.762	9.22
445.202	9.28
445.641	9.31
446.081	9.36
446.52	9.37
446.959	9.41
447.398	9.47
447.837	9.52
448.276	9.52
448.716	9.56
449.154	9.6
449.593	9.62
450.032	9.62
450.471	9.67
450.91	9.67
451.349	9.69
451.787	9.68
452.226	9.65
452.664	9.63
453.103	9.62
453.541	9.62
453.98	9.58
454.418	9.55
454.856	9.53
455.295	9.5
455.733	9.49
456.171	9.47
456.609	9.47
457.047	9.45
457.485	9.43
457.923	9.44
458.361	9.42
458.798	9.43
459.236	9.42
459.674	9.41
460.111	9.41
460.549	9.39
460.987	9.39
461.424	9.36
461.862	9.37
462.299	9.35
462.736	9.34
463.173	9.33
463.611	9.31
464.048	9.33
464.485	9.33
464.922	9.31
465.359	9.34
465.796	9.33
466.233	9.35
466.67	9.37
467.106	9.39
467.543	9.39
467.98	9.4
468.416	9.42
468.853	9.41
469.29	9.43
469.726	9.46
470.162	9.46
470.599	9.47
471.035	9.47
471.471	9.45
471.907	9.45
472.344	9.46
472.78	9.46
473.216	9.46
473.652	9.46
474.088	9.44
474.523	9.45
474.959	9.43
475.395	9.42
475.831	9.41
476.266	9.4
476.702	9.39
477.138	9.36
477.573	9.35
478.008	9.34
478.444	9.31
478.879	9.3
479.314	9.27
479.75	9.27
480.185	9.27
480.62	9.25
481.055	9.25
481.49	9.23
481.925	9.21
482.36	9.2
482.795	9.18
483.229	9.17
483.664	9.16
484.099	9.15
484.534	9.14
484.968	9.12
485.403	9.12
485.837	9.11
486.271	9.11
486.706	9.12
487.14	9.12
487.574	9.12
488.009	9.13
488.443	9.13
488.877	9.15
489.311	9.17
489.745	9.19
490.179	9.22
490.613	9.24
491.046	9.27
491.48	9.31
491.914	9.34
492.348	9.36
492.781	9.42
493.215	9.46
493.648	9.5
494.082	9.55
494.515	9.6
494.948	9.65
495.382	9.72
495.815	9.78
496.248	9.85
496.681	9.92
497.114	10
497.547	10.08
497.98	10.17
498.413	10.26
498.846	10.34
499.279	10.44
499.711	10.54
500.144	10.64
500.577	10.75
501.009	10.85
501.442	10.99
501.874	11.12
502.306	11.25
502.739	11.38
503.171	11.52
503.603	11.68
504.036	11.85
504.468	12.03
504.9	12.22
505.332	12.41
505.764	12.62
506.196	12.84
506.627	13.06
507.059	13.31
507.491	13.56
507.923	13.82
508.354	14.09
508.786	14.37
509.217	14.65
509.649	14.94
510.08	15.25
510.512	15.55
510.943	15.89
511.374	16.21
511.805	16.51
512.237	16.85
512.668	17.18
513.099	17.56
513.53	17.92
513.961	18.28
514.391	18.64
514.822	19.04
515.253	19.42
515.684	19.79
516.114	20.19
516.545	20.6
516.975	21.02
517.406	21.43
517.836	21.83
518.267	22.25
518.697	22.69
519.127	23.12
519.558	23.53
519.988	23.96
520.418	24.37
520.848	24.78
521.278	25.2
521.708	25.63
522.138	26.03
522.567	26.42
522.997	26.79
523.427	27.15
523.857	27.5
524.286	27.86
524.716	28.21
525.145	28.55
525.575	28.89
526.004	29.22
526.433	29.51
526.863	29.84
527.292	30.14
527.721	30.43
528.15	30.71
528.579	30.98
529.008	31.24
529.437	31.48
529.866	31.72
530.295	31.94
530.724	32.18
531.152	32.38
531.581	32.55
532.01	32.73
532.438	32.91
532.867	33.08
533.295	33.24
533.723	33.39
534.152	33.54
534.58	33.68
535.008	33.77
535.436	33.84
535.865	33.93
536.293	34.05
536.721	34.13
537.149	34.22
537.576	34.3
538.004	34.39
538.432	34.45
538.86	34.51
539.287	34.56
539.715	34.66
540.143	34.74
540.57	34.82
540.998	34.86
541.425	34.92
541.852	34.98
542.28	35.01
542.707	35.04
543.134	35.12
543.561	35.15
543.988	35.21
544.415	35.25
544.842	35.28
545.269	35.34
545.696	35.41
546.123	35.44
546.549	35.49
546.976	35.55
547.403	35.59
547.829	35.61
548.256	35.67
548.682	35.69
549.108	35.74
549.535	35.79
549.961	35.8
550.387	35.81
550.813	35.82
551.24	35.83
551.666	35.86
552.092	35.87
552.518	35.88
552.943	35.87
553.369	35.88
553.795	35.86
554.221	35.85
554.646	35.82
555.072	35.8
555.498	35.77
555.923	35.74
556.349	35.65
556.774	35.57
557.199	35.49
557.625	35.4
558.05	35.28
558.475	35.18
558.9	35.06
559.325	34.95
559.75	34.81
560.175	34.68
560.6	34.53
561.025	34.4
561.449	34.25
561.874	34.09
562.299	33.92
562.723	33.75
563.148	33.56
563.572	33.38
563.997	33.17
564.421	32.97
564.846	32.75
565.27	32.53
565.694	32.3
566.118	32.09
566.542	31.87
566.966	31.65
567.39	31.4
567.814	31.16
568.238	30.91
568.662	30.65
569.086	30.41
569.509	30.17
569.933	29.93
570.357	29.69
570.78	29.45
571.204	29.21
571.627	28.97
572.05	28.76
572.474	28.54
572.897	28.34
573.32	28.15
573.743	27.95
574.166	27.77
574.589	27.57
575.012	27.43
575.435	27.25
575.858	27.08
576.281	26.93
576.704	26.77
577.126	26.63
577.549	26.49
577.972	26.36
578.394	26.22
578.817	26.09
579.239	25.98
579.661	25.85
580.084	25.74
580.506	25.61
580.928	25.5
581.35	25.41
581.772	25.3
582.194	25.18
582.616	25.08
583.038	24.97
583.46	24.86
583.882	24.76
584.303	24.67
584.725	24.58
585.147	24.48
585.568	24.37
585.99	24.25
586.411	24.16
586.833	24.09
587.254	24.01
587.675	23.93
588.096	23.84
588.518	23.76
588.939	23.66
589.36	23.57
589.781	23.51
590.202	23.46
590.623	23.39
591.043	23.32
591.464	23.24
591.885	23.17
592.305	23.1
592.726	23.05
593.147	23
593.567	22.94
593.987	22.87
594.408	22.81
594.828	22.76
595.248	22.71
595.669	22.66
596.089	22.6
596.509	22.52
596.929	22.47
597.349	22.4
597.769	22.34
598.189	22.28
598.608	22.22
599.028	22.16
599.448	22.11
599.867	22.04
600.287	21.97
600.706	21.92
601.126	21.87
601.545	21.81
601.965	21.74
602.384	21.67
602.803	21.6
603.222	21.52
603.641	21.44
604.061	21.34
604.48	21.26
604.898	21.18
605.317	21.09
605.736	21
606.155	20.91
606.574	20.82
606.992	20.72
607.411	20.63
607.829	20.5
608.248	20.4
608.666	20.31
609.085	20.21
609.503	20.12
609.921	20.02
610.339	19.92
610.758	19.82
611.176	19.72
611.594	19.63
612.012	19.52
612.43	19.46
612.847	19.35
613.265	19.26
613.683	19.16
614.101	19.04
614.518	18.96
614.936	18.87
615.353	18.77
615.771	18.66
616.188	18.59
616.606	18.52
617.023	18.44
617.44	18.37
617.857	18.29
618.274	18.23
618.691	18.18
619.108	18.1
619.525	18.05
619.942	18
620.359	17.96
620.776	17.91
621.192	17.86
621.609	17.81
622.026	17.77
622.442	17.75
622.859	17.71
623.275	17.7
623.691	17.67
624.108	17.65
624.524	17.63
624.94	17.61
625.356	17.58
625.772	17.57
626.188	17.57
626.604	17.55
627.02	17.52
627.436	17.48
627.852	17.44
628.268	17.42
628.683	17.38
629.099	17.37
629.514	17.34
629.93	17.3
630.345	17.23
630.761	17.17
631.176	17.12
631.591	17.07
632.007	17.01
632.422	16.94
632.837	16.85
633.252	16.77
633.667	16.65
634.082	16.54
634.497	16.44
634.911	16.33
635.326	16.18
635.741	16.04
636.155	15.9
636.57	15.76
636.984	15.6
637.399	15.43
637.813	15.24
638.228	15.07
638.642	14.92
639.056	14.73
639.47	14.56
639.884	14.38
640.298	14.2
640.712	14.02
641.126	13.84
641.54	13.68
641.954	13.53
642.368	13.38
642.781	13.23
643.195	13.05
643.609	12.9
644.022	12.76
644.436	12.65
644.849	12.53
645.262	12.39
645.676	12.28
646.089	12.16
646.502	12.05
646.915	11.96
647.328	11.87
647.741	11.79
648.154	11.73
648.567	11.67
648.98	11.61
649.393	11.55
649.805	11.5
650.218	11.47
650.631	11.43
651.043	11.4
651.456	11.35
651.868	11.31
652.28	11.28
652.693	11.23
653.105	11.18
653.517	11.12
653.929	11.07
654.341	11.03
654.753	10.97
655.165	10.91
655.577	10.83
655.989	10.77
656.401	10.68
656.813	10.6
657.224	10.53
657.636	10.45
658.047	10.36
658.459	10.26
658.87	10.17
659.282	10.09
659.693	10
660.104	9.92
660.515	9.82
660.926	9.75
661.338	9.67
661.749	9.59
662.159	9.5
662.57	9.44
662.981	9.38
663.392	9.29
663.803	9.22
664.213	9.16
664.624	9.1
665.035	9.04
665.445	8.98
665.855	8.94
666.266	8.9
666.676	8.86
667.086	8.82
667.497	8.77
667.907	8.75
668.317	8.72
668.727	8.69
669.137	8.67
669.547	8.65
669.956	8.64
670.366	8.62
670.776	8.6
671.186	8.58
671.595	8.57
672.005	8.59
672.414	8.59
672.824	8.59
673.233	8.61
673.642	8.6
674.052	8.6
674.461	8.6
674.87	8.62
675.279	8.64
675.688	8.65
676.097	8.68
676.506	8.7
676.915	8.72
677.323	8.75
677.732	8.8
678.141	8.85
678.549	8.92
678.958	8.99
679.366	9.07
679.775	9.15
680.183	9.26
680.592	9.35
681	9.45
681.408	9.56
681.816	9.7
682.224	9.83
682.632	10
683.04	10.17
683.448	10.36
683.856	10.57
684.264	10.8
684.671	11.07
685.079	11.36
685.487	11.7
685.894	12.08
686.302	12.46
686.709	12.88
687.116	13.32
687.524	13.82
687.931	14.34
688.338	14.91
688.745	15.51
689.152	16.15
689.559	16.81
689.966	17.49
690.373	18.23
690.78	19
691.187	19.79
691.593	20.59
692	21.43
692.407	22.29
692.813	23.16
693.22	24.02
693.626	24.91
694.032	25.83
694.439	26.75
694.845	27.67
695.251	28.57
695.657	29.49
696.063	30.42
696.469	31.33
696.875	32.23
697.281	33.13
697.687	34.04
698.093	34.92
698.498	35.78
698.904	36.65
699.31	37.48
699.715	38.33
700.12	39.15
700.526	40.01
700.931	40.84
701.337	41.64
701.742	42.41
702.147	43.18
702.552	43.95
702.957	44.72
703.362	45.49
703.767	46.24
704.172	46.98
704.577	47.69
704.981	48.36
705.386	49.03
705.791	49.74
706.195	50.37
706.6	51.02
707.004	51.65
707.408	52.26
707.813	52.85
708.217	53.42
708.621	53.99
709.025	54.57
709.43	55.13
709.834	55.7
710.237	56.24
710.641	56.85
711.045	57.37
711.449	57.89
711.853	58.42
712.256	58.93
712.66	59.45
713.064	59.93
713.467	60.41
713.87	60.9
714.274	61.37
714.677	61.8
715.08	62.22
715.484	62.71
715.887	63.18
716.29	63.61
716.693	63.99
717.096	64.44
717.499	64.9
717.901	65.24
718.304	65.61
718.707	65.96
719.109	66.33
719.512	66.71
719.915	67.05
720.317	67.4
720.719	67.71
721.122	68.05
721.524	68.37
721.926	68.69
722.328	69.06
722.731	69.4
723.133	69.71
723.535	70.04
723.937	70.31
724.338	70.56
724.74	70.79
725.142	71.03
725.544	71.28
725.945	71.49
726.347	71.72
726.748	71.88
727.15	72.07
727.551	72.3
727.952	72.46
728.354	72.67
728.755	72.85
729.156	73.06
729.557	73.33
729.958	73.55
730.359	73.72
730.76	73.88
731.161	74.07
731.562	74.21
731.962	74.32
732.363	74.49
732.763	74.62
733.164	74.73
733.564	74.85
733.965	74.91
734.365	74.98
734.766	75.08
735.166	75.13
735.566	75.23
735.966	75.31
736.366	75.4
736.766	75.43
737.166	75.49
737.566	75.56
737.966	75.61
738.365	75.68
738.765	75.76
739.165	75.79
739.564	75.86
739.964	75.92
740.363	75.99
740.763	76.01
741.162	76.07
741.561	76.15
741.96	76.23
742.36	76.3
742.759	76.32
743.158	76.34
743.557	76.41
743.955	76.51
744.354	76.56
744.753	76.63
745.152	76.72
745.55	76.8
745.949	76.84
746.348	76.9
746.746	76.94
747.144	77.02
747.543	77.09
747.941	77.16
748.339	77.21
748.737	77.29
749.136	77.3
749.534	77.35
749.932	77.35
750.33	77.39
750.727	77.38
751.125	77.35
751.523	77.32
751.921	77.34
752.318	77.32
752.716	77.28
753.113	77.2
753.511	77.18
753.908	77.13
754.305	77.1
754.703	77.03
755.1	77.02
755.497	77.02
755.894	77.04
756.291	76.97
756.688	76.96
757.085	76.97
757.482	77
757.878	77.04
758.275	77.05
758.672	77.1
759.068	77.14
759.465	77.15
759.861	77.16
760.258	77.11
760.654	77.16
761.05	77.15
761.447	77.1
761.843	77.05
762.239	77.01
762.635	76.99
763.031	76.96
763.427	76.89
763.822	76.85
764.218	76.82
764.614	76.84
765.01	76.81
765.405	76.83
765.801	76.81
766.196	76.8
766.592	76.81
766.987	76.82
767.382	76.83
767.778	76.88
768.173	76.92
768.568	76.93
768.963	76.91
769.358	76.92
769.753	76.93
770.148	76.98
770.542	76.99
770.937	76.97
771.332	77
771.726	76.96
772.121	76.94
772.515	76.95
772.91	76.98
773.304	77
773.699	76.98
774.093	76.95
774.487	76.97
774.881	76.99
775.275	77
775.669	77.03
776.063	77.04
776.457	77.02
776.851	76.98
777.245	76.98
777.638	77.01
778.032	77.04
778.425	77.06
778.819	77.05
779.212	77.05
779.606	77.04
779.999	76.99
780.392	77.01
780.786	77.03
781.179	77.06
781.572	77.05
781.965	77.07
782.358	77.06
782.751	77.06
783.143	77.1
783.536	77.16
783.929	77.19
784.322	77.21
784.714	77.22
785.107	77.24
785.499	77.27
785.891	77.29
786.284	77.28
786.676	77.29
787.068	77.25
787.46	77.22
787.852	77.22
788.245	77.24
788.636	77.24
789.028	77.25
789.42	77.24
789.812	77.21
790.204	77.15
790.595	77.19
790.987	77.2
791.378	77.28
791.77	77.3
792.161	77.29
792.553	77.29
792.944	77.33
793.335	77.37
793.726	77.36
794.117	77.36
794.508	77.43
794.899	77.4
795.29	77.4
795.681	77.4
796.072	77.42
796.463	77.45
796.853	77.44
797.244	77.45
797.634	77.45
798.025	77.51
798.415	77.57
798.806	77.58
799.196	77.6
799.586	77.65
799.976	77.63
800.366	77.63
800.756	77.64
801.146	77.66
801.536	77.66
801.926	77.64
802.316	77.67
802.706	77.71
803.095	77.77
803.485	77.79
803.874	77.79
804.264	77.87
804.653	77.9
805.043	77.86
805.432	77.8
805.821	77.83
806.21	77.91
806.599	77.93
806.988	77.9
807.377	77.9
807.766	77.92
808.155	77.95
808.544	77.9
808.933	77.93
809.321	78.04
809.71	78.16
810.098	78.17
810.487	78.17
810.875	78.13
811.264	78.17
811.652	78.2
812.04	78.22
812.428	78.24
812.816	78.29
813.204	78.26
813.592	78.27
813.98	78.29
814.368	78.3
814.756	78.31
815.144	78.36
815.531	78.39
815.919	78.35
816.306	78.38
816.694	78.4
817.081	78.36
817.469	78.41
817.856	78.41
818.243	78.38
818.63	78.41
819.017	78.43
819.404	78.43
819.791	78.39
820.178	78.43
820.565	78.41
820.952	78.41
821.339	78.46
821.725	78.46
822.112	78.46
822.498	78.48
822.885	78.48
823.271	78.48
823.657	78.51
824.044	78.53
824.43	78.53
824.816	78.56
825.202	78.54
825.588	78.52
825.974	78.48
826.36	78.49
826.746	78.49
827.132	78.43
827.517	78.41
827.903	78.36
828.289	78.36
828.674	78.3
829.06	78.28
829.445	78.3
829.83	78.23
830.216	78.23
830.601	78.16
830.986	78.15
831.371	78.13
831.756	78.08
832.141	78.08
832.526	78.05
832.911	78.07
833.295	78.05
833.68	78
834.065	78.05
834.449	78.05
834.834	78.03
835.218	77.99
835.603	78.01
835.987	77.98
836.371	77.99
836.755	77.95
837.139	77.91
837.524	77.87
837.908	77.82
838.291	77.8
838.675	77.77
839.059	77.75
839.443	77.72
839.827	77.68
840.21	77.7
840.594	77.68
840.977	77.65
841.361	77.68
841.744	77.69
842.127	77.73
842.511	77.68
842.894	77.66
843.277	77.65
843.66	77.65
844.043	77.66
844.426	77.63
844.809	77.61
845.191	77.61
845.574	77.56
845.957	77.5
846.339	77.48
846.722	77.49
847.104	77.45
847.487	77.5
847.869	77.49
848.252	77.47
848.634	77.5
849.016	77.5
849.398	77.47
849.78	77.48
850.162	77.49
850.544	77.51
850.926	77.48
851.307	77.49
851.689	77.43
852.071	77.41
852.452	77.4
852.834	77.37
853.215	77.35
853.597	77.37
853.978	77.35
854.359	77.35
854.741	77.34
855.122	77.37
855.503	77.36
855.884	77.38
856.265	77.4
856.646	77.42
857.026	77.43
857.407	77.41
857.788	77.41
858.169	77.42
858.549	77.41
858.93	77.41
859.31	77.39
859.69	77.38
860.071	77.39
860.451	77.37
860.831	77.35
861.211	77.34
861.591	77.36
861.971	77.35
862.351	77.36
862.731	77.38
863.111	77.36
863.491	77.37
863.87	77.36
864.25	77.38
864.629	77.38
865.009	77.36
865.388	77.37
865.768	77.36
866.147	77.41
866.526	77.37
866.905	77.38
867.284	77.37
867.663	77.37
868.042	77.39
868.421	77.34
868.8	77.37
869.179	77.38
869.558	77.36
869.936	77.35
870.315	77.31
870.693	77.33
871.072	77.31
871.45	77.33
871.828	77.36
872.207	77.38
872.585	77.39
872.963	77.35
873.341	77.36
873.719	77.36
874.097	77.39
874.475	77.4
874.853	77.38
875.23	77.41
875.608	77.46
875.986	77.41
876.363	77.39
876.741	77.39
877.118	77.41
877.495	77.4
877.873	77.4
878.25	77.39
878.627	77.39
879.004	77.41
879.381	77.37
879.758	77.3
880.135	77.29
880.512	77.33
880.889	77.35
881.265	77.37
881.642	77.37
882.019	77.37
882.395	77.36
882.772	77.34
883.148	77.31
883.524	77.31
883.901	77.27
884.277	77.25
884.653	77.23
885.029	77.19
885.405	77.12
885.781	77.06
886.157	77.07
886.532	77.04
886.908	77
887.284	77.01
887.659	76.99
888.035	76.99
888.411	76.97
888.786	76.93
889.161	76.88
889.537	76.87
889.912	76.85
890.287	76.76
890.662	76.74
891.037	76.72
891.412	76.64
891.787	76.59
892.162	76.52
892.536	76.46
892.911	76.39
893.286	76.38
893.66	76.34
894.035	76.29
894.409	76.3
894.784	76.25
895.158	76.23
895.532	76.21
895.906	76.19
896.281	76.18
896.655	76.21
897.029	76.19
897.402	76.18
897.776	76.16
898.15	76.19
898.524	76.15
898.898	76.13
899.271	76.11
899.645	76.15
900.018	76.16
900.392	76.19
900.765	76.2
901.138	76.25
901.511	76.24
901.884	76.29
902.258	76.26
902.631	76.31
903.003	76.34
903.376	76.34
903.749	76.36
904.122	76.38
904.495	76.4
904.867	76.37
905.24	76.39
905.612	76.41
905.985	76.36
906.357	76.4
906.729	76.38
907.102	76.38
907.474	76.42
907.846	76.4
908.218	76.34
908.59	76.31
908.962	76.33
909.334	76.3
909.705	76.28
910.077	76.31
910.449	76.35
910.82	76.31
911.192	76.3
911.563	76.31
911.935	76.3
912.306	76.32
912.677	76.34
913.048	76.34
913.419	76.39
913.79	76.42
914.161	76.43
914.532	76.35
914.903	76.39
915.274	76.41
915.645	76.4
916.015	76.41
916.386	76.43
916.756	76.39
917.127	76.43
917.497	76.4
917.868	76.4
918.238	76.41
918.608	76.48
918.978	76.46
919.348	76.48
919.718	76.48
920.088	76.53
920.458	76.54
920.828	76.59
921.198	76.61
921.567	76.6
921.937	76.59
922.306	76.54
922.676	76.48
923.045	76.46
923.415	76.42
923.784	76.42
924.153	76.36
924.522	76.34
924.891	76.3
925.26	76.25
925.629	76.26
925.998	76.21
926.367	76.21
926.736	76.23
927.104	76.28
927.473	76.31
927.842	76.25
928.21	76.24
928.578	76.23
928.947	76.19
929.315	76.22
929.683	76.23
930.051	76.24
930.42	76.24
930.788	76.23
931.156	76.2
931.523	76.18
931.891	76.15
932.259	76.09
932.627	75.98
932.994	75.99
933.362	75.87
933.729	75.78
934.097	75.73
934.464	75.68
934.831	75.61
935.199	75.56
935.566	75.42
935.933	75.47
936.3	75.4
936.667	75.42
937.034	75.34
937.401	75.35
937.767	75.29
938.134	75.28
938.501	75.23
938.867	75.29
939.234	75.36
939.6	75.44
939.967	75.45
940.333	75.66
940.699	75.86
941.065	76.05
941.431	76.25
941.798	76.56
942.163	76.76
942.529	76.99
942.895	77.17
943.261	77.22
943.627	77.4
943.992	77.48
944.358	77.51
944.723	77.53
945.089	77.64
945.454	77.6
945.82	77.56
946.185	77.57
946.55	77.62
946.915	77.45
947.28	77.42
947.645	77.38
948.01	77.35
948.375	77.44
948.74	77.28
949.104	77.23
949.469	77.1
949.834	76.99
950.198	76.82
950.562	76.57
950.927	76.55
951.291	76.4
951.655	76.37
952.02	76.33
952.384	76.16
952.748	76.21
953.112	76.08
953.476	76.11
953.839	76.12
954.203	76.06
954.567	76.16
954.931	76.09
955.294	76.11
955.658	76.03
956.021	76.01
956.385	75.99
956.748	75.96
957.111	75.9
957.474	75.85
957.837	75.76
958.2	75.7
958.563	75.55
958.926	75.43
959.289	75.4
959.652	75.39
960.015	75.33
960.377	75.28
960.74	75.16
961.102	75.09
961.465	75.12
961.827	75
962.189	74.96
962.552	74.93
962.914	75
963.276	75.08
963.638	75.04
964	74.98
964.362	74.94
964.724	74.96
965.085	74.96
965.447	74.81
965.809	74.81
966.17	74.86
966.532	74.94
966.893	74.92
967.255	74.73
967.616	74.64
967.977	74.65
968.338	74.6
968.699	74.55
969.061	74.56
969.421	74.59
969.782	74.66
970.143	74.72
970.504	74.6
970.865	74.53
971.225	74.67
971.586	74.7
971.946	74.73
972.307	74.71
972.667	74.82
973.027	74.84
973.388	74.81
973.748	74.85
974.108	74.77
974.468	74.8
974.828	74.86
975.188	74.81
975.548	74.85
975.907	74.83
976.267	74.91
976.627	74.88
976.986	74.86
977.346	74.86
977.705	74.88
978.064	74.91
978.424	74.93
978.783	75.03
979.142	75
979.501	74.98
979.86	75.02
980.219	74.98
980.578	74.92
980.937	74.99
981.296	74.96
981.654	75.02
982.013	75.01
982.371	75
982.73	74.94
983.088	74.91
983.447	74.99
983.805	75
984.163	75.1
984.521	74.98
984.879	74.99
985.237	75.08
985.595	75.06
985.953	75.11
986.311	75.27
986.669	75.28
987.026	75.43
987.384	75.36
987.741	75.35
988.099	75.28
988.456	75.4
988.814	75.46
989.171	75.52
989.528	75.43
989.885	75.4
990.242	75.29
990.599	75.41
990.956	75.37
991.313	75.51
991.67	75.56
992.027	75.53
992.383	75.72
992.74	75.68
993.096	75.66
993.453	75.75
993.809	75.94
994.165	75.98
994.522	75.95
994.878	76
995.234	75.94
995.59	75.9
995.946	76.04
996.302	75.94
996.658	76
997.013	76.02
997.369	75.99
997.725	75.95
998.08	76.02
998.436	76.02
998.791	75.95
999.147	76.01
999.502	76.07
999.857	76.14
1000.212	76.19
1000.567	76.26
1000.922	76.35
1001.277	76.56
1001.632	76.62
1001.987	76.6
1002.342	76.86
1002.696	77
1003.051	76.97
1003.406	77.01
1003.76	76.97
1004.114	77.14
1004.469	77.14
1004.823	77.32
1005.177	77.39
1005.531	77.37
1005.885	77.52
1006.239	77.19
1006.593	77.28
1006.947	77.36
1007.301	77.61
1007.655	77.65
1008.008	77.54
1008.362	77.56
1008.715	77.5
1009.069	77.44
1009.422	77.3
1009.776	77.22
1010.129	77.25
1010.482	77.39
1010.835	77.65
1011.188	77.64
1011.541	77.56
1011.894	77.75
1012.247	77.73
1012.6	77.82
1012.952	77.75
1013.305	77.94
1013.657	78.11
1014.01	78.44
1014.362	78.51
1014.715	78.4
1015.067	78.45
1015.419	78.74
1015.771	79.07
1016.123	79.19
1016.475	79.2
1016.827	79.46
1017.179	79.62
1017.531	79.68
1017.883	79.93
1018.234	80.04
1018.586	80.22
1018.938	80.23
1019.289	80.33
1019.64	80.47
1019.992	80.81
1020.343	80.97
1020.694	80.93
1021.045	81.04
1021.396	81.37
1021.747	81.32
1022.098	81.33
1022.449	81.26
1022.8	81.47
1023.151	81.53
1023.501	81.34
1023.852	81.51
1024.202	81.42
1024.553	81.47
1024.903	81.53
1025.253	81.68
1025.604	81.98
1025.954	82.18
1026.304	82.78
1026.654	83.21
1027.004	83.37
1027.354	83.52
1027.703	83.35
1028.053	83.52
1028.403	83.6
1028.753	83.91
1029.102	83.87
1029.452	83.94
1029.801	84.06
1030.15	83.8
1030.499	83.49
897.758	605.99
901.051	618.68
904.343	627.16
907.636	611.93
910.928	605.31
914.22	613.73
917.511	599.87
920.803	577.49
924.094	555.27
927.384	559.85
930.675	544.75
933.965	538.56
937.255	536.18
940.544	511.61
943.834	495.99
947.123	486.59
950.411	465.68
953.7	459.84
956.988	445.78
960.276	427.1
963.563	419.79
966.851	399.21
970.138	392.92
973.424	368.09
976.711	361.51
979.997	347.57
983.283	341.13
986.568	328.95
989.853	320.26
993.138	309.83
996.423	306.14
999.708	299.35
1002.992	299.75
1006.275	288.48
1009.559	286.79
1012.842	281.13
1016.125	273.93
1019.408	269.28
1022.69	265.68
1025.972	264.35
1029.254	257.42
1032.536	252.21
1035.817	244.69
1039.098	240.58
1042.379	237.82
1045.659	234.92
1048.939	233.21
1052.219	227.86
1055.498	224.54
1058.778	222.15
1062.057	217.94
1065.335	217.04
1068.614	213.76
1071.892	211.25
1075.17	207
1078.447	204.25
1081.724	202.69
1085.001	197.48
1088.278	199.2
1091.554	197.46
1094.83	196.76
1098.106	194.46
1101.382	192.7
1104.657	192.2
1107.932	191.8
1111.206	191.85
1114.481	189.15
1117.755	188.34
1121.029	188.56
1124.302	185.67
1127.575	182.15
1130.848	181.13
1134.121	178.87
1137.393	179.2
1140.665	179.06
1143.937	177.13
1147.208	174.55
1150.48	174.16
1153.75	171.55
1157.021	171.29
1160.291	169.87
1163.561	170.43
1166.831	167.91
1170.101	168.19
1173.37	166.65
1176.639	164.14
1179.907	164.44
1183.176	164.17
1186.444	164.12
1189.711	163.64
1192.979	163.65
1196.246	164.42
1199.513	164.27
1202.78	164.74
1206.046	164.49
1209.312	164.94
1212.578	166.09
1215.843	167.4
1219.108	168.34
1222.373	170.97
1225.638	173.61
1228.902	176.64
1232.166	180.74
1235.43	183.53
1238.693	187.98
1241.956	192.1
1245.219	197.2
1248.482	198.71
1251.744	198.13
1255.006	199.16
1258.268	194.29
1261.529	193.27
1264.79	188.26
1268.051	185.7
1271.312	183.84
1274.572	180.81
1277.832	175.62
1281.092	172.98
1284.351	169.53
1287.61	169.51
1290.869	168.7
1294.128	168.37
1297.386	167.32
1300.644	166.54
1303.902	165.81
1307.159	163.95
1310.416	165.17
1313.673	167.41
1316.93	168.85
1320.186	171.44
1323.442	172.86
1326.697	176.22
1329.953	177.13
1333.208	181.98
1336.463	190.19
1339.717	193.11
1342.972	202.08
1346.226	205.23
1349.479	207.39
1352.733	215.43
1355.986	220.92
1359.238	225.42
1362.491	226.81
1365.743	235.13
1368.995	236.72
1372.247	235.19
1375.498	234.32
1378.749	242.12
1382	242.94
1385.251	240.43
1388.501	240.3
1391.751	241.92
1395	238.7
1398.25	240.69
1401.499	239.25
1404.748	238.08
1407.996	232.31
1411.244	232.08
1414.492	227.02
1417.74	221.65
1420.987	217.91
1424.234	213.92
1427.481	204.24
1430.728	200.21
1433.974	192.81
1437.22	185.68
1440.465	180.96
1443.711	175.7
1446.956	170.27
1450.201	163.86
1453.445	156.72
1456.689	151.95
1459.933	146.53
1463.177	141.8
1466.42	139.18
1469.663	135.89
1472.906	132.9
1476.148	129.29
1479.391	126.69
1482.633	124.68
1485.874	123.11
1489.115	122.29
1492.356	120.83
1495.597	119.27
1498.838	118.76
1502.078	117.71
1505.318	117.24
1508.557	116.67
1511.797	115.76
1515.036	115.14
1518.274	114.9
1521.513	113.2
1524.751	112.75
1527.989	113.98
1531.227	113.94
1534.464	113.67
1537.701	112.55
1540.938	111.95
1544.174	112.32
1547.41	111.91
1550.646	112.1
1553.882	112.3
1557.117	112.94
1560.352	112.93
1563.587	111.57
1566.821	111.3
1570.055	110.81
1573.289	111.11
1576.523	111.39
1579.756	110.62
1582.989	111.65
1586.222	110.99
1589.454	110.82
1592.686	110.96
1595.918	110.35
1599.15	110.12
1602.381	110.74
1605.612	111.07
1608.843	111.61
1612.073	111.23
1615.303	111.72
1618.533	110.44
1621.762	111.57
1624.992	111.62
1628.221	110.84
1631.449	111.9
1634.678	112.41
1637.906	111.68
1641.134	111.91
1644.361	111.61
1647.588	112.27
1650.815	112.37
1654.042	112.65
1657.269	111.56
1660.495	112.05
1663.72	112.39
1666.946	112.39
1670.171	112.45
1673.396	113.33
1676.621	113.62
1679.845	113.72
1683.069	113.91
1686.293	113.49
1689.517	114.17
1692.74	115.15
1695.963	114.72
1699.185	115.38
1702.408	115.04
1705.63	115.25
1708.852	115.93
1712.073	115.17
1715.294	115.37
1718.515	115.11
1721.736	115.61
1724.956	115.07
1728.176	114.95
1731.396	115.95
1734.616	115.31
1737.835	115.7
1741.054	115.18
1744.272	114.64
1747.491	115.09
1750.709	116.31
1753.927	116.46
1757.144	116.77
1760.361	117.36
1763.578	117.95
1766.795	117.59
1770.011	117.97
1773.227	118.36
1776.443	119.92
1779.658	119.86
1782.874	120.28
1786.089	119.08
1789.303	119.54
1792.518	120.86
1795.732	121.26
1798.945	121.93
1802.159	122.32
1805.372	124.09
1808.585	124.75
1811.797	125.53
1815.01	126.04
1818.222	127.3
1821.434	128.32
1824.645	128.85
1827.856	130.07
1831.067	131.18
1834.278	131.79
1837.488	133.53
1840.698	133.92
1843.908	134.17
1847.117	135
1850.326	136.99
1853.535	136.86
1856.744	138.02
1859.952	139.46
1863.16	139
1866.368	137.27
1869.575	137.94
1872.782	136.71
1875.989	135.21
1879.196	134.38
1882.402	132.18
1885.608	131.36
1888.814	130.62
1892.019	131.34
1895.224	128.58
1898.429	128.52
1901.634	128.97
1904.838	129.85
1908.042	129.66
1911.246	129.51
1914.449	130.09
1917.652	129.57
1920.855	130.31
1924.058	129.67
1927.26	128.6
1930.462	129.95
1933.664	129.47
1936.865	130.24
1940.066	127.78
1943.267	126.21
1946.467	128.04
1949.668	127.67
1952.868	128.12
1956.067	127.98
1959.267	128.01
1962.466	128.84
1965.665	130.69
1968.863	130.38
1972.061	131.53
1975.259	134.8
1978.457	137.04
1981.654	137.1
1984.852	138.52
1988.048	140.52
1991.245	142.98
1994.441	146.85
1997.637	148.57
2000.833	149.58
2004.028	151.71
2007.223	156.13
2010.418	157.73
2013.613	165.17
2016.807	169.01
2020.001	173.18
2023.194	177.49
2026.388	182.81
2029.581	192.08
2032.774	199.62
2035.966	205.84
2039.158	212.46
2042.35	215.17
2045.542	219.75
2048.733	228.5
2051.924	232.35
2055.115	235.36
2058.306	238.52
2061.496	243.66
2064.686	240.63
2067.875	238.96
2071.065	242.41
2074.254	243.04
2077.442	250.09
2080.631	253.66
2083.819	252.28
2087.007	257.32
2090.195	261.35
2093.382	262.44
2096.569	262.37
2099.756	268.27
2102.942	274.32
2106.128	280.31
2109.314	280.71
2112.5	281.21
2115.685	279.6
2118.87	281.3
2122.055	280.67
2125.239	286.37
2128.424	291.44
2131.608	290.89
2134.791	292.55
2137.974	292.84
2141.157	293
2144.34	298.31
2147.523	304.92
2150.705	310.52
2153.887	308.7
2157.068	313.31
2160.25	313.91
2163.431	315.95
2166.611	320.52
2169.792	323.43
2172.972	328.3
2176.152	328.31
2179.331	333.76
2182.511	332.18
2185.69	336.36
2188.868	345.85
2192.047	355.52
2195.225	361.03
2198.403	366.29
2201.58	358.45
2204.758	371.83
2207.935	373.54
2211.111	383.7
2214.288	387.46
2217.464	391.2
2220.64	393.29
2223.815	396.14
2226.991	389.19
2230.166	394.28
2233.34	402.27
2236.515	422.26
2239.689	416.14
2242.863	423
2246.036	417.34
2249.209	426.32
2252.382	423.35
2255.555	438.93
2258.727	440.96
2261.9	458.96
2265.071	462.27
2268.243	457.73
2271.414	465.71
2274.585	475.76
2277.756	475.98
2280.926	496.78
2284.096	498.81
2287.266	503.51
2290.436	491.76
2293.605	506.18
2296.774	519.29
2299.942	524.29
2303.111	541
2306.279	550.33
2309.447	550.24
2312.614	555.31
2315.781	565.78
2318.948	570.76
2322.115	582.2
2325.281	613.28
2328.447	605.23
2331.613	608.15
2334.779	611.56
2337.944	626.16
2341.109	635.67
2344.274	642.51
2347.438	658.18
2350.602	669.43
2353.766	719.8
2356.929	721.02
2360.092	731.23
2363.255	734.38
2366.418	742.87
2369.58	759.49
2372.742	755.6
2375.904	754.01
2379.066	779.02
2382.227	816.65
2385.388	820.12
2388.548	766.59
2391.709	759.83
2394.869	784.93
2398.029	789.26
2401.188	791.4
2404.347	813.35
2407.506	837.23
2410.665	807.01
2413.823	810.64
2416.981	812.8
2420.139	764.32
2423.296	829.34
2426.453	888.14
2429.61	843.91
2432.767	898.69
2435.923	926.87
2439.079	904.57
2442.235	927.8
2445.391	951.74
2448.546	941.5
2451.701	993.59
2454.855	1069.7
2458.009	942.78
2461.163	946.67
2464.317	968.4
2467.471	945.48
2470.624	979.86
2473.777	954.78
2476.929	919.88
2480.082	981.69
2483.234	1030.27
2486.385	1047.18
2489.537	1072.36
2492.688	1188.35
2495.839	1178.81
2498.989	1199.32
2502.14	1209.8
2505.29	1154.72
2508.439	1278.31
2511.589	1308.92
2514.738	1266.11
2517.887	1253.26
2521.035	1181.56
2524.183	1158.19
2527.331	1142.9
2530.479	1112.97
2533.627	1143.24
