Data from N_3_hir_il_4n_Splice17_02.txt Node
Date: Sat Feb 29 15:12:49 EST 2020
User: sa697716
Spectrometer: FLMS03696
Trigger mode: 0
Integration Time (sec): 3.180400E-1
Scans to average: 20
Electric dark correction enabled: true
Nonlinearity correction enabled: true
Boxcar width: 5
XAxis mode: Wavelengths
Number of Pixels in Spectrum: 2048
>>>>>Begin Spectral Data<<<<<
187.83	83.31
188.298	87.47
188.766	75.67
189.233	67.99
189.701	78.16
190.169	76.46
190.636	67.35
191.104	59.18
191.571	-98.93
192.039	182.92
192.506	54.94
192.974	3030.37
193.441	67.58
193.908	6.28
194.375	27.9
194.842	105.68
195.31	69.96
195.777	106.59
196.244	76.37
196.711	70.45
197.177	71.47
197.644	70.83
198.111	70.46
198.578	71.09
199.045	72.1
199.511	71.47
199.978	71.66
200.445	71.31
200.911	70.97
201.378	70.99
201.844	71.61
202.31	71.74
202.777	71.75
203.243	72.13
203.709	72.46
204.176	72.08
204.642	71.6
205.108	71.32
205.574	71.72
206.04	71.42
206.506	71.11
206.972	69.97
207.438	69.37
207.903	68.78
208.369	67.15
208.835	65.93
209.301	65.01
209.766	63.77
210.232	62.5
210.697	61.18
211.163	59.8
211.628	58.47
212.094	57.4
212.559	56.03
213.024	54.7
213.49	53.89
213.955	52.5
214.42	50.92
214.885	49.46
215.35	47.56
215.815	44.7
216.28	42.05
216.745	39.19
217.21	36.18
217.675	33.19
218.14	30.35
218.604	27.81
219.069	25.68
219.534	23.86
219.998	22.34
220.463	21.06
220.927	19.99
221.392	19.01
221.856	18.2
222.32	17.49
222.785	16.85
223.249	16.34
223.713	15.93
224.177	15.5
224.642	15.13
225.106	14.77
225.57	14.41
226.034	14.11
226.497	13.8
226.961	13.48
227.425	13.18
227.889	12.93
228.353	12.66
228.816	12.38
229.28	12.13
229.744	11.89
230.207	11.68
230.671	11.48
231.134	11.27
231.597	11.09
232.061	10.92
232.524	10.76
232.987	10.59
233.45	10.43
233.914	10.27
234.377	10.14
234.84	10
235.303	9.87
235.766	9.73
236.229	9.62
236.691	9.51
237.154	9.41
237.617	9.3
238.08	9.22
238.542	9.12
239.005	9.04
239.468	8.93
239.93	8.85
240.393	8.74
240.855	8.66
241.317	8.57
241.78	8.5
242.242	8.42
242.704	8.33
243.166	8.25
243.629	8.18
244.091	8.11
244.553	8.05
245.015	7.98
245.477	7.92
245.939	7.85
246.4	7.79
246.862	7.71
247.324	7.65
247.786	7.58
248.247	7.51
248.709	7.44
249.17	7.38
249.632	7.31
250.093	7.24
250.555	7.18
251.016	7.13
251.477	7.07
251.939	7.02
252.4	6.96
252.861	6.91
253.322	6.86
253.783	6.82
254.244	6.77
254.705	6.72
255.166	6.68
255.627	6.63
256.088	6.57
256.549	6.52
257.009	6.47
257.47	6.43
257.931	6.38
258.391	6.32
258.852	6.26
259.312	6.2
259.773	6.15
260.233	6.1
260.694	6.05
261.154	6
261.614	5.95
262.074	5.9
262.534	5.85
262.994	5.81
263.455	5.77
263.915	5.73
264.374	5.69
264.834	5.65
265.294	5.61
265.754	5.57
266.214	5.54
266.673	5.51
267.133	5.47
267.593	5.45
268.052	5.42
268.512	5.39
268.971	5.36
269.431	5.34
269.89	5.31
270.349	5.29
270.809	5.28
271.268	5.26
271.727	5.24
272.186	5.21
272.645	5.19
273.104	5.17
273.563	5.16
274.022	5.13
274.481	5.12
274.94	5.09
275.399	5.08
275.857	5.05
276.316	5.03
276.775	5
277.233	4.98
277.692	4.96
278.15	4.95
278.609	4.93
279.067	4.91
279.525	4.89
279.984	4.87
280.442	4.86
280.9	4.85
281.358	4.84
281.816	4.83
282.274	4.82
282.732	4.81
283.19	4.8
283.648	4.79
284.106	4.77
284.564	4.77
285.021	4.76
285.479	4.75
285.937	4.74
286.394	4.73
286.852	4.73
287.309	4.71
287.767	4.7
288.224	4.68
288.682	4.66
289.139	4.65
289.596	4.63
290.053	4.61
290.511	4.58
290.968	4.56
291.425	4.54
291.882	4.51
292.339	4.48
292.796	4.46
293.252	4.44
293.709	4.42
294.166	4.39
294.623	4.37
295.079	4.34
295.536	4.33
295.992	4.31
296.449	4.3
296.905	4.27
297.362	4.26
297.818	4.24
298.274	4.23
298.731	4.22
299.187	4.21
299.643	4.2
300.099	4.2
300.555	4.18
301.011	4.17
301.467	4.16
301.923	4.15
302.379	4.14
302.835	4.14
303.291	4.13
303.746	4.11
304.202	4.1
304.658	4.09
305.113	4.08
305.569	4.07
306.024	4.06
306.479	4.06
306.935	4.06
307.39	4.06
307.845	4.05
308.301	4.05
308.756	4.05
309.211	4.06
309.666	4.05
310.121	4.05
310.576	4.05
311.031	4.05
311.486	4.05
311.94	4.04
312.395	4.04
312.85	4.03
313.305	4.02
313.759	4.02
314.214	4
314.668	4.01
315.123	4.01
315.577	4
316.032	3.98
316.486	3.98
316.94	3.97
317.394	3.96
317.849	3.96
318.303	3.96
318.757	3.94
319.211	3.93
319.665	3.91
320.119	3.89
320.572	3.89
321.026	3.88
321.48	3.86
321.934	3.86
322.387	3.85
322.841	3.84
323.295	3.83
323.748	3.82
324.202	3.81
324.655	3.81
325.108	3.8
325.562	3.79
326.015	3.79
326.468	3.78
326.921	3.77
327.374	3.76
327.827	3.76
328.28	3.74
328.733	3.74
329.186	3.74
329.639	3.73
330.092	3.72
330.545	3.72
330.997	3.72
331.45	3.72
331.903	3.71
332.355	3.71
332.808	3.71
333.26	3.71
333.713	3.72
334.165	3.71
334.617	3.72
335.069	3.72
335.522	3.73
335.974	3.72
336.426	3.73
336.878	3.72
337.33	3.73
337.782	3.73
338.234	3.74
338.686	3.73
339.137	3.73
339.589	3.72
340.041	3.71
340.493	3.69
340.944	3.68
341.396	3.68
341.847	3.66
342.299	3.63
342.75	3.62
343.201	3.59
343.653	3.58
344.104	3.56
344.555	3.55
345.006	3.53
345.457	3.52
345.908	3.51
346.359	3.5
346.81	3.5
347.261	3.49
347.712	3.48
348.163	3.48
348.613	3.47
349.064	3.46
349.515	3.45
349.965	3.45
350.416	3.44
350.866	3.44
351.317	3.43
351.767	3.42
352.217	3.41
352.668	3.4
353.118	3.4
353.568	3.4
354.018	3.4
354.468	3.4
354.918	3.41
355.368	3.41
355.818	3.4
356.268	3.4
356.718	3.41
357.168	3.41
357.617	3.42
358.067	3.41
358.517	3.41
358.966	3.42
359.416	3.42
359.865	3.42
360.315	3.41
360.764	3.42
361.213	3.4
361.663	3.4
362.112	3.4
362.561	3.41
363.01	3.42
363.459	3.41
363.908	3.4
364.357	3.39
364.806	3.39
365.255	3.4
365.703	3.39
366.152	3.39
366.601	3.39
367.05	3.39
367.498	3.38
367.947	3.37
368.395	3.37
368.844	3.37
369.292	3.37
369.74	3.36
370.189	3.36
370.637	3.37
371.085	3.37
371.533	3.38
371.981	3.38
372.429	3.38
372.877	3.37
373.325	3.36
373.773	3.36
374.221	3.36
374.669	3.36
375.116	3.34
375.564	3.33
376.012	3.34
376.459	3.34
376.907	3.33
377.354	3.34
377.801	3.35
378.249	3.36
378.696	3.37
379.143	3.39
379.591	3.4
380.038	3.43
380.485	3.44
380.932	3.44
381.379	3.44
381.826	3.46
382.273	3.48
382.72	3.49
383.166	3.5
383.613	3.52
384.06	3.52
384.506	3.52
384.953	3.53
385.4	3.54
385.846	3.55
386.292	3.58
386.739	3.58
387.185	3.6
387.631	3.62
388.078	3.64
388.524	3.64
388.97	3.66
389.416	3.67
389.862	3.7
390.308	3.73
390.754	3.76
391.2	3.79
391.645	3.82
392.091	3.85
392.537	3.87
392.983	3.9
393.428	3.95
393.874	4.01
394.319	4.04
394.765	4.08
395.21	4.09
395.655	4.12
396.101	4.16
396.546	4.19
396.991	4.22
397.436	4.25
397.881	4.29
398.326	4.33
398.771	4.36
399.216	4.41
399.661	4.46
400.106	4.51
400.551	4.54
400.995	4.57
401.44	4.58
401.885	4.61
402.329	4.65
402.774	4.68
403.218	4.71
403.663	4.73
404.107	4.76
404.551	4.8
404.995	4.82
405.44	4.85
405.884	4.89
406.328	4.93
406.772	4.96
407.216	5
407.66	5.03
408.104	5.05
408.547	5.08
408.991	5.1
409.435	5.12
409.879	5.15
410.322	5.19
410.766	5.22
411.209	5.27
411.653	5.31
412.096	5.33
412.54	5.35
412.983	5.39
413.426	5.43
413.869	5.48
414.312	5.54
414.756	5.57
415.199	5.61
415.642	5.66
416.085	5.67
416.527	5.72
416.97	5.75
417.413	5.76
417.856	5.76
418.298	5.76
418.741	5.77
419.184	5.78
419.626	5.79
420.069	5.79
420.511	5.8
420.953	5.79
421.396	5.79
421.838	5.82
422.28	5.85
422.722	5.89
423.164	5.91
423.606	5.93
424.048	5.93
424.49	5.96
424.932	5.96
425.374	5.98
425.816	5.99
426.258	5.98
426.699	5.94
427.141	5.92
427.582	5.92
428.024	5.92
428.465	5.92
428.907	5.94
429.348	5.94
429.789	5.93
430.231	5.93
430.672	5.94
431.113	5.96
431.554	6
431.995	6.03
432.436	6.04
432.877	6.04
433.318	6.04
433.759	6.05
434.2	6.06
434.64	6.08
435.081	6.09
435.522	6.09
435.962	6.13
436.403	6.15
436.843	6.18
437.284	6.22
437.724	6.25
438.164	6.27
438.604	6.28
439.045	6.3
439.485	6.32
439.925	6.34
440.365	6.36
440.805	6.35
441.245	6.34
441.685	6.35
442.125	6.34
442.564	6.35
443.004	6.39
443.444	6.41
443.883	6.44
444.323	6.46
444.762	6.49
445.202	6.54
445.641	6.57
446.081	6.62
446.52	6.63
446.959	6.66
447.398	6.71
447.837	6.74
448.276	6.76
448.716	6.8
449.154	6.84
449.593	6.88
450.032	6.87
450.471	6.9
450.91	6.91
451.349	6.95
451.787	6.96
452.226	6.94
452.664	6.93
453.103	6.9
453.541	6.9
453.98	6.86
454.418	6.82
454.856	6.79
455.295	6.77
455.733	6.75
456.171	6.72
456.609	6.7
457.047	6.67
457.485	6.66
457.923	6.66
458.361	6.64
458.798	6.64
459.236	6.64
459.674	6.63
460.111	6.64
460.549	6.61
460.987	6.62
461.424	6.61
461.862	6.61
462.299	6.6
462.736	6.6
463.173	6.6
463.611	6.59
464.048	6.61
464.485	6.61
464.922	6.6
465.359	6.62
465.796	6.61
466.233	6.63
466.67	6.64
467.106	6.65
467.543	6.65
467.98	6.66
468.416	6.68
468.853	6.68
469.29	6.69
469.726	6.69
470.162	6.69
470.599	6.69
471.035	6.69
471.471	6.68
471.907	6.68
472.344	6.68
472.78	6.69
473.216	6.68
473.652	6.67
474.088	6.68
474.523	6.68
474.959	6.67
475.395	6.67
475.831	6.69
476.266	6.69
476.702	6.68
477.138	6.67
477.573	6.64
478.008	6.64
478.444	6.63
478.879	6.62
479.314	6.61
479.75	6.61
480.185	6.6
480.62	6.59
481.055	6.59
481.49	6.58
481.925	6.55
482.36	6.54
482.795	6.53
483.229	6.53
483.664	6.52
484.099	6.51
484.534	6.51
484.968	6.51
485.403	6.5
485.837	6.49
486.271	6.49
486.706	6.49
487.14	6.5
487.574	6.52
488.009	6.54
488.443	6.55
488.877	6.57
489.311	6.6
489.745	6.62
490.179	6.64
490.613	6.67
491.046	6.71
491.48	6.75
491.914	6.79
492.348	6.83
492.781	6.86
493.215	6.89
493.648	6.93
494.082	6.98
494.515	7.03
494.948	7.08
495.382	7.13
495.815	7.2
496.248	7.27
496.681	7.33
497.114	7.4
497.547	7.46
497.98	7.55
498.413	7.62
498.846	7.7
499.279	7.79
499.711	7.87
500.144	7.97
500.577	8.07
501.009	8.17
501.442	8.29
501.874	8.41
502.306	8.55
502.739	8.67
503.171	8.81
503.603	8.96
504.036	9.1
504.468	9.27
504.9	9.44
505.332	9.61
505.764	9.78
506.196	9.96
506.627	10.15
507.059	10.32
507.491	10.53
507.923	10.74
508.354	10.94
508.786	11.15
509.217	11.36
509.649	11.59
510.08	11.83
510.512	12.07
510.943	12.31
511.374	12.55
511.805	12.8
512.237	13.03
512.668	13.27
513.099	13.53
513.53	13.8
513.961	14.09
514.391	14.34
514.822	14.6
515.253	14.88
515.684	15.15
516.114	15.44
516.545	15.72
516.975	16.02
517.406	16.35
517.836	16.64
518.267	16.93
518.697	17.23
519.127	17.53
519.558	17.81
519.988	18.1
520.418	18.39
520.848	18.65
521.278	18.94
521.708	19.07
522.138	19.31
522.567	19.58
522.997	19.82
523.427	20.06
523.857	20.29
524.286	20.54
524.716	20.77
525.145	21.01
525.575	21.24
526.004	21.47
526.433	21.83
526.863	22.05
527.292	22.25
527.721	22.46
528.15	22.61
528.579	22.8
529.008	22.96
529.437	23.1
529.866	23.23
530.295	23.37
530.724	23.52
531.152	23.67
531.581	23.78
532.01	23.89
532.438	23.99
532.867	24.11
533.295	24.22
533.723	24.33
534.152	24.41
534.58	24.5
535.008	24.57
535.436	24.63
535.865	24.67
536.293	24.73
536.721	24.79
537.149	24.85
537.576	24.9
538.004	24.93
538.432	24.96
538.86	25.01
539.287	25.04
539.715	25.08
540.143	25.12
540.57	25.16
540.998	25.19
541.425	25.22
541.852	25.24
542.28	25.27
542.707	25.31
543.134	25.34
543.561	25.36
543.988	25.39
544.415	25.42
544.842	25.45
545.269	25.49
545.696	25.53
546.123	25.57
546.549	25.6
546.976	25.64
547.403	25.67
547.829	25.72
548.256	25.74
548.682	25.76
549.108	25.79
549.535	25.81
549.961	25.81
550.387	25.8
550.813	25.81
551.24	25.82
551.666	25.85
552.092	25.85
552.518	25.83
552.943	25.86
553.369	25.85
553.795	25.84
554.221	25.8
554.646	25.78
555.072	25.77
555.498	25.75
555.923	25.72
556.349	25.65
556.774	25.6
557.199	25.56
557.625	25.49
558.05	25.44
558.475	25.36
558.9	25.31
559.325	25.24
559.75	25.15
560.175	25.05
560.6	24.95
561.025	24.87
561.449	24.77
561.874	24.67
562.299	24.57
562.723	24.47
563.148	24.34
563.572	24.23
563.997	24.1
564.421	23.97
564.846	23.86
565.27	23.72
565.694	23.56
566.118	23.41
566.542	23.24
566.966	23.08
567.39	22.91
567.814	22.75
568.238	22.57
568.662	22.41
569.086	22.24
569.509	22.08
569.933	21.91
570.357	21.73
570.78	21.57
571.204	21.42
571.627	21.26
572.05	21.12
572.474	20.96
572.897	20.8
573.32	20.67
573.743	20.52
574.166	20.37
574.589	20.26
575.012	20.15
575.435	20.02
575.858	19.92
576.281	19.81
576.704	19.69
577.126	19.58
577.549	19.52
577.972	19.41
578.394	19.3
578.817	19.22
579.239	19.12
579.661	19.04
580.084	18.96
580.506	18.87
580.928	18.8
581.35	18.72
581.772	18.66
582.194	18.58
582.616	18.52
583.038	18.46
583.46	18.4
583.882	18.34
584.303	18.29
584.725	18.22
585.147	18.13
585.568	18.06
585.99	17.99
586.411	17.92
586.833	17.86
587.254	17.8
587.675	17.75
588.096	17.7
588.518	17.64
588.939	17.59
589.36	17.55
589.781	17.51
590.202	17.48
590.623	17.45
591.043	17.4
591.464	17.36
591.885	17.33
592.305	17.3
592.726	17.24
593.147	17.23
593.567	17.21
593.987	17.19
594.408	17.16
594.828	17.13
595.248	17.1
595.669	17.07
596.089	17.04
596.509	17
596.929	16.96
597.349	16.92
597.769	16.86
598.189	16.83
598.608	16.77
599.028	16.74
599.448	16.7
599.867	16.66
600.287	16.62
600.706	16.58
601.126	16.52
601.545	16.47
601.965	16.43
602.384	16.38
602.803	16.31
603.222	16.24
603.641	16.17
604.061	16.1
604.48	16.02
604.898	15.95
605.317	15.88
605.736	15.82
606.155	15.74
606.574	15.65
606.992	15.55
607.411	15.48
607.829	15.37
608.248	15.31
608.666	15.23
609.085	15.14
609.503	15.05
609.921	14.97
610.339	14.89
610.758	14.81
611.176	14.72
611.594	14.65
612.012	14.56
612.43	14.52
612.847	14.44
613.265	14.36
613.683	14.28
614.101	14.21
614.518	14.13
614.936	14.04
615.353	13.98
615.771	13.91
616.188	13.85
616.606	13.79
617.023	13.72
617.44	13.65
617.857	13.56
618.274	13.51
618.691	13.46
619.108	13.41
619.525	13.38
619.942	13.32
620.359	13.3
620.776	13.26
621.192	13.22
621.609	13.18
622.026	13.15
622.442	13.13
622.859	13.11
623.275	13.1
623.691	13.08
624.108	13.06
624.524	13.04
624.94	13.02
625.356	12.99
625.772	12.98
626.188	12.98
626.604	12.97
627.02	12.97
627.436	12.96
627.852	12.93
628.268	12.9
628.683	12.87
629.099	12.86
629.514	12.84
629.93	12.81
630.345	12.78
630.761	12.75
631.176	12.72
631.591	12.68
632.007	12.64
632.422	12.6
632.837	12.56
633.252	12.51
633.667	12.45
634.082	12.39
634.497	12.32
634.911	12.23
635.326	12.14
635.741	12.05
636.155	11.98
636.57	11.89
636.984	11.79
637.399	11.69
637.813	11.57
638.228	11.49
638.642	11.39
639.056	11.29
639.47	11.2
639.884	11.1
640.298	11.01
640.712	10.89
641.126	10.78
641.54	10.68
641.954	10.59
642.368	10.49
642.781	10.38
643.195	10.27
643.609	10.16
644.022	10.06
644.436	9.98
644.849	9.87
645.262	9.78
645.676	9.69
646.089	9.6
646.502	9.5
646.915	9.43
647.328	9.37
647.741	9.3
648.154	9.25
648.567	9.19
648.98	9.14
649.393	9.09
649.805	9.03
650.218	9
650.631	8.96
651.043	8.92
651.456	8.88
651.868	8.83
652.28	8.79
652.693	8.73
653.105	8.69
653.517	8.63
653.929	8.57
654.341	8.53
654.753	8.45
655.165	8.39
655.577	8.3
655.989	8.22
656.401	8.13
656.813	8.05
657.224	7.97
657.636	7.88
658.047	7.79
658.459	7.69
658.87	7.58
659.282	7.51
659.693	7.43
660.104	7.34
660.515	7.26
660.926	7.19
661.338	7.12
661.749	7.03
662.159	6.95
662.57	6.88
662.981	6.82
663.392	6.74
663.803	6.66
664.213	6.59
664.624	6.54
665.035	6.48
665.445	6.43
665.855	6.37
666.266	6.33
666.676	6.29
667.086	6.26
667.497	6.22
667.907	6.19
668.317	6.16
668.727	6.14
669.137	6.11
669.547	6.1
669.956	6.08
670.366	6.07
670.776	6.06
671.186	6.06
671.595	6.06
672.005	6.07
672.414	6.08
672.824	6.09
673.233	6.1
673.642	6.1
674.052	6.1
674.461	6.13
674.87	6.13
675.279	6.15
675.688	6.16
676.097	6.18
676.506	6.2
676.915	6.24
677.323	6.26
677.732	6.29
678.141	6.34
678.549	6.39
678.958	6.44
679.366	6.5
679.775	6.56
680.183	6.65
680.592	6.72
681	6.79
681.408	6.88
681.816	6.97
682.224	7.09
682.632	7.21
683.04	7.34
683.448	7.48
683.856	7.65
684.264	7.84
684.671	8.03
685.079	8.24
685.487	8.47
685.894	8.73
686.302	9.01
686.709	9.31
687.116	9.63
687.524	9.97
687.931	10.32
688.338	10.7
688.745	11.09
689.152	11.53
689.559	11.96
689.966	12.42
690.373	12.92
690.78	13.42
691.187	13.94
691.593	14.44
692	14.99
692.407	15.56
692.813	16.13
693.22	16.71
693.626	17.26
694.032	17.85
694.439	18.44
694.845	19.04
695.251	19.59
695.657	20.16
696.063	20.75
696.469	21.31
696.875	21.85
697.281	22.42
697.687	22.97
698.093	23.54
698.498	24.08
698.904	24.62
699.31	25.11
699.715	25.66
700.12	26.17
700.526	26.67
700.931	27.16
701.337	27.66
701.742	28.13
702.147	28.61
702.552	29.08
702.957	29.52
703.362	29.99
703.767	30.44
704.172	30.86
704.577	31.3
704.981	31.73
705.386	32.15
705.791	32.57
706.195	32.97
706.6	33.34
707.004	33.71
707.408	34.1
707.813	34.48
708.217	34.84
708.621	35.2
709.025	35.55
709.43	35.89
709.834	36.25
710.237	36.58
710.641	36.94
711.045	37.27
711.449	37.58
711.853	37.91
712.256	38.22
712.66	38.53
713.064	38.82
713.467	39.13
713.87	39.44
714.274	39.73
714.677	40
715.08	40.24
715.484	40.52
715.887	40.79
716.29	41.02
716.693	41.26
717.096	41.5
717.499	41.76
717.901	42
718.304	42.22
718.707	42.42
719.109	42.68
719.512	42.94
719.915	43.17
720.317	43.41
720.719	43.63
721.122	43.85
721.524	44.07
721.926	44.27
722.328	44.48
722.731	44.69
723.133	44.88
723.535	45.04
723.937	45.2
724.338	45.35
724.74	45.5
725.142	45.6
725.544	45.76
725.945	45.88
726.347	46.05
726.748	46.15
727.15	46.24
727.551	46.37
727.952	46.5
728.354	46.63
728.755	46.77
729.156	46.88
729.557	47.07
729.958	47.19
730.359	47.3
730.76	47.36
731.161	47.47
731.562	47.61
731.962	47.7
732.363	47.79
732.763	47.88
733.164	47.98
733.564	48.04
733.965	48.09
734.365	48.14
734.766	48.21
735.166	48.27
735.566	48.32
735.966	48.33
736.366	48.37
736.766	48.4
737.166	48.44
737.566	48.45
737.966	48.51
738.365	48.55
738.765	48.6
739.165	48.62
739.564	48.66
739.964	48.71
740.363	48.74
740.763	48.8
741.162	48.86
741.561	48.9
741.96	48.97
742.36	48.99
742.759	49
743.158	49.04
743.557	49.08
743.955	49.16
744.354	49.21
744.753	49.28
745.152	49.3
745.55	49.29
745.949	49.31
746.348	49.34
746.746	49.36
747.144	49.42
747.543	49.46
747.941	49.51
748.339	49.53
748.737	49.58
749.136	49.6
749.534	49.62
749.932	49.65
750.33	49.65
750.727	49.64
751.125	49.66
751.523	49.65
751.921	49.66
752.318	49.64
752.716	49.59
753.113	49.55
753.511	49.51
753.908	49.49
754.305	49.47
754.703	49.44
755.1	49.42
755.497	49.41
755.894	49.4
756.291	49.37
756.688	49.33
757.085	49.33
757.482	49.33
757.878	49.32
758.275	49.33
758.672	49.31
759.068	49.31
759.465	49.33
759.861	49.33
760.258	49.27
760.654	49.27
761.05	49.28
761.447	49.28
761.843	49.24
762.239	49.24
762.635	49.25
763.031	49.28
763.427	49.28
763.822	49.23
764.218	49.22
764.614	49.27
765.01	49.27
765.405	49.27
765.801	49.25
766.196	49.28
766.592	49.31
766.987	49.29
767.382	49.28
767.778	49.29
768.173	49.3
768.568	49.28
768.963	49.29
769.358	49.28
769.753	49.31
770.148	49.33
770.542	49.33
770.937	49.32
771.332	49.35
771.726	49.36
772.121	49.34
772.515	49.35
772.91	49.39
773.304	49.36
773.699	49.36
774.093	49.34
774.487	49.34
774.881	49.39
775.275	49.4
775.669	49.4
776.063	49.37
776.457	49.37
776.851	49.39
777.245	49.39
777.638	49.41
778.032	49.42
778.425	49.41
778.819	49.43
779.212	49.36
779.606	49.36
779.999	49.33
780.392	49.38
780.786	49.41
781.179	49.41
781.572	49.42
781.965	49.45
782.358	49.44
782.751	49.45
783.143	49.47
783.536	49.57
783.929	49.58
784.322	49.62
784.714	49.63
785.107	49.62
785.499	49.62
785.891	49.66
786.284	49.63
786.676	49.67
787.068	49.68
787.46	49.66
787.852	49.61
788.245	49.6
788.636	49.61
789.028	49.6
789.42	49.59
789.812	49.59
790.204	49.54
790.595	49.58
790.987	49.57
791.378	49.57
791.77	49.59
792.161	49.59
792.553	49.61
792.944	49.65
793.335	49.67
793.726	49.69
794.117	49.74
794.508	49.76
794.899	49.77
795.29	49.78
795.681	49.8
796.072	49.83
796.463	49.81
796.853	49.82
797.244	49.8
797.634	49.78
798.025	49.8
798.415	49.8
798.806	49.79
799.196	49.78
799.586	49.81
799.976	49.82
800.366	49.82
800.756	49.84
801.146	49.85
801.536	49.85
801.926	49.9
802.316	49.91
802.706	49.96
803.095	50.02
803.485	50.06
803.874	50.08
804.264	50.12
804.653	50.1
805.043	50.14
805.432	50.15
805.821	50.14
806.21	50.18
806.599	50.19
806.988	50.17
807.377	50.17
807.766	50.17
808.155	50.18
808.544	50.14
808.933	50.15
809.321	50.18
809.71	50.2
810.098	50.2
810.487	50.19
810.875	50.2
811.264	50.21
811.652	50.21
812.04	50.22
812.428	50.23
812.816	50.25
813.204	50.28
813.592	50.26
813.98	50.26
814.368	50.28
814.756	50.3
815.144	50.33
815.531	50.33
815.919	50.32
816.306	50.3
816.694	50.31
817.081	50.28
817.469	50.28
817.856	50.3
818.243	50.3
818.63	50.35
819.017	50.34
819.404	50.28
819.791	50.31
820.178	50.31
820.565	50.36
820.952	50.34
821.339	50.36
821.725	50.35
822.112	50.33
822.498	50.33
822.885	50.29
823.271	50.31
823.657	50.34
824.044	50.31
824.43	50.35
824.816	50.34
825.202	50.34
825.588	50.37
825.974	50.35
826.36	50.35
826.746	50.37
827.132	50.34
827.517	50.33
827.903	50.31
828.289	50.29
828.674	50.26
829.06	50.24
829.445	50.25
829.83	50.25
830.216	50.27
830.601	50.26
830.986	50.23
831.371	50.27
831.756	50.23
832.141	50.24
832.526	50.25
832.911	50.26
833.295	50.25
833.68	50.21
834.065	50.23
834.449	50.18
834.834	50.19
835.218	50.16
835.603	50.14
835.987	50.14
836.371	50.12
836.755	50.09
837.139	50.02
837.524	50.02
837.908	50
838.291	49.96
838.675	49.96
839.059	49.94
839.443	49.95
839.827	49.93
840.21	49.95
840.594	49.96
840.977	49.93
841.361	49.97
841.744	49.95
842.127	49.95
842.511	49.94
842.894	49.93
843.277	49.93
843.66	49.92
844.043	49.91
844.426	49.91
844.809	49.87
845.191	49.88
845.574	49.85
845.957	49.85
846.339	49.83
846.722	49.86
847.104	49.86
847.487	49.84
847.869	49.82
848.252	49.81
848.634	49.83
849.016	49.86
849.398	49.83
849.78	49.84
850.162	49.82
850.544	49.82
850.926	49.79
851.307	49.79
851.689	49.78
852.071	49.77
852.452	49.76
852.834	49.7
853.215	49.68
853.597	49.7
853.978	49.69
854.359	49.71
854.741	49.73
855.122	49.77
855.503	49.74
855.884	49.75
856.265	49.76
856.646	49.78
857.026	49.81
857.407	49.78
857.788	49.76
858.169	49.76
858.549	49.77
858.93	49.74
859.31	49.72
859.69	49.73
860.071	49.74
860.451	49.78
860.831	49.77
861.211	49.78
861.591	49.82
861.971	49.84
862.351	49.85
862.731	49.85
863.111	49.87
863.491	49.87
863.87	49.87
864.25	49.86
864.629	49.84
865.009	49.82
865.388	49.81
865.768	49.8
866.147	49.82
866.526	49.84
866.905	49.87
867.284	49.88
867.663	49.9
868.042	49.87
868.421	49.87
868.8	49.89
869.179	49.92
869.558	49.92
869.936	49.91
870.315	49.87
870.693	49.87
871.072	49.82
871.45	49.79
871.828	49.75
872.207	49.78
872.585	49.78
872.963	49.74
873.341	49.73
873.719	49.7
874.097	49.68
874.475	49.7
874.853	49.68
875.23	49.7
875.608	49.69
875.986	49.71
876.363	49.71
876.741	49.7
877.118	49.72
877.495	49.71
877.873	49.73
878.25	49.74
878.627	49.75
879.004	49.76
879.381	49.73
879.758	49.72
880.135	49.7
880.512	49.7
880.889	49.69
881.265	49.72
881.642	49.7
882.019	49.7
882.395	49.71
882.772	49.7
883.148	49.7
883.524	49.72
883.901	49.74
884.277	49.74
884.653	49.71
885.029	49.69
885.405	49.67
885.781	49.69
886.157	49.67
886.532	49.62
886.908	49.59
887.284	49.57
887.659	49.55
888.035	49.52
888.411	49.5
888.786	49.5
889.161	49.51
889.537	49.49
889.912	49.46
890.287	49.43
890.662	49.42
891.037	49.38
891.412	49.35
891.787	49.31
892.162	49.28
892.536	49.27
892.911	49.21
893.286	49.16
893.66	49.14
894.035	49.11
894.409	49.08
894.784	49.08
895.158	49.09
895.532	49.09
895.906	49.09
896.281	49.09
896.655	49.07
897.029	49.1
897.402	49.11
897.776	49.07
898.15	49.08
898.524	49.11
898.898	49.09
899.271	49.08
899.645	49.04
900.018	49.05
900.392	49.09
900.765	49.1
901.138	49.07
901.511	49.05
901.884	49.09
902.258	49.08
902.631	49.09
903.003	49.12
903.376	49.13
903.749	49.14
904.122	49.16
904.495	49.12
904.867	49.12
905.24	49.14
905.612	49.14
905.985	49.14
906.357	49.15
906.729	49.11
907.102	49.08
907.474	49.09
907.846	49.09
908.218	49.06
908.59	49.07
908.962	49.06
909.334	49.07
909.705	49.06
910.077	49.07
910.449	49.09
910.82	49.13
911.192	49.12
911.563	49.11
911.935	49.13
912.306	49.14
912.677	49.17
913.048	49.18
913.419	49.17
913.79	49.18
914.161	49.17
914.532	49.15
914.903	49.17
915.274	49.18
915.645	49.21
916.015	49.23
916.386	49.23
916.756	49.21
917.127	49.22
917.497	49.22
917.868	49.23
918.238	49.25
918.608	49.24
918.978	49.21
919.348	49.19
919.718	49.16
920.088	49.15
920.458	49.21
920.828	49.22
921.198	49.25
921.567	49.26
921.937	49.3
922.306	49.3
922.676	49.33
923.045	49.33
923.415	49.36
923.784	49.43
924.153	49.43
924.522	49.37
924.891	49.36
925.26	49.31
925.629	49.29
925.998	49.29
926.367	49.33
926.736	49.28
927.104	49.32
927.473	49.3
927.842	49.21
928.21	49.21
928.578	49.14
928.947	49.16
929.315	49.17
929.683	49.22
930.051	49.13
930.42	49.09
930.788	49.11
931.156	49.07
931.523	49.04
931.891	49.03
932.259	48.93
932.627	48.91
932.994	48.87
933.362	48.82
933.729	48.72
934.097	48.69
934.464	48.62
934.831	48.56
935.199	48.47
935.566	48.45
935.933	48.5
936.3	48.5
936.667	48.57
937.034	48.54
937.401	48.54
937.767	48.61
938.134	48.62
938.501	48.66
938.867	48.71
939.234	48.82
939.6	48.89
939.967	48.9
940.333	49.04
940.699	49.15
941.065	49.23
941.431	49.37
941.798	49.44
942.163	49.69
942.529	49.83
942.895	49.9
943.261	49.97
943.627	50.03
943.992	50.17
944.358	50.22
944.723	50.21
945.089	50.32
945.454	50.36
945.82	50.34
946.185	50.34
946.55	50.38
946.915	50.31
947.28	50.34
947.645	50.33
948.01	50.21
948.375	50.19
948.74	50.14
949.104	50.14
949.469	50.05
949.834	50.02
950.198	49.9
950.562	49.78
950.927	49.77
951.291	49.67
951.655	49.62
952.02	49.64
952.384	49.66
952.748	49.65
953.112	49.57
953.476	49.55
953.839	49.56
954.203	49.52
954.567	49.52
954.931	49.49
955.294	49.53
955.658	49.46
956.021	49.42
956.385	49.37
956.748	49.38
957.111	49.35
957.474	49.32
957.837	49.28
958.2	49.21
958.563	49.18
958.926	49.12
959.289	49.06
959.652	49.11
960.015	49.04
960.377	49.03
960.74	48.95
961.102	48.87
961.465	48.84
961.827	48.75
962.189	48.77
962.552	48.76
962.914	48.78
963.276	48.71
963.638	48.6
964	48.57
964.362	48.5
964.724	48.54
965.085	48.58
965.447	48.49
965.809	48.5
966.17	48.54
966.532	48.48
966.893	48.46
967.255	48.51
967.616	48.54
967.977	48.54
968.338	48.54
968.699	48.53
969.061	48.52
969.421	48.53
969.782	48.54
970.143	48.53
970.504	48.52
970.865	48.44
971.225	48.43
971.586	48.46
971.946	48.49
972.307	48.47
972.667	48.45
973.027	48.5
973.388	48.51
973.748	48.52
974.108	48.43
974.468	48.5
974.828	48.62
975.188	48.61
975.548	48.58
975.907	48.61
976.267	48.69
976.627	48.68
976.986	48.68
977.346	48.74
977.705	48.77
978.064	48.87
978.424	48.85
978.783	48.83
979.142	48.86
979.501	48.88
979.86	48.86
980.219	48.74
980.578	48.72
980.937	48.68
981.296	48.65
981.654	48.69
982.013	48.7
982.371	48.71
982.73	48.7
983.088	48.65
983.447	48.73
983.805	48.75
984.163	48.82
984.521	48.79
984.879	48.85
985.237	48.88
985.595	48.77
985.953	48.7
986.311	48.77
986.669	48.82
987.026	48.83
987.384	48.79
987.741	48.8
988.099	48.8
988.456	48.84
988.814	48.82
989.171	48.8
989.528	48.89
989.885	48.92
990.242	48.89
990.599	48.92
990.956	49
991.313	49.03
991.67	49.05
992.027	49.14
992.383	49.15
992.74	49.14
993.096	49.18
993.453	49.19
993.809	49.27
994.165	49.23
994.522	49.18
994.878	49.11
995.234	49.1
995.59	49.08
995.946	49.07
996.302	49.18
996.658	49.25
997.013	49.32
997.369	49.43
997.725	49.48
998.08	49.61
998.436	49.82
998.791	49.92
999.147	49.98
999.502	50.03
999.857	49.97
1000.212	49.97
1000.567	49.99
1000.922	50.04
1001.277	49.98
1001.632	50.01
1001.987	50.02
1002.342	49.9
1002.696	49.89
1003.051	49.76
1003.406	49.79
1003.76	49.84
1004.114	49.86
1004.469	49.89
1004.823	49.91
1005.177	50.04
1005.531	50.09
1005.885	50.17
1006.239	50.22
1006.593	50.28
1006.947	50.41
1007.301	50.4
1007.655	50.59
1008.008	50.7
1008.362	50.71
1008.715	50.68
1009.069	50.61
1009.422	50.55
1009.776	50.51
1010.129	50.58
1010.482	50.73
1010.835	51.06
1011.188	51.17
1011.541	50.96
1011.894	50.91
1012.247	50.95
1012.6	51.05
1012.952	51.24
1013.305	51.21
1013.657	51.27
1014.01	51.46
1014.362	51.49
1014.715	51.38
1015.067	51.68
1015.419	52.2
1015.771	52.51
1016.123	52.44
1016.475	52.61
1016.827	52.84
1017.179	53.2
1017.531	53.19
1017.883	53.31
1018.234	53.66
1018.586	53.71
1018.938	53.58
1019.289	53.23
1019.64	53.4
1019.992	53.84
1020.343	53.78
1020.694	53.59
1021.045	53.85
1021.396	53.94
1021.747	53.94
1022.098	54.03
1022.449	54.04
1022.8	54.4
1023.151	54.76
1023.501	54.72
1023.852	54.8
1024.202	54.93
1024.553	54.95
1024.903	54.57
1025.253	54.96
1025.604	55.07
1025.954	54.64
1026.304	55.21
1026.654	55.09
1027.004	55.27
1027.354	55.35
1027.703	55.6
1028.053	55.9
1028.403	56.04
1028.753	56.64
1029.102	56.68
1029.452	56.74
1029.801	57.09
1030.15	56.94
1030.499	57.01
897.758	684.77
901.051	701.09
904.343	706.11
907.636	699.47
910.928	689.19
914.22	696.49
917.511	682.76
920.803	659.53
924.094	628.7
927.384	633.84
930.675	616.45
933.965	611.54
937.255	607.06
940.544	580.71
943.834	551.68
947.123	541.3
950.411	515.33
953.7	507.77
956.988	488.63
960.276	467.73
963.563	459.84
966.851	435.3
970.138	427.12
973.424	397.4
976.711	392.92
979.997	377.88
983.283	370.57
986.568	358.17
989.853	345.61
993.138	333.7
996.423	328.99
999.708	319.18
1002.992	319.97
1006.275	306.28
1009.559	303.44
1012.842	294.88
1016.125	286.05
1019.408	280.73
1022.69	276.26
1025.972	275.45
1029.254	267.59
1032.536	262.58
1035.817	255.3
1039.098	248.68
1042.379	245.2
1045.659	242.28
1048.939	239.9
1052.219	235.2
1055.498	229.23
1058.778	226.68
1062.057	221.67
1065.335	220.28
1068.614	216.24
1071.892	213.95
1075.17	209.73
1078.447	207.06
1081.724	204.66
1085.001	199.99
1088.278	199.76
1091.554	200.1
1094.83	198.48
1098.106	194.92
1101.382	193.5
1104.657	193.06
1107.932	190.82
1111.206	189.88
1114.481	188.16
1117.755	187.73
1121.029	186.66
1124.302	184.52
1127.575	179.63
1130.848	178.93
1134.121	177.83
1137.393	177.36
1140.665	176.12
1143.937	174.52
1147.208	172.91
1150.48	170.62
1153.75	168.83
1157.021	167.3
1160.291	165.85
1163.561	166.32
1166.831	164.86
1170.101	163.88
1173.37	162.66
1176.639	160.8
1179.907	161.63
1183.176	161.07
1186.444	161.36
1189.711	159.84
1192.979	162.11
1196.246	162.3
1199.513	162.36
1202.78	162.56
1206.046	162.54
1209.312	163.77
1212.578	165.04
1215.843	166.56
1219.108	167.47
1222.373	170.71
1225.638	174.41
1228.902	176.53
1232.166	183.28
1235.43	185.72
1238.693	190.22
1241.956	195.45
1245.219	199.81
1248.482	201.76
1251.744	201.06
1255.006	201.22
1258.268	196.48
1261.529	194.85
1264.79	189.72
1268.051	185.73
1271.312	183.35
1274.572	180.68
1277.832	174.65
1281.092	172.58
1284.351	168.55
1287.61	168.68
1290.869	168.16
1294.128	166.9
1297.386	165.93
1300.644	165.21
1303.902	163.61
1307.159	163.51
1310.416	163.87
1313.673	167.64
1316.93	168.66
1320.186	171.3
1323.442	173.18
1326.697	177.28
1329.953	179.75
1333.208	185.87
1336.463	194.43
1339.717	198.74
1342.972	207.73
1346.226	213.81
1349.479	214.9
1352.733	224.7
1355.986	230.94
1359.238	235.71
1362.491	238.38
1365.743	247.14
1368.995	247.51
1372.247	248.14
1375.498	246.97
1378.749	257.34
1382	256.45
1385.251	256
1388.501	255.28
1391.751	257.39
1395	256.9
1398.25	259.42
1401.499	258.24
1404.748	260.03
1407.996	253.76
1411.244	254.99
1414.492	249.24
1417.74	243.93
1420.987	237.83
1424.234	235.22
1427.481	225.28
1430.728	219.4
1433.974	211.56
1437.22	204.22
1440.465	197.27
1443.711	191.19
1446.956	185.01
1450.201	179.16
1453.445	169.85
1456.689	165.16
1459.933	159.38
1463.177	153.13
1466.42	150.27
1469.663	146.12
1472.906	142.4
1476.148	138.42
1479.391	134.65
1482.633	131.88
1485.874	129.21
1489.115	129.16
1492.356	126.37
1495.597	123.46
1498.838	123.31
1502.078	121.51
1505.318	120.6
1508.557	119.56
1511.797	118.34
1515.036	118.66
1518.274	117.66
1521.513	115.15
1524.751	114.61
1527.989	115.46
1531.227	115.73
1534.464	115.17
1537.701	113.59
1540.938	112.63
1544.174	112.81
1547.41	112.06
1550.646	111.74
1553.882	112.16
1557.117	111.97
1560.352	111.49
1563.587	109.99
1566.821	109.5
1570.055	108.64
1573.289	108.86
1576.523	109.18
1579.756	108.61
1582.989	108.92
1586.222	108.1
1589.454	108.02
1592.686	107.87
1595.918	107.33
1599.15	107.49
1602.381	108.04
1605.612	108.05
1608.843	108.16
1612.073	108.02
1615.303	107.98
1618.533	107.83
1621.762	108.13
1624.992	108.16
1628.221	107.88
1631.449	108.5
1634.678	108.2
1637.906	108
1641.134	108.09
1644.361	107.89
1647.588	108.31
1650.815	108.71
1654.042	108.29
1657.269	108.41
1660.495	108.52
1663.72	109.07
1666.946	109.07
1670.171	110.03
1673.396	109.95
1676.621	110.51
1679.845	110.54
1683.069	110.63
1686.293	110.15
1689.517	111.15
1692.74	111.45
1695.963	111.29
1699.185	111.72
1702.408	111.82
1705.63	111.86
1708.852	112.86
1712.073	112.53
1715.294	113.07
1718.515	113.43
1721.736	114.03
1724.956	113.31
1728.176	113.08
1731.396	114.09
1734.616	114.15
1737.835	114.6
1741.054	114.07
1744.272	114.13
1747.491	114.32
1750.709	115.27
1753.927	115.23
1757.144	115.7
1760.361	116.63
1763.578	117.23
1766.795	117.63
1770.011	117.77
1773.227	118.05
1776.443	119.77
1779.658	119.61
1782.874	120.36
1786.089	120.14
1789.303	120.54
1792.518	121.75
1795.732	122.59
1798.945	123.16
1802.159	123.31
1805.372	125.29
1808.585	126.33
1811.797	127.13
1815.01	128.43
1818.222	129.86
1821.434	130.24
1824.645	131.84
1827.856	133.88
1831.067	134.73
1834.278	136.32
1837.488	137.66
1840.698	138.84
1843.908	139.04
1847.117	141.01
1850.326	142.38
1853.535	142.66
1856.744	145.17
1859.952	147
1863.16	146.67
1866.368	146.21
1869.575	147.82
1872.782	147.1
1875.989	145.99
1879.196	146.43
1882.402	144.77
1885.608	145.45
1888.814	146.03
1892.019	147.34
1895.224	144.29
1898.429	144.81
1901.634	145.74
1904.838	146.8
1908.042	148.41
1911.246	147.75
1914.449	148.21
1917.652	148.33
1920.855	148.72
1924.058	147.45
1927.26	147.05
1930.462	147.97
1933.664	147.28
1936.865	148.63
1940.066	145.36
1943.267	143.68
1946.467	145.5
1949.668	146.09
1952.868	146.28
1956.067	145.47
1959.267	145.8
1962.466	145.81
1965.665	148.18
1968.863	149.74
1972.061	150.41
1975.259	154.36
1978.457	157.2
1981.654	157.48
1984.852	158.36
1988.048	160.59
1991.245	163.11
1994.441	166.94
1997.637	170.8
2000.833	171.12
2004.028	173.73
2007.223	178.42
2010.418	182
2013.613	187.28
2016.807	193.37
2020.001	198.6
2023.194	202.84
2026.388	210.64
2029.581	221.23
2032.774	227.67
2035.966	236.35
2039.158	241.68
2042.35	245.93
2045.542	249.61
2048.733	261.74
2051.924	265.32
2055.115	267.43
2058.306	271.96
2061.496	276.67
2064.686	275.32
2067.875	272.63
2071.065	275.32
2074.254	275.37
2077.442	283.43
2080.631	287.17
2083.819	287.2
2087.007	290.52
2090.195	297.27
2093.382	297.89
2096.569	297.03
2099.756	303.65
2102.942	311.36
2106.128	318.43
2109.314	322.2
2112.5	321.76
2115.685	318.73
2118.87	319.74
2122.055	322.95
2125.239	327.88
2128.424	336.45
2131.608	334.25
2134.791	332.94
2137.974	333.46
2141.157	336.81
2144.34	339.18
2147.523	345.13
2150.705	354.83
2153.887	351.35
2157.068	353.7
2160.25	355.96
2163.431	353
2166.611	360.71
2169.792	368.71
2172.972	374.6
2176.152	372.07
2179.331	379.52
2182.511	379.53
2185.69	384.48
2188.868	399.05
2192.047	410.14
2195.225	414.8
2198.403	422.49
2201.58	416.78
2204.758	430.33
2207.935	431.26
2211.111	444.65
2214.288	445.61
2217.464	449.22
2220.64	448.81
2223.815	452.46
2226.991	445.05
2230.166	451.93
2233.34	463.37
2236.515	481.36
2239.689	471.37
2242.863	481.29
2246.036	474.16
2249.209	492.29
2252.382	491.87
2255.555	512.42
2258.727	513.68
2261.9	532.11
2265.071	536.91
2268.243	530.91
2271.414	541.71
2274.585	556.44
2277.756	557.01
2280.926	582.87
2284.096	578.98
2287.266	582.23
2290.436	572.75
2293.605	582.63
2296.774	605.56
2299.942	604.59
2303.111	626.52
2306.279	637.93
2309.447	642.08
2312.614	644.12
2315.781	660.59
2318.948	662.4
2322.115	677.87
2325.281	716.03
2328.447	711.17
2331.613	706.95
2334.779	719.89
2337.944	732.12
2341.109	744.1
2344.274	751.7
2347.438	773.33
2350.602	777.99
2353.766	831.5
2356.929	832.9
2360.092	838.65
2363.255	848.29
2366.418	864.1
2369.58	883.17
2372.742	877.85
2375.904	877.61
2379.066	900.32
2382.227	951.02
2385.388	948.04
2388.548	901.16
2391.709	895.94
2394.869	927.39
2398.029	923.76
2401.188	923.24
2404.347	953.47
2407.506	988.03
2410.665	946.32
2413.823	956.11
2416.981	955.35
2420.139	904.65
2423.296	980.17
2426.453	1043.61
2429.61	987.27
2432.767	1059.4
2435.923	1090.23
2439.079	1052.79
2442.235	1074.73
2445.391	1105.03
2448.546	1090.27
2451.701	1152.26
2454.855	1242.18
2458.009	1091.68
2461.163	1102.52
2464.317	1128.83
2467.471	1100.36
2470.624	1144.29
2473.777	1124.82
2476.929	1087.61
2480.082	1165.94
2483.234	1224.88
2486.385	1239.23
2489.537	1270.2
2492.688	1411.88
2495.839	1380.7
2498.989	1416.54
2502.14	1433.61
2505.29	1368.24
2508.439	1509.51
2511.589	1552.41
2514.738	1497.42
2517.887	1484.79
2521.035	1396.86
2524.183	1371.52
2527.331	1351.09
2530.479	1332.04
2533.627	1359.28
