Data from N_3_div_pa_2n_Splice17_14.txt Node
Date: Sat Feb 29 14:56:15 EST 2020
User: sa697716
Spectrometer: FLMS03696
Trigger mode: 0
Integration Time (sec): 3.180400E-1
Scans to average: 20
Electric dark correction enabled: true
Nonlinearity correction enabled: true
Boxcar width: 5
XAxis mode: Wavelengths
Number of Pixels in Spectrum: 2048
>>>>>Begin Spectral Data<<<<<
187.83	63.92
188.298	60.74
188.766	54.34
189.233	55.02
189.701	64.75
190.169	65.04
190.636	75.43
191.104	59.05
191.571	195.4
192.039	158.77
192.506	23.3
192.974	4604.5
193.441	-96.45
193.908	10.8
194.375	41.77
194.842	161.39
195.31	93.84
195.777	76.53
196.244	62.43
196.711	69.82
197.177	72.55
197.644	71.08
198.111	70.87
198.578	71.23
199.045	72.5
199.511	72.76
199.978	73.15
200.445	72.86
200.911	73.17
201.378	72.91
201.844	73.92
202.31	73.94
202.777	74.35
203.243	75.09
203.709	75.43
204.176	75.07
204.642	74.57
205.108	74.09
205.574	74.31
206.04	74.11
206.506	73.87
206.972	72.85
207.438	71.86
207.903	71.08
208.369	69.41
208.835	68.35
209.301	67.43
209.766	65.98
210.232	64.72
210.697	63.45
211.163	62.13
211.628	60.86
212.094	59.61
212.559	58.36
213.024	56.95
213.49	55.93
213.955	54.77
214.42	52.77
214.885	51.05
215.35	48.95
215.815	45.95
216.28	42.71
216.745	39.38
217.21	36.09
217.675	33.02
218.14	30.08
218.604	27.4
219.069	25.08
219.534	23.16
219.998	21.51
220.463	20.13
220.927	19.11
221.392	18.19
221.856	17.35
222.32	16.59
222.785	15.93
223.249	15.4
223.713	14.89
224.177	14.46
224.642	14.12
225.106	13.79
225.57	13.42
226.034	13.08
226.497	12.77
226.961	12.46
227.425	12.15
227.889	11.9
228.353	11.61
228.816	11.4
229.28	11.12
229.744	10.91
230.207	10.69
230.671	10.5
231.134	10.29
231.597	10.11
232.061	9.94
232.524	9.81
232.987	9.65
233.45	9.52
233.914	9.38
234.377	9.27
234.84	9.14
235.303	9.01
235.766	8.9
236.229	8.8
236.691	8.7
237.154	8.62
237.617	8.51
238.08	8.44
238.542	8.36
239.005	8.27
239.468	8.19
239.93	8.1
240.393	8.04
240.855	7.95
241.317	7.89
241.78	7.81
242.242	7.71
242.704	7.64
243.166	7.55
243.629	7.48
244.091	7.4
244.553	7.33
245.015	7.27
245.477	7.19
245.939	7.12
246.4	7.04
246.862	6.97
247.324	6.92
247.786	6.85
248.247	6.79
248.709	6.73
249.17	6.66
249.632	6.6
250.093	6.52
250.555	6.48
251.016	6.44
251.477	6.38
251.939	6.33
252.4	6.29
252.861	6.24
253.322	6.2
253.783	6.16
254.244	6.12
254.705	6.08
255.166	6.07
255.627	6.01
256.088	5.95
256.549	5.91
257.009	5.88
257.47	5.83
257.931	5.78
258.391	5.73
258.852	5.67
259.312	5.62
259.773	5.57
260.233	5.51
260.694	5.46
261.154	5.42
261.614	5.38
262.074	5.33
262.534	5.27
262.994	5.23
263.455	5.19
263.915	5.15
264.374	5.11
264.834	5.07
265.294	5.04
265.754	5
266.214	4.97
266.673	4.94
267.133	4.91
267.593	4.89
268.052	4.86
268.512	4.83
268.971	4.81
269.431	4.79
269.89	4.77
270.349	4.74
270.809	4.72
271.268	4.7
271.727	4.68
272.186	4.66
272.645	4.64
273.104	4.63
273.563	4.62
274.022	4.6
274.481	4.58
274.94	4.57
275.399	4.55
275.857	4.54
276.316	4.52
276.775	4.5
277.233	4.49
277.692	4.48
278.15	4.46
278.609	4.43
279.067	4.42
279.525	4.41
279.984	4.4
280.442	4.4
280.9	4.38
281.358	4.38
281.816	4.38
282.274	4.38
282.732	4.38
283.19	4.38
283.648	4.38
284.106	4.37
284.564	4.37
285.021	4.37
285.479	4.36
285.937	4.36
286.394	4.35
286.852	4.35
287.309	4.33
287.767	4.33
288.224	4.31
288.682	4.3
289.139	4.29
289.596	4.27
290.053	4.24
290.511	4.23
290.968	4.21
291.425	4.19
291.882	4.16
292.339	4.14
292.796	4.1
293.252	4.08
293.709	4.06
294.166	4.05
294.623	4.03
295.079	4.02
295.536	4
295.992	3.99
296.449	3.98
296.905	3.96
297.362	3.94
297.818	3.94
298.274	3.93
298.731	3.92
299.187	3.91
299.643	3.9
300.099	3.89
300.555	3.88
301.011	3.87
301.467	3.85
301.923	3.85
302.379	3.86
302.835	3.85
303.291	3.84
303.746	3.84
304.202	3.82
304.658	3.82
305.113	3.82
305.569	3.82
306.024	3.81
306.479	3.82
306.935	3.82
307.39	3.81
307.845	3.81
308.301	3.82
308.756	3.82
309.211	3.83
309.666	3.83
310.121	3.83
310.576	3.83
311.031	3.84
311.486	3.84
311.94	3.84
312.395	3.85
312.85	3.85
313.305	3.85
313.759	3.85
314.214	3.84
314.668	3.84
315.123	3.84
315.577	3.82
316.032	3.83
316.486	3.82
316.94	3.81
317.394	3.81
317.849	3.8
318.303	3.79
318.757	3.78
319.211	3.77
319.665	3.76
320.119	3.76
320.572	3.76
321.026	3.74
321.48	3.72
321.934	3.72
322.387	3.71
322.841	3.7
323.295	3.7
323.748	3.69
324.202	3.69
324.655	3.68
325.108	3.67
325.562	3.66
326.015	3.65
326.468	3.64
326.921	3.64
327.374	3.63
327.827	3.63
328.28	3.62
328.733	3.61
329.186	3.61
329.639	3.62
330.092	3.62
330.545	3.63
330.997	3.64
331.45	3.64
331.903	3.63
332.355	3.63
332.808	3.64
333.26	3.65
333.713	3.65
334.165	3.66
334.617	3.66
335.069	3.65
335.522	3.65
335.974	3.66
336.426	3.67
336.878	3.68
337.33	3.69
337.782	3.69
338.234	3.7
338.686	3.69
339.137	3.69
339.589	3.7
340.041	3.7
340.493	3.67
340.944	3.66
341.396	3.66
341.847	3.64
342.299	3.61
342.75	3.59
343.201	3.58
343.653	3.57
344.104	3.56
344.555	3.54
345.006	3.53
345.457	3.52
345.908	3.51
346.359	3.51
346.81	3.5
347.261	3.5
347.712	3.51
348.163	3.51
348.613	3.5
349.064	3.49
349.515	3.47
349.965	3.47
350.416	3.47
350.866	3.47
351.317	3.46
351.767	3.47
352.217	3.47
352.668	3.46
353.118	3.45
353.568	3.46
354.018	3.49
354.468	3.5
354.918	3.51
355.368	3.52
355.818	3.51
356.268	3.53
356.718	3.53
357.168	3.52
357.617	3.53
358.067	3.54
358.517	3.54
358.966	3.54
359.416	3.55
359.865	3.55
360.315	3.56
360.764	3.58
361.213	3.58
361.663	3.59
362.112	3.61
362.561	3.62
363.01	3.64
363.459	3.64
363.908	3.66
364.357	3.68
364.806	3.69
365.255	3.7
365.703	3.71
366.152	3.73
366.601	3.74
367.05	3.76
367.498	3.78
367.947	3.79
368.395	3.82
368.844	3.84
369.292	3.84
369.74	3.86
370.189	3.88
370.637	3.9
371.085	3.92
371.533	3.94
371.981	3.96
372.429	3.98
372.877	4.01
373.325	4.02
373.773	4.05
374.221	4.08
374.669	4.11
375.116	4.14
375.564	4.15
376.012	4.19
376.459	4.22
376.907	4.26
377.354	4.28
377.801	4.32
378.249	4.35
378.696	4.39
379.143	4.43
379.591	4.48
380.038	4.52
380.485	4.57
380.932	4.6
381.379	4.64
381.826	4.69
382.273	4.74
382.72	4.79
383.166	4.85
383.613	4.9
384.06	4.96
384.506	5
384.953	5.05
385.4	5.11
385.846	5.17
386.292	5.24
386.739	5.28
387.185	5.34
387.631	5.4
388.078	5.46
388.524	5.5
388.97	5.56
389.416	5.61
389.862	5.66
390.308	5.72
390.754	5.78
391.2	5.85
391.645	5.92
392.091	5.99
392.537	6.05
392.983	6.13
393.428	6.23
393.874	6.31
394.319	6.39
394.765	6.46
395.21	6.52
395.655	6.59
396.101	6.64
396.546	6.71
396.991	6.77
397.436	6.81
397.881	6.87
398.326	6.95
398.771	7.01
399.216	7.1
399.661	7.17
400.106	7.25
400.551	7.3
400.995	7.35
401.44	7.39
401.885	7.43
402.329	7.48
402.774	7.5
403.218	7.53
403.663	7.55
404.107	7.59
404.551	7.63
404.995	7.64
405.44	7.67
405.884	7.69
406.328	7.73
406.772	7.77
407.216	7.79
407.66	7.83
408.104	7.87
408.547	7.89
408.991	7.89
409.435	7.9
409.879	7.93
410.322	7.96
410.766	7.99
411.209	8.03
411.653	8.04
412.096	8.08
412.54	8.09
412.983	8.11
413.426	8.14
413.869	8.18
414.312	8.23
414.756	8.27
415.199	8.31
415.642	8.35
416.085	8.4
416.527	8.46
416.97	8.5
417.413	8.51
417.856	8.51
418.298	8.52
418.741	8.53
419.184	8.54
419.626	8.53
420.069	8.53
420.511	8.53
420.953	8.51
421.396	8.49
421.838	8.48
422.28	8.52
422.722	8.54
423.164	8.55
423.606	8.58
424.048	8.56
424.49	8.6
424.932	8.6
425.374	8.6
425.816	8.6
426.258	8.57
426.699	8.53
427.141	8.47
427.582	8.44
428.024	8.43
428.465	8.42
428.907	8.43
429.348	8.4
429.789	8.39
430.231	8.37
430.672	8.36
431.113	8.36
431.554	8.39
431.995	8.43
432.436	8.46
432.877	8.45
433.318	8.44
433.759	8.44
434.2	8.45
434.64	8.47
435.081	8.49
435.522	8.53
435.962	8.58
436.403	8.62
436.843	8.67
437.284	8.72
437.724	8.78
438.164	8.83
438.604	8.87
439.045	8.92
439.485	8.97
439.925	9.01
440.365	9.05
440.805	9.11
441.245	9.13
441.685	9.17
442.125	9.22
442.564	9.27
443.004	9.35
443.444	9.44
443.883	9.51
444.323	9.6
444.762	9.71
445.202	9.81
445.641	9.88
446.081	10.03
446.52	10.1
446.959	10.2
447.398	10.32
447.837	10.41
448.276	10.49
448.716	10.58
449.154	10.66
449.593	10.75
450.032	10.79
450.471	10.88
450.91	10.91
451.349	10.98
451.787	11.02
452.226	11.04
452.664	11.05
453.103	11.08
453.541	11.11
453.98	11.12
454.418	11.11
454.856	11.12
455.295	11.09
455.733	11.08
456.171	11.06
456.609	11.07
457.047	11.05
457.485	11.06
457.923	11.05
458.361	11.03
458.798	11.06
459.236	11.06
459.674	11.05
460.111	11.06
460.549	11.05
460.987	11.05
461.424	11.03
461.862	11.04
462.299	11.03
462.736	11.03
463.173	11.05
463.611	11.02
464.048	11.02
464.485	11.05
464.922	11.05
465.359	11.09
465.796	11.1
466.233	11.12
466.67	11.15
467.106	11.17
467.543	11.19
467.98	11.19
468.416	11.25
468.853	11.29
469.29	11.3
469.726	11.33
470.162	11.34
470.599	11.38
471.035	11.41
471.471	11.41
471.907	11.44
472.344	11.47
472.78	11.51
473.216	11.52
473.652	11.53
474.088	11.57
474.523	11.59
474.959	11.63
475.395	11.66
475.831	11.67
476.266	11.7
476.702	11.72
477.138	11.72
477.573	11.74
478.008	11.75
478.444	11.75
478.879	11.75
479.314	11.75
479.75	11.75
480.185	11.72
480.62	11.74
481.055	11.75
481.49	11.75
481.925	11.75
482.36	11.74
482.795	11.73
483.229	11.74
483.664	11.76
484.099	11.77
484.534	11.78
484.968	11.82
485.403	11.83
485.837	11.83
486.271	11.86
486.706	11.88
487.14	11.94
487.574	11.98
488.009	12.04
488.443	12.1
488.877	12.15
489.311	12.2
489.745	12.26
490.179	12.33
490.613	12.41
491.046	12.5
491.48	12.62
491.914	12.71
492.348	12.82
492.781	12.93
493.215	13.03
493.648	13.16
494.082	13.31
494.515	13.45
494.948	13.61
495.382	13.76
495.815	13.94
496.248	14.09
496.681	14.27
497.114	14.44
497.547	14.63
497.98	14.84
498.413	15.03
498.846	15.24
499.279	15.46
499.711	15.68
500.144	15.91
500.577	16.13
501.009	16.39
501.442	16.65
501.874	16.91
502.306	17.17
502.739	17.45
503.171	17.76
503.603	18.07
504.036	18.38
504.468	18.69
504.9	19.03
505.332	19.36
505.764	19.71
506.196	20.07
506.627	20.43
507.059	20.81
507.491	21.17
507.923	21.54
508.354	21.92
508.786	22.32
509.217	22.71
509.649	23.12
510.08	23.51
510.512	23.9
510.943	24.3
511.374	24.72
511.805	25.14
512.237	25.58
512.668	25.99
513.099	26.41
513.53	26.83
513.961	27.26
514.391	27.67
514.822	28.1
515.253	28.53
515.684	28.96
516.114	29.37
516.545	29.77
516.975	30.17
517.406	30.59
517.836	31
518.267	31.41
518.697	31.82
519.127	32.21
519.558	32.62
519.988	33.01
520.418	33.36
520.848	33.73
521.278	34.11
521.708	34.31
522.138	34.63
522.567	34.97
522.997	35.28
523.427	35.58
523.857	35.86
524.286	36.14
524.716	36.42
525.145	36.7
525.575	36.96
526.004	37.21
526.433	37.62
526.863	37.88
527.292	38.1
527.721	38.33
528.15	38.53
528.579	38.75
529.008	38.96
529.437	39.14
529.866	39.31
530.295	39.5
530.724	39.69
531.152	39.83
531.581	39.98
532.01	40.11
532.438	40.24
532.867	40.38
533.295	40.48
533.723	40.6
534.152	40.71
534.58	40.8
535.008	40.86
535.436	40.92
535.865	40.99
536.293	41.08
536.721	41.13
537.149	41.2
537.576	41.25
538.004	41.31
538.432	41.35
538.86	41.37
539.287	41.42
539.715	41.48
540.143	41.51
540.57	41.55
540.998	41.58
541.425	41.64
541.852	41.67
542.28	41.69
542.707	41.73
543.134	41.77
543.561	41.82
543.988	41.86
544.415	41.91
544.842	41.94
545.269	41.98
545.696	42.03
546.123	42.08
546.549	42.12
546.976	42.19
547.403	42.21
547.829	42.26
548.256	42.31
548.682	42.35
549.108	42.39
549.535	42.44
549.961	42.48
550.387	42.48
550.813	42.47
551.24	42.49
551.666	42.51
552.092	42.54
552.518	42.54
552.943	42.55
553.369	42.57
553.795	42.57
554.221	42.54
554.646	42.53
555.072	42.52
555.498	42.52
555.923	42.48
556.349	42.43
556.774	42.4
557.199	42.37
557.625	42.31
558.05	42.22
558.475	42.15
558.9	42.11
559.325	42.04
559.75	41.98
560.175	41.9
560.6	41.82
561.025	41.76
561.449	41.66
561.874	41.56
562.299	41.48
562.723	41.4
563.148	41.29
563.572	41.21
563.997	41.11
564.421	40.99
564.846	40.86
565.27	40.73
565.694	40.59
566.118	40.45
566.542	40.26
566.966	40.09
567.39	39.93
567.814	39.75
568.238	39.54
568.662	39.36
569.086	39.16
569.509	38.99
569.933	38.8
570.357	38.61
570.78	38.42
571.204	38.25
571.627	38.06
572.05	37.88
572.474	37.71
572.897	37.53
573.32	37.37
573.743	37.21
574.166	37.05
574.589	36.91
575.012	36.77
575.435	36.63
575.858	36.52
576.281	36.41
576.704	36.3
577.126	36.18
577.549	36.09
577.972	35.97
578.394	35.84
578.817	35.73
579.239	35.65
579.661	35.56
580.084	35.47
580.506	35.38
580.928	35.27
581.35	35.17
581.772	35.1
582.194	34.99
582.616	34.92
583.038	34.87
583.46	34.81
583.882	34.71
584.303	34.63
584.725	34.57
585.147	34.47
585.568	34.39
585.99	34.33
586.411	34.25
586.833	34.2
587.254	34.12
587.675	34.05
588.096	33.99
588.518	33.94
588.939	33.89
589.36	33.83
589.781	33.8
590.202	33.76
590.623	33.72
591.043	33.71
591.464	33.68
591.885	33.66
592.305	33.64
592.726	33.6
593.147	33.57
593.567	33.55
593.987	33.53
594.408	33.52
594.828	33.51
595.248	33.49
595.669	33.44
596.089	33.41
596.509	33.36
596.929	33.31
597.349	33.26
597.769	33.23
598.189	33.2
598.608	33.13
599.028	33.07
599.448	33
599.867	32.93
600.287	32.86
600.706	32.79
601.126	32.75
601.545	32.68
601.965	32.61
602.384	32.51
602.803	32.41
603.222	32.32
603.641	32.24
604.061	32.14
604.48	32.04
604.898	31.95
605.317	31.85
605.736	31.7
606.155	31.56
606.574	31.44
606.992	31.32
607.411	31.19
607.829	31.03
608.248	30.92
608.666	30.78
609.085	30.64
609.503	30.49
609.921	30.37
610.339	30.26
610.758	30.15
611.176	30.01
611.594	29.88
612.012	29.76
612.43	29.66
612.847	29.52
613.265	29.42
613.683	29.31
614.101	29.19
614.518	29.06
614.936	28.94
615.353	28.83
615.771	28.73
616.188	28.63
616.606	28.52
617.023	28.42
617.44	28.33
617.857	28.22
618.274	28.12
618.691	28.06
619.108	27.98
619.525	27.9
619.942	27.82
620.359	27.78
620.776	27.72
621.192	27.67
621.609	27.63
622.026	27.58
622.442	27.54
622.859	27.51
623.275	27.47
623.691	27.47
624.108	27.46
624.524	27.44
624.94	27.4
625.356	27.4
625.772	27.4
626.188	27.39
626.604	27.36
627.02	27.34
627.436	27.33
627.852	27.3
628.268	27.27
628.683	27.24
629.099	27.23
629.514	27.2
629.93	27.15
630.345	27.11
630.761	27.07
631.176	27.02
631.591	26.99
632.007	26.95
632.422	26.9
632.837	26.84
633.252	26.78
633.667	26.7
634.082	26.61
634.497	26.53
634.911	26.43
635.326	26.32
635.741	26.24
636.155	26.15
636.57	26.02
636.984	25.87
637.399	25.71
637.813	25.57
638.228	25.44
638.642	25.31
639.056	25.17
639.47	25.02
639.884	24.85
640.298	24.67
640.712	24.46
641.126	24.29
641.54	24.13
641.954	23.98
642.368	23.79
642.781	23.6
643.195	23.39
643.609	23.18
644.022	22.97
644.436	22.78
644.849	22.6
645.262	22.43
645.676	22.25
646.089	22.07
646.502	21.88
646.915	21.72
647.328	21.55
647.741	21.4
648.154	21.27
648.567	21.15
648.98	21.02
649.393	20.9
649.805	20.79
650.218	20.65
650.631	20.54
651.043	20.43
651.456	20.33
651.868	20.21
652.28	20.08
652.693	19.94
653.105	19.77
653.517	19.61
653.929	19.45
654.341	19.28
654.753	19.11
655.165	18.9
655.577	18.67
655.989	18.43
656.401	18.2
656.813	17.98
657.224	17.74
657.636	17.51
658.047	17.26
658.459	16.99
658.87	16.71
659.282	16.46
659.693	16.2
660.104	15.95
660.515	15.7
660.926	15.45
661.338	15.19
661.749	14.92
662.159	14.67
662.57	14.42
662.981	14.18
663.392	13.95
663.803	13.72
664.213	13.52
664.624	13.32
665.035	13.11
665.445	12.92
665.855	12.74
666.266	12.57
666.676	12.41
667.086	12.27
667.497	12.11
667.907	11.99
668.317	11.86
668.727	11.72
669.137	11.61
669.547	11.52
669.956	11.42
670.366	11.36
670.776	11.29
671.186	11.24
671.595	11.18
672.005	11.15
672.414	11.11
672.824	11.08
673.233	11.06
673.642	11.03
674.052	11.02
674.461	11.01
674.87	10.98
675.279	10.99
675.688	11
676.097	11.02
676.506	11.04
676.915	11.07
677.323	11.14
677.732	11.21
678.141	11.29
678.549	11.39
678.958	11.52
679.366	11.67
679.775	11.84
680.183	12.02
680.592	12.23
681	12.48
681.408	12.76
681.816	13.06
682.224	13.41
682.632	13.8
683.04	14.21
683.448	14.66
683.856	15.15
684.264	15.67
684.671	16.24
685.079	16.85
685.487	17.5
685.894	18.17
686.302	18.88
686.709	19.61
687.116	20.35
687.524	21.14
687.931	21.94
688.338	22.78
688.745	23.63
689.152	24.48
689.559	25.32
689.966	26.16
690.373	27.04
690.78	27.9
691.187	28.77
691.593	29.63
692	30.48
692.407	31.31
692.813	32.12
693.22	32.89
693.626	33.68
694.032	34.44
694.439	35.21
694.845	35.95
695.251	36.68
695.657	37.35
696.063	38.03
696.469	38.66
696.875	39.27
697.281	39.86
697.687	40.5
698.093	41.08
698.498	41.66
698.904	42.21
699.31	42.7
699.715	43.21
700.12	43.66
700.526	44.15
700.931	44.61
701.337	45.07
701.742	45.49
702.147	45.88
702.552	46.28
702.957	46.66
703.362	47.02
703.767	47.38
704.172	47.74
704.577	48.1
704.981	48.43
705.386	48.73
705.791	49.08
706.195	49.39
706.6	49.68
707.004	49.95
707.408	50.23
707.813	50.48
708.217	50.73
708.621	50.96
709.025	51.18
709.43	51.38
709.834	51.64
710.237	51.85
710.641	52.07
711.045	52.29
711.449	52.49
711.853	52.67
712.256	52.89
712.66	53.09
713.064	53.29
713.467	53.48
713.87	53.67
714.274	53.84
714.677	54
715.08	54.16
715.484	54.3
715.887	54.47
716.29	54.61
716.693	54.74
717.096	54.9
717.499	55.07
717.901	55.18
718.304	55.29
718.707	55.4
719.109	55.52
719.512	55.67
719.915	55.79
720.317	55.93
720.719	56.06
721.122	56.18
721.524	56.26
721.926	56.35
722.328	56.49
722.731	56.61
723.133	56.72
723.535	56.85
723.937	56.93
724.338	57.02
724.74	57.07
725.142	57.07
725.544	57.12
725.945	57.19
726.347	57.25
726.748	57.3
727.15	57.38
727.551	57.44
727.952	57.45
728.354	57.5
728.755	57.58
729.156	57.64
729.557	57.78
729.958	57.87
730.359	57.92
730.76	57.95
731.161	58.01
731.562	58.05
731.962	58.1
732.363	58.16
732.763	58.22
733.164	58.24
733.564	58.25
733.965	58.26
734.365	58.24
734.766	58.28
735.166	58.3
735.566	58.31
735.966	58.29
736.366	58.29
736.766	58.28
737.166	58.3
737.566	58.28
737.966	58.31
738.365	58.37
738.765	58.44
739.165	58.44
739.564	58.45
739.964	58.45
740.363	58.49
740.763	58.51
741.162	58.54
741.561	58.56
741.96	58.57
742.36	58.59
742.759	58.56
743.158	58.54
743.557	58.57
743.955	58.64
744.354	58.68
744.753	58.68
745.152	58.69
745.55	58.72
745.949	58.73
746.348	58.77
746.746	58.79
747.144	58.86
747.543	58.91
747.941	58.95
748.339	59.01
748.737	59.03
749.136	59.08
749.534	59.13
749.932	59.13
750.33	59.15
750.727	59.15
751.125	59.16
751.523	59.13
751.921	59.1
752.318	59.07
752.716	58.99
753.113	58.97
753.511	58.94
753.908	58.89
754.305	58.86
754.703	58.8
755.1	58.76
755.497	58.75
755.894	58.73
756.291	58.72
756.688	58.72
757.085	58.71
757.482	58.72
757.878	58.74
758.275	58.74
758.672	58.76
759.068	58.79
759.465	58.79
759.861	58.77
760.258	58.75
760.654	58.76
761.05	58.74
761.447	58.71
761.843	58.65
762.239	58.6
762.635	58.57
763.031	58.56
763.427	58.54
763.822	58.54
764.218	58.52
764.614	58.52
765.01	58.51
765.405	58.49
765.801	58.53
766.196	58.55
766.592	58.57
766.987	58.57
767.382	58.56
767.778	58.55
768.173	58.56
768.568	58.56
768.963	58.56
769.358	58.55
769.753	58.58
770.148	58.58
770.542	58.57
770.937	58.56
771.332	58.56
771.726	58.59
772.121	58.56
772.515	58.53
772.91	58.51
773.304	58.51
773.699	58.49
774.093	58.44
774.487	58.44
774.881	58.43
775.275	58.41
775.669	58.43
776.063	58.38
776.457	58.37
776.851	58.36
777.245	58.37
777.638	58.36
778.032	58.39
778.425	58.41
778.819	58.41
779.212	58.42
779.606	58.44
779.999	58.41
780.392	58.43
780.786	58.47
781.179	58.54
781.572	58.55
781.965	58.58
782.358	58.53
782.751	58.5
783.143	58.5
783.536	58.57
783.929	58.57
784.322	58.6
784.714	58.61
785.107	58.62
785.499	58.59
785.891	58.6
786.284	58.6
786.676	58.67
787.068	58.71
787.46	58.7
787.852	58.65
788.245	58.71
788.636	58.69
789.028	58.66
789.42	58.62
789.812	58.62
790.204	58.59
790.595	58.57
790.987	58.54
791.378	58.56
791.77	58.58
792.161	58.61
792.553	58.56
792.944	58.63
793.335	58.68
793.726	58.69
794.117	58.69
794.508	58.74
794.899	58.75
795.29	58.76
795.681	58.77
796.072	58.78
796.463	58.73
796.853	58.76
797.244	58.72
797.634	58.7
798.025	58.69
798.415	58.75
798.806	58.75
799.196	58.78
799.586	58.8
799.976	58.76
800.366	58.78
800.756	58.84
801.146	58.82
801.536	58.86
801.926	58.9
802.316	58.93
802.706	58.91
803.095	58.94
803.485	58.94
803.874	58.96
804.264	59.02
804.653	58.98
805.043	58.96
805.432	58.99
805.821	58.95
806.21	58.99
806.599	59.05
806.988	59.07
807.377	59.09
807.766	59.12
808.155	59.14
808.544	59.13
808.933	59.19
809.321	59.25
809.71	59.28
810.098	59.32
810.487	59.31
810.875	59.24
811.264	59.3
811.652	59.31
812.04	59.33
812.428	59.34
812.816	59.37
813.204	59.37
813.592	59.36
813.98	59.37
814.368	59.37
814.756	59.39
815.144	59.47
815.531	59.42
815.919	59.45
816.306	59.44
816.694	59.45
817.081	59.46
817.469	59.49
817.856	59.57
818.243	59.57
818.63	59.62
819.017	59.62
819.404	59.59
819.791	59.63
820.178	59.65
820.565	59.65
820.952	59.66
821.339	59.68
821.725	59.68
822.112	59.64
822.498	59.64
822.885	59.63
823.271	59.66
823.657	59.68
824.044	59.66
824.43	59.64
824.816	59.64
825.202	59.64
825.588	59.63
825.974	59.6
826.36	59.59
826.746	59.62
827.132	59.58
827.517	59.53
827.903	59.5
828.289	59.47
828.674	59.46
829.06	59.48
829.445	59.5
829.83	59.5
830.216	59.48
830.601	59.48
830.986	59.45
831.371	59.46
831.756	59.42
832.141	59.46
832.526	59.44
832.911	59.45
833.295	59.43
833.68	59.39
834.065	59.38
834.449	59.34
834.834	59.31
835.218	59.28
835.603	59.25
835.987	59.27
836.371	59.24
836.755	59.22
837.139	59.17
837.524	59.14
837.908	59.08
838.291	59.04
838.675	59.06
839.059	59.06
839.443	59.06
839.827	59.02
840.21	58.99
840.594	58.96
840.977	58.94
841.361	58.95
841.744	58.94
842.127	58.97
842.511	58.96
842.894	58.97
843.277	58.96
843.66	58.94
844.043	58.97
844.426	58.96
844.809	58.95
845.191	58.96
845.574	58.92
845.957	58.92
846.339	58.87
846.722	58.88
847.104	58.87
847.487	58.86
847.869	58.86
848.252	58.83
848.634	58.84
849.016	58.89
849.398	58.9
849.78	58.88
850.162	58.87
850.544	58.93
850.926	58.9
851.307	58.89
851.689	58.87
852.071	58.87
852.452	58.88
852.834	58.84
853.215	58.82
853.597	58.81
853.978	58.83
854.359	58.82
854.741	58.81
855.122	58.81
855.503	58.82
855.884	58.81
856.265	58.79
856.646	58.79
857.026	58.81
857.407	58.77
857.788	58.82
858.169	58.81
858.549	58.84
858.93	58.85
859.31	58.87
859.69	58.85
860.071	58.86
860.451	58.87
860.831	58.87
861.211	58.85
861.591	58.88
861.971	58.81
862.351	58.82
862.731	58.79
863.111	58.77
863.491	58.77
863.87	58.76
864.25	58.79
864.629	58.79
865.009	58.79
865.388	58.8
865.768	58.81
866.147	58.81
866.526	58.78
866.905	58.79
867.284	58.8
867.663	58.78
868.042	58.8
868.421	58.77
868.8	58.75
869.179	58.73
869.558	58.71
869.936	58.69
870.315	58.71
870.693	58.7
871.072	58.68
871.45	58.66
871.828	58.66
872.207	58.67
872.585	58.68
872.963	58.67
873.341	58.69
873.719	58.69
874.097	58.71
874.475	58.74
874.853	58.75
875.23	58.76
875.608	58.78
875.986	58.75
876.363	58.73
876.741	58.74
877.118	58.75
877.495	58.72
877.873	58.73
878.25	58.7
878.627	58.67
879.004	58.66
879.381	58.69
879.758	58.67
880.135	58.69
880.512	58.7
880.889	58.72
881.265	58.74
881.642	58.74
882.019	58.75
882.395	58.77
882.772	58.74
883.148	58.74
883.524	58.71
883.901	58.69
884.277	58.65
884.653	58.63
885.029	58.62
885.405	58.57
885.781	58.55
886.157	58.54
886.532	58.51
886.908	58.53
887.284	58.57
887.659	58.53
888.035	58.52
888.411	58.5
888.786	58.48
889.161	58.48
889.537	58.51
889.912	58.47
890.287	58.44
890.662	58.42
891.037	58.34
891.412	58.24
891.787	58.22
892.162	58.21
892.536	58.18
892.911	58.17
893.286	58.1
893.66	58.03
894.035	58.03
894.409	58
894.784	57.97
895.158	57.99
895.532	58
895.906	57.96
896.281	57.91
896.655	57.91
897.029	57.86
897.402	57.87
897.776	57.89
898.15	57.88
898.524	57.88
898.898	57.86
899.271	57.86
899.645	57.86
900.018	57.89
900.392	57.92
900.765	57.94
901.138	57.96
901.511	58
901.884	58.01
902.258	58.02
902.631	58.04
903.003	58.07
903.376	58.07
903.749	58.08
904.122	58.09
904.495	58.08
904.867	58.05
905.24	58.03
905.612	58
905.985	57.97
906.357	57.97
906.729	57.95
907.102	57.96
907.474	58
907.846	57.99
908.218	57.97
908.59	58.01
908.962	58.04
909.334	58.06
909.705	58.1
910.077	58.12
910.449	58.14
910.82	58.13
911.192	58.13
911.563	58.07
911.935	58.09
912.306	58.12
912.677	58.09
913.048	58.06
913.419	58.06
913.79	58
914.161	57.96
914.532	57.94
914.903	57.97
915.274	57.95
915.645	57.98
916.015	57.96
916.386	57.95
916.756	57.93
917.127	57.94
917.497	57.95
917.868	57.98
918.238	58.01
918.608	58.02
918.978	58.02
919.348	58.05
919.718	58.04
920.088	58.09
920.458	58.13
920.828	58.13
921.198	58.14
921.567	58.18
921.937	58.21
922.306	58.22
922.676	58.23
923.045	58.21
923.415	58.19
923.784	58.21
924.153	58.17
924.522	58.13
924.891	58.12
925.26	58.11
925.629	58.09
925.998	58.03
926.367	58
926.736	57.96
927.104	57.96
927.473	57.96
927.842	57.93
928.21	57.94
928.578	57.93
928.947	57.94
929.315	57.92
929.683	57.89
930.051	57.91
930.42	57.93
930.788	57.92
931.156	57.91
931.523	57.91
931.891	57.82
932.259	57.75
932.627	57.7
932.994	57.65
933.362	57.63
933.729	57.58
934.097	57.51
934.464	57.5
934.831	57.46
935.199	57.35
935.566	57.22
935.933	57.38
936.3	57.35
936.667	57.36
937.034	57.27
937.401	57.22
937.767	57.21
938.134	57.25
938.501	57.15
938.867	57.23
939.234	57.38
939.6	57.52
939.967	57.48
940.333	57.64
940.699	57.77
941.065	57.99
941.431	58.13
941.798	58.35
942.163	58.51
942.529	58.68
942.895	58.72
943.261	58.79
943.627	58.87
943.992	58.96
944.358	58.98
944.723	58.99
945.089	59.04
945.454	59.05
945.82	59.01
946.185	59.02
946.55	59.11
946.915	59.15
947.28	59.15
947.645	59.16
948.01	59.09
948.375	59.12
948.74	59.02
949.104	59
949.469	58.97
949.834	58.92
950.198	58.8
950.562	58.72
950.927	58.7
951.291	58.62
951.655	58.6
952.02	58.6
952.384	58.6
952.748	58.69
953.112	58.57
953.476	58.49
953.839	58.43
954.203	58.32
954.567	58.31
954.931	58.24
955.294	58.2
955.658	58.14
956.021	58.05
956.385	57.99
956.748	57.93
957.111	57.89
957.474	57.9
957.837	57.85
958.2	57.85
958.563	57.86
958.926	57.84
959.289	57.9
959.652	57.87
960.015	57.84
960.377	57.81
960.74	57.7
961.102	57.72
961.465	57.74
961.827	57.63
962.189	57.63
962.552	57.52
962.914	57.47
963.276	57.37
963.638	57.29
964	57.26
964.362	57.17
964.724	57.17
965.085	57.13
965.447	57.01
965.809	57.03
966.17	57.06
966.532	57.09
966.893	57.13
967.255	57.14
967.616	57.18
967.977	57.22
968.338	57.22
968.699	57.24
969.061	57.26
969.421	57.27
969.782	57.35
970.143	57.33
970.504	57.27
970.865	57.23
971.225	57.2
971.586	57.21
971.946	57.18
972.307	57.21
972.667	57.27
973.027	57.33
973.388	57.33
973.748	57.33
974.108	57.33
974.468	57.35
974.828	57.35
975.188	57.43
975.548	57.42
975.907	57.49
976.267	57.54
976.627	57.52
976.986	57.45
977.346	57.51
977.705	57.51
978.064	57.47
978.424	57.5
978.783	57.49
979.142	57.45
979.501	57.47
979.86	57.5
980.219	57.39
980.578	57.38
980.937	57.43
981.296	57.41
981.654	57.51
982.013	57.62
982.371	57.55
982.73	57.64
983.088	57.65
983.447	57.75
983.805	57.69
984.163	57.86
984.521	57.84
984.879	57.85
985.237	57.92
985.595	57.88
985.953	57.8
986.311	57.94
986.669	57.95
987.026	58.02
987.384	57.92
987.741	58.02
988.099	57.88
988.456	57.96
988.814	58.01
989.171	58.08
989.528	58.08
989.885	58.2
990.242	58.18
990.599	58.31
990.956	58.35
991.313	58.43
991.67	58.41
992.027	58.44
992.383	58.45
992.74	58.4
993.096	58.25
993.453	58.3
993.809	58.31
994.165	58.35
994.522	58.19
994.878	58.16
995.234	58.17
995.59	58.04
995.946	58.22
996.302	58.25
996.658	58.33
997.013	58.52
997.369	58.51
997.725	58.57
998.08	58.54
998.436	58.67
998.791	58.64
999.147	58.65
999.502	58.89
999.857	58.94
1000.212	58.86
1000.567	58.94
1000.922	58.93
1001.277	58.98
1001.632	59.14
1001.987	59.22
1002.342	59.22
1002.696	59.27
1003.051	59.16
1003.406	59.07
1003.76	59.05
1004.114	59.36
1004.469	59.36
1004.823	59.33
1005.177	59.54
1005.531	59.31
1005.885	59.4
1006.239	59.4
1006.593	59.51
1006.947	59.68
1007.301	59.89
1007.655	59.96
1008.008	59.78
1008.362	59.73
1008.715	59.87
1009.069	59.69
1009.422	59.62
1009.776	59.62
1010.129	59.49
1010.482	59.51
1010.835	59.79
1011.188	59.58
1011.541	59.43
1011.894	59.55
1012.247	59.58
1012.6	59.5
1012.952	59.62
1013.305	60.07
1013.657	60.13
1014.01	60.6
1014.362	60.75
1014.715	60.57
1015.067	60.98
1015.419	61.35
1015.771	61.54
1016.123	61.8
1016.475	61.9
1016.827	62.07
1017.179	62.1
1017.531	62.3
1017.883	62.34
1018.234	62.33
1018.586	62.2
1018.938	61.88
1019.289	61.73
1019.64	61.88
1019.992	61.85
1020.343	62.07
1020.694	61.94
1021.045	61.77
1021.396	61.66
1021.747	61.63
1022.098	61.69
1022.449	61.92
1022.8	62.22
1023.151	62.35
1023.501	62.28
1023.852	62.27
1024.202	62.6
1024.553	62.57
1024.903	62.75
1025.253	62.76
1025.604	62.99
1025.954	63
1026.304	63.24
1026.654	63.39
1027.004	63.63
1027.354	64.09
1027.703	64.22
1028.053	63.59
1028.403	63.38
1028.753	63.7
1029.102	63.89
1029.452	63.82
1029.801	63.98
1030.15	64.02
1030.499	63.85
897.758	443.81
901.051	453.85
904.343	457.71
907.636	451.26
910.928	445.68
914.22	450.3
917.511	439.54
920.803	418.92
924.094	399.45
927.384	402.98
930.675	393.45
933.965	390.58
937.255	387.24
940.544	370.28
943.834	355.61
947.123	349.67
950.411	331.42
953.7	325.75
956.988	317.32
960.276	312.08
963.563	308.49
966.851	290.06
970.138	286.18
973.424	268.76
976.711	263.47
979.997	255.06
983.283	249.28
986.568	243.67
989.853	237.65
993.138	231.65
996.423	225.04
999.708	218.3
1002.992	218.96
1006.275	212.04
1009.559	210.78
1012.842	207.03
1016.125	200.56
1019.408	196.83
1022.69	195.31
1025.972	193.1
1029.254	189.56
1032.536	186.69
1035.817	180.94
1039.098	178.54
1042.379	174.97
1045.659	172.91
1048.939	171.45
1052.219	168.76
1055.498	167.04
1058.778	164.54
1062.057	161.13
1065.335	159.11
1068.614	156.89
1071.892	155.16
1075.17	152.68
1078.447	151.11
1081.724	149.02
1085.001	145.69
1088.278	146.44
1091.554	144.4
1094.83	143.33
1098.106	142.63
1101.382	142.19
1104.657	141.24
1107.932	140.92
1111.206	141.01
1114.481	140.59
1117.755	139.88
1121.029	139.38
1124.302	137.53
1127.575	135.98
1130.848	135.1
1134.121	133.87
1137.393	133.36
1140.665	132.85
1143.937	131.85
1147.208	129.17
1150.48	127.41
1153.75	127.38
1157.021	126.55
1160.291	125.64
1163.561	125.07
1166.831	124.89
1170.101	123.85
1173.37	123.18
1176.639	122.13
1179.907	121.61
1183.176	121.89
1186.444	121.73
1189.711	121.08
1192.979	121.9
1196.246	122.31
1199.513	122.26
1202.78	122.17
1206.046	122.06
1209.312	123.09
1212.578	123.73
1215.843	125.68
1219.108	126.26
1222.373	128.03
1225.638	129.25
1228.902	132.03
1232.166	134.74
1235.43	136.65
1238.693	140.6
1241.956	143.33
1245.219	145.69
1248.482	147.39
1251.744	146.72
1255.006	146.7
1258.268	142.92
1261.529	142.31
1264.79	138.99
1268.051	137.04
1271.312	135.78
1274.572	132.4
1277.832	130.26
1281.092	128.52
1284.351	125.53
1287.61	125.39
1290.869	124.86
1294.128	125.19
1297.386	124.39
1300.644	123.59
1303.902	123.08
1307.159	121.81
1310.416	123.29
1313.673	124.62
1316.93	125.73
1320.186	127.78
1323.442	128.91
1326.697	131.21
1329.953	131.77
1333.208	136.45
1336.463	141.74
1339.717	143.92
1342.972	151.09
1346.226	152.59
1349.479	153.57
1352.733	158.8
1355.986	161.57
1359.238	165.03
1362.491	166.46
1365.743	172.95
1368.995	173.45
1372.247	173.63
1375.498	172.58
1378.749	176.73
1382	178.68
1385.251	176.81
1388.501	176.77
1391.751	177.96
1395	176.33
1398.25	178.03
1401.499	176.17
1404.748	174.08
1407.996	168.31
1411.244	168.73
1414.492	166.63
1417.74	161.19
1420.987	158.35
1424.234	155.75
1427.481	150.09
1430.728	146.7
1433.974	142.12
1437.22	138.19
1440.465	132.58
1443.711	129.37
1446.956	125.41
1450.201	120.54
1453.445	114.91
1456.689	111.88
1459.933	108.08
1463.177	103.82
1466.42	102.26
1469.663	99.02
1472.906	96.45
1476.148	95.06
1479.391	92.91
1482.633	91.35
1485.874	90.3
1489.115	90.25
1492.356	88.96
1495.597	87.73
1498.838	88.25
1502.078	86.97
1505.318	86.9
1508.557	86.25
1511.797	85.89
1515.036	86.14
1518.274	85.63
1521.513	84.94
1524.751	84.46
1527.989	85.42
1531.227	85.39
1534.464	84.88
1537.701	85.13
1540.938	84.51
1544.174	84.75
1547.41	85.12
1550.646	85.11
1553.882	85.58
1557.117	85.59
1560.352	85.4
1563.587	84.6
1566.821	84.49
1570.055	84.1
1573.289	84.48
1576.523	84.82
1579.756	84.58
1582.989	84.15
1586.222	84.5
1589.454	84
1592.686	84.1
1595.918	84.31
1599.15	84.35
1602.381	84.93
1605.612	85.24
1608.843	84.55
1612.073	84.56
1615.303	85.09
1618.533	85.52
1621.762	84.83
1624.992	85.34
1628.221	85.05
1631.449	85.28
1634.678	85.1
1637.906	84.72
1641.134	84.84
1644.361	84.82
1647.588	85.44
1650.815	85.09
1654.042	85.38
1657.269	85.13
1660.495	85.44
1663.72	85.35
1666.946	85.48
1670.171	86.04
1673.396	86.69
1676.621	86.96
1679.845	86.99
1683.069	86.55
1686.293	86.53
1689.517	86.36
1692.74	86.92
1695.963	86.98
1699.185	87.61
1702.408	86.78
1705.63	87
1708.852	87.31
1712.073	86.86
1715.294	87.04
1718.515	87.69
1721.736	87.61
1724.956	88.01
1728.176	88.05
1731.396	88.25
1734.616	88.52
1737.835	89.47
1741.054	88.9
1744.272	88.56
1747.491	89.12
1750.709	89.13
1753.927	88.71
1757.144	89.6
1760.361	89.31
1763.578	89.56
1766.795	89.79
1770.011	88.85
1773.227	89.29
1776.443	90.57
1779.658	89.9
1782.874	90.31
1786.089	89.86
1789.303	90.33
1792.518	90.49
1795.732	90.67
1798.945	91.95
1802.159	91.59
1805.372	93.28
1808.585	93.88
1811.797	93.76
1815.01	94.36
1818.222	94.84
1821.434	96.11
1824.645	96.15
1827.856	97.81
1831.067	98.02
1834.278	97.88
1837.488	99
1840.698	100.11
1843.908	99.58
1847.117	100.51
1850.326	101.72
1853.535	102.13
1856.744	102.92
1859.952	104.23
1863.16	102.19
1866.368	102.3
1869.575	102.2
1872.782	101.33
1875.989	98.53
1879.196	99.28
1882.402	97.4
1885.608	97.33
1888.814	95.89
1892.019	96.68
1895.224	94.1
1898.429	94.55
1901.634	94.08
1904.838	94.66
1908.042	95.37
1911.246	94.67
1914.449	93.58
1917.652	94
1920.855	93.49
1924.058	93.17
1927.26	91.13
1930.462	92.34
1933.664	92.73
1936.865	93.3
1940.066	91.54
1943.267	90.42
1946.467	92.31
1949.668	92.17
1952.868	92.07
1956.067	92.3
1959.267	92.78
1962.466	93.57
1965.665	95.11
1968.863	94.53
1972.061	95.67
1975.259	97.02
1978.457	98.88
1981.654	99.8
1984.852	101.14
1988.048	102.78
1991.245	104.55
1994.441	106.85
1997.637	109.46
2000.833	110.2
2004.028	112.91
2007.223	114.55
2010.418	117.87
2013.613	121.63
2016.807	124.84
2020.001	127.69
2023.194	130.65
2026.388	135.65
2029.581	142.54
2032.774	147.78
2035.966	151.93
2039.158	155.42
2042.35	159.35
2045.542	162.45
2048.733	170.74
2051.924	170.72
2055.115	171.71
2058.306	174.74
2061.496	175.69
2064.686	174.7
2067.875	172.86
2071.065	176.62
2074.254	175.45
2077.442	180.38
2080.631	182.54
2083.819	180.79
2087.007	186.76
2090.195	190.56
2093.382	188.89
2096.569	190.82
2099.756	194.47
2102.942	198.24
2106.128	200.9
2109.314	204.59
2112.5	205.69
2115.685	201.95
2118.87	203.11
2122.055	203.44
2125.239	207.11
2128.424	213.59
2131.608	213.5
2134.791	212.76
2137.974	212.98
2141.157	214.67
2144.34	216.27
2147.523	220.67
2150.705	227.69
2153.887	224.83
2157.068	227.41
2160.25	229.98
2163.431	229.99
2166.611	230.4
2169.792	237.15
2172.972	239.34
2176.152	240.08
2179.331	243.84
2182.511	241.92
2185.69	246.09
2188.868	254.38
2192.047	262.15
2195.225	266.15
2198.403	267.58
2201.58	265.08
2204.758	272.6
2207.935	274.09
2211.111	280.11
2214.288	283.9
2217.464	288.45
2220.64	288.44
2223.815	289.69
2226.991	285.82
2230.166	286.74
2233.34	296.07
2236.515	303.28
2239.689	298.36
2242.863	304.97
2246.036	302.6
2249.209	305.33
2252.382	305.07
2255.555	317.31
2258.727	319.81
2261.9	331.59
2265.071	336.11
2268.243	331.83
2271.414	344.18
2274.585	352.08
2277.756	349.11
2280.926	362.37
2284.096	368.71
2287.266	368.28
2290.436	358.65
2293.605	367.93
2296.774	374.45
2299.942	376.9
2303.111	390.03
2306.279	397.8
2309.447	396.69
2312.614	402.42
2315.781	407.42
2318.948	413.21
2322.115	421.55
2325.281	446.59
2328.447	438.54
2331.613	442.7
2334.779	446.07
2337.944	454.51
2341.109	460.83
2344.274	467.15
2347.438	475.62
2350.602	488.92
2353.766	511.56
2356.929	515.28
2360.092	520.61
2363.255	524.96
2366.418	529.66
2369.58	542.72
2372.742	547.52
2375.904	544.63
2379.066	561.77
2382.227	593.04
2385.388	588.29
2388.548	561.59
2391.709	553.91
2394.869	569.35
2398.029	572.39
2401.188	576.58
2404.347	594.6
2407.506	607.52
2410.665	587.82
2413.823	587.21
2416.981	588.8
2420.139	560.62
2423.296	606.37
2426.453	648.76
2429.61	612.25
2432.767	655.55
2435.923	675.23
2439.079	654.95
2442.235	663.27
2445.391	684.43
2448.546	677.5
2451.701	716.77
2454.855	763.88
2458.009	680.99
2461.163	688.9
2464.317	706.86
2467.471	690.59
2470.624	710.66
2473.777	696.34
2476.929	680.55
2480.082	718.76
2483.234	758.01
2486.385	767.78
2489.537	785.07
2492.688	868.84
2495.839	861.5
2498.989	882.89
2502.14	889.57
2505.29	851.3
2508.439	928.75
2511.589	949.2
2514.738	933.41
2517.887	918.02
2521.035	865.8
2524.183	845.59
2527.331	832.47
2530.479	806.7
2533.627	825.55
