Data from N_3_hir_il_4n_Splice17_15.txt Node
Date: Sat Feb 29 15:13:16 EST 2020
User: sa697716
Spectrometer: FLMS03696
Trigger mode: 0
Integration Time (sec): 3.180400E-1
Scans to average: 20
Electric dark correction enabled: true
Nonlinearity correction enabled: true
Boxcar width: 5
XAxis mode: Wavelengths
Number of Pixels in Spectrum: 2048
>>>>>Begin Spectral Data<<<<<
187.83	121.59
188.298	129.43
188.766	123.52
189.233	114.01
189.701	114.47
190.169	115.19
190.636	111.25
191.104	102.69
191.571	223.83
192.039	259.73
192.506	-84.66
192.974	3941.02
193.441	-377.54
193.908	109.43
194.375	110.9
194.842	149.76
195.31	74.83
195.777	35.92
196.244	17.06
196.711	31.32
197.177	30.1
197.644	30.84
198.111	30.85
198.578	31.04
199.045	32.3
199.511	32.38
199.978	32.76
200.445	32.66
200.911	33.29
201.378	33.75
201.844	34.13
202.31	34.94
202.777	35.54
203.243	35.94
203.709	36.41
204.176	36.02
204.642	36.34
205.108	36.11
205.574	36.97
206.04	36.73
206.506	36.51
206.972	36
207.438	35.47
207.903	35.11
208.369	34.83
208.835	34.57
209.301	34.07
209.766	33.77
210.232	33.61
210.697	32.87
211.163	32.39
211.628	31.74
212.094	31.54
212.559	30.97
213.024	30.45
213.49	29.79
213.955	29.2
214.42	28.71
214.885	27.73
215.35	27.06
215.815	25.91
216.28	24.67
216.745	23.67
217.21	22.33
217.675	21.05
218.14	19.77
218.604	18.63
219.069	17.73
219.534	16.94
219.998	16.33
220.463	15.65
220.927	15.15
221.392	14.67
221.856	14.2
222.32	13.83
222.785	13.55
223.249	13.26
223.713	13.02
224.177	12.76
224.642	12.56
225.106	12.31
225.57	12.08
226.034	11.89
226.497	11.68
226.961	11.5
227.425	11.28
227.889	11.1
228.353	10.96
228.816	10.8
229.28	10.63
229.744	10.45
230.207	10.3
230.671	10.16
231.134	10
231.597	9.89
232.061	9.77
232.524	9.66
232.987	9.54
233.45	9.4
233.914	9.29
234.377	9.19
234.84	9.09
235.303	8.99
235.766	8.9
236.229	8.81
236.691	8.73
237.154	8.64
237.617	8.55
238.08	8.47
238.542	8.37
239.005	8.27
239.468	8.19
239.93	8.12
240.393	8.03
240.855	7.92
241.317	7.85
241.78	7.78
242.242	7.69
242.704	7.62
243.166	7.54
243.629	7.49
244.091	7.43
244.553	7.36
245.015	7.31
245.477	7.24
245.939	7.2
246.4	7.13
246.862	7.07
247.324	7.03
247.786	6.98
248.247	6.93
248.709	6.88
249.17	6.82
249.632	6.77
250.093	6.7
250.555	6.65
251.016	6.61
251.477	6.55
251.939	6.5
252.4	6.45
252.861	6.4
253.322	6.35
253.783	6.32
254.244	6.27
254.705	6.22
255.166	6.2
255.627	6.17
256.088	6.12
256.549	6.09
257.009	6.04
257.47	6
257.931	5.96
258.391	5.93
258.852	5.87
259.312	5.83
259.773	5.79
260.233	5.74
260.694	5.7
261.154	5.65
261.614	5.62
262.074	5.59
262.534	5.54
262.994	5.51
263.455	5.47
263.915	5.44
264.374	5.41
264.834	5.38
265.294	5.35
265.754	5.31
266.214	5.28
266.673	5.25
267.133	5.22
267.593	5.19
268.052	5.16
268.512	5.13
268.971	5.11
269.431	5.09
269.89	5.06
270.349	5.04
270.809	5.02
271.268	5.01
271.727	4.99
272.186	4.98
272.645	4.96
273.104	4.94
273.563	4.92
274.022	4.9
274.481	4.88
274.94	4.86
275.399	4.84
275.857	4.82
276.316	4.79
276.775	4.76
277.233	4.74
277.692	4.71
278.15	4.68
278.609	4.66
279.067	4.64
279.525	4.61
279.984	4.6
280.442	4.59
280.9	4.57
281.358	4.56
281.816	4.54
282.274	4.53
282.732	4.51
283.19	4.52
283.648	4.51
284.106	4.49
284.564	4.48
285.021	4.47
285.479	4.45
285.937	4.43
286.394	4.41
286.852	4.4
287.309	4.4
287.767	4.39
288.224	4.37
288.682	4.35
289.139	4.33
289.596	4.31
290.053	4.28
290.511	4.26
290.968	4.24
291.425	4.22
291.882	4.2
292.339	4.18
292.796	4.15
293.252	4.13
293.709	4.11
294.166	4.1
294.623	4.08
295.079	4.07
295.536	4.06
295.992	4.04
296.449	4.03
296.905	4.01
297.362	3.99
297.818	3.99
298.274	3.97
298.731	3.96
299.187	3.94
299.643	3.93
300.099	3.91
300.555	3.9
301.011	3.89
301.467	3.87
301.923	3.87
302.379	3.86
302.835	3.85
303.291	3.84
303.746	3.83
304.202	3.82
304.658	3.81
305.113	3.8
305.569	3.8
306.024	3.8
306.479	3.79
306.935	3.78
307.39	3.78
307.845	3.77
308.301	3.76
308.756	3.77
309.211	3.76
309.666	3.76
310.121	3.75
310.576	3.73
311.031	3.72
311.486	3.71
311.94	3.7
312.395	3.7
312.85	3.69
313.305	3.68
313.759	3.67
314.214	3.66
314.668	3.66
315.123	3.66
315.577	3.66
316.032	3.66
316.486	3.65
316.94	3.64
317.394	3.63
317.849	3.63
318.303	3.63
318.757	3.61
319.211	3.6
319.665	3.58
320.119	3.57
320.572	3.57
321.026	3.56
321.48	3.55
321.934	3.54
322.387	3.53
322.841	3.52
323.295	3.5
323.748	3.5
324.202	3.5
324.655	3.49
325.108	3.47
325.562	3.45
326.015	3.43
326.468	3.42
326.921	3.41
327.374	3.41
327.827	3.4
328.28	3.4
328.733	3.38
329.186	3.38
329.639	3.38
330.092	3.38
330.545	3.39
330.997	3.39
331.45	3.38
331.903	3.37
332.355	3.35
332.808	3.36
333.26	3.36
333.713	3.36
334.165	3.35
334.617	3.34
335.069	3.33
335.522	3.34
335.974	3.34
336.426	3.34
336.878	3.34
337.33	3.34
337.782	3.34
338.234	3.34
338.686	3.33
339.137	3.34
339.589	3.33
340.041	3.33
340.493	3.31
340.944	3.31
341.396	3.3
341.847	3.3
342.299	3.29
342.75	3.27
343.201	3.24
343.653	3.23
344.104	3.22
344.555	3.22
345.006	3.2
345.457	3.2
345.908	3.19
346.359	3.19
346.81	3.18
347.261	3.17
347.712	3.16
348.163	3.16
348.613	3.15
349.064	3.14
349.515	3.12
349.965	3.12
350.416	3.11
350.866	3.1
351.317	3.09
351.767	3.08
352.217	3.07
352.668	3.07
353.118	3.07
353.568	3.07
354.018	3.07
354.468	3.07
354.918	3.07
355.368	3.06
355.818	3.06
356.268	3.06
356.718	3.07
357.168	3.06
357.617	3.05
358.067	3.04
358.517	3.04
358.966	3.04
359.416	3.04
359.865	3.04
360.315	3.04
360.764	3.04
361.213	3.03
361.663	3.03
362.112	3.04
362.561	3.04
363.01	3.04
363.459	3.04
363.908	3.03
364.357	3.04
364.806	3.03
365.255	3.04
365.703	3.03
366.152	3.03
366.601	3.02
367.05	3.02
367.498	3.02
367.947	3.02
368.395	3.03
368.844	3.03
369.292	3.03
369.74	3.04
370.189	3.03
370.637	3.03
371.085	3.04
371.533	3.04
371.981	3.03
372.429	3.02
372.877	3.02
373.325	3
373.773	3
374.221	2.99
374.669	2.99
375.116	2.98
375.564	2.98
376.012	2.98
376.459	2.98
376.907	3
377.354	3
377.801	3
378.249	3.02
378.696	3.03
379.143	3.04
379.591	3.04
380.038	3.06
380.485	3.07
380.932	3.08
381.379	3.09
381.826	3.09
382.273	3.11
382.72	3.13
383.166	3.14
383.613	3.14
384.06	3.15
384.506	3.16
384.953	3.16
385.4	3.17
385.846	3.17
386.292	3.2
386.739	3.2
387.185	3.23
387.631	3.25
388.078	3.27
388.524	3.28
388.97	3.31
389.416	3.32
389.862	3.35
390.308	3.37
390.754	3.41
391.2	3.43
391.645	3.47
392.091	3.48
392.537	3.51
392.983	3.54
393.428	3.58
393.874	3.61
394.319	3.65
394.765	3.68
395.21	3.7
395.655	3.73
396.101	3.76
396.546	3.79
396.991	3.82
397.436	3.83
397.881	3.86
398.326	3.9
398.771	3.93
399.216	3.96
399.661	4
400.106	4.05
400.551	4.09
400.995	4.12
401.44	4.13
401.885	4.17
402.329	4.21
402.774	4.23
403.218	4.26
403.663	4.29
404.107	4.33
404.551	4.36
404.995	4.39
405.44	4.41
405.884	4.43
406.328	4.47
406.772	4.5
407.216	4.54
407.66	4.58
408.104	4.61
408.547	4.63
408.991	4.65
409.435	4.67
409.879	4.69
410.322	4.73
410.766	4.77
411.209	4.8
411.653	4.82
412.096	4.84
412.54	4.86
412.983	4.88
413.426	4.92
413.869	4.94
414.312	4.99
414.756	5.04
415.199	5.06
415.642	5.1
416.085	5.13
416.527	5.17
416.97	5.21
417.413	5.22
417.856	5.23
418.298	5.24
418.741	5.25
419.184	5.25
419.626	5.24
420.069	5.24
420.511	5.25
420.953	5.25
421.396	5.26
421.838	5.28
422.28	5.31
422.722	5.33
423.164	5.35
423.606	5.38
424.048	5.39
424.49	5.43
424.932	5.45
425.374	5.45
425.816	5.45
426.258	5.44
426.699	5.41
427.141	5.4
427.582	5.39
428.024	5.39
428.465	5.4
428.907	5.43
429.348	5.43
429.789	5.43
430.231	5.43
430.672	5.45
431.113	5.47
431.554	5.5
431.995	5.51
432.436	5.54
432.877	5.51
433.318	5.51
433.759	5.51
434.2	5.51
434.64	5.52
435.081	5.53
435.522	5.53
435.962	5.56
436.403	5.57
436.843	5.58
437.284	5.58
437.724	5.64
438.164	5.63
438.604	5.65
439.045	5.65
439.485	5.66
439.925	5.67
440.365	5.68
440.805	5.68
441.245	5.67
441.685	5.69
442.125	5.7
442.564	5.71
443.004	5.75
443.444	5.78
443.883	5.82
444.323	5.82
444.762	5.86
445.202	5.92
445.641	5.96
446.081	6
446.52	6
446.959	6.03
447.398	6.07
447.837	6.11
448.276	6.11
448.716	6.12
449.154	6.16
449.593	6.19
450.032	6.21
450.471	6.23
450.91	6.24
451.349	6.29
451.787	6.3
452.226	6.3
452.664	6.28
453.103	6.29
453.541	6.32
453.98	6.32
454.418	6.31
454.856	6.27
455.295	6.27
455.733	6.25
456.171	6.23
456.609	6.22
457.047	6.22
457.485	6.22
457.923	6.2
458.361	6.16
458.798	6.16
459.236	6.14
459.674	6.14
460.111	6.14
460.549	6.13
460.987	6.12
461.424	6.11
461.862	6.09
462.299	6.09
462.736	6.08
463.173	6.1
463.611	6.1
464.048	6.1
464.485	6.1
464.922	6.08
465.359	6.1
465.796	6.09
466.233	6.1
466.67	6.11
467.106	6.11
467.543	6.13
467.98	6.12
468.416	6.12
468.853	6.13
469.29	6.14
469.726	6.16
470.162	6.15
470.599	6.17
471.035	6.18
471.471	6.19
471.907	6.21
472.344	6.21
472.78	6.22
473.216	6.21
473.652	6.21
474.088	6.22
474.523	6.21
474.959	6.21
475.395	6.21
475.831	6.23
476.266	6.23
476.702	6.22
477.138	6.22
477.573	6.21
478.008	6.21
478.444	6.21
478.879	6.2
479.314	6.2
479.75	6.22
480.185	6.22
480.62	6.19
481.055	6.19
481.49	6.17
481.925	6.18
482.36	6.17
482.795	6.16
483.229	6.16
483.664	6.16
484.099	6.16
484.534	6.16
484.968	6.16
485.403	6.16
485.837	6.17
486.271	6.19
486.706	6.19
487.14	6.21
487.574	6.23
488.009	6.26
488.443	6.26
488.877	6.27
489.311	6.29
489.745	6.31
490.179	6.34
490.613	6.36
491.046	6.4
491.48	6.44
491.914	6.47
492.348	6.51
492.781	6.54
493.215	6.58
493.648	6.64
494.082	6.69
494.515	6.75
494.948	6.81
495.382	6.86
495.815	6.92
496.248	6.99
496.681	7.06
497.114	7.12
497.547	7.19
497.98	7.27
498.413	7.35
498.846	7.44
499.279	7.54
499.711	7.62
500.144	7.73
500.577	7.85
501.009	7.95
501.442	8.07
501.874	8.19
502.306	8.32
502.739	8.45
503.171	8.59
503.603	8.73
504.036	8.88
504.468	9.04
504.9	9.2
505.332	9.36
505.764	9.54
506.196	9.71
506.627	9.9
507.059	10.08
507.491	10.29
507.923	10.5
508.354	10.71
508.786	10.92
509.217	11.14
509.649	11.37
510.08	11.59
510.512	11.81
510.943	12.07
511.374	12.3
511.805	12.55
512.237	12.81
512.668	13.07
513.099	13.34
513.53	13.6
513.961	13.87
514.391	14.14
514.822	14.44
515.253	14.73
515.684	15
516.114	15.31
516.545	15.61
516.975	15.91
517.406	16.21
517.836	16.51
518.267	16.82
518.697	17.13
519.127	17.43
519.558	17.71
519.988	18
520.418	18.29
520.848	18.58
521.278	18.85
521.708	18.98
522.138	19.22
522.567	19.47
522.997	19.72
523.427	19.96
523.857	20.21
524.286	20.45
524.716	20.68
525.145	20.92
525.575	21.12
526.004	21.32
526.433	21.66
526.863	21.88
527.292	22.09
527.721	22.27
528.15	22.45
528.579	22.62
529.008	22.78
529.437	22.93
529.866	23.07
530.295	23.22
530.724	23.38
531.152	23.51
531.581	23.64
532.01	23.75
532.438	23.87
532.867	23.98
533.295	24.09
533.723	24.21
534.152	24.31
534.58	24.4
535.008	24.44
535.436	24.49
535.865	24.55
536.293	24.62
536.721	24.66
537.149	24.69
537.576	24.73
538.004	24.74
538.432	24.76
538.86	24.81
539.287	24.84
539.715	24.91
540.143	24.95
540.57	24.99
540.998	25.02
541.425	25.06
541.852	25.09
542.28	25.11
542.707	25.16
543.134	25.21
543.561	25.22
543.988	25.23
544.415	25.26
544.842	25.29
545.269	25.34
545.696	25.35
546.123	25.38
546.549	25.42
546.976	25.47
547.403	25.49
547.829	25.51
548.256	25.53
548.682	25.57
549.108	25.61
549.535	25.62
549.961	25.63
550.387	25.65
550.813	25.66
551.24	25.67
551.666	25.7
552.092	25.69
552.518	25.69
552.943	25.69
553.369	25.69
553.795	25.66
554.221	25.63
554.646	25.6
555.072	25.59
555.498	25.57
555.923	25.54
556.349	25.44
556.774	25.41
557.199	25.37
557.625	25.31
558.05	25.2
558.475	25.15
558.9	25.09
559.325	25.01
559.75	24.92
560.175	24.84
560.6	24.75
561.025	24.69
561.449	24.59
561.874	24.48
562.299	24.38
562.723	24.29
563.148	24.16
563.572	24.05
563.997	23.9
564.421	23.77
564.846	23.63
565.27	23.48
565.694	23.33
566.118	23.17
566.542	23.03
566.966	22.87
567.39	22.7
567.814	22.54
568.238	22.36
568.662	22.22
569.086	22.04
569.509	21.87
569.933	21.7
570.357	21.52
570.78	21.36
571.204	21.19
571.627	21.03
572.05	20.89
572.474	20.75
572.897	20.62
573.32	20.45
573.743	20.32
574.166	20.17
574.589	20.05
575.012	19.93
575.435	19.8
575.858	19.69
576.281	19.58
576.704	19.48
577.126	19.35
577.549	19.25
577.972	19.17
578.394	19.08
578.817	18.99
579.239	18.92
579.661	18.83
580.084	18.75
580.506	18.67
580.928	18.59
581.35	18.5
581.772	18.44
582.194	18.36
582.616	18.3
583.038	18.23
583.46	18.17
583.882	18.07
584.303	18
584.725	17.95
585.147	17.86
585.568	17.77
585.99	17.72
586.411	17.66
586.833	17.6
587.254	17.55
587.675	17.5
588.096	17.45
588.518	17.42
588.939	17.37
589.36	17.3
589.781	17.28
590.202	17.24
590.623	17.19
591.043	17.15
591.464	17.1
591.885	17.05
592.305	17.01
592.726	16.96
593.147	16.94
593.567	16.9
593.987	16.9
594.408	16.86
594.828	16.84
595.248	16.8
595.669	16.78
596.089	16.75
596.509	16.71
596.929	16.67
597.349	16.64
597.769	16.61
598.189	16.58
598.608	16.52
599.028	16.49
599.448	16.46
599.867	16.44
600.287	16.39
600.706	16.35
601.126	16.29
601.545	16.24
601.965	16.18
602.384	16.13
602.803	16.07
603.222	16.01
603.641	15.94
604.061	15.87
604.48	15.79
604.898	15.73
605.317	15.65
605.736	15.58
606.155	15.51
606.574	15.43
606.992	15.33
607.411	15.25
607.829	15.14
608.248	15.06
608.666	14.99
609.085	14.9
609.503	14.81
609.921	14.74
610.339	14.66
610.758	14.57
611.176	14.49
611.594	14.41
612.012	14.34
612.43	14.3
612.847	14.21
613.265	14.14
613.683	14.04
614.101	13.96
614.518	13.88
614.936	13.81
615.353	13.73
615.771	13.66
616.188	13.6
616.606	13.53
617.023	13.46
617.44	13.4
617.857	13.32
618.274	13.28
618.691	13.24
619.108	13.18
619.525	13.12
619.942	13.1
620.359	13.06
620.776	13.02
621.192	12.98
621.609	12.95
622.026	12.92
622.442	12.89
622.859	12.86
623.275	12.83
623.691	12.81
624.108	12.79
624.524	12.74
624.94	12.72
625.356	12.71
625.772	12.7
626.188	12.69
626.604	12.67
627.02	12.67
627.436	12.66
627.852	12.64
628.268	12.63
628.683	12.62
629.099	12.62
629.514	12.6
629.93	12.58
630.345	12.54
630.761	12.5
631.176	12.48
631.591	12.44
632.007	12.4
632.422	12.36
632.837	12.31
633.252	12.27
633.667	12.21
634.082	12.14
634.497	12.06
634.911	12
635.326	11.92
635.741	11.83
636.155	11.74
636.57	11.65
636.984	11.55
637.399	11.45
637.813	11.34
638.228	11.24
638.642	11.15
639.056	11.05
639.47	10.94
639.884	10.84
640.298	10.74
640.712	10.63
641.126	10.52
641.54	10.42
641.954	10.32
642.368	10.21
642.781	10.09
643.195	9.96
643.609	9.85
644.022	9.74
644.436	9.63
644.849	9.54
645.262	9.46
645.676	9.36
646.089	9.27
646.502	9.18
646.915	9.1
647.328	9.04
647.741	8.98
648.154	8.93
648.567	8.88
648.98	8.82
649.393	8.77
649.805	8.7
650.218	8.65
650.631	8.6
651.043	8.55
651.456	8.5
651.868	8.44
652.28	8.4
652.693	8.33
653.105	8.28
653.517	8.23
653.929	8.18
654.341	8.13
654.753	8.05
655.165	7.99
655.577	7.92
655.989	7.83
656.401	7.74
656.813	7.65
657.224	7.58
657.636	7.49
658.047	7.4
658.459	7.28
658.87	7.19
659.282	7.11
659.693	7.02
660.104	6.94
660.515	6.86
660.926	6.79
661.338	6.72
661.749	6.63
662.159	6.55
662.57	6.47
662.981	6.41
663.392	6.33
663.803	6.26
664.213	6.2
664.624	6.14
665.035	6.08
665.445	6.03
665.855	5.97
666.266	5.93
666.676	5.89
667.086	5.85
667.497	5.82
667.907	5.79
668.317	5.75
668.727	5.73
669.137	5.7
669.547	5.69
669.956	5.67
670.366	5.66
670.776	5.65
671.186	5.66
671.595	5.66
672.005	5.67
672.414	5.67
672.824	5.68
673.233	5.69
673.642	5.69
674.052	5.7
674.461	5.72
674.87	5.73
675.279	5.73
675.688	5.75
676.097	5.77
676.506	5.79
676.915	5.81
677.323	5.84
677.732	5.88
678.141	5.94
678.549	5.98
678.958	6.03
679.366	6.09
679.775	6.16
680.183	6.22
680.592	6.29
681	6.35
681.408	6.45
681.816	6.55
682.224	6.66
682.632	6.77
683.04	6.91
683.448	7.04
683.856	7.19
684.264	7.36
684.671	7.56
685.079	7.77
685.487	8.02
685.894	8.28
686.302	8.55
686.709	8.84
687.116	9.16
687.524	9.49
687.931	9.84
688.338	10.24
688.745	10.65
689.152	11.08
689.559	11.54
689.966	12
690.373	12.47
690.78	12.97
691.187	13.49
691.593	14.01
692	14.55
692.407	15.1
692.813	15.66
693.22	16.23
693.626	16.81
694.032	17.39
694.439	17.98
694.845	18.57
695.251	19.16
695.657	19.72
696.063	20.32
696.469	20.91
696.875	21.48
697.281	22.04
697.687	22.6
698.093	23.16
698.498	23.71
698.904	24.26
699.31	24.78
699.715	25.31
700.12	25.82
700.526	26.34
700.931	26.86
701.337	27.36
701.742	27.83
702.147	28.33
702.552	28.8
702.957	29.26
703.362	29.7
703.767	30.16
704.172	30.62
704.577	31.06
704.981	31.48
705.386	31.89
705.791	32.32
706.195	32.71
706.6	33.09
707.004	33.49
707.408	33.87
707.813	34.26
708.217	34.62
708.621	34.96
709.025	35.31
709.43	35.66
709.834	36.01
710.237	36.32
710.641	36.68
711.045	37.02
711.449	37.33
711.853	37.66
712.256	37.98
712.66	38.31
713.064	38.61
713.467	38.92
713.87	39.21
714.274	39.49
714.677	39.79
715.08	40.04
715.484	40.32
715.887	40.61
716.29	40.86
716.693	41.09
717.096	41.33
717.499	41.58
717.901	41.8
718.304	42.03
718.707	42.26
719.109	42.48
719.512	42.75
719.915	42.97
720.317	43.18
720.719	43.37
721.122	43.59
721.524	43.79
721.926	44.01
722.328	44.2
722.731	44.38
723.133	44.57
723.535	44.76
723.937	44.93
724.338	45.05
724.74	45.19
725.142	45.35
725.544	45.51
725.945	45.65
726.347	45.78
726.748	45.9
727.15	46.05
727.551	46.19
727.952	46.33
728.354	46.45
728.755	46.6
729.156	46.73
729.557	46.86
729.958	46.95
730.359	47.06
730.76	47.15
731.161	47.28
731.562	47.36
731.962	47.46
732.363	47.52
732.763	47.61
733.164	47.66
733.564	47.71
733.965	47.77
734.365	47.83
734.766	47.87
735.166	47.92
735.566	47.93
735.966	47.95
736.366	47.97
736.766	48.01
737.166	48.05
737.566	48.1
737.966	48.14
738.365	48.21
738.765	48.25
739.165	48.27
739.564	48.34
739.964	48.4
740.363	48.47
740.763	48.49
741.162	48.53
741.561	48.57
741.96	48.65
742.36	48.69
742.759	48.7
743.158	48.73
743.557	48.79
743.955	48.82
744.354	48.89
744.753	48.92
745.152	48.95
745.55	48.99
745.949	49.03
746.348	49.04
746.746	49.06
747.144	49.12
747.543	49.16
747.941	49.22
748.339	49.28
748.737	49.29
749.136	49.33
749.534	49.37
749.932	49.39
750.33	49.41
750.727	49.42
751.125	49.43
751.523	49.4
751.921	49.43
752.318	49.4
752.716	49.33
753.113	49.33
753.511	49.25
753.908	49.22
754.305	49.2
754.703	49.15
755.1	49.14
755.497	49.13
755.894	49.13
756.291	49.07
756.688	49.05
757.085	49.04
757.482	49
757.878	49.05
758.275	49.04
758.672	49.02
759.068	49.05
759.465	49.01
759.861	48.99
760.258	48.97
760.654	48.96
761.05	48.97
761.447	48.97
761.843	48.97
762.239	48.94
762.635	48.95
763.031	48.96
763.427	48.92
763.822	48.91
764.218	48.9
764.614	48.91
765.01	48.92
765.405	48.88
765.801	48.87
766.196	48.87
766.592	48.88
766.987	48.88
767.382	48.87
767.778	48.9
768.173	48.92
768.568	48.91
768.963	48.93
769.358	48.96
769.753	49.01
770.148	49.02
770.542	49.01
770.937	49.01
771.332	49.04
771.726	49.03
772.121	49.01
772.515	49.02
772.91	49.03
773.304	49.01
773.699	49
774.093	48.96
774.487	48.96
774.881	48.95
775.275	48.93
775.669	48.92
776.063	48.9
776.457	48.88
776.851	48.83
777.245	48.86
777.638	48.87
778.032	48.86
778.425	48.87
778.819	48.9
779.212	48.94
779.606	48.95
779.999	48.95
780.392	48.97
780.786	48.98
781.179	49.05
781.572	49.06
781.965	49.07
782.358	49.06
782.751	49.05
783.143	49.02
783.536	49.04
783.929	49.05
784.322	49.07
784.714	49.09
785.107	49.12
785.499	49.09
785.891	49.1
786.284	49.12
786.676	49.18
787.068	49.19
787.46	49.17
787.852	49.16
788.245	49.15
788.636	49.16
789.028	49.17
789.42	49.14
789.812	49.18
790.204	49.13
790.595	49.13
790.987	49.11
791.378	49.12
791.77	49.18
792.161	49.2
792.553	49.21
792.944	49.24
793.335	49.24
793.726	49.26
794.117	49.26
794.508	49.31
794.899	49.31
795.29	49.31
795.681	49.29
796.072	49.27
796.463	49.25
796.853	49.28
797.244	49.27
797.634	49.24
798.025	49.27
798.415	49.26
798.806	49.29
799.196	49.32
799.586	49.33
799.976	49.38
800.366	49.37
800.756	49.41
801.146	49.39
801.536	49.42
801.926	49.45
802.316	49.46
802.706	49.49
803.095	49.48
803.485	49.5
803.874	49.53
804.264	49.57
804.653	49.59
805.043	49.6
805.432	49.61
805.821	49.6
806.21	49.67
806.599	49.71
806.988	49.74
807.377	49.76
807.766	49.78
808.155	49.79
808.544	49.78
808.933	49.78
809.321	49.85
809.71	49.88
810.098	49.85
810.487	49.85
810.875	49.84
811.264	49.83
811.652	49.82
812.04	49.82
812.428	49.82
812.816	49.79
813.204	49.84
813.592	49.81
813.98	49.8
814.368	49.85
814.756	49.86
815.144	49.9
815.531	49.92
815.919	49.94
816.306	49.94
816.694	49.95
817.081	49.98
817.469	50
817.856	50.02
818.243	50.04
818.63	50.07
819.017	50.09
819.404	50.06
819.791	50.06
820.178	50.07
820.565	50.1
820.952	50.11
821.339	50.12
821.725	50.1
822.112	50.12
822.498	50.12
822.885	50.12
823.271	50.11
823.657	50.12
824.044	50.12
824.43	50.11
824.816	50.09
825.202	50.07
825.588	50.09
825.974	50.13
826.36	50.06
826.746	50.1
827.132	50.07
827.517	50.05
827.903	50.06
828.289	50.06
828.674	50.05
829.06	50.07
829.445	50.1
829.83	50.08
830.216	50.05
830.601	50.09
830.986	50.09
831.371	50.1
831.756	50.08
832.141	50.05
832.526	50.04
832.911	50.06
833.295	50.06
833.68	50.05
834.065	50.05
834.449	50.03
834.834	49.99
835.218	49.92
835.603	49.89
835.987	49.9
836.371	49.91
836.755	49.9
837.139	49.85
837.524	49.8
837.908	49.75
838.291	49.71
838.675	49.69
839.059	49.7
839.443	49.74
839.827	49.72
840.21	49.71
840.594	49.7
840.977	49.68
841.361	49.69
841.744	49.71
842.127	49.72
842.511	49.72
842.894	49.71
843.277	49.72
843.66	49.71
844.043	49.69
844.426	49.69
844.809	49.67
845.191	49.66
845.574	49.64
845.957	49.63
846.339	49.63
846.722	49.63
847.104	49.63
847.487	49.6
847.869	49.57
848.252	49.58
848.634	49.59
849.016	49.61
849.398	49.61
849.78	49.6
850.162	49.61
850.544	49.6
850.926	49.61
851.307	49.64
851.689	49.63
852.071	49.62
852.452	49.64
852.834	49.63
853.215	49.63
853.597	49.65
853.978	49.65
854.359	49.64
854.741	49.64
855.122	49.66
855.503	49.65
855.884	49.65
856.265	49.67
856.646	49.65
857.026	49.64
857.407	49.6
857.788	49.62
858.169	49.63
858.549	49.64
858.93	49.62
859.31	49.59
859.69	49.56
860.071	49.58
860.451	49.58
860.831	49.59
861.211	49.58
861.591	49.61
861.971	49.59
862.351	49.62
862.731	49.62
863.111	49.63
863.491	49.65
863.87	49.66
864.25	49.67
864.629	49.65
865.009	49.65
865.388	49.65
865.768	49.65
866.147	49.65
866.526	49.62
866.905	49.6
867.284	49.62
867.663	49.59
868.042	49.61
868.421	49.59
868.8	49.58
869.179	49.57
869.558	49.59
869.936	49.6
870.315	49.61
870.693	49.58
871.072	49.57
871.45	49.53
871.828	49.56
872.207	49.54
872.585	49.52
872.963	49.52
873.341	49.53
873.719	49.52
874.097	49.51
874.475	49.49
874.853	49.48
875.23	49.5
875.608	49.51
875.986	49.49
876.363	49.5
876.741	49.52
877.118	49.53
877.495	49.53
877.873	49.53
878.25	49.51
878.627	49.52
879.004	49.54
879.381	49.55
879.758	49.52
880.135	49.52
880.512	49.53
880.889	49.52
881.265	49.52
881.642	49.53
882.019	49.5
882.395	49.5
882.772	49.5
883.148	49.49
883.524	49.48
883.901	49.49
884.277	49.48
884.653	49.49
885.029	49.48
885.405	49.46
885.781	49.43
886.157	49.44
886.532	49.44
886.908	49.45
887.284	49.47
887.659	49.46
888.035	49.44
888.411	49.45
888.786	49.43
889.161	49.44
889.537	49.43
889.912	49.43
890.287	49.42
890.662	49.4
891.037	49.33
891.412	49.29
891.787	49.25
892.162	49.24
892.536	49.23
892.911	49.19
893.286	49.15
893.66	49.13
894.035	49.11
894.409	49.1
894.784	49.09
895.158	49.1
895.532	49.09
895.906	49.09
896.281	49.08
896.655	49.04
897.029	49.04
897.402	49.05
897.776	49.04
898.15	49.04
898.524	49.03
898.898	48.97
899.271	48.96
899.645	48.96
900.018	48.95
900.392	48.94
900.765	48.94
901.138	48.93
901.511	48.92
901.884	48.91
902.258	48.9
902.631	48.89
903.003	48.94
903.376	48.94
903.749	48.93
904.122	48.91
904.495	48.91
904.867	48.9
905.24	48.93
905.612	48.9
905.985	48.9
906.357	48.9
906.729	48.88
907.102	48.86
907.474	48.86
907.846	48.86
908.218	48.87
908.59	48.87
908.962	48.9
909.334	48.89
909.705	48.91
910.077	48.89
910.449	48.93
910.82	48.94
911.192	48.93
911.563	48.91
911.935	48.88
912.306	48.91
912.677	48.95
913.048	48.92
913.419	48.92
913.79	48.91
914.161	48.92
914.532	48.89
914.903	48.89
915.274	48.89
915.645	48.93
916.015	48.98
916.386	48.96
916.756	48.9
917.127	48.9
917.497	48.91
917.868	48.91
918.238	48.94
918.608	48.96
918.978	48.97
919.348	48.96
919.718	48.95
920.088	48.95
920.458	48.97
920.828	49
921.198	49.02
921.567	49.01
921.937	49
922.306	48.96
922.676	48.93
923.045	48.95
923.415	48.98
923.784	48.96
924.153	48.91
924.522	48.9
924.891	48.89
925.26	48.88
925.629	48.89
925.998	48.89
926.367	48.93
926.736	48.91
927.104	48.89
927.473	48.86
927.842	48.85
928.21	48.86
928.578	48.83
928.947	48.8
929.315	48.76
929.683	48.76
930.051	48.76
930.42	48.69
930.788	48.68
931.156	48.66
931.523	48.67
931.891	48.61
932.259	48.55
932.627	48.45
932.994	48.41
933.362	48.36
933.729	48.22
934.097	48.13
934.464	48.06
934.831	47.96
935.199	47.88
935.566	47.77
935.933	47.76
936.3	47.7
936.667	47.67
937.034	47.65
937.401	47.6
937.767	47.64
938.134	47.58
938.501	47.59
938.867	47.66
939.234	47.77
939.6	47.77
939.967	47.79
940.333	47.91
940.699	48.08
941.065	48.18
941.431	48.23
941.798	48.31
942.163	48.48
942.529	48.59
942.895	48.58
943.261	48.57
943.627	48.66
943.992	48.72
944.358	48.72
944.723	48.69
945.089	48.74
945.454	48.84
945.82	48.87
946.185	48.94
946.55	49.05
946.915	49.14
947.28	49.21
947.645	49.22
948.01	49.22
948.375	49.28
948.74	49.27
949.104	49.29
949.469	49.25
949.834	49.22
950.198	49.11
950.562	48.96
950.927	48.98
951.291	48.9
951.655	48.9
952.02	48.83
952.384	48.9
952.748	48.85
953.112	48.76
953.476	48.73
953.839	48.66
954.203	48.65
954.567	48.64
954.931	48.53
955.294	48.51
955.658	48.44
956.021	48.43
956.385	48.31
956.748	48.29
957.111	48.23
957.474	48.22
957.837	48.21
958.2	48.13
958.563	48.11
958.926	48.03
959.289	48.04
959.652	48.09
960.015	48.02
960.377	47.96
960.74	47.84
961.102	47.81
961.465	47.8
961.827	47.76
962.189	47.74
962.552	47.7
962.914	47.75
963.276	47.71
963.638	47.65
964	47.66
964.362	47.69
964.724	47.8
965.085	47.83
965.447	47.74
965.809	47.73
966.17	47.76
966.532	47.83
966.893	47.83
967.255	47.79
967.616	47.8
967.977	47.82
968.338	47.78
968.699	47.74
969.061	47.72
969.421	47.72
969.782	47.72
970.143	47.79
970.504	47.67
970.865	47.62
971.225	47.62
971.586	47.65
971.946	47.6
972.307	47.62
972.667	47.66
973.027	47.7
973.388	47.74
973.748	47.73
974.108	47.69
974.468	47.76
974.828	47.77
975.188	47.71
975.548	47.64
975.907	47.65
976.267	47.64
976.627	47.55
976.986	47.46
977.346	47.47
977.705	47.48
978.064	47.47
978.424	47.44
978.783	47.49
979.142	47.5
979.501	47.52
979.86	47.54
980.219	47.45
980.578	47.45
980.937	47.58
981.296	47.54
981.654	47.59
982.013	47.56
982.371	47.53
982.73	47.48
983.088	47.47
983.447	47.5
983.805	47.44
984.163	47.59
984.521	47.61
984.879	47.51
985.237	47.58
985.595	47.5
985.953	47.45
986.311	47.54
986.669	47.51
987.026	47.57
987.384	47.51
987.741	47.63
988.099	47.54
988.456	47.55
988.814	47.63
989.171	47.57
989.528	47.57
989.885	47.55
990.242	47.5
990.599	47.6
990.956	47.65
991.313	47.72
991.67	47.61
992.027	47.53
992.383	47.52
992.74	47.39
993.096	47.42
993.453	47.42
993.809	47.55
994.165	47.54
994.522	47.51
994.878	47.44
995.234	47.25
995.59	47.28
995.946	47.46
996.302	47.38
996.658	47.46
997.013	47.47
997.369	47.46
997.725	47.5
998.08	47.45
998.436	47.53
998.791	47.49
999.147	47.54
999.502	47.54
999.857	47.47
1000.212	47.53
1000.567	47.48
1000.922	47.46
1001.277	47.46
1001.632	47.44
1001.987	47.47
1002.342	47.26
1002.696	47.3
1003.051	47.3
1003.406	47.32
1003.76	47.24
1004.114	47.39
1004.469	47.42
1004.823	47.4
1005.177	47.5
1005.531	47.33
1005.885	47.43
1006.239	47.56
1006.593	47.49
1006.947	47.49
1007.301	47.51
1007.655	47.68
1008.008	47.5
1008.362	47.48
1008.715	47.47
1009.069	47.17
1009.422	47.2
1009.776	47.08
1010.129	46.84
1010.482	47.11
1010.835	47.24
1011.188	47.01
1011.541	46.71
1011.894	46.77
1012.247	46.84
1012.6	46.78
1012.952	46.97
1013.305	47.03
1013.657	47.11
1014.01	47.45
1014.362	47.3
1014.715	47.31
1015.067	47.6
1015.419	47.72
1015.771	47.86
1016.123	47.77
1016.475	47.96
1016.827	48
1017.179	47.99
1017.531	48.13
1017.883	48.12
1018.234	48.19
1018.586	48.09
1018.938	47.92
1019.289	47.65
1019.64	47.75
1019.992	47.92
1020.343	47.7
1020.694	47.51
1021.045	47.36
1021.396	46.96
1021.747	47.04
1022.098	47.04
1022.449	47.19
1022.8	47.37
1023.151	47.75
1023.501	47.35
1023.852	47.34
1024.202	47.44
1024.553	47.36
1024.903	47.75
1025.253	47.99
1025.604	47.78
1025.954	47.58
1026.304	47.84
1026.654	48.12
1027.004	48.36
1027.354	48.26
1027.703	47.92
1028.053	48.03
1028.403	48.33
1028.753	47.84
1029.102	47.75
1029.452	47.69
1029.801	47.67
1030.15	47.28
1030.499	46.77
897.758	691.24
901.051	713.26
904.343	712.56
907.636	704.91
910.928	696.97
914.22	704.4
917.511	689.57
920.803	658.67
924.094	635.59
927.384	642.34
930.675	620.7
933.965	614.04
937.255	605.35
940.544	583.05
943.834	554.73
947.123	542.24
950.411	516.44
953.7	507.79
956.988	492.06
960.276	466.09
963.563	462.57
966.851	434.56
970.138	428.26
973.424	399.53
976.711	391.22
979.997	376.77
983.283	369.2
986.568	356.27
989.853	346.2
993.138	334.44
996.423	328.64
999.708	317.49
1002.992	321.66
1006.275	306.77
1009.559	304.68
1012.842	297.22
1016.125	288.55
1019.408	282.71
1022.69	278.5
1025.972	275.64
1029.254	268.6
1032.536	263.31
1035.817	256.38
1039.098	249.84
1042.379	246.71
1045.659	242.58
1048.939	240.32
1052.219	234.33
1055.498	230.1
1058.778	227.45
1062.057	222.19
1065.335	220.41
1068.614	217.11
1071.892	213.15
1075.17	209.74
1078.447	206.64
1081.724	206
1085.001	199.99
1088.278	201.02
1091.554	199.95
1094.83	198.27
1098.106	195.48
1101.382	194.24
1104.657	193.38
1107.932	192.58
1111.206	190.59
1114.481	189.6
1117.755	187.4
1121.029	188.58
1124.302	185.42
1127.575	181.29
1130.848	180.55
1134.121	178.93
1137.393	177.85
1140.665	177.21
1143.937	175.1
1147.208	173.99
1150.48	171.55
1153.75	170.43
1157.021	168.5
1160.291	167.57
1163.561	167.82
1166.831	166.1
1170.101	165.44
1173.37	164.58
1176.639	162.38
1179.907	163.08
1183.176	162.35
1186.444	162.69
1189.711	160.78
1192.979	162.44
1196.246	162.66
1199.513	162.02
1202.78	162.01
1206.046	162.47
1209.312	163.17
1212.578	164.52
1215.843	165.67
1219.108	167.06
1222.373	170
1225.638	173.61
1228.902	176.48
1232.166	182.68
1235.43	186.35
1238.693	192.32
1241.956	196.36
1245.219	201.28
1248.482	203.24
1251.744	203.03
1255.006	203.31
1258.268	197.67
1261.529	196.4
1264.79	190.79
1268.051	186.92
1271.312	184.54
1274.572	180.5
1277.832	174.9
1281.092	172.94
1284.351	168.67
1287.61	168.64
1290.869	167.73
1294.128	167.24
1297.386	166.1
1300.644	165.19
1303.902	164.09
1307.159	162.78
1310.416	163.56
1313.673	166.81
1316.93	168.06
1320.186	171.48
1323.442	173.36
1326.697	176.45
1329.953	178.84
1333.208	185.22
1336.463	194.06
1339.717	197.63
1342.972	209.04
1346.226	214.48
1349.479	216.25
1352.733	226.16
1355.986	231.53
1359.238	236.6
1362.491	239.62
1365.743	249
1368.995	248.91
1372.247	250.2
1375.498	249.25
1378.749	257.67
1382	257.64
1385.251	257.24
1388.501	256.36
1391.751	258.85
1395	256.82
1398.25	259.97
1401.499	258.34
1404.748	260.4
1407.996	252.78
1411.244	253.47
1414.492	248.03
1417.74	242.89
1420.987	237.21
1424.234	233.03
1427.481	223.56
1430.728	219.47
1433.974	211.42
1437.22	203.94
1440.465	196.83
1443.711	191.23
1446.956	185.9
1450.201	179.44
1453.445	170.75
1456.689	165.52
1459.933	159.99
1463.177	153.89
1466.42	150.67
1469.663	146.53
1472.906	142.91
1476.148	138.9
1479.391	135.27
1482.633	132.29
1485.874	129.5
1489.115	128.71
1492.356	126.46
1495.597	124.19
1498.838	123.47
1502.078	121.69
1505.318	120.61
1508.557	119.86
1511.797	118.55
1515.036	118.68
1518.274	117.58
1521.513	115.8
1524.751	115.05
1527.989	115.84
1531.227	115.85
1534.464	115.2
1537.701	114.14
1540.938	113.46
1544.174	113.6
1547.41	113.11
1550.646	112.37
1553.882	113.09
1557.117	112.85
1560.352	112.53
1563.587	111.05
1566.821	110.75
1570.055	109.79
1573.289	109.98
1576.523	109.93
1579.756	109.11
1582.989	109.53
1586.222	109
1589.454	109.2
1592.686	108.84
1595.918	108.51
1599.15	108.57
1602.381	108.61
1605.612	109.08
1608.843	108.87
1612.073	109.05
1615.303	108.93
1618.533	108.23
1621.762	108.76
1624.992	107.99
1628.221	107.87
1631.449	108.39
1634.678	108.25
1637.906	108.25
1641.134	108.57
1644.361	108.25
1647.588	108.62
1650.815	108.88
1654.042	109.32
1657.269	109.08
1660.495	109.6
1663.72	109.69
1666.946	109.81
1670.171	110.54
1673.396	110.64
1676.621	110.3
1679.845	110.72
1683.069	111.11
1686.293	110.85
1689.517	111.17
1692.74	111.6
1695.963	111.44
1699.185	112.25
1702.408	112.27
1705.63	112.3
1708.852	113.21
1712.073	113.41
1715.294	113.43
1718.515	113.84
1721.736	114.43
1724.956	113.95
1728.176	113.76
1731.396	114.73
1734.616	114.39
1737.835	114.79
1741.054	115
1744.272	115.04
1747.491	115
1750.709	116.32
1753.927	115.98
1757.144	116.23
1760.361	117.16
1763.578	117.9
1766.795	118.05
1770.011	118.26
1773.227	118.37
1776.443	119.66
1779.658	119.64
1782.874	120.6
1786.089	119.9
1789.303	120.49
1792.518	121.85
1795.732	122.66
1798.945	123.51
1802.159	123.76
1805.372	125.79
1808.585	126.98
1811.797	127.08
1815.01	128.6
1818.222	129.96
1821.434	131.09
1824.645	132.12
1827.856	134.11
1831.067	134.75
1834.278	136.32
1837.488	137.56
1840.698	139.05
1843.908	139.12
1847.117	141.61
1850.326	142.42
1853.535	141.93
1856.744	144.19
1859.952	145.81
1863.16	145.51
1866.368	145.55
1869.575	146.56
1872.782	146.92
1875.989	145.3
1879.196	145.98
1882.402	144.33
1885.608	144.56
1888.814	146.16
1892.019	147.1
1895.224	144.65
1898.429	145.19
1901.634	145.62
1904.838	146.58
1908.042	147.72
1911.246	147.47
1914.449	147.6
1917.652	147.1
1920.855	147.71
1924.058	146.95
1927.26	146.31
1930.462	147.72
1933.664	146.68
1936.865	147.97
1940.066	145.07
1943.267	144.37
1946.467	145.79
1949.668	146.46
1952.868	147.55
1956.067	146.88
1959.267	146.94
1962.466	147.31
1965.665	148.7
1968.863	149.85
1972.061	151.6
1975.259	154.64
1978.457	155.99
1981.654	157.38
1984.852	158.6
1988.048	160.71
1991.245	163.27
1994.441	167.08
1997.637	170.9
2000.833	172.67
2004.028	175.64
2007.223	179.29
2010.418	182.98
2013.613	188.99
2016.807	194.58
2020.001	198.65
2023.194	203.37
2026.388	210.76
2029.581	221.06
2032.774	226.41
2035.966	234.09
2039.158	240.09
2042.35	245.11
2045.542	251.32
2048.733	261.96
2051.924	264.4
2055.115	268.53
2058.306	272.54
2061.496	277.57
2064.686	275.95
2067.875	275.28
2071.065	277.41
2074.254	277.62
2077.442	284.59
2080.631	287.65
2083.819	288.03
2087.007	293.6
2090.195	297.82
2093.382	299.39
2096.569	299.21
2099.756	304.35
2102.942	311.06
2106.128	318.08
2109.314	321.03
2112.5	320.87
2115.685	317.48
2118.87	318.72
2122.055	320.21
2125.239	325.41
2128.424	332.89
2131.608	330.09
2134.791	331.39
2137.974	331.19
2141.157	334.82
2144.34	338.14
2147.523	343.99
2150.705	352.5
2153.887	349.66
2157.068	353.5
2160.25	354.33
2163.431	352.65
2166.611	361.7
2169.792	367.83
2172.972	374.54
2176.152	373.47
2179.331	381.07
2182.511	382.21
2185.69	386.29
2188.868	400.93
2192.047	412.13
2195.225	420.97
2198.403	425.93
2201.58	419.33
2204.758	434.67
2207.935	438
2211.111	449.22
2214.288	449.98
2217.464	454.4
2220.64	455.38
2223.815	459.06
2226.991	448.51
2230.166	454.19
2233.34	465.5
2236.515	484.64
2239.689	476.06
2242.863	481.4
2246.036	475.45
2249.209	490.78
2252.382	491.55
2255.555	510.8
2258.727	512.3
2261.9	529.74
2265.071	536.56
2268.243	532.72
2271.414	543.42
2274.585	555.34
2277.756	556.8
2280.926	583.88
2284.096	580.33
2287.266	581.71
2290.436	570.99
2293.605	583.74
2296.774	607.39
2299.942	604.2
2303.111	622.02
2306.279	632.86
2309.447	636.87
2312.614	641.47
2315.781	653.75
2318.948	661.06
2322.115	674.16
2325.281	715.13
2328.447	708.56
2331.613	707.43
2334.779	720.95
2337.944	733.05
2341.109	746.43
2344.274	754.44
2347.438	774.79
2350.602	782.04
2353.766	830.7
2356.929	833.2
2360.092	838.34
2363.255	844.95
2366.418	859.61
2369.58	877.45
2372.742	877.16
2375.904	873.86
2379.066	898.39
2382.227	946.65
2385.388	951.06
2388.548	901.67
2391.709	895.57
2394.869	927.53
2398.029	927.75
2401.188	923.03
2404.347	956.56
2407.506	991.23
2410.665	950.94
2413.823	957.1
2416.981	958.41
2420.139	907.88
2423.296	983.87
2426.453	1048.72
2429.61	991.47
2432.767	1062.62
2435.923	1097
2439.079	1052.82
2442.235	1078.05
2445.391	1110.19
2448.546	1096.05
2451.701	1162.08
2454.855	1242.04
2458.009	1103.11
2461.163	1107.31
2464.317	1124.89
2467.471	1096.93
2470.624	1145.83
2473.777	1129.52
2476.929	1083.58
2480.082	1167.24
2483.234	1226.34
2486.385	1242.68
2489.537	1268.85
2492.688	1394.77
2495.839	1379.71
2498.989	1422.92
2502.14	1438.23
2505.29	1365.61
2508.439	1505.7
2511.589	1557.34
2514.738	1487.34
2517.887	1476.51
2521.035	1370.37
2524.183	1362.53
2527.331	1349.6
2530.479	1322.98
2533.627	1352.26
