Data from C_1_HIR_WI_4N_Splice17_11-42-01-316.txt Node
Date: Sat Mar 14 11:42:01 EDT 2020
User: sa697716
Spectrometer: FLMS03696
Trigger mode: 0
Integration Time (sec): 3.180400E-1
Scans to average: 20
Electric dark correction enabled: true
Nonlinearity correction enabled: true
Boxcar width: 5
XAxis mode: Wavelengths
Number of Pixels in Spectrum: 2048
>>>>>Begin Spectral Data<<<<<
187.83	-225902.74
188.298	1655.98
188.766	902.49
189.233	814.9
189.701	1094.34
190.169	1508.11
190.636	506.94
191.104	355.96
191.571	22.54
192.039	-80.57
192.506	-100.26
192.974	175.47
193.441	-333.3
193.908	62.74
194.375	22.66
194.842	-19.6
195.31	29.07
195.777	72.4
196.244	153.95
196.711	74.74
197.177	73.05
197.644	27.8
198.111	-4.82
198.578	5.21
199.045	-20.9
199.511	-45.76
199.978	-93.84
200.445	-55.57
200.911	-97.05
201.378	-208.87
201.844	-118.72
202.31	-261.77
202.777	-267.44
203.243	-129.36
203.709	-131.88
204.176	-137.78
204.642	-113.84
205.108	-87.33
205.574	-87.16
206.04	-95.74
206.506	-68.63
206.972	-111.05
207.438	-102.06
207.903	-127.12
208.369	-69.18
208.835	-55.06
209.301	-75.07
209.766	-100.34
210.232	-102.44
210.697	-130.28
211.163	-174.27
211.628	-286.01
212.094	-193.54
212.559	-160.19
213.024	-90.35
213.49	-142.02
213.955	-140.34
214.42	-144.31
214.885	-97.82
215.35	-64.18
215.815	16.54
216.28	38.94
216.745	25.03
217.21	47.25
217.675	0.84
218.14	10.26
218.604	-17.24
219.069	-16.86
219.534	25.88
219.998	6.34
220.463	-17.01
220.927	-107.57
221.392	-102.28
221.856	-84.41
222.32	-172.44
222.785	-168.02
223.249	-217.94
223.713	-213.16
224.177	-213.81
224.642	-353.96
225.106	-457.36
225.57	-477.72
226.034	-291.15
226.497	-430.39
226.961	-322.49
227.425	-278.16
227.889	-355.89
228.353	-371.39
228.816	-852.29
229.28	-755.68
229.744	-670.32
230.207	-276.42
230.671	-280.47
231.134	-618.19
231.597	-649.19
232.061	-722.62
232.524	-778.52
232.987	-495.33
233.45	-360.65
233.914	-289.99
234.377	-348.91
234.84	-280.41
235.303	-402.61
235.766	-435.12
236.229	-398.26
236.691	-269
237.154	-303.74
237.617	-186.92
238.08	-202.03
238.542	-266.64
239.005	-180.2
239.468	-155.39
239.93	-150.31
240.393	-128.9
240.855	-109.27
241.317	-134.76
241.78	-179.02
242.242	-172.11
242.704	-164.69
243.166	-138.65
243.629	-88.66
244.091	-97.26
244.553	-113.14
245.015	-93.4
245.477	-132.97
245.939	-198.56
246.4	-166.65
246.862	-182.26
247.324	-166.95
247.786	-248.94
248.247	-355.62
248.709	-502.36
249.17	-361.94
249.632	-256.22
250.093	-237.79
250.555	-192.95
251.016	-92.82
251.477	-90.81
251.939	-53.78
252.4	-80.02
252.861	-119.1
253.322	-80.71
253.783	-129.28
254.244	-220.15
254.705	-231.54
255.166	-269.71
255.627	-286.08
256.088	-425.55
256.549	-437.49
257.009	-419.73
257.47	-484.55
257.931	-392.79
258.391	-274.96
258.852	-269.17
259.312	-263.82
259.773	-342.24
260.233	-200.39
260.694	-133.23
261.154	-145.18
261.614	-60.51
262.074	-44.48
262.534	-29.35
262.994	1.11
263.455	-47.35
263.915	0.29
264.374	0.79
264.834	11.02
265.294	-36.34
265.754	-15.83
266.214	-17.98
266.673	-38.98
267.133	-82.75
267.593	-122.59
268.052	-139.93
268.512	-113.62
268.971	-95.82
269.431	-109.25
269.89	-105.3
270.349	-147.36
270.809	-184.71
271.268	-163.78
271.727	-479.72
272.186	-251.67
272.645	-162.77
273.104	-186.91
273.563	-279.47
274.022	-344.73
274.481	-249.16
274.94	-175.62
275.399	-145.69
275.857	-193.8
276.316	-268.33
276.775	-234.13
277.233	-229.62
277.692	-188.64
278.15	-196.27
278.609	-157.15
279.067	-128.66
279.525	-102.59
279.984	-152.92
280.442	-199.44
280.9	-116.54
281.358	-80.56
281.816	-51.77
282.274	-59.76
282.732	-101.56
283.19	-125.12
283.648	-124.36
284.106	-130.35
284.564	-170.46
285.021	-157.95
285.479	-108.41
285.937	-147.14
286.394	-110.19
286.852	-137.95
287.309	-146.17
287.767	-100.41
288.224	-83.51
288.682	-111.79
289.139	-117.72
289.596	-91.45
290.053	-103.99
290.511	-163.16
290.968	-194.41
291.425	-273.18
291.882	-162.27
292.339	-109.24
292.796	-150.66
293.252	-156.54
293.709	-84.26
294.166	-75.63
294.623	-96.99
295.079	-100.37
295.536	-66.36
295.992	-32.36
296.449	-47.57
296.905	-46.89
297.362	-32.38
297.818	-43.11
298.274	-10.24
298.731	-34.68
299.187	-45.46
299.643	-65.95
300.099	-70.89
300.555	-105.85
301.011	-111.85
301.467	-36
301.923	-91.72
302.379	-93.51
302.835	-91.68
303.291	-99.83
303.746	-96.37
304.202	-124.34
304.658	-97.05
305.113	-59.05
305.569	-46.99
306.024	-65.64
306.479	-157.27
306.935	-125.49
307.39	-176.27
307.845	-163.78
308.301	-150.23
308.756	-188.37
309.211	-169.67
309.666	-190.8
310.121	-218.5
310.576	-259.67
311.031	-277.43
311.486	-345.15
311.94	-365.05
312.395	-524.89
312.85	-1068.93
313.305	-6505.4
313.759	-27040.02
314.214	-1974.47
314.668	-1471.54
315.123	-1142.74
315.577	-328.71
316.032	-253.84
316.486	-294.39
316.94	-187.19
317.394	-100.51
317.849	-61.61
318.303	-61.4
318.757	-50.77
319.211	-53.54
319.665	-47.01
320.119	-60.34
320.572	-128.23
321.026	-84.81
321.48	-67.59
321.934	-103.87
322.387	-111.75
322.841	-98.11
323.295	-29.33
323.748	-86.58
324.202	-84.11
324.655	-106.08
325.108	-108.16
325.562	-55.62
326.015	-82.33
326.468	-42.83
326.921	-45.17
327.374	-15.63
327.827	3.83
328.28	-22.7
328.733	1.02
329.186	9.35
329.639	15.2
330.092	2.7
330.545	9.95
330.997	-4.3
331.45	17.48
331.903	45.72
332.355	12.83
332.808	-34.32
333.26	-36.75
333.713	-35.58
334.165	-73.87
334.617	-168.29
335.069	-229.18
335.522	-535.01
335.974	-605.22
336.426	-641.69
336.878	-544.17
337.33	-250.3
337.782	-235.4
338.234	-262.94
338.686	-348.89
339.137	-416.91
339.589	-377.54
340.041	-227.15
340.493	-170.72
340.944	-175.15
341.396	-180.52
341.847	-96.72
342.299	-67
342.75	-40.53
343.201	-83.91
343.653	-99.09
344.104	-151.12
344.555	-102.73
345.006	-273.94
345.457	-117.38
345.908	-72.43
346.359	-51.73
346.81	-64.34
347.261	-121.94
347.712	-172.15
348.163	-199.13
348.613	-141.39
349.064	-120.79
349.515	-107.74
349.965	-81.37
350.416	-144.41
350.866	-192.66
351.317	-266.76
351.767	-412.58
352.217	-469.63
352.668	-333.07
353.118	-259
353.568	-337.73
354.018	-205.81
354.468	-177.18
354.918	-108.71
355.368	-98.63
355.818	-132.63
356.268	-504.75
356.718	-1663.15
357.168	-341.15
357.617	-167.79
358.067	-224.66
358.517	-233.71
358.966	-303.7
359.416	-299.24
359.865	-357.47
360.315	-445.11
360.764	-187.19
361.213	-55.22
361.663	-111.05
362.112	-188.53
362.561	-341.26
363.01	-269.57
363.459	-228.33
363.908	-298.62
364.357	-268.04
364.806	-519.7
365.255	-364.5
365.703	-321.06
366.152	-310.36
366.601	-229.18
367.05	-135.5
367.498	-113.8
367.947	-122.77
368.395	-142.79
368.844	-101.19
369.292	-166.85
369.74	-81.19
370.189	-142.55
370.637	-160.81
371.085	-165.83
371.533	-226.9
371.981	-280.86
372.429	-243.43
372.877	-283.62
373.325	-202.83
373.773	-217.56
374.221	-177.21
374.669	-232.13
375.116	-190.96
375.564	-206.81
376.012	-250.69
376.459	-185.05
376.907	-232.68
377.354	-325.34
377.801	-251.16
378.249	-313.11
378.696	-419.15
379.143	-508.87
379.591	-530.43
380.038	-945.48
380.485	-647.55
380.932	-625.85
381.379	-494.05
381.826	-224.71
382.273	-147.36
382.72	-160.04
383.166	-107.88
383.613	-52.96
384.06	-46
384.506	-54.25
384.953	-32.12
385.4	-45.89
385.846	-51.65
386.292	-72.82
386.739	-105.94
387.185	-126.34
387.631	-131.68
388.078	-113.03
388.524	-116.86
388.97	-99.06
389.416	-75.35
389.862	-76.31
390.308	-65.49
390.754	-62.83
391.2	-71.82
391.645	-69.03
392.091	-21.21
392.537	-12.4
392.983	-38
393.428	-12.02
393.874	-22.5
394.319	-8.75
394.765	16.28
395.21	7.55
395.655	15.97
396.101	18.69
396.546	19.34
396.991	-2.68
397.436	-0.88
397.881	1.47
398.326	-20.63
398.771	-8.24
399.216	-18.16
399.661	-25.3
400.106	-17.88
400.551	-13.15
400.995	-10.35
401.44	-7.92
401.885	-7.8
402.329	-8.22
402.774	-5.64
403.218	10.94
403.663	8.05
404.107	10.17
404.551	15.5
404.995	9.12
405.44	2.2
405.884	0.98
406.328	-4.96
406.772	-5.62
407.216	-2.61
407.66	-5.97
408.104	-15.89
408.547	-19
408.991	-18.62
409.435	-22.79
409.879	-18.91
410.322	-15.64
410.766	-12.36
411.209	-6.79
411.653	-5.7
412.096	-2.96
412.54	-4.6
412.983	-4.57
413.426	-0.07
413.869	-2.54
414.312	1.44
414.756	0.61
415.199	-0.52
415.642	-0.21
416.085	0.6
416.527	-0.95
416.97	-2.73
417.413	1.12
417.856	-2.66
418.298	-3.94
418.741	-5.04
419.184	-9.74
419.626	-15.92
420.069	-16.24
420.511	-16.74
420.953	-15.65
421.396	-14.92
421.838	-16.62
422.28	-18.07
422.722	-14.18
423.164	-17.6
423.606	-16.27
424.048	-15.35
424.49	-9.83
424.932	-12.04
425.374	-14.13
425.816	-18.93
426.258	-17.84
426.699	-16.88
427.141	-11.77
427.582	-13.81
428.024	-12.33
428.465	-12.89
428.907	-13.42
429.348	-14.34
429.789	-11.88
430.231	-8.37
430.672	-5.97
431.113	-6.83
431.554	-7.26
431.995	-10.31
432.436	-7.8
432.877	-7.89
433.318	-4.57
433.759	-3.46
434.2	-2.5
434.64	-2.21
435.081	-1.84
435.522	-1.67
435.962	-2
436.403	-0.07
436.843	-2.77
437.284	-4.6
437.724	-5.85
438.164	-12.04
438.604	-14.65
439.045	-12.55
439.485	-9.44
439.925	-11.2
440.365	-10.93
440.805	-10.69
441.245	-8.12
441.685	-6.79
442.125	-7.33
442.564	-7.2
443.004	-3.56
443.444	-1.7
443.883	-2.11
444.323	-5.69
444.762	-8.32
445.202	-9.33
445.641	-7.58
446.081	-10.4
446.52	-9.92
446.959	-9.64
447.398	-7.42
447.837	-8.29
448.276	-8.57
448.716	-7.2
449.154	-9.04
449.593	-5.94
450.032	-4.96
450.471	-6.96
450.91	-8.55
451.349	-6.39
451.787	-6.28
452.226	-6.59
452.664	-7.18
453.103	-6.35
453.541	-7.82
453.98	-3.51
454.418	-4.47
454.856	-2.49
455.295	-1.97
455.733	-0.31
456.171	-2.28
456.609	0.14
457.047	-0.56
457.485	1.94
457.923	2.62
458.361	1.37
458.798	-0.54
459.236	0.94
459.674	-1.87
460.111	-1.04
460.549	-1.38
460.987	-2.65
461.424	-3.99
461.862	-3.67
462.299	-4.26
462.736	-3.15
463.173	-2.4
463.611	1.14
464.048	1.34
464.485	2.8
464.922	1.43
465.359	1.3
465.796	10.54
466.233	11.65
466.67	13.92
467.106	15.05
467.543	12.54
467.98	11.51
468.416	8.93
468.853	7.1
469.29	6.6
469.726	6.11
470.162	5.96
470.599	-0.33
471.035	-2.18
471.471	-3.7
471.907	-5.95
472.344	-5.7
472.78	-4.71
473.216	-5.62
473.652	-5.1
474.088	-6.51
474.523	-5.34
474.959	-6.38
475.395	-6.95
475.831	-5.8
476.266	-5.3
476.702	-4.88
477.138	-3.86
477.573	-4.66
478.008	-3.69
478.444	-2.38
478.879	0.21
479.314	1.53
479.75	2.41
480.185	2.26
480.62	2.24
481.055	2.17
481.49	3.37
481.925	3.14
482.36	5.46
482.795	4.37
483.229	3.53
483.664	2.16
484.099	0.85
484.534	1.18
484.968	1.32
485.403	0.71
485.837	-0.45
486.271	-1.38
486.706	-1.78
487.14	-2.48
487.574	-1.75
488.009	-2.14
488.443	-2.43
488.877	-1.74
489.311	-2.26
489.745	-1.48
490.179	-0.38
490.613	1.94
491.046	1.31
491.48	1.68
491.914	1.23
492.348	1.31
492.781	1.92
493.215	2.53
493.648	1.07
494.082	1.31
494.515	1.02
494.948	1.32
495.382	-0.21
495.815	-0.1
496.248	0.16
496.681	-0.21
497.114	-0.87
497.547	-0.33
497.98	0.62
498.413	2.53
498.846	2.97
499.279	2.53
499.711	1.68
500.144	1.38
500.577	2.72
501.009	1.95
501.442	3.01
501.874	3.63
502.306	3.15
502.739	4.9
503.171	4.04
503.603	3.8
504.036	3.94
504.468	3.94
504.9	4.17
505.332	3.28
505.764	4.16
506.196	3.8
506.627	3.59
507.059	3.18
507.491	0.11
507.923	1.07
508.354	1.39
508.786	1.62
509.217	1.46
509.649	1.09
510.08	1.26
510.512	1.9
510.943	2.13
511.374	2.53
511.805	2.33
512.237	2.38
512.668	1.23
513.099	-0.31
513.53	-0.91
513.961	-0.07
514.391	0.55
514.822	1.9
515.253	1.26
515.684	0.39
516.114	0.02
516.545	0.83
516.975	0.86
517.406	1.06
517.836	1.69
518.267	1.75
518.697	1.87
519.127	1.69
519.558	0.4
519.988	-0.21
520.418	-0.09
520.848	-0.85
521.278	-1.77
521.708	30.75
522.138	31.65
522.567	30.84
522.997	30.88
523.427	30.24
523.857	30.14
524.286	30.38
524.716	30.99
525.145	31.48
525.575	32.34
526.004	32.13
526.433	0.29
526.863	-1.22
527.292	0.81
527.721	2.02
528.15	1.95
528.579	2.11
529.008	1.96
529.437	0.95
529.866	0.43
530.295	-0.3
530.724	1.05
531.152	0.95
531.581	2.52
532.01	1.97
532.438	1.19
532.867	0.63
533.295	1.42
533.723	1.47
534.152	2.26
534.58	2.53
535.008	3.19
535.436	3.51
535.865	3.39
536.293	2.48
536.721	1.79
537.149	2.03
537.576	3.22
538.004	2.85
538.432	2.04
538.86	2.45
539.287	1.92
539.715	1.76
540.143	1.19
540.57	1.84
540.998	1.7
541.425	3.24
541.852	2.94
542.28	1.88
542.707	2.18
543.134	2.78
543.561	2.35
543.988	3.03
544.415	2.69
544.842	1.93
545.269	1.77
545.696	2.43
546.123	2.02
546.549	2.16
546.976	2.81
547.403	2.49
547.829	1.77
548.256	0.9
548.682	0.95
549.108	2.09
549.535	2.57
549.961	1.82
550.387	1.15
550.813	1.98
551.24	1.36
551.666	0.66
552.092	-0.03
552.518	0.3
552.943	1.56
553.369	0.93
553.795	0.56
554.221	0.34
554.646	0.8
555.072	1.56
555.498	-0.64
555.923	-0.71
556.349	-0.52
556.774	-0.43
557.199	-0.54
557.625	-1.19
558.05	-0.47
558.475	-0.61
558.9	-0.25
559.325	0.38
559.75	0.16
560.175	1.27
560.6	1
561.025	0.5
561.449	0.55
561.874	0.33
562.299	0.4
562.723	-0.32
563.148	-0.71
563.572	-1.26
563.997	-1.6
564.421	-2.5
564.846	-3.25
565.27	-3.03
565.694	-2.55
566.118	-2.17
566.542	-0.89
566.966	-0.68
567.39	-0.31
567.814	0.37
568.238	1.14
568.662	0.13
569.086	0.72
569.509	0.34
569.933	1.6
570.357	1.19
570.78	0.88
571.204	1.1
571.627	1.11
572.05	1.21
572.474	2.14
572.897	1.63
573.32	2.74
573.743	2.03
574.166	3.35
574.589	2.01
575.012	2.59
575.435	2.23
575.858	1.94
576.281	1.71
576.704	1.38
577.126	-0.56
577.549	-0.91
577.972	-1.18
578.394	-0.21
578.817	1.39
579.239	1.26
579.661	1.53
580.084	3.31
580.506	3.59
580.928	3.26
581.35	2.72
581.772	3.21
582.194	3.77
582.616	3.11
583.038	2.28
583.46	-0.28
583.882	0.62
584.303	-0.22
584.725	-1.88
585.147	1.92
585.568	2.51
585.99	3.51
586.411	3.75
586.833	4.14
587.254	4.53
587.675	4.16
588.096	4.25
588.518	3.91
588.939	4.28
589.36	4.72
589.781	-0.97
590.202	1.71
590.623	1.72
591.043	0.67
591.464	0.14
591.885	0.59
592.305	0.33
592.726	0.48
593.147	0.55
593.567	0.73
593.987	0.82
594.408	0.95
594.828	-2.25
595.248	-1.65
595.669	0.13
596.089	0.08
596.509	-1.08
596.929	-0.77
597.349	-0.5
597.769	-0.79
598.189	-0.91
598.608	-1.35
599.028	-1.15
599.448	-1.24
599.867	-1.7
600.287	-2.69
600.706	-1.83
601.126	-0.75
601.545	-0.05
601.965	-0.31
602.384	-0.09
602.803	-0.61
603.222	0.03
603.641	-0
604.061	0.8
604.48	0.52
604.898	0.42
605.317	-0.36
605.736	-0.79
606.155	-0.33
606.574	-0.22
606.992	-0.21
607.411	0.29
607.829	-0.43
608.248	-0.59
608.666	-1.19
609.085	-0.52
609.503	-0.66
609.921	-0.19
610.339	-0.15
610.758	-1.27
611.176	-0.92
611.594	-0.26
612.012	-0.09
612.43	1.18
612.847	1.04
613.265	2.14
613.683	1.61
614.101	2.06
614.518	1.68
614.936	1.81
615.353	2.64
615.771	2.55
616.188	2.36
616.606	2.33
617.023	1.71
617.44	2.26
617.857	0.88
618.274	0.73
618.691	1.56
619.108	1.65
619.525	1.67
619.942	1.59
620.359	1.63
620.776	1.57
621.192	2.36
621.609	2.94
622.026	3.25
622.442	3.68
622.859	3.42
623.275	2.22
623.691	1.93
624.108	2.57
624.524	2.43
624.94	2.7
625.356	2.31
625.772	0.85
626.188	-0.34
626.604	-0.83
627.02	-0.76
627.436	-0.53
627.852	1.12
628.268	1.37
628.683	0.08
629.099	-0.3
629.514	-1.25
629.93	-1.77
630.345	-1.56
630.761	-2.05
631.176	-2.24
631.591	-1.07
632.007	-1.11
632.422	-3.32
632.837	-3.99
633.252	-2.65
633.667	-1.92
634.082	-1.91
634.497	-1.28
634.911	0.2
635.326	0.95
635.741	1.73
636.155	1.1
636.57	1.92
636.984	2.88
637.399	4.31
637.813	2.92
638.228	1.92
638.642	1.81
639.056	2.02
639.47	0.96
639.884	1.26
640.298	0.47
640.712	0.51
641.126	0.32
641.54	-0.6
641.954	-2.73
642.368	-1.63
642.781	2.01
643.195	2.42
643.609	2.58
644.022	2.51
644.436	1.78
644.849	1.82
645.262	1.06
645.676	-0.15
646.089	0.37
646.502	1.77
646.915	0.55
647.328	-1.41
647.741	-1.53
648.154	-1.87
648.567	0.81
648.98	1.56
649.393	1.68
649.805	2.59
650.218	2.87
650.631	3.4
651.043	3.73
651.456	3.8
651.868	3.18
652.28	2.57
652.693	1.88
653.105	-0.46
653.517	-1.28
653.929	-1.01
654.341	-1.27
654.753	-0.29
655.165	-0.99
655.577	-1.5
655.989	-1.01
656.401	-2.28
656.813	-0.17
657.224	-0.73
657.636	-1.6
658.047	-0.46
658.459	-0.66
658.87	-2.25
659.282	-2.37
659.693	-1.78
660.104	-0.87
660.515	-0.79
660.926	-0.93
661.338	-1.99
661.749	-2.75
662.159	-1.18
662.57	-2.52
662.981	-2.3
663.392	-1.4
663.803	-1.99
664.213	-2.79
664.624	-3.54
665.035	-3.9
665.445	-3.65
665.855	-2.62
666.266	0.06
666.676	-0.54
667.086	-1.12
667.497	-1.23
667.907	-0.94
668.317	-1.21
668.727	1.7
669.137	0.48
669.547	-0.03
669.956	-1.05
670.366	-1.83
670.776	-2.15
671.186	-2.63
671.595	-1.27
672.005	-2.41
672.414	-2.25
672.824	-1.33
673.233	-3.97
673.642	-2.81
674.052	-1.86
674.461	0.08
674.87	-0.19
675.279	0.44
675.688	-0.86
676.097	0.35
676.506	0.39
676.915	-0.58
677.323	-0.71
677.732	-0
678.141	-0.79
678.549	-0.67
678.958	-2.16
679.366	-2.65
679.775	-4.63
680.183	-1.95
680.592	-3.43
681	-2.13
681.408	-1.43
681.816	-1.48
682.224	-2.96
682.632	-0.8
683.04	-0.97
683.448	-1.41
683.856	-1.22
684.264	0.18
684.671	-2.37
685.079	-3.04
685.487	-3.59
685.894	-4.93
686.302	-7.49
686.709	-5.97
687.116	-7.12
687.524	-5.63
687.931	-3.22
688.338	-2.38
688.745	-3.58
689.152	-3.05
689.559	-1.81
689.966	-1.07
690.373	0.62
690.78	2.31
691.187	1.72
691.593	1.51
692	0.03
692.407	0.21
692.813	2.89
693.22	3.71
693.626	2.88
694.032	3.01
694.439	3.12
694.845	2.45
695.251	2.51
695.657	2.66
696.063	0.6
696.469	0.25
696.875	-0.23
697.281	-3.38
697.687	-3.73
698.093	-2.72
698.498	-2.28
698.904	-3.6
699.31	-3.72
699.715	-2.15
700.12	-2.22
700.526	-0.06
700.931	-0.58
701.337	0.02
701.742	1.87
702.147	1.23
702.552	1.73
702.957	-0.65
703.362	-0.12
703.767	-0.64
704.172	-1.69
704.577	-2.83
704.981	-3.72
705.386	-3
705.791	-2.7
706.195	-4.71
706.6	-4.22
707.004	-5.88
707.408	-4.91
707.813	-4.06
708.217	-3.29
708.621	-3.78
709.025	-2.51
709.43	-0.94
709.834	-0.4
710.237	-1.31
710.641	-0.88
711.045	-0.6
711.449	1.8
711.853	5.36
712.256	4.06
712.66	3.48
713.064	4.15
713.467	5.09
713.87	3.94
714.274	4.12
714.677	5.07
715.08	5.4
715.484	5.96
715.887	8.32
716.29	3.78
716.693	5.51
717.096	7.31
717.499	6.85
717.901	4.6
718.304	4.18
718.707	3.36
719.109	1.93
719.512	0.43
719.915	2.12
720.317	-0.83
720.719	-0.66
721.122	-2.34
721.524	-2.56
721.926	2.62
722.328	3.09
722.731	3.24
723.133	3.06
723.535	2.94
723.937	3.98
724.338	5.33
724.74	5.95
725.142	55.59
725.544	60.36
725.945	71.96
726.347	66.29
726.748	67.49
727.15	69.02
727.551	73.17
727.952	72.24
728.354	71.23
728.755	68.5
729.156	67.16
729.557	18.37
729.958	14.59
730.359	3.24
730.76	3.76
731.161	3.7
731.562	2.11
731.962	-1.77
732.363	-0.91
732.763	-0.12
733.164	-1.77
733.564	-1.34
733.965	0.76
734.365	0.46
734.766	-0.08
735.166	-0.36
735.566	0.39
735.966	1.24
736.366	2.35
736.766	2.43
737.166	0.83
737.566	1.7
737.966	1.91
738.365	2.22
738.765	3.73
739.165	4.44
739.564	4.5
739.964	2.32
740.363	1.39
740.763	-0.89
741.162	-0.12
741.561	0.5
741.96	0.54
742.36	-1.88
742.759	-3.1
743.158	-3.67
743.557	-4.47
743.955	-5.15
744.354	-4.8
744.753	-6.07
745.152	-3.98
745.55	-4.93
745.949	-4.88
746.348	-4.01
746.746	-3.84
747.144	-0.95
747.543	-2.33
747.941	-1.87
748.339	-1.71
748.737	-0.16
749.136	2.63
749.534	0.1
749.932	2.25
750.33	1.8
750.727	0.22
751.125	2.04
751.523	0.56
751.921	4.13
752.318	4.74
752.716	6.74
753.113	5.18
753.511	3.5
753.908	5.1
754.305	7.43
754.703	8.4
755.1	10.05
755.497	9.53
755.894	8
756.291	5.31
756.688	4.21
757.085	1.83
757.482	3.26
757.878	5.73
758.275	6.99
758.672	-1.33
759.068	-2.57
759.465	-6.03
759.861	-7.96
760.258	-12.44
760.654	-15.37
761.05	-14.01
761.447	-14.06
761.843	-15.67
762.239	-17.34
762.635	-20.82
763.031	-19.5
763.427	-17.67
763.822	-15.15
764.218	-14.68
764.614	-12.32
765.01	-12.92
765.405	-13.34
765.801	-11.68
766.196	-10.34
766.592	-9.72
766.987	-7.42
767.382	-7.01
767.778	-5.86
768.173	-5.15
768.568	-3.98
768.963	-2.03
769.358	-0.7
769.753	1.38
770.148	2.16
770.542	2.07
770.937	0.49
771.332	-0.12
771.726	-1.45
772.121	1.02
772.515	-0.15
772.91	-1.04
773.304	-0.99
773.699	-2.4
774.093	-3.74
774.487	-4.49
774.881	-6.19
775.275	-4.94
775.669	-4.53
776.063	-3.17
776.457	-5.76
776.851	-4.94
777.245	-3.93
777.638	-3.73
778.032	-2.48
778.425	-1.51
778.819	3.45
779.212	7.39
779.606	10.11
779.999	9.31
780.392	10.23
780.786	8.75
781.179	8.2
781.572	10
781.965	9.72
782.358	10.6
782.751	9.21
783.143	4.58
783.536	3.86
783.929	0.39
784.322	0.79
784.714	-0.98
785.107	-0.02
785.499	1.71
785.891	1.34
786.284	1.1
786.676	-0.24
787.068	3.04
787.46	4.45
787.852	2.35
788.245	3
788.636	0.64
789.028	2.56
789.42	3.62
789.812	3.85
790.204	3.16
790.595	4.92
790.987	5.54
791.378	2.67
791.77	0.27
792.161	-0.82
792.553	-0.3
792.944	1.57
793.335	-0.05
793.726	0.28
794.117	0.53
794.508	-3.22
794.899	-5.92
795.29	-8.23
795.681	-9.05
796.072	-9.33
796.463	12.6
796.853	16.74
797.244	17.52
797.634	18.28
798.025	17.46
798.415	13.58
798.806	16.57
799.196	18.83
799.586	22.93
799.976	24.96
800.366	25.71
800.756	2.73
801.146	-2.05
801.536	-3.91
801.926	-4.19
802.316	-2.9
802.706	-1.64
803.095	-2.06
803.485	-4.94
803.874	-7.74
804.264	-9.47
804.653	-7.55
805.043	-3.39
805.432	-1.03
805.821	3.22
806.21	4.78
806.599	2.38
806.988	4.06
807.377	1.51
807.766	-0.39
808.155	-1.54
808.544	-1.03
808.933	-2.29
809.321	-1.28
809.71	-5.4
810.098	-8.02
810.487	-11.95
810.875	-15.56
811.264	-15.49
811.652	-0.88
812.04	0.97
812.428	4.88
812.816	2.44
813.204	3.27
813.592	-4.59
813.98	-2.17
814.368	3.56
814.756	4.83
815.144	8.91
815.531	12.14
815.919	-2.05
816.306	-0.72
816.694	-3.44
817.081	-0.09
817.469	0.62
817.856	-1.5
818.243	-5.89
818.63	-13.23
819.017	-12.27
819.404	-9.46
819.791	-13.27
820.178	-18.24
820.565	-19.35
820.952	-9.09
821.339	-8.26
821.725	-7.11
822.112	-0.55
822.498	2.46
822.885	2.48
823.271	1.07
823.657	-6.98
824.044	-4.9
824.43	-3.7
824.816	6.05
825.202	0.72
825.588	-3.01
825.974	-3.53
826.36	-5.23
826.746	-5.5
827.132	-4.67
827.517	-0.03
827.903	3.18
828.289	3.72
828.674	7.1
829.06	1.47
829.445	-2.35
829.83	-2.5
830.216	-3.34
830.601	0.28
830.986	8.71
831.371	9.99
831.756	14.21
832.141	23.12
832.526	23.3
832.911	25.65
833.295	21.86
833.68	21.13
834.065	23.04
834.449	20.83
834.834	20.77
835.218	17.31
835.603	18.56
835.987	12.81
836.371	5.58
836.755	6.56
837.139	0.97
837.524	-0.58
837.908	-2.9
838.291	-0.01
838.675	-2.5
839.059	-4.51
839.443	-8.92
839.827	-13.12
840.21	-16.46
840.594	-12.3
840.977	-13.87
841.361	-12.79
841.744	-10
842.127	-6.62
842.511	-9.83
842.894	-12.54
843.277	-15.69
843.66	-18.13
844.043	-14.37
844.426	-7.79
844.809	-14.09
845.191	-12.94
845.574	-10.84
845.957	-10.64
846.339	-8.63
846.722	-6.87
847.104	-6.21
847.487	-9.17
847.869	-4.99
848.252	-3.87
848.634	-6.59
849.016	-5.78
849.398	-9.05
849.78	-14.25
850.162	-12.93
850.544	-13.91
850.926	-17.93
851.307	-16.34
851.689	-10.74
852.071	-18.52
852.452	-21.33
852.834	-22.23
853.215	-16.15
853.597	-13.93
853.978	-5.14
854.359	-4.23
854.741	-1.43
855.122	-3.86
855.503	-5.19
855.884	-8.09
856.265	-4.98
856.646	-12.14
857.026	-7.04
857.407	-10.06
857.788	-13.3
858.169	-19.33
858.549	-11.92
858.93	-14.25
859.31	-8.78
859.69	-3.67
860.071	-2.77
860.451	0.53
860.831	7.61
861.211	0.1
861.591	-3.96
861.971	-1.5
862.351	-1.5
862.731	-13.35
863.111	-14.92
863.491	-12.86
863.87	-16.36
864.25	-18.18
864.629	-12.08
865.009	-16.34
865.388	-14.05
865.768	-19.3
866.147	-19.72
866.526	-16.04
866.905	-12.49
867.284	-19.24
867.663	-26.58
868.042	-26.97
868.421	-24.62
868.8	-31.07
869.179	-22.82
869.558	-23.37
869.936	-12.37
870.315	-15.12
870.693	-16.09
871.072	-20.18
871.45	-17.6
871.828	-10.2
872.207	-9.18
872.585	-6.83
872.963	-10.12
873.341	-5.02
873.719	5.14
874.097	0.19
874.475	-2.42
874.853	-6.57
875.23	-2.61
875.608	0.58
875.986	-1.63
876.363	3.48
876.741	14.84
877.118	25.79
877.495	25.16
877.873	18.56
878.25	17.91
878.627	21.72
879.004	25.58
879.381	16.87
879.758	16.29
880.135	13.8
880.512	12.04
880.889	-3.77
881.265	-16.92
881.642	-32.15
882.019	-33.03
882.395	-21.64
882.772	-18.94
883.148	-16.47
883.524	-5.34
883.901	-7.59
884.277	-10.01
884.653	-16.79
885.029	-10.63
885.405	2.08
885.781	9.02
886.157	8.32
886.532	-0.78
886.908	-5.6
887.284	-12.9
887.659	-14.87
888.035	-13.36
888.411	-13.94
888.786	-10.46
889.161	-11.88
889.537	-22.55
889.912	-17.98
890.287	-13.58
890.662	-13.47
891.037	-18.02
891.412	-14
891.787	-22.22
892.162	-17.84
892.536	-18.68
892.911	-12.63
893.286	-16.21
893.66	-13.07
894.035	-14.38
894.409	-26.22
894.784	-18.75
895.158	-16.35
895.532	-15.83
895.906	-13.14
896.281	-13.95
896.655	-7.94
897.029	-19.18
897.402	-19.69
897.776	-27.66
898.15	-29.57
898.524	-23.51
898.898	-32.53
899.271	-30.31
899.645	-16.83
900.018	-12.75
900.392	-15.74
900.765	-23.17
901.138	-9.6
901.511	-18.72
901.884	-2.76
902.258	-1.18
902.631	3.73
903.003	4.01
903.376	-7.55
903.749	-18.6
904.122	-26.93
904.495	-36.89
904.867	-41.37
905.24	-39.74
905.612	-31.49
905.985	-48.29
906.357	-52.71
906.729	-49.58
907.102	-34.67
907.474	-24.63
907.846	-12.13
908.218	-3.81
908.59	13.82
908.962	16.22
909.334	22.05
909.705	26.03
910.077	22.41
910.449	20.09
910.82	26.34
911.192	24.64
911.563	33.36
911.935	11.46
912.306	-9.09
912.677	-34.09
913.048	-13.4
913.419	-29.18
913.79	-46.23
914.161	-44.07
914.532	-40.23
914.903	-42.89
915.274	-42.87
915.645	-47.3
916.015	-35.36
916.386	-21.83
916.756	-23.89
917.127	-62.7
917.497	-44.42
917.868	-33.57
918.238	-28.52
918.608	-29.99
918.978	-40.41
919.348	-56.99
919.718	-55.34
920.088	-50.36
920.458	-51.63
920.828	-54.16
921.198	-30.25
921.567	-45.41
921.937	-28.83
922.306	-42.42
922.676	-52.52
923.045	-17.33
923.415	4.06
923.784	4.69
924.153	15
924.522	18.61
924.891	17.8
925.26	12.6
925.629	13.16
925.998	1.18
926.367	3.5
926.736	29.33
927.104	16.75
927.473	-1.14
927.842	-15.48
928.21	-45.81
928.578	-70.73
928.947	-53.17
929.315	-32.43
929.683	-27.61
930.051	-7.52
930.42	-0.42
930.788	-14.61
931.156	-14.43
931.523	20.74
931.891	19.47
932.259	37.77
932.627	62.04
932.994	64.07
933.362	84.7
933.729	91.37
934.097	70.43
934.464	63.37
934.831	36.52
935.199	28.97
935.566	10.93
935.933	-19.83
936.3	-41.49
936.667	-40.7
937.034	48.77
937.401	21.2
937.767	3.55
938.134	-0.33
938.501	-16.19
938.867	-1.92
939.234	-72.46
939.6	-110.19
939.967	-64.41
940.333	-14.11
940.699	-15.22
941.065	-100.56
941.431	-133.16
941.798	-81.01
942.163	-53.66
942.529	-46.14
942.895	-44.92
943.261	-6.58
943.627	-10.14
943.992	-1.17
944.358	-9.32
944.723	26.53
945.089	25.18
945.454	29.12
945.82	-9.59
946.185	-33.14
946.55	-17.71
946.915	-17.1
947.28	-29.91
947.645	-10.19
948.01	17.27
948.375	13.77
948.74	-23.52
949.104	-45.88
949.469	-158.54
949.834	-249.19
950.198	-128.19
950.562	-58.22
950.927	-20.34
951.291	-23.92
951.655	-22.89
952.02	-77.38
952.384	-28.97
952.748	4.57
953.112	52.02
953.476	74.82
953.839	62.17
954.203	72.84
954.567	70.59
954.931	55.73
955.294	60.34
955.658	52.36
956.021	99.69
956.385	63.07
956.748	62.09
957.111	-313.45
957.474	-422.72
957.837	-616.93
958.2	-725.06
958.563	-217.62
958.926	-87.77
959.289	-176.62
959.652	-136.4
960.015	-97.95
960.377	-138.13
960.74	-188.06
961.102	-394.66
961.465	-399.38
961.827	266.81
962.189	597.1
962.552	445.4
962.914	305.82
963.276	203.13
963.638	126.12
964	117.89
964.362	108.95
964.724	78.7
965.085	79.64
965.447	68.91
965.809	-18.6
966.17	-51.39
966.532	-66.14
966.893	-60.37
967.255	-46.33
967.616	-76.23
967.977	-62.25
968.338	-86.99
968.699	-57.44
969.061	-64.29
969.421	-54.48
969.782	-75.37
970.143	-28.16
970.504	7.75
970.865	13.07
971.225	26.51
971.586	38.7
971.946	43.35
972.307	28.1
972.667	1.41
973.027	22.5
973.388	-11.26
973.748	29.19
974.108	21.79
974.468	-74.99
974.828	6.07
975.188	-2.98
975.548	-4.43
975.907	6.71
976.267	4.29
976.627	45.14
976.986	26.58
977.346	7.08
977.705	3.01
978.064	-5.88
978.424	-11.12
978.783	-50.44
979.142	-70.09
979.501	-57.76
979.86	-64.14
980.219	-70.92
980.578	-141.48
980.937	-165.29
981.296	-105.1
981.654	-108.03
982.013	-191.79
982.371	-172.41
982.73	-119.76
983.088	-143.01
983.447	-149.39
983.805	-135.58
984.163	-86.38
984.521	46.23
984.879	-148.94
985.237	634.78
985.595	-557.75
985.953	-170.92
986.311	-183.32
986.669	-117.72
987.026	-100.96
987.384	-173.34
987.741	-248.19
988.099	-106.09
988.456	-91.56
988.814	-48.87
989.171	-25.38
989.528	-83.33
989.885	-107.61
990.242	-56.89
990.599	-99.02
990.956	-82.86
991.313	-47.6
991.67	-25.64
992.027	9.3
992.383	7.68
992.74	10.34
993.096	14.14
993.453	28.52
993.809	32.29
994.165	21.42
994.522	83.91
994.878	81.23
995.234	90.47
995.59	72.06
995.946	-36.73
996.302	-29.41
996.658	-37.97
997.013	-59.69
997.369	-39.03
997.725	12.26
998.08	12.76
998.436	-199.48
998.791	-259.69
999.147	-238.93
999.502	-223.13
999.857	-124.45
1000.212	-243.23
1000.567	-375.6
1000.922	-217.51
1001.277	-157.93
1001.632	-154.22
1001.987	-203.09
1002.342	-111.89
1002.696	-66.66
1003.051	-34.55
1003.406	-42.21
1003.76	-43.29
1004.114	-34.94
1004.469	-25.88
1004.823	-21
1005.177	-40.49
1005.531	-19.67
1005.885	-0.98
1006.239	7.83
1006.593	24.75
1006.947	22.27
1007.301	7.03
1007.655	-7.7
1008.008	3.02
1008.362	16.04
1008.715	13.2
1009.069	47.97
1009.422	155.69
1009.776	223.82
1010.129	132.13
1010.482	68.87
1010.835	1.94
1011.188	-108.51
1011.541	-70.64
1011.894	964.52
1012.247	-3432.24
1012.6	-295.43
1012.952	-185.84
1013.305	-190.51
1013.657	-106.43
1014.01	-102.86
1014.362	-93.61
1014.715	-22.36
1015.067	24.66
1015.419	9.7
1015.771	22.09
1016.123	35.53
1016.475	50.39
1016.827	43.92
1017.179	69.87
1017.531	39.19
1017.883	24.55
1018.234	83.61
1018.586	80.26
1018.938	96.04
1019.289	168.97
1019.64	150.59
1019.992	94.98
1020.343	72.98
1020.694	98.59
1021.045	79.42
1021.396	85.9
1021.747	122.45
1022.098	37.91
1022.449	25.18
1022.8	12.36
1023.151	27.84
1023.501	38.03
1023.852	43.45
1024.202	52.03
1024.553	32.65
1024.903	58.4
1025.253	93.45
1025.604	98.93
1025.954	103.6
1026.304	89.19
1026.654	91.84
1027.004	34.84
1027.354	4.77
1027.703	1.38
1028.053	-44.01
1028.403	128.32
1028.753	-229
1029.102	-916.48
1029.452	-7526.43
1029.801	-305.39
1030.15	-178.9
1030.499	-193.67
897.758	1826.13
901.051	1755.69
904.343	1789.19
907.636	1796.96
910.928	1849.97
914.22	1783.18
917.511	1788.35
920.803	1826.66
924.094	1816.6
927.384	1824.3
930.675	1790.67
933.965	1762.72
937.255	1796.48
940.544	1771.23
943.834	1759.12
947.123	1710.14
950.411	1783.14
953.7	1768.18
956.988	1759.62
960.276	1700.85
963.563	1734.83
966.851	1745.04
970.138	1776.21
973.424	1778.38
976.711	1734.2
979.997	1778.82
983.283	1810.8
986.568	1757.36
989.853	1740.87
993.138	1759.47
996.423	1837.14
999.708	1805.64
1002.992	1829.45
1006.275	1750.4
1009.559	1752.68
1012.842	1833.11
1016.125	1796.03
1019.408	1779.39
1022.69	1818.56
1025.972	1849.4
1029.254	1830.12
1032.536	1803.37
1035.817	1803.2
1039.098	1777.04
1042.379	1818.22
1045.659	1837.59
1048.939	1793.55
1052.219	1793.96
1055.498	1784.19
1058.778	1781.04
1062.057	1757.1
1065.335	1777.21
1068.614	1782.6
1071.892	1783.03
1075.17	1822.2
1078.447	1827.1
1081.724	1820.96
1085.001	1839.53
1088.278	1819.24
1091.554	1821.12
1094.83	1817.42
1098.106	1847.47
1101.382	1868.92
1104.657	1865.13
1107.932	1864.41
1111.206	1847.6
1114.481	1803.64
1117.755	1807.52
1121.029	1803.5
1124.302	1855.03
1127.575	1828.98
1130.848	1829.07
1134.121	1806.41
1137.393	1773.79
1140.665	1822.06
1143.937	1803.13
1147.208	1759.04
1150.48	1812.67
1153.75	1799.56
1157.021	1794.75
1160.291	1776.88
1163.561	1822.39
1166.831	1786.98
1170.101	1805.98
1173.37	1771.48
1176.639	1739.3
1179.907	1774.06
1183.176	1793.34
1186.444	1793.85
1189.711	1814.54
1192.979	1837.77
1196.246	1803.07
1199.513	1812.84
1202.78	1820.11
1206.046	1828.12
1209.312	1852.88
1212.578	1861.99
1215.843	1838.18
1219.108	1813.66
1222.373	1831.84
1225.638	1813.15
1228.902	1807.72
1232.166	1771.8
1235.43	1763.43
1238.693	1789.35
1241.956	1781.78
1245.219	1827.28
1248.482	1812.67
1251.744	1810.47
1255.006	1903.73
1258.268	1860.94
1261.529	1827.6
1264.79	1824.04
1268.051	1900.99
1271.312	1906.19
1274.572	1879.02
1277.832	1868.01
1281.092	1847.44
1284.351	1844.31
1287.61	1833.47
1290.869	1785.82
1294.128	1785.59
1297.386	1812.53
1300.644	1808.72
1303.902	1817.91
1307.159	1710.45
1310.416	1751.99
1313.673	1777.32
1316.93	1777.29
1320.186	1799.45
1323.442	1825.06
1326.697	1829.24
1329.953	1805.25
1333.208	1841.35
1336.463	1820.28
1339.717	1793.93
1342.972	1879.99
1346.226	1858.6
1349.479	1822.19
1352.733	1809.63
1355.986	1812.6
1359.238	1797.82
1362.491	1802.16
1365.743	1802.53
1368.995	1796.39
1372.247	1810.49
1375.498	1825.78
1378.749	1868.96
1382	1828.68
1385.251	1855.2
1388.501	1815.66
1391.751	1822.15
1395	1796.67
1398.25	1818.98
1401.499	1846.83
1404.748	1809.73
1407.996	1790.04
1411.244	1783.61
1414.492	1771.86
1417.74	1763.44
1420.987	1765.3
1424.234	1817.38
1427.481	1782.66
1430.728	1831.92
1433.974	1813.19
1437.22	1805.05
1440.465	1801.77
1443.711	1810.46
1446.956	1824.92
1450.201	1796.88
1453.445	1830.11
1456.689	1822.84
1459.933	1830.43
1463.177	1865.8
1466.42	1840.63
1469.663	1824.33
1472.906	1842.55
1476.148	1878.81
1479.391	1838.94
1482.633	1821.56
1485.874	1845.62
1489.115	1853.03
1492.356	1833.94
1495.597	1817.45
1498.838	1801.96
1502.078	1793.84
1505.318	1773.47
1508.557	1797.55
1511.797	1793.91
1515.036	1843.03
1518.274	1807.5
1521.513	1759.02
1524.751	1766.22
1527.989	1786.38
1531.227	1799.85
1534.464	1814.45
1537.701	1804.97
1540.938	1810.92
1544.174	1765.94
1547.41	1753.08
1550.646	1781.88
1553.882	1826.72
1557.117	1875.56
1560.352	1877.89
1563.587	1847.52
1566.821	1820.69
1570.055	1830.48
1573.289	1811.95
1576.523	1855.36
1579.756	1868.47
1582.989	1886.57
1586.222	1848
1589.454	1874.73
1592.686	1862.13
1595.918	1884.11
1599.15	1879.88
1602.381	1914.61
1605.612	1903.35
1608.843	1978.38
1612.073	1914.93
1615.303	1907.19
1618.533	1905.65
1621.762	1905.98
1624.992	1875.82
1628.221	1880.26
1631.449	1870.04
1634.678	1885.38
1637.906	1858.55
1641.134	1877.75
1644.361	1849.21
1647.588	1843.06
1650.815	1860.76
1654.042	1827.36
1657.269	1849.76
1660.495	1839.61
1663.72	1820.32
1666.946	1797.09
1670.171	1785.97
1673.396	1760.57
1676.621	1744.75
1679.845	1739.95
1683.069	1741.72
1686.293	1762.7
1689.517	1760.76
1692.74	1726.11
1695.963	1741.21
1699.185	1779.32
1702.408	1758.66
1705.63	1780.08
1708.852	1796.99
1712.073	1773.72
1715.294	1788.58
1718.515	1824.91
1721.736	1794.06
1724.956	1774.39
1728.176	1792.55
1731.396	1811.54
1734.616	1801.62
1737.835	1834.54
1741.054	1806.41
1744.272	1804.34
1747.491	1840.26
1750.709	1851.96
1753.927	1819.2
1757.144	1835.99
1760.361	1887.84
1763.578	1861.04
1766.795	1821.22
1770.011	1809.5
1773.227	1827.06
1776.443	1865.91
1779.658	1898.47
1782.874	1849.72
1786.089	1847.89
1789.303	1849.03
1792.518	1847.55
1795.732	1838.22
1798.945	1855.88
1802.159	1889.15
1805.372	1850.7
1808.585	1846.93
1811.797	1846.82
1815.01	1860.58
1818.222	1887.31
1821.434	1847.64
1824.645	1882.03
1827.856	1895.18
1831.067	1918.81
1834.278	1865.02
1837.488	1853.66
1840.698	1948.96
1843.908	1908.89
1847.117	1884.87
1850.326	1832.55
1853.535	1875.59
1856.744	1917.35
1859.952	1853.97
1863.16	1856.68
1866.368	1872.01
1869.575	1972.81
1872.782	1873.89
1875.989	1821.97
1879.196	1859.12
1882.402	1855.12
1885.608	1883.71
1888.814	1845.1
1892.019	1771.9
1895.224	1818.65
1898.429	1787.22
1901.634	1775.57
1904.838	1756.55
1908.042	1810.82
1911.246	1825.11
1914.449	1799.96
1917.652	1783.31
1920.855	1767.12
1924.058	1782.35
1927.26	1824.69
1930.462	1840.43
1933.664	1880.55
1936.865	1833.01
1940.066	1849.66
1943.267	1798.94
1946.467	1806.23
1949.668	1819.07
1952.868	1880.5
1956.067	1876.68
1959.267	1826.35
1962.466	1844.9
1965.665	1829.91
1968.863	1824.48
1972.061	1821.33
1975.259	1809.3
1978.457	1876.56
1981.654	1842.12
1984.852	1845.4
1988.048	1808.8
1991.245	1794.28
1994.441	1871.11
1997.637	1825.94
2000.833	1811.78
2004.028	1838.99
2007.223	1896.75
2010.418	1891.68
2013.613	1844.01
2016.807	1845.51
2020.001	1836.88
2023.194	1851.52
2026.388	1839.18
2029.581	1791.94
2032.774	1852.18
2035.966	1858.36
2039.158	1816.1
2042.35	1832.25
2045.542	1767.36
2048.733	1835.51
2051.924	1818.27
2055.115	1829.54
2058.306	1804.89
2061.496	1849.51
2064.686	1888.68
2067.875	1804.26
2071.065	1806.47
2074.254	1819.27
2077.442	1779.12
2080.631	1849.34
2083.819	1801.08
2087.007	1797.11
2090.195	1787.24
2093.382	1793.44
2096.569	1784.48
2099.756	1752.03
2102.942	1801.02
2106.128	1814.04
2109.314	1803.65
2112.5	1796.18
2115.685	1765.2
2118.87	1771.36
2122.055	1824.7
2125.239	1809.96
2128.424	1803.59
2131.608	1842.82
2134.791	1828.8
2137.974	1856.55
2141.157	1847.77
2144.34	1830.1
2147.523	1812.56
2150.705	1840.95
2153.887	1808.07
2157.068	1791.34
2160.25	1767.6
2163.431	1783.9
2166.611	1762.8
2169.792	1785.63
2172.972	1709.61
2176.152	1749.93
2179.331	1769.63
2182.511	1779.68
2185.69	1795.62
2188.868	1801.06
2192.047	1825.44
2195.225	1850.14
2198.403	1803.74
2201.58	1790.9
2204.758	1773.6
2207.935	1839.87
2211.111	1770.92
2214.288	1761.79
2217.464	1790.02
2220.64	1747.87
2223.815	1790.42
2226.991	1735.86
2230.166	1745.77
2233.34	1789.03
2236.515	1798.09
2239.689	1854.58
2242.863	1813.4
2246.036	1857.94
2249.209	1842.72
2252.382	1854.83
2255.555	1870.08
2258.727	1831.25
2261.9	1852.12
2265.071	1847.46
2268.243	1844.44
2271.414	1804.28
2274.585	1794.85
2277.756	1844.84
2280.926	1812.31
2284.096	1831.07
2287.266	1776.93
2290.436	1816.03
2293.605	1830.19
2296.774	1867.7
2299.942	1866.06
2303.111	1877.39
2306.279	1925.47
2309.447	1911.08
2312.614	1887.55
2315.781	1905.27
2318.948	1888.93
2322.115	1921.34
2325.281	1832.42
2328.447	1837.04
2331.613	1808.7
2334.779	1807.72
2337.944	1803.16
2341.109	1805.42
2344.274	1798.29
2347.438	1768.82
2350.602	1788.03
2353.766	1793.83
2356.929	1786.65
2360.092	1815.95
2363.255	1795.5
2366.418	1775.95
2369.58	1812.3
2372.742	1752.26
2375.904	1732.45
2379.066	1723.36
2382.227	1744.21
2385.388	1709.62
2388.548	1673.16
2391.709	1704.23
2394.869	1702.4
2398.029	1734.98
2401.188	1722.96
2404.347	1708.5
2407.506	1736.52
2410.665	1784.19
2413.823	1764.58
2416.981	1751.47
2420.139	1762.48
2423.296	1798.34
2426.453	1773.95
2429.61	1789.73
2432.767	1777.52
2435.923	1815.1
2439.079	1760.25
2442.235	1788.54
2445.391	1739.02
2448.546	1780.79
2451.701	1807.38
2454.855	1810.27
2458.009	1826.08
2461.163	1813.37
2464.317	1792.04
2467.471	1812.3
2470.624	1834.34
2473.777	1833.87
2476.929	1846.98
2480.082	1866.19
2483.234	1847.54
2486.385	1792.09
2489.537	1786.21
2492.688	1785.69
2495.839	1800.91
2498.989	1814.37
2502.14	1804.12
2505.29	1801.01
2508.439	1819.52
2511.589	1772.35
2514.738	1770.53
2517.887	1786.03
2521.035	1857.13
2524.183	1814.36
2527.331	1806.81
2530.479	1806.45
2533.627	1807.18
