Data from C_1_DEC_ON_6N_Splice17_11-53-39-335.txt Node
Date: Sat Mar 14 11:53:39 EDT 2020
User: sa697716
Spectrometer: FLMS03696
Trigger mode: 0
Integration Time (sec): 3.180400E-1
Scans to average: 20
Electric dark correction enabled: true
Nonlinearity correction enabled: true
Boxcar width: 5
XAxis mode: Wavelengths
Number of Pixels in Spectrum: 2048
>>>>>Begin Spectral Data<<<<<
187.83	-197119.36
188.298	1453.48
188.766	847.28
189.233	716.45
189.701	995.84
190.169	1351.21
190.636	501.73
191.104	474.38
191.571	57.54
192.039	-63.98
192.506	-68.5
192.974	392.14
193.441	-915.4
193.908	-265
194.375	-88.61
194.842	-5.43
195.31	30.48
195.777	113.92
196.244	293
196.711	329.48
197.177	426.59
197.644	611.05
198.111	1093.28
198.578	1563.16
199.045	1239.38
199.511	2026.67
199.978	2352.04
200.445	2005.97
200.911	2247.74
201.378	2550.85
201.844	2353.7
202.31	4021.61
202.777	4204.84
203.243	2328.53
203.709	2245.52
204.176	2681.61
204.642	2203.48
205.108	2039.47
205.574	1678.52
206.04	1499.85
206.506	1384.78
206.972	1279.37
207.438	1225.31
207.903	1398.04
208.369	1244.65
208.835	1233.19
209.301	1309.12
209.766	1327.4
210.232	1314.43
210.697	1587.49
211.163	1966.41
211.628	2963.35
212.094	2494.03
212.559	3083.86
213.024	1896.98
213.49	2274.47
213.955	2200.28
214.42	2097.79
214.885	1950.24
215.35	1862.41
215.815	1829.13
216.28	1924.55
216.745	1544.6
217.21	1641.08
217.675	1456.01
218.14	1585.1
218.604	1684.58
219.069	1835.84
219.534	1867.84
219.998	2093.32
220.463	2444.17
220.927	2848.57
221.392	2615.77
221.856	2594.96
222.32	3150.25
222.785	3819.97
223.249	4732.04
223.713	5218.2
224.177	5182.15
224.642	6550.67
225.106	7932.71
225.57	8603.06
226.034	6386.06
226.497	9617.65
226.961	8672.07
227.425	10095.17
227.889	11142.95
228.353	11061.76
228.816	22754.34
229.28	21660.3
229.744	18184.59
230.207	11093.33
230.671	10871.38
231.134	17815.94
231.597	20555.68
232.061	20372.99
232.524	19748.97
232.987	13551.35
233.45	12207.73
233.914	10906.68
234.377	11110.18
234.84	10156.54
235.303	11941.47
235.766	13331.48
236.229	13737.09
236.691	8608.74
237.154	9629.02
237.617	7297.99
238.08	7467.24
238.542	8726.78
239.005	6249.81
239.468	6225.45
239.93	5870.61
240.393	5330.22
240.855	4665.49
241.317	4782.33
241.78	5809.09
242.242	6030.48
242.704	6508.28
243.166	5670.92
243.629	5151.76
244.091	5928.18
244.553	6485.18
245.015	6968.17
245.477	8993.41
245.939	13152.37
246.4	13935.36
246.862	13524.15
247.324	12724.27
247.786	14184.84
248.247	18531.22
248.709	19080.31
249.17	14287.16
249.632	13540.11
250.093	15722.09
250.555	13597.21
251.016	8321.83
251.477	7903.06
251.939	8541.43
252.4	8965.06
252.861	10650.85
253.322	9921
253.783	11784.41
254.244	15255.6
254.705	11962.62
255.166	10610.84
255.627	10457.18
256.088	14782.11
256.549	15731.84
257.009	13524.16
257.47	16380.79
257.931	13306.64
258.391	9976.17
258.852	10276.42
259.312	10748.22
259.773	13257.06
260.233	11233.47
260.694	9444.83
261.154	10643.57
261.614	8552.28
262.074	7642.36
262.534	7934.9
262.994	7473.04
263.455	9902.23
263.915	8336.32
264.374	7829.1
264.834	8531.45
265.294	9382.29
265.754	9708.23
266.214	9157.37
266.673	8525.82
267.133	10703.65
267.593	10569.99
268.052	12914.17
268.512	11224.89
268.971	13573.41
269.431	14888.59
269.89	13282.05
270.349	19941.74
270.809	22221.12
271.268	19992.85
271.727	44782.84
272.186	29012.37
272.645	21777.26
273.104	15664
273.563	22621.52
274.022	17689.11
274.481	15067.24
274.94	11640.21
275.399	8626.68
275.857	10009.6
276.316	13514.3
276.775	12037.94
277.233	11886.4
277.692	11149.19
278.15	12655.93
278.609	13096.83
279.067	12154.83
279.525	11316.26
279.984	14603.96
280.442	17582.97
280.9	17441.07
281.358	11507.34
281.816	10729.53
282.274	10502.31
282.732	10856.76
283.19	10928.51
283.648	9436.57
284.106	10050.91
284.564	10224.21
285.021	9518.11
285.479	7107.7
285.937	6463.61
286.394	5698.4
286.852	5873.44
287.309	6195.34
287.767	6017.95
288.224	5731.28
288.682	6304.63
289.139	6949.29
289.596	6377.66
290.053	6630.7
290.511	8364.92
290.968	10137.26
291.425	13728.98
291.882	11515.14
292.339	10036.47
292.796	9946.2
293.252	9379.89
293.709	7457.83
294.166	6677.95
294.623	7359.57
295.079	7040.68
295.536	7098.61
295.992	6463.75
296.449	6413.31
296.905	6665.64
297.362	6413.58
297.818	6750.48
298.274	7010.4
298.731	7143.98
299.187	7089.66
299.643	7624.05
300.099	9279.1
300.555	10186.72
301.011	8525.54
301.467	8282.53
301.923	9648.91
302.379	9430.88
302.835	9266
303.291	9293.04
303.746	10595.16
304.202	13380.86
304.658	13470.15
305.113	9052.69
305.569	8895.28
306.024	9484.79
306.479	8981.6
306.935	7632.54
307.39	8342.07
307.845	7741.56
308.301	7827.37
308.756	7647.5
309.211	7403.45
309.666	7600.38
310.121	9509.23
310.576	9661.64
311.031	9623.02
311.486	11007.57
311.94	10995.32
312.395	14675.88
312.85	27581.55
313.305	135199.11
313.759	702150.81
314.214	50826.58
314.668	40391.4
315.123	34034.64
315.577	12244.49
316.032	10882.24
316.486	13697.1
316.94	10827.63
317.394	7568.7
317.849	5887.42
318.303	5571.94
318.757	5264.96
319.211	5831.88
319.665	5103.59
320.119	5139.57
320.572	7366.83
321.026	6912.49
321.48	5743.09
321.934	6241.38
322.387	6256.43
322.841	6777.03
323.295	6128.42
323.748	7016.49
324.202	7113.09
324.655	8561
325.108	12010.96
325.562	8484.24
326.015	10029.02
326.468	7616.13
326.921	8567.21
327.374	7984.54
327.827	8344.14
328.28	9428.58
328.733	6360.7
329.186	5609.5
329.639	5362.04
330.092	4523.98
330.545	4318.05
330.997	4372.3
331.45	4787.62
331.903	5617.88
332.355	9681.49
332.808	9382.7
333.26	7766.43
333.713	8441.81
334.165	8492.7
334.617	11306.75
335.069	9095.34
335.522	16418.9
335.974	18218.64
336.426	16651.34
336.878	11497.79
337.33	5851.65
337.782	5731.76
338.234	7201.54
338.686	8619.27
339.137	10256.15
339.589	9675.51
340.041	7619.1
340.493	6563.68
340.944	6730.78
341.396	7257.33
341.847	6137.98
342.299	7287.48
342.75	8945.75
343.201	7774.97
343.653	8903.69
344.104	10899.61
344.555	8555.14
345.006	13237.56
345.457	10168.95
345.908	8070.21
346.359	7620.31
346.81	6177.11
347.261	6465.24
347.712	6295.12
348.163	6745.85
348.613	6887.95
349.064	6436.76
349.515	5653.67
349.965	5814.77
350.416	6989.59
350.866	7674.36
351.317	8619.64
351.767	14363.57
352.217	18126.21
352.668	15127.36
353.118	13890.18
353.568	13318.61
354.018	10574.06
354.468	11177.81
354.918	8074.03
355.368	7079.82
355.818	9981.7
356.268	28766.54
356.718	120678.27
357.168	30170.63
357.617	15092.71
358.067	16800.61
358.517	15816.66
358.966	18579.48
359.416	20923.5
359.865	22557.44
360.315	26843.4
360.764	12620.38
361.213	7083.46
361.663	6677.56
362.112	8222.06
362.561	13314.51
363.01	10035.98
363.459	8438
363.908	9134.98
364.357	7759.42
364.806	13111.29
365.255	8999.67
365.703	8263.84
366.152	8298.47
366.601	6744.69
367.05	5534.32
367.498	5059.68
367.947	5285.8
368.395	5490.92
368.844	4888.89
369.292	5873.31
369.74	4061.81
370.189	6227.1
370.637	7327.35
371.085	6315.33
371.533	7678.38
371.981	7384.16
372.429	7070.6
372.877	7402.96
373.325	6204.72
373.773	6295.84
374.221	5610.35
374.669	6998.55
375.116	6083.04
375.564	6108.38
376.012	6839.86
376.459	5671.25
376.907	6779.01
377.354	8161.24
377.801	7656.73
378.249	8865.65
378.696	11355.18
379.143	13814.86
379.591	14764.92
380.038	25006.77
380.485	18125.56
380.932	19613.55
381.379	18032.54
381.826	13342.85
382.273	9510.47
382.72	8296.93
383.166	8075.64
383.613	5264.65
384.06	4757.63
384.506	5508.94
384.953	4058.41
385.4	4078.64
385.846	3576.74
386.292	3476.96
386.739	3397.97
387.185	3346.2
387.631	3356.45
388.078	3283
388.524	3520.56
388.97	3259.85
389.416	2725.83
389.862	2905.29
390.308	2762.59
390.754	2822.66
391.2	3079.82
391.645	3155.77
392.091	3060.51
392.537	2973.76
392.983	2974.12
393.428	2946.16
393.874	3158.6
394.319	3189.62
394.765	3051.14
395.21	3152.4
395.655	2961.81
396.101	2780.18
396.546	2522.79
396.991	2541.74
397.436	2364.52
397.881	2290.38
398.326	2168.47
398.771	2071.39
399.216	1807.53
399.661	1628.86
400.106	1632.24
400.551	1686.44
400.995	1519.09
401.44	1508.88
401.885	1425.52
402.329	1445.14
402.774	1394.51
403.218	1357.62
403.663	1310.14
404.107	1355.45
404.551	1370.74
404.995	1260.51
405.44	1212.5
405.884	1233.88
406.328	1192.78
406.772	1191.79
407.216	1089.31
407.66	1053.97
408.104	997.68
408.547	936.5
408.991	910.9
409.435	878.76
409.879	869.38
410.322	864.46
410.766	836.77
411.209	800.36
411.653	768.65
412.096	757.14
412.54	759.18
412.983	758.94
413.426	764.3
413.869	762.07
414.312	752.1
414.756	723.95
415.199	690.15
415.642	672.55
416.085	676.52
416.527	674.01
416.97	684.27
417.413	652.08
417.856	644.27
418.298	635.98
418.741	632.64
419.184	628.26
419.626	654.78
420.069	655.86
420.511	660.76
420.953	646.52
421.396	640.56
421.838	623.56
422.28	637.09
422.722	643.77
423.164	655.54
423.606	646.37
424.048	647.32
424.49	617.95
424.932	612.17
425.374	604.38
425.816	615.56
426.258	627.63
426.699	635.93
427.141	630.58
427.582	639.49
428.024	634.19
428.465	631.04
428.907	614.14
429.348	607.39
429.789	612.14
430.231	603.15
430.672	613.4
431.113	601.46
431.554	593.94
431.995	577.08
432.436	559.82
432.877	549.14
433.318	541.26
433.759	539.59
434.2	540.79
434.64	534.82
435.081	534.18
435.522	505.43
435.962	487.34
436.403	478.66
436.843	485.57
437.284	474.16
437.724	461.97
438.164	461.94
438.604	453.1
439.045	436.46
439.485	420.34
439.925	413.29
440.365	402.96
440.805	399.26
441.245	394.06
441.685	381
442.125	378.42
442.564	382.01
443.004	373.96
443.444	374.14
443.883	375.05
444.323	371.28
444.762	368.85
445.202	374.08
445.641	380.04
446.081	378.46
446.52	382.39
446.959	380.75
447.398	372.6
447.837	370.17
448.276	362.98
448.716	368.32
449.154	372.48
449.593	366.09
450.032	365.65
450.471	358.25
450.91	358.48
451.349	359.2
451.787	356.97
452.226	361.55
452.664	362.03
453.103	364.31
453.541	362.32
453.98	361.8
454.418	363.82
454.856	360.25
455.295	360.35
455.733	364.79
456.171	365.32
456.609	366.92
457.047	368.12
457.485	373.8
457.923	375.16
458.361	370.55
458.798	372.2
459.236	372.24
459.674	373.35
460.111	375.43
460.549	371.64
460.987	370.61
461.424	368.85
461.862	366.07
462.299	359.81
462.736	358.79
463.173	359.89
463.611	358.56
464.048	358.84
464.485	363.57
464.922	360.95
465.359	358.98
465.796	358.18
466.233	357.35
466.67	355.73
467.106	356.7
467.543	355.17
467.98	352.15
468.416	341.95
468.853	337.82
469.29	326.86
469.726	323.59
470.162	315.31
470.599	308.72
471.035	304.71
471.471	297.51
471.907	295.06
472.344	292.52
472.78	292.95
473.216	295.08
473.652	292.37
474.088	291.4
474.523	291.21
474.959	293.87
475.395	290.89
475.831	289.87
476.266	290.87
476.702	289.95
477.138	286.6
477.573	285.87
478.008	285.07
478.444	286.44
478.879	289.5
479.314	290.76
479.75	290.4
480.185	291.26
480.62	293.6
481.055	295.67
481.49	298.75
481.925	303.47
482.36	309.85
482.795	318.63
483.229	327.53
483.664	334.6
484.099	335.05
484.534	340.53
484.968	345.15
485.403	345.2
485.837	344.16
486.271	343.11
486.706	343.03
487.14	338.41
487.574	333.99
488.009	331.73
488.443	329.76
488.877	335.25
489.311	337.17
489.745	341.71
490.179	346.65
490.613	356.23
491.046	360.52
491.48	365.27
491.914	368.27
492.348	372.27
492.781	375.85
493.215	378.44
493.648	380.41
494.082	385.4
494.515	388.34
494.948	395.36
495.382	399.46
495.815	404.52
496.248	409.81
496.681	419.23
497.114	428.8
497.547	438.14
497.98	449.83
498.413	457.42
498.846	466.75
499.279	475.41
499.711	481.5
500.144	485.98
500.577	496.87
501.009	508.04
501.442	518.82
501.874	523.96
502.306	529.26
502.739	538.87
503.171	552.77
503.603	559.59
504.036	570.88
504.468	580.11
504.9	593.52
505.332	602.69
505.764	610.82
506.196	620.92
506.627	637.54
507.059	652.28
507.491	662.53
507.923	666.5
508.354	682.78
508.786	694.93
509.217	712.96
509.649	729.04
510.08	748.17
510.512	765.79
510.943	782.14
511.374	794.3
511.805	814.7
512.237	834.89
512.668	863.8
513.099	889.38
513.53	915.71
513.961	936.31
514.391	965.7
514.822	996.19
515.253	1028.92
515.684	1052.95
516.114	1081.03
516.545	1102.04
516.975	1126.53
517.406	1145.32
517.836	1151.68
518.267	1160.59
518.697	1179.54
519.127	1186.62
519.558	1196.8
519.988	1201.78
520.418	1213.16
520.848	1231.39
521.278	1242.38
521.708	1251.49
522.138	1264.65
522.567	1291.99
522.997	1315.62
523.427	1330.02
523.857	1345.97
524.286	1356.65
524.716	1371.47
525.145	1388.96
525.575	1399.22
526.004	1412.71
526.433	1417.45
526.863	1419.3
527.292	1412.74
527.721	1418.63
528.15	1424.45
528.579	1425.27
529.008	1435.12
529.437	1455.76
529.866	1467.48
530.295	1482.3
530.724	1492.92
531.152	1516.48
531.581	1528.87
532.01	1543.65
532.438	1551.22
532.867	1564.21
533.295	1581.12
533.723	1586.19
534.152	1584.89
534.58	1585.29
535.008	1572.62
535.436	1574.68
535.865	1581.87
536.293	1595.46
536.721	1609.98
537.149	1632.2
537.576	1635.55
538.004	1646.82
538.432	1653.67
538.86	1652.33
539.287	1659.28
539.715	1672.43
540.143	1675.49
540.57	1672.99
540.998	1668.64
541.425	1649.34
541.852	1630.68
542.28	1628.82
542.707	1614.86
543.134	1603.26
543.561	1600.07
543.988	1593.28
544.415	1591.36
544.842	1586.31
545.269	1579.02
545.696	1581.06
546.123	1592.35
546.549	1584.13
546.976	1572.58
547.403	1572.51
547.829	1573.32
548.256	1574.08
548.682	1570.98
549.108	1564.33
549.535	1562.91
549.961	1564.13
550.387	1552.12
550.813	1546.66
551.24	1550.44
551.666	1550.61
552.092	1540.17
552.518	1534.11
552.943	1528.09
553.369	1532.89
553.795	1536.46
554.221	1536.59
554.646	1533.58
555.072	1541.62
555.498	1544.71
555.923	1551.8
556.349	1563.01
556.774	1569.14
557.199	1568.96
557.625	1573.85
558.05	1568.13
558.475	1576.47
558.9	1573.87
559.325	1565.31
559.75	1559.11
560.175	1551.44
560.6	1544.78
561.025	1542.68
561.449	1543.03
561.874	1546.81
562.299	1549.05
562.723	1554.25
563.148	1544.18
563.572	1546.69
563.997	1553.43
564.421	1557.09
564.846	1557.1
565.27	1559.76
565.694	1556.46
566.118	1564.65
566.542	1569.89
566.966	1562.56
567.39	1557.6
567.814	1547.51
568.238	1545.07
568.662	1549.05
569.086	1549.86
569.509	1554.24
569.933	1539.7
570.357	1533
570.78	1513.64
571.204	1501.22
571.627	1492.01
572.05	1488.79
572.474	1486.64
572.897	1476.31
573.32	1468.28
573.743	1458.04
574.166	1440.98
574.589	1438.28
575.012	1428.77
575.435	1427.6
575.858	1417.77
576.281	1407.16
576.704	1392.23
577.126	1380.66
577.549	1369.08
577.972	1359.24
578.394	1349.34
578.817	1342.76
579.239	1326.39
579.661	1314.71
580.084	1299.88
580.506	1288.13
580.928	1282.08
581.35	1271.96
581.772	1266.95
582.194	1255.17
582.616	1242.44
583.038	1228.79
583.46	1218.49
583.882	1215.06
584.303	1215.85
584.725	1210.51
585.147	1210.9
585.568	1218.09
585.99	1226.27
586.411	1230.8
586.833	1240.85
587.254	1241.85
587.675	1252.15
588.096	1261.35
588.518	1255.14
588.939	1241.07
589.36	1238.7
589.781	1229.29
590.202	1206.49
590.623	1197.67
591.043	1193.59
591.464	1182.71
591.885	1177.94
592.305	1172.19
592.726	1160.21
593.147	1160.33
593.567	1157.14
593.987	1150.71
594.408	1146.31
594.828	1143.99
595.248	1140.46
595.669	1127.09
596.089	1122.06
596.509	1116.58
596.929	1106.14
597.349	1106.51
597.769	1098.92
598.189	1093.02
598.608	1093.77
599.028	1094.56
599.448	1094.1
599.867	1083.48
600.287	1079.74
600.706	1075.56
601.126	1067.65
601.545	1065.32
601.965	1063.52
602.384	1059.33
602.803	1060.09
603.222	1055.6
603.641	1049.23
604.061	1046.26
604.48	1042.45
604.898	1047.03
605.317	1049.75
605.736	1050.77
606.155	1048.61
606.574	1039.81
606.992	1041.9
607.411	1037.38
607.829	1029.15
608.248	1025.44
608.666	1021.3
609.085	1019.08
609.503	1010.74
609.921	1004.3
610.339	1003.85
610.758	1001.83
611.176	997.46
611.594	989.59
612.012	985.79
612.43	987.41
612.847	990.93
613.265	991.13
613.683	992.17
614.101	991.72
614.518	987.4
614.936	978.08
615.353	965.43
615.771	961.37
616.188	959.54
616.606	955.31
617.023	948.54
617.44	936.69
617.857	928.98
618.274	921.7
618.691	917.07
619.108	908.56
619.525	904.1
619.942	907.54
620.359	908.46
620.776	904.25
621.192	900.49
621.609	898
622.026	902.13
622.442	906.12
622.859	908.01
623.275	900.56
623.691	904.66
624.108	911.87
624.524	921.07
624.94	920.33
625.356	926.28
625.772	934.73
626.188	942.86
626.604	943.21
627.02	940.18
627.436	938.07
627.852	943.84
628.268	952.44
628.683	945.65
629.099	940.13
629.514	936.72
629.93	939.16
630.345	942.59
630.761	939.86
631.176	942.26
631.591	938.81
632.007	934.56
632.422	931.95
632.837	923.33
633.252	920.99
633.667	911.99
634.082	904.15
634.497	895.02
634.911	879.61
635.326	875.25
635.741	861.14
636.155	850.98
636.57	850.11
636.984	847.77
637.399	846.82
637.813	843.39
638.228	840.45
638.642	840.84
639.056	830.82
639.47	829.05
639.884	819.99
640.298	812.65
640.712	808.78
641.126	796.98
641.54	788.32
641.954	780.77
642.368	769.6
642.781	761.84
643.195	747.89
643.609	745.45
644.022	736.95
644.436	731.51
644.849	719.81
645.262	709.76
645.676	707.84
646.089	701.7
646.502	689.36
646.915	683.49
647.328	669.62
647.741	665.68
648.154	654.24
648.567	651.64
648.98	641.23
649.393	640.84
649.805	636.33
650.218	628.86
650.631	617.18
651.043	611.81
651.456	606.57
651.868	605.69
652.28	613.42
652.693	620.69
653.105	622.23
653.517	626.67
653.929	624.98
654.341	627.59
654.753	619.17
655.165	620.76
655.577	617.15
655.989	612.92
656.401	605.46
656.813	583.45
657.224	567.81
657.636	548.34
658.047	535.14
658.459	521.24
658.87	512.14
659.282	502.7
659.693	488.46
660.104	477.42
660.515	467.24
660.926	462.23
661.338	456.49
661.749	449.83
662.159	442.3
662.57	436.48
662.981	431.33
663.392	424.03
663.803	422.91
664.213	419.25
664.624	415.01
665.035	413.04
665.445	404.26
665.855	399.61
666.266	394.41
666.676	391.26
667.086	385.17
667.497	383.25
667.907	379.72
668.317	374.33
668.727	373.26
669.137	371.41
669.547	369.93
669.956	370.81
670.366	370.33
670.776	370.93
671.186	372.47
671.595	373.63
672.005	374.92
672.414	374.22
672.824	373.74
673.233	374.17
673.642	376.07
674.052	377.85
674.461	379.53
674.87	382.37
675.279	382.47
675.688	383.34
676.097	385.28
676.506	384.58
676.915	392.54
677.323	394.95
677.732	394
678.141	395.29
678.549	391.09
678.958	391.13
679.366	391.92
679.775	395.05
680.183	403.78
680.592	409.27
681	415.21
681.408	414.61
681.816	421.17
682.224	429.91
682.632	439.23
683.04	458.41
683.448	475.85
683.856	496.44
684.264	520.83
684.671	542.17
685.079	570.16
685.487	601.89
685.894	643.47
686.302	680.52
686.709	712.93
687.116	749.46
687.524	784.23
687.931	816.78
688.338	846.66
688.745	873.57
689.152	903.84
689.559	941.39
689.966	979.23
690.373	1003.09
690.78	1040.23
691.187	1094.36
691.593	1138.11
692	1177.76
692.407	1232.47
692.813	1297.69
693.22	1350.98
693.626	1406.59
694.032	1452.19
694.439	1518.71
694.845	1573.15
695.251	1640.14
695.657	1699.69
696.063	1785.53
696.469	1851.54
696.875	1913.08
697.281	1949.49
697.687	1995.31
698.093	2036.01
698.498	2104.89
698.904	2157.85
699.31	2235.44
699.715	2293.01
700.12	2372.49
700.526	2393
700.931	2455.35
701.337	2501.65
701.742	2537.59
702.147	2612.97
702.552	2643.89
702.957	2699.24
703.362	2721.2
703.767	2752.12
704.172	2789.86
704.577	2756.72
704.981	2801.11
705.386	2819.87
705.791	2818.96
706.195	2885.73
706.6	2896.34
707.004	2965.14
707.408	2943.6
707.813	2971.08
708.217	2964.06
708.621	2970.31
709.025	3056.49
709.43	3060.89
709.834	3117.21
710.237	3179.97
710.641	3170.83
711.045	3194.23
711.449	3192.62
711.853	3220.4
712.256	3259.6
712.66	3294.04
713.064	3360.83
713.467	3399.46
713.87	3498.97
714.274	3541.49
714.677	3639.79
715.08	3780
715.484	3927.26
715.887	4106.37
716.29	4280.35
716.693	4461.19
717.096	4674.31
717.499	4791.25
717.901	4817.26
718.304	4844.72
718.707	4865.28
719.109	4776.79
719.512	4751.59
719.915	4639.08
720.317	4590.18
720.719	4631.19
721.122	4608.11
721.524	4564.85
721.926	4530.65
722.328	4618
722.731	4609.37
723.133	4635.3
723.535	4805.54
723.937	4826.25
724.338	4872.43
724.74	4911.56
725.142	4855.76
725.544	4854.35
725.945	4878.66
726.347	4876.98
726.748	4871.42
727.15	4886.75
727.551	4857.53
727.952	4836.02
728.354	4810.84
728.755	4812.14
729.156	4777.22
729.557	4768.52
729.958	4665.72
730.359	4620.1
730.76	4604.45
731.161	4553.45
731.562	4529.39
731.962	4534.05
732.363	4477.92
732.763	4423.96
733.164	4456.06
733.564	4397.18
733.965	4314.62
734.365	4285.13
734.766	4308.19
735.166	4275.96
735.566	4229.69
735.966	4211.25
736.366	4204.81
736.766	4150.42
737.166	4178.13
737.566	4140.81
737.966	4119.9
738.365	4152.55
738.765	4149.24
739.165	4086.49
739.564	4062.16
739.964	4101.69
740.363	4061.02
740.763	4058.74
741.162	4050.19
741.561	4021.12
741.96	3980.1
742.36	3995.88
742.759	4001.86
743.158	4033.35
743.557	4044.59
743.955	4079.78
744.354	4039.2
744.753	4087.32
745.152	4051.13
745.55	4099.36
745.949	4095.12
746.348	4098.46
746.746	4114.61
747.144	4079.15
747.543	4061.73
747.941	4105.04
748.339	4043.93
748.737	4036.77
749.136	4029.96
749.534	4087.55
749.932	4064.35
750.33	4085.09
750.727	4133.1
751.125	4110.85
751.523	4098.82
751.921	4133.72
752.318	4103.04
752.716	4154.85
753.113	4167.05
753.511	4190.23
753.908	4191.61
754.305	4175.59
754.703	4229.25
755.1	4282.79
755.497	4336.42
755.894	4501.58
756.291	4656.02
756.688	4940.66
757.085	5320.68
757.482	5856.8
757.878	6438.3
758.275	6963.74
758.672	7690.1
759.068	8281.75
759.465	9126.36
759.861	10215.59
760.258	11474.19
760.654	12131.14
761.05	12039.5
761.447	11490.71
761.843	10697.64
762.239	9879.6
762.635	9512.08
763.031	9158.07
763.427	8647.12
763.822	8105.03
764.218	7564.73
764.614	6877.98
765.01	6415.21
765.405	6112.57
765.801	5883.87
766.196	5593.77
766.592	5433.43
766.987	5157.71
767.382	4971.69
767.778	4891.32
768.173	4779.24
768.568	4718.46
768.963	4610.8
769.358	4623.81
769.753	4585.11
770.148	4512.01
770.542	4510.37
770.937	4482.2
771.332	4561.12
771.726	4577.82
772.121	4526.06
772.515	4572.9
772.91	4561.23
773.304	4620.98
773.699	4567.42
774.093	4611.52
774.487	4662.33
774.881	4700.83
775.275	4696.96
775.669	4662.31
776.063	4700.16
776.457	4730.9
776.851	4667.18
777.245	4659.91
777.638	4686.51
778.032	4785.35
778.425	4755.85
778.819	4790.57
779.212	4755.75
779.606	4722
779.999	4739.23
780.392	4726.29
780.786	4797.74
781.179	4817.41
781.572	4856.06
781.965	4868.47
782.358	4816.68
782.751	4863.98
783.143	4821.46
783.536	4880.62
783.929	4917.61
784.322	5015.59
784.714	5041.2
785.107	5035.02
785.499	5092.9
785.891	5073.51
786.284	5056.81
786.676	5181.62
787.068	5166.73
787.46	5212.57
787.852	5233.56
788.245	5306.79
788.636	5331.28
789.028	5388.87
789.42	5422.77
789.812	5430.26
790.204	5511.2
790.595	5596.02
790.987	5425.04
791.378	5441.48
791.77	5550.88
792.161	5668.09
792.553	5713.45
792.944	5617.21
793.335	5555.57
793.726	5616.43
794.117	5697.83
794.508	5816.02
794.899	5790.45
795.29	5910.46
795.681	5964.22
796.072	5843.04
796.463	5682.76
796.853	5691.02
797.244	5824.79
797.634	5855.94
798.025	5859.41
798.415	5866.11
798.806	5943.5
799.196	6015.88
799.586	6062.24
799.976	6029.13
800.366	6225.91
800.756	6432
801.146	6397.7
801.536	6420.08
801.926	6484.6
802.316	6502.39
802.706	6562
803.095	6454.36
803.485	6541.09
803.874	6569.55
804.264	6785.87
804.653	6763.85
805.043	6885.8
805.432	6976.8
805.821	6983.66
806.21	6998.98
806.599	7099.95
806.988	7137.82
807.377	7229.51
807.766	7338.31
808.155	7583.82
808.544	7362.45
808.933	7372.92
809.321	7352.07
809.71	7607.86
810.098	7741.9
810.487	8135.87
810.875	8543.94
811.264	8560.43
811.652	8806.65
812.04	8930.81
812.428	9066.82
812.816	9711.56
813.204	10065.05
813.592	10533.95
813.98	10811.87
814.368	10723.6
814.756	11132.81
815.144	11065.98
815.531	11459.59
815.919	11395.91
816.306	11659.68
816.694	11395.7
817.081	11445.16
817.469	11739.58
817.856	11734.24
818.243	11964.92
818.63	12302.05
819.017	11941.66
819.404	11988.23
819.791	12311.59
820.178	12829.98
820.565	13036.92
820.952	13834.16
821.339	13411.91
821.725	13567.45
822.112	12939.36
822.498	12908.01
822.885	13019.87
823.271	12940.65
823.657	13306.01
824.044	13315.14
824.43	13376.94
824.816	13353.87
825.202	12984.04
825.588	13854.76
825.974	13870.34
826.36	14310.58
826.746	14339.87
827.132	14637.88
827.517	14618.49
827.903	13948.75
828.289	13992.25
828.674	13336.02
829.06	13251.6
829.445	13588.96
829.83	13896.56
830.216	14311.77
830.601	14624.65
830.986	14283.75
831.371	14179.35
831.756	14654.47
832.141	14291.53
832.526	14279.9
832.911	14523.62
833.295	14423.2
833.68	14826.74
834.065	14296.6
834.449	13514.35
834.834	13460.03
835.218	13459.72
835.603	13746.92
835.987	13569.09
836.371	14288.67
836.755	14208.09
837.139	14549.41
837.524	14762.8
837.908	14607.25
838.291	14660.17
838.675	14721.78
839.059	14891.52
839.443	14884.21
839.827	14695.19
840.21	15113.24
840.594	14981.91
840.977	15155.57
841.361	15141.73
841.744	15459.81
842.127	15319.42
842.511	15532.67
842.894	16043.29
843.277	16375.3
843.66	16827.13
844.043	16894.13
844.426	16203.88
844.809	15942.28
845.191	15964.42
845.574	15574.36
845.957	15263.45
846.339	15190.44
846.722	14740.59
847.104	14802.22
847.487	14654.6
847.869	14670.17
848.252	14910.87
848.634	15193.38
849.016	15414.02
849.398	15526.71
849.78	16256.21
850.162	16257.92
850.544	16609.15
850.926	17146.75
851.307	17067
851.689	17310.49
852.071	17699.29
852.452	17978.66
852.834	17963.59
853.215	18306.69
853.597	18439.94
853.978	18695.95
854.359	19090.73
854.741	18231.06
855.122	18140.79
855.503	17893.33
855.884	17999.58
856.265	17949.72
856.646	18048.26
857.026	17704.81
857.407	17646.09
857.788	17775.71
858.169	18013.88
858.549	17278.26
858.93	17806.02
859.31	17849.15
859.69	18031.4
860.071	17692.01
860.451	17500.32
860.831	16857.44
861.211	17849.89
861.591	18316.78
861.971	18295.69
862.351	18460.41
862.731	18800.04
863.111	19036.76
863.491	19319.69
863.87	20062.69
864.25	20362.9
864.629	20028.65
865.009	20475.09
865.388	21205.52
865.768	22722.11
866.147	22640.19
866.526	21380.5
866.905	21630.23
867.284	22843.18
867.663	21703.77
868.042	20799.54
868.421	20721.11
868.8	21067.14
869.179	21271.38
869.558	20032.6
869.936	18468.56
870.315	18791.96
870.693	19257.36
871.072	20776.12
871.45	19786.55
871.828	20027.53
872.207	21061.58
872.585	20756.2
872.963	21314.48
873.341	20588.75
873.719	20347.2
874.097	20105.06
874.475	20493.28
874.853	20958
875.23	20089.69
875.608	20931.01
875.986	22641.01
876.363	21658.1
876.741	22304.89
877.118	21743.37
877.495	22805.51
877.873	23186.78
878.25	24401.18
878.627	23405.76
879.004	23740.38
879.381	23614
879.758	23000.3
880.135	21419.59
880.512	22640.83
880.889	22046.89
881.265	21817.8
881.642	21639.36
882.019	22009.1
882.395	21558.77
882.772	22407.57
883.148	21431.91
883.524	21342.03
883.901	21210.93
884.277	21534.92
884.653	21401.13
885.029	22016.28
885.405	24385.73
885.781	24194.76
886.157	23199.06
886.532	23481.15
886.908	23464.29
887.284	26096.61
887.659	26961.04
888.035	27805.65
888.411	28510.82
888.786	28881.08
889.161	29878.87
889.537	29329.32
889.912	30270.76
890.287	30232.02
890.662	31013.53
891.037	30460.79
891.412	28399.03
891.787	28106.05
892.162	27119.51
892.536	27755.73
892.911	26719.02
893.286	26158.62
893.66	25097.08
894.035	25729.94
894.409	28038.56
894.784	26922.34
895.158	27364.83
895.532	28991.53
895.906	29799.55
896.281	30507.77
896.655	30024.41
897.029	34319.34
897.402	35738.51
897.776	39789.73
898.15	39664.99
898.524	39200.36
898.898	39694.46
899.271	44456.81
899.645	38512.79
900.018	36966.32
900.392	38323.95
900.765	38621.13
901.138	35722.75
901.511	35168.18
901.884	32287.96
902.258	29783.69
902.631	30774.91
903.003	35416.44
903.376	31949.33
903.749	35795.97
904.122	38327.35
904.495	42215.08
904.867	42730.38
905.24	37072.32
905.612	34532.27
905.985	35302.7
906.357	36903.18
906.729	35209.5
907.102	30073.17
907.474	28916.92
907.846	29102.08
908.218	28724.04
908.59	25366.63
908.962	24535.98
909.334	26439.63
909.705	27767.16
910.077	26979.14
910.449	28075.88
910.82	28866.82
911.192	31773.71
911.563	33024.24
911.935	35347.52
912.306	35367.06
912.677	36527.98
913.048	36176.81
913.419	39230.72
913.79	39466.19
914.161	42312.1
914.532	40454.33
914.903	37183.31
915.274	35296.07
915.645	34778.46
916.015	30602.86
916.386	29185.45
916.756	31082.43
917.127	32058.08
917.497	28637.71
917.868	31169.28
918.238	29596.15
918.608	30443.48
918.978	31063.45
919.348	32915.02
919.718	34011.14
920.088	32754.22
920.458	34035.75
920.828	35803.6
921.198	33942.21
921.567	36278.02
921.937	28094.81
922.306	28377.48
922.676	30605.84
923.045	25545.15
923.415	24263.42
923.784	22086.16
924.153	22709.24
924.522	22684.83
924.891	21317.1
925.26	22833.4
925.629	22307.9
925.998	25634.02
926.367	25011.18
926.736	23808.42
927.104	28326.99
927.473	30434.16
927.842	36763.41
928.21	36411.22
928.578	38258.36
928.947	36178.98
929.315	36391.93
929.683	42643.5
930.051	42996.62
930.42	49932.1
930.788	42673.7
931.156	42397.03
931.523	39769.47
931.891	36723.48
932.259	35308.93
932.627	40937.65
932.994	57975.69
933.362	47959.23
933.729	41665.33
934.097	39845.11
934.464	33708.76
934.831	38912.49
935.199	38365.04
935.566	37190.23
935.933	37691.41
936.3	45615.71
936.667	35528.35
937.034	32032.51
937.401	31675.62
937.767	27327.99
938.134	24360.48
938.501	34406.94
938.867	36671.22
939.234	62010.21
939.6	52971.02
939.967	58416.06
940.333	39102.15
940.699	33273.14
941.065	26720.28
941.431	34990.6
941.798	33739.09
942.163	44216.99
942.529	27605.56
942.895	25407.4
943.261	16419.43
943.627	21511.24
943.992	18836.37
944.358	18863.15
944.723	18942.5
945.089	18441.39
945.454	17047.16
945.82	18199.45
946.185	17513.94
946.55	20292.31
946.915	18204.23
947.28	21357.09
947.645	18808.31
948.01	17381.18
948.375	18116.54
948.74	21702.72
949.104	25321.62
949.469	36587.42
949.834	64634.67
950.198	61274.86
950.562	36714.87
950.927	30594.62
951.291	36828.92
951.655	31377.08
952.02	29430.43
952.384	22262.29
952.748	19375.54
953.112	18886.66
953.476	16425.51
953.839	15188.54
954.203	15029.12
954.567	18795.96
954.931	29604.51
955.294	25321.93
955.658	25465.63
956.021	43313.95
956.385	73376.47
956.748	108344.18
957.111	168042.37
957.474	188729.63
957.837	212555.62
958.2	160910.88
958.563	57896.68
958.926	39114.27
959.289	59339.4
959.652	66322.91
960.015	49724.09
960.377	71392.82
960.74	81411.4
961.102	140536.59
961.465	150844.41
961.827	80879.77
962.189	155141.92
962.552	107523.22
962.914	86250.26
963.276	55998.31
963.638	46297.15
964	45842.54
964.362	31005.83
964.724	29966.65
965.085	21363.57
965.447	17517.94
965.809	19953.92
966.17	19966.5
966.532	21625.29
966.893	19837.35
967.255	18041.05
967.616	21274.97
967.977	17050.35
968.338	18621.8
968.699	15315
969.061	15314.91
969.421	15414.11
969.782	17281.29
970.143	14603.17
970.504	15095.62
970.865	17165.82
971.225	17535.47
971.586	17160.11
971.946	24466.67
972.307	21249.6
972.667	27773.75
973.027	28626.22
973.388	34716.52
973.748	23612.62
974.108	25743
974.468	34863.67
974.828	26860.56
975.188	20720.16
975.548	19023.91
975.907	15973.04
976.267	17908.83
976.627	15059.77
976.986	15621.73
977.346	14859.63
977.705	14310.13
978.064	13028.2
978.424	10844.21
978.783	11214.63
979.142	12785.27
979.501	12234.64
979.86	12922.38
980.219	12460.68
980.578	16046.1
980.937	17939.29
981.296	16008.01
981.654	16462.78
982.013	25593.32
982.371	33189.41
982.73	31013.65
983.088	35065.04
983.447	37458.29
983.805	53509.02
984.163	111751.48
984.521	124243.83
984.879	182151.39
985.237	-296095.65
985.595	285508.53
985.953	71052.86
986.311	41039.96
986.669	23841.32
987.026	20617.32
987.384	27679.14
987.741	28600.98
988.099	20434.43
988.456	16252.45
988.814	15214.37
989.171	13244.59
989.528	13081.77
989.885	13791.32
990.242	10940.03
990.599	13612.55
990.956	11141.69
991.313	7813.16
991.67	6427.68
992.027	6811.83
992.383	6047.87
992.74	5304.63
993.096	5561.55
993.453	5761.26
993.809	5969.67
994.165	7944.95
994.522	7286.91
994.878	8012.07
995.234	10053.65
995.59	9920.83
995.946	9382.75
996.302	10721.89
996.658	12429.22
997.013	13698.84
997.369	16222.79
997.725	20763.97
998.08	13442.15
998.436	20717.99
998.791	28614.07
999.147	28543.56
999.502	31120.74
999.857	22638.58
1000.212	36904.1
1000.567	52466.45
1000.922	30248.55
1001.277	19227.46
1001.632	14292.42
1001.987	18395.61
1002.342	13177.84
1002.696	10534.95
1003.051	8386.2
1003.406	10152.42
1003.76	10103.78
1004.114	9947.33
1004.469	8353.63
1004.823	6928.07
1005.177	7484.57
1005.531	5935.4
1005.885	5274.3
1006.239	5944.22
1006.593	7456.88
1006.947	9987.5
1007.301	7489.87
1007.655	8167.82
1008.008	6011.98
1008.362	6757.88
1008.715	9619.7
1009.069	8757.55
1009.422	13123.28
1009.776	26280.4
1010.129	17465.1
1010.482	14579.29
1010.835	12313.65
1011.188	25633.11
1011.541	24077.76
1011.894	-146531.45
1012.247	430081.55
1012.6	29362.29
1012.952	18479.79
1013.305	9554.48
1013.657	6897.79
1014.01	6539.75
1014.362	5388.62
1014.715	4804.43
1015.067	4182.47
1015.419	4100.77
1015.771	3651.63
1016.123	3250.13
1016.475	3334.5
1016.827	3536.26
1017.179	3816.96
1017.531	3845.56
1017.883	3922.74
1018.234	3796.39
1018.586	4792.56
1018.938	5077.35
1019.289	6997.21
1019.64	8003.25
1019.992	7465.59
1020.343	6830.99
1020.694	5428.2
1021.045	4770.6
1021.396	5435.92
1021.747	5832.49
1022.098	7022.61
1022.449	5104.94
1022.8	4713.89
1023.151	3285.47
1023.501	2911.59
1023.852	3167.63
1024.202	3283.9
1024.553	3603.39
1024.903	3528.4
1025.253	3019.94
1025.604	2734.08
1025.954	3381.35
1026.304	4104.6
1026.654	4809.84
1027.004	7052.42
1027.354	11379.34
1027.703	10788.8
1028.053	14217.76
1028.403	20871.04
1028.753	30171.92
1029.102	41083.86
1029.452	209789.68
1029.801	9022.53
1030.15	5845.64
1030.499	4962.9
897.758	2149.91
901.051	2085.23
904.343	2118.85
907.636	2124.66
910.928	2185.79
914.22	2107.56
917.511	2110.38
920.803	2158.8
924.094	2156.26
927.384	2159.84
930.675	2126.23
933.965	2090.63
937.255	2117.85
940.544	2086.58
943.834	2084.89
947.123	2025.21
950.411	2112.83
953.7	2093.8
956.988	2078.68
960.276	2013.67
963.563	2063.73
966.851	2069.47
970.138	2110.1
973.424	2114.07
976.711	2067.71
979.997	2114.4
983.283	2157.26
986.568	2088.08
989.853	2079.03
993.138	2105.87
996.423	2191.07
999.708	2147.27
1002.992	2180.37
1006.275	2102.64
1009.559	2107.31
1012.842	2204.95
1016.125	2158.98
1019.408	2140.34
1022.69	2192.68
1025.972	2227.41
1029.254	2202.41
1032.536	2166.35
1035.817	2174.27
1039.098	2143.51
1042.379	2187.02
1045.659	2212.95
1048.939	2163.72
1052.219	2169.69
1055.498	2163.34
1058.778	2162.1
1062.057	2137.1
1065.335	2158.73
1068.614	2167.87
1071.892	2165.94
1075.17	2217.88
1078.447	2221.21
1081.724	2216.65
1085.001	2238.35
1088.278	2218.03
1091.554	2224.43
1094.83	2217.72
1098.106	2253.5
1101.382	2284.2
1104.657	2286.59
1107.932	2283.74
1111.206	2263.5
1114.481	2215.79
1117.755	2214.95
1121.029	2209.9
1124.302	2269.85
1127.575	2234.93
1130.848	2234.35
1134.121	2204.02
1137.393	2166.73
1140.665	2220.32
1143.937	2200.91
1147.208	2148.21
1150.48	2206.82
1153.75	2193.15
1157.021	2196.09
1160.291	2171.43
1163.561	2223.47
1166.831	2191.35
1170.101	2217.93
1173.37	2178.05
1176.639	2136.13
1179.907	2181.6
1183.176	2205.47
1186.444	2204.35
1189.711	2231.49
1192.979	2255.39
1196.246	2215.27
1199.513	2224.74
1202.78	2230.03
1206.046	2239.03
1209.312	2268.36
1212.578	2286.45
1215.843	2252.57
1219.108	2221.05
1222.373	2246.02
1225.638	2219.33
1228.902	2209.01
1232.166	2165.84
1235.43	2156.59
1238.693	2183.66
1241.956	2173.16
1245.219	2218.7
1248.482	2204.15
1251.744	2201.07
1255.006	2318.06
1258.268	2265.59
1261.529	2222.33
1264.79	2223.78
1268.051	2318.2
1271.312	2326.9
1274.572	2294.93
1277.832	2285.49
1281.092	2266.98
1284.351	2256.44
1287.61	2241.84
1290.869	2180.07
1294.128	2177.76
1297.386	2224.28
1300.644	2216.92
1303.902	2225.3
1307.159	2098.2
1310.416	2148.99
1313.673	2176.1
1316.93	2172.88
1320.186	2204.34
1323.442	2237.29
1326.697	2238.28
1329.953	2213.66
1333.208	2251.49
1336.463	2221.64
1339.717	2185.66
1342.972	2293.62
1346.226	2263.51
1349.479	2214.86
1352.733	2196.87
1355.986	2202.09
1359.238	2182.53
1362.491	2189.08
1365.743	2187.29
1368.995	2177.48
1372.247	2195.21
1375.498	2214.39
1378.749	2252.17
1382	2205.82
1385.251	2240.56
1388.501	2193.59
1391.751	2192.34
1395	2161.03
1398.25	2186.77
1401.499	2211.08
1404.748	2161.85
1407.996	2138.28
1411.244	2127.86
1414.492	2113.34
1417.74	2097.8
1420.987	2102.67
1424.234	2161.67
1427.481	2125.84
1430.728	2180.81
1433.974	2154.37
1437.22	2150.78
1440.465	2148.04
1443.711	2147.62
1446.956	2171.69
1450.201	2141.79
1453.445	2184.3
1456.689	2172.38
1459.933	2183.76
1463.177	2222.66
1466.42	2195.33
1469.663	2181.82
1472.906	2197.33
1476.148	2244.17
1479.391	2215.63
1482.633	2189.8
1485.874	2217.06
1489.115	2222.72
1492.356	2204.11
1495.597	2184.51
1498.838	2176.18
1502.078	2163.11
1505.318	2132.66
1508.557	2167.32
1511.797	2161.29
1515.036	2207.62
1518.274	2179.59
1521.513	2131.48
1524.751	2142.01
1527.989	2167.8
1531.227	2183.09
1534.464	2198.06
1537.701	2192.13
1540.938	2203.69
1544.174	2152.73
1547.41	2143.94
1550.646	2180.46
1553.882	2229.02
1557.117	2284.72
1560.352	2292.7
1563.587	2255.84
1566.821	2224.3
1570.055	2238.59
1573.289	2220.37
1576.523	2277.86
1579.756	2291.81
1582.989	2315.31
1586.222	2274.15
1589.454	2302.4
1592.686	2288.65
1595.918	2316.89
1599.15	2313.85
1602.381	2359.32
1605.612	2340.98
1608.843	2431.98
1612.073	2355.15
1615.303	2343.16
1618.533	2340.54
1621.762	2337.74
1624.992	2314.14
1628.221	2314.81
1631.449	2302.43
1634.678	2329.2
1637.906	2295.78
1641.134	2322.48
1644.361	2288.4
1647.588	2279.48
1650.815	2299.26
1654.042	2264.59
1657.269	2294.43
1660.495	2272.31
1663.72	2260.39
1666.946	2230.47
1670.171	2204.91
1673.396	2177.65
1676.621	2161.31
1679.845	2157.41
1683.069	2164.52
1686.293	2194.49
1689.517	2183.91
1692.74	2136.39
1695.963	2158.25
1699.185	2196.14
1702.408	2170.88
1705.63	2198.68
1708.852	2218.35
1712.073	2188.76
1715.294	2201.3
1718.515	2242.49
1721.736	2202.24
1724.956	2183.16
1728.176	2204.01
1731.396	2227.75
1734.616	2212.44
1737.835	2247.92
1741.054	2220.62
1744.272	2212.04
1747.491	2251.96
1750.709	2272.89
1753.927	2223.23
1757.144	2248.14
1760.361	2306.14
1763.578	2281.48
1766.795	2229.72
1770.011	2218.95
1773.227	2242.83
1776.443	2284.78
1779.658	2327.16
1782.874	2267.46
1786.089	2261.6
1789.303	2264.6
1792.518	2259.18
1795.732	2245.08
1798.945	2262.25
1802.159	2302.07
1805.372	2248.29
1808.585	2243.1
1811.797	2242.41
1815.01	2262.31
1818.222	2285.77
1821.434	2245.9
1824.645	2286.62
1827.856	2298.79
1831.067	2328.19
1834.278	2267.07
1837.488	2251.86
1840.698	2370.89
1843.908	2313.62
1847.117	2282.67
1850.326	2212.41
1853.535	2270.69
1856.744	2304.76
1859.952	2230.05
1863.16	2232.25
1866.368	2243.53
1869.575	2351.69
1872.782	2237.17
1875.989	2173.3
1879.196	2221.35
1882.402	2213.42
1885.608	2244.11
1888.814	2187.67
1892.019	2099.57
1895.224	2149
1898.429	2114.15
1901.634	2100.72
1904.838	2077.92
1908.042	2134.94
1911.246	2147.82
1914.449	2112.43
1917.652	2093.68
1920.855	2074.35
1924.058	2096.95
1927.26	2140.98
1930.462	2162.49
1933.664	2201.55
1936.865	2145.05
1940.066	2159.8
1943.267	2104.9
1946.467	2112.23
1949.668	2129.6
1952.868	2197.58
1956.067	2190.03
1959.267	2132.11
1962.466	2154.3
1965.665	2136.08
1968.863	2130.96
1972.061	2136.14
1975.259	2128.57
1978.457	2203.82
1981.654	2165.67
1984.852	2168.32
1988.048	2122.41
1991.245	2111.29
1994.441	2200.71
1997.637	2157.64
2000.833	2140.64
2004.028	2175.72
2007.223	2234.75
2010.418	2223.59
2013.613	2175.12
2016.807	2170.21
2020.001	2164.79
2023.194	2185.93
2026.388	2173.55
2029.581	2115.57
2032.774	2179.73
2035.966	2191.3
2039.158	2138.47
2042.35	2156.45
2045.542	2085.78
2048.733	2164.84
2051.924	2157.04
2055.115	2173.43
2058.306	2140.25
2061.496	2193.12
2064.686	2241.48
2067.875	2147.59
2071.065	2151.18
2074.254	2168.48
2077.442	2124.58
2080.631	2204.11
2083.819	2137.92
2087.007	2131.08
2090.195	2116.65
2093.382	2132.32
2096.569	2115.13
2099.756	2078.17
2102.942	2126.8
2106.128	2139.38
2109.314	2127.83
2112.5	2114.32
2115.685	2082.94
2118.87	2091.16
2122.055	2148.81
2125.239	2129.08
2128.424	2117.24
2131.608	2175.43
2134.791	2160.54
2137.974	2196.1
2141.157	2184.6
2144.34	2157.93
2147.523	2147.62
2150.705	2173.73
2153.887	2141.85
2157.068	2117.04
2160.25	2095.32
2163.431	2118.87
2166.611	2089.56
2169.792	2110.95
2172.972	2026.34
2176.152	2073.36
2179.331	2100.83
2182.511	2104.31
2185.69	2125.71
2188.868	2131.22
2192.047	2163.74
2195.225	2184.39
2198.403	2132.34
2201.58	2118.44
2204.758	2104.82
2207.935	2177.62
2211.111	2097.85
2214.288	2085.21
2217.464	2121.37
2220.64	2076.36
2223.815	2124.77
2226.991	2058.63
2230.166	2072.8
2233.34	2116.03
2236.515	2127.63
2239.689	2190.56
2242.863	2141.79
2246.036	2194.01
2249.209	2176.14
2252.382	2192.59
2255.555	2202.69
2258.727	2153.26
2261.9	2182.98
2265.071	2175.12
2268.243	2172.34
2271.414	2122.8
2274.585	2107.78
2277.756	2167.42
2280.926	2125.08
2284.096	2156.21
2287.266	2085.96
2290.436	2131.84
2293.605	2151.21
2296.774	2188.15
2299.942	2191.57
2303.111	2205.96
2306.279	2258.26
2309.447	2242.19
2312.614	2213.73
2315.781	2239.71
2318.948	2216.25
2322.115	2254.2
2325.281	2155.04
2328.447	2163.25
2331.613	2134.72
2334.779	2128.13
2337.944	2124.91
2341.109	2126.82
2344.274	2116.67
2347.438	2083.59
2350.602	2103.03
2353.766	2111.1
2356.929	2100.46
2360.092	2138.94
2363.255	2110.26
2366.418	2077.64
2369.58	2139.34
2372.742	2020.59
2375.904	2011.71
2379.066	1997.18
2382.227	2022.54
2385.388	1984.5
2388.548	1938.52
2391.709	1978.21
2394.869	1966.65
2398.029	2018.86
2401.188	2013.3
2404.347	1981.21
2407.506	2053.13
2410.665	2095.79
2413.823	2081.03
2416.981	2061.62
2420.139	2079.08
2423.296	2116.8
2426.453	2091.57
2429.61	2112.45
2432.767	2085.2
2435.923	2125.61
2439.079	2070.81
2442.235	2102.7
2445.391	2044.51
2448.546	2086.02
2451.701	2118.38
2454.855	2115.68
2458.009	2144.02
2461.163	2129.09
2464.317	2103.55
2467.471	2129.11
2470.624	2154.95
2473.777	2146.32
2476.929	2164.44
2480.082	2188.3
2483.234	2163.48
2486.385	2106.11
2489.537	2098.88
2492.688	2089.09
2495.839	2109.53
2498.989	2123.14
2502.14	2108.44
2505.29	2104.5
2508.439	2124.02
2511.589	2066.64
2514.738	2063.4
2517.887	2086.24
2521.035	2161.05
2524.183	2119.16
2527.331	2107.94
2530.479	2100.87
2533.627	2101.48
