Data from C_1_DIV_OH_2N_Splice17_11-50-25-883.txt Node
Date: Sat Mar 14 11:50:25 EDT 2020
User: sa697716
Spectrometer: FLMS03696
Trigger mode: 0
Integration Time (sec): 3.180400E-1
Scans to average: 20
Electric dark correction enabled: true
Nonlinearity correction enabled: true
Boxcar width: 5
XAxis mode: Wavelengths
Number of Pixels in Spectrum: 2048
>>>>>Begin Spectral Data<<<<<
187.83	-213886.16
188.298	1589.27
188.766	845.45
189.233	757.98
189.701	1075.43
190.169	1421.53
190.636	511.88
191.104	395.8
191.571	34.01
192.039	-75.69
192.506	-125.17
192.974	195.15
193.441	-369.1
193.908	-176.81
194.375	-96.29
194.842	-16.27
195.31	47.77
195.777	121.51
196.244	329.93
196.711	517.76
197.177	684.97
197.644	975.86
198.111	1670.37
198.578	2396.68
199.045	1959.61
199.511	3260.92
199.978	3811.07
200.445	3234.57
200.911	3613.71
201.378	4066.86
201.844	3657.42
202.31	6262.2
202.777	6518.45
203.243	3628.23
203.709	3463.92
204.176	4139.25
204.642	3431.7
205.108	3198.18
205.574	2612.96
206.04	2387.12
206.506	2252.87
206.972	2145.69
207.438	2083.82
207.903	2400.86
208.369	2119.21
208.835	2117.56
209.301	2233.88
209.766	2306.84
210.232	2302.25
210.697	2879.71
211.163	3601.66
211.628	5514.26
212.094	4633.13
212.559	5667.63
213.024	3557.94
213.49	4372.37
213.955	4301.29
214.42	4267.51
214.885	3984.2
215.35	3849.63
215.815	3674.99
216.28	3925.47
216.745	3248.36
217.21	3567.42
217.675	3390.96
218.14	3915
218.604	4524.44
219.069	5314.54
219.534	5671.17
219.998	6797.66
220.463	8436.98
220.927	10723.84
221.392	10301.93
221.856	10558.55
222.32	13577.15
222.785	16906.56
223.249	21454.33
223.713	24112.7
224.177	24238.13
224.642	31379.91
225.106	38812.87
225.57	42618.64
226.034	31691.4
226.497	48335.96
226.961	43688.61
227.425	50874.12
227.889	56646.17
228.353	56745.91
228.816	117411.75
229.28	112509.23
229.744	94944.34
230.207	57668.64
230.671	56765.07
231.134	94223.19
231.597	108615.29
232.061	108775.7
232.524	106196.74
232.987	73187.47
233.45	65875.03
233.914	59106.91
234.377	60664.21
234.84	55566.79
235.303	65586.05
235.766	73255.91
236.229	75694.99
236.691	47747.9
237.154	53691.56
237.617	40380.49
238.08	41365.44
238.542	48463.41
239.005	34613.94
239.468	34310.33
239.93	32297.05
240.393	29318.05
240.855	25714.64
241.317	26325.56
241.78	32042.55
242.242	33071.95
242.704	35637.61
243.166	30982.04
243.629	28064.2
244.091	32340.55
244.553	35439.99
245.015	38089.36
245.477	49299.69
245.939	72274.62
246.4	76597.34
246.862	74386.37
247.324	70128.01
247.786	78541.04
248.247	102967.88
248.709	106541.59
249.17	79604.74
249.632	74867.88
250.093	86662.92
250.555	74781.51
251.016	45532.17
251.477	43183.98
251.939	46560.34
252.4	48835.81
252.861	58103.69
253.322	53979.07
253.783	64207.12
254.244	83272.18
254.705	65683.26
255.166	58466.45
255.627	57530.78
256.088	81075.12
256.549	86098.25
257.009	74154.19
257.47	89976.28
257.931	73212.61
258.391	54868.09
258.852	56542.29
259.312	59270.66
259.773	73188.99
260.233	61726.24
260.694	52042.34
261.154	59093.26
261.614	47361.48
262.074	42357.18
262.534	43981.21
262.994	41434.81
263.455	55278.82
263.915	46553.23
264.374	43859.51
264.834	47923.08
265.294	53169.82
265.754	55044.96
266.214	52093.27
266.673	48837.5
267.133	61633.62
267.593	61212.37
268.052	74915.03
268.512	65095.45
268.971	78368.74
269.431	85933.51
269.89	76904.27
270.349	115200.16
270.809	128454.26
271.268	115445.81
271.727	258900.11
272.186	167582.25
272.645	125544.82
273.104	90539.66
273.563	131079.68
274.022	103287.96
274.481	87765.72
274.94	67538.53
275.399	50236.14
275.857	58529.56
276.316	79157.56
276.775	70463.3
277.233	69377.38
277.692	64881.18
278.15	73337.11
278.609	75348.75
279.067	69691.35
279.525	64674.5
279.984	83563.92
280.442	100305.28
280.9	98619.36
281.358	64827.48
281.816	60292.61
282.274	58961.73
282.732	60922.3
283.19	61225.54
283.648	52829.16
284.106	56178.09
284.564	57133.32
285.021	52907.99
285.479	39435.39
285.937	35908.45
286.394	31458.17
286.852	32397.01
287.309	34012.39
287.767	32792.89
288.224	31116.11
288.682	34105.5
289.139	37358.57
289.596	34123.36
290.053	35437.52
290.511	44673.57
290.968	54074.85
291.425	73387.79
291.882	60931.59
292.339	53009.79
292.796	52572.39
293.252	49539.99
293.709	39263.36
294.166	35188.39
294.623	38870.37
295.079	37304.46
295.536	37391.68
295.992	33927.29
296.449	33506.46
296.905	34805.15
297.362	33329.75
297.818	35032.5
298.274	36303.73
298.731	36983.88
299.187	36563.87
299.643	39240.65
300.099	47417.97
300.555	51991.38
301.011	43429.89
301.467	41739.62
301.923	48874.86
302.379	47711.38
302.835	46835.65
303.291	46846.78
303.746	53334.48
304.202	67336.4
304.658	67550.24
305.113	45373.8
305.569	44403.28
306.024	47321.07
306.479	45111.57
306.935	37964.73
307.39	41448.5
307.845	38268.7
308.301	38455.77
308.756	37424.06
309.211	35999.2
309.666	36860.36
310.121	45627.94
310.576	46346.63
311.031	45958.08
311.486	52628.91
311.94	52555.85
312.395	70298.75
312.85	132075.93
313.305	649692.78
313.759	3354176.67
314.214	242954.93
314.668	192181.3
315.123	161670.15
315.577	57898.3
316.032	51441.67
316.486	64372.49
316.94	50729.5
317.394	35227.05
317.849	27338.13
318.303	25861.46
318.757	24399.85
319.211	26967.65
319.665	23619.34
320.119	23878.92
320.572	34215.68
321.026	31887.38
321.48	26514.9
321.934	28935.5
322.387	29003.39
322.841	31304.65
323.295	28069.94
323.748	32385.17
324.202	32807.17
324.655	39346.98
325.108	54846.27
325.562	38743.39
326.015	46117.24
326.468	34871.14
326.921	38987.16
327.374	36287.19
327.827	37753.01
328.28	42709.49
328.733	28555.44
329.186	25125.32
329.639	23938.17
330.092	20230.98
330.545	19244.87
330.997	19381.34
331.45	21136.83
331.903	24718.98
332.355	42574.7
332.808	41373.88
333.26	34150.62
333.713	37094.29
334.165	37349.19
334.617	49913.8
335.069	40339.87
335.522	73033.56
335.974	80897
336.426	73989.15
336.878	51307.66
337.33	25977.27
337.782	25354.54
338.234	31694.97
338.686	37916.26
339.137	44942.67
339.589	42221.06
340.041	33008.85
340.493	28361.3
340.944	29028.05
341.396	31240.85
341.847	26242.55
342.299	30917.39
342.75	37675.63
343.201	33008.07
343.653	37975.93
344.104	46642.91
344.555	36738.35
345.006	57318.62
345.457	43802.73
345.908	34830.55
346.359	32749.03
346.81	26655.75
347.261	28138.81
347.712	27762.56
348.163	29761.73
348.613	30065.05
349.064	28086.63
349.515	24619.33
349.965	25234.16
350.416	30391.46
350.866	33364.99
351.317	37773.61
351.767	62594.24
352.217	79114.78
352.668	65634.18
353.118	60129.3
353.568	58050.47
354.018	45823.24
354.468	48271.64
354.918	34592.44
355.368	30257.49
355.818	42723.81
356.268	122873.74
356.718	514092.76
357.168	127785.06
357.617	64097.18
358.067	71298.99
358.517	66811.81
358.966	78343.46
359.416	87651.4
359.865	94820.17
360.315	113028.55
360.764	52715.73
361.213	29519.7
361.663	27983.8
362.112	34598.37
362.561	55942.29
363.01	42168.95
363.459	35482.23
363.908	38405.89
364.357	32595.83
364.806	55053.3
365.255	37842.01
365.703	34616.99
366.152	34670.98
366.601	28081.36
367.05	22758.26
367.498	20637.82
367.947	21553.6
368.395	22413.44
368.844	19818.39
369.292	23984.25
369.74	16554.16
370.189	25340.08
370.637	29684.05
371.085	25627.73
371.533	31189.67
371.981	30089.35
372.429	28671.1
372.877	29865.59
373.325	24997.14
373.773	25488.16
374.221	22661.17
374.669	28121.65
375.116	24277.65
375.564	24485.49
376.012	27332.68
376.459	22513.88
376.907	26867.22
377.354	32497.19
377.801	30279.05
378.249	34759.99
378.696	44405.63
379.143	53761.89
379.591	57331.21
380.038	97036.16
380.485	70035.39
380.932	75642.76
381.379	69062.02
381.826	50773.19
382.273	36065.29
382.72	31536.69
383.166	30723.2
383.613	19910.77
384.06	17950.52
384.506	20729.31
384.953	15216.28
385.4	15320.49
385.846	13414.6
386.292	13099.29
386.739	12816.77
387.185	12688.28
387.631	12673.57
388.078	12276.02
388.524	13122.19
388.97	12095.98
389.416	10085.94
389.862	10717.94
390.308	10151.8
390.754	10296.89
391.2	11157.65
391.645	11414.65
392.091	10857.05
392.537	10479.63
392.983	10507.1
393.428	10297.75
393.874	11018.22
394.319	11015.78
394.765	10417.15
395.21	10699.71
395.655	10015.59
396.101	9367.05
396.546	8448.96
396.991	8538.71
397.436	7917.04
397.881	7627.33
398.326	7234.19
398.771	6834.3
399.216	5977.41
399.661	5371.86
400.106	5333.53
400.551	5445.26
400.995	4875.97
401.44	4804.2
401.885	4502.54
402.329	4536.27
402.774	4336.81
403.218	4180.12
403.663	4022.8
404.107	4120.31
404.551	4142.47
404.995	3789.84
405.44	3645.08
405.884	3695.8
406.328	3571.6
406.772	3554.95
407.216	3231.88
407.66	3120.37
408.104	2965.17
408.547	2769.67
408.991	2677.01
409.435	2570.27
409.879	2530.73
410.322	2493.04
410.766	2399.78
411.209	2275.5
411.653	2179.56
412.096	2129.27
412.54	2125.65
412.983	2104.22
413.426	2099.71
413.869	2096.05
414.312	2054.52
414.756	1977.11
415.199	1884.49
415.642	1825.59
416.085	1827.19
416.527	1814.45
416.97	1842.11
417.413	1747.35
417.856	1728.63
418.298	1714
418.741	1699.52
419.184	1694.81
419.626	1764.75
420.069	1761.8
420.511	1769.47
420.953	1731
421.396	1710.94
421.838	1667.53
422.28	1702.75
422.722	1709.63
423.164	1731.44
423.606	1700.5
424.048	1697.69
424.49	1610.7
424.932	1603.72
425.374	1583.5
425.816	1609.93
426.258	1640.15
426.699	1655.65
427.141	1627.71
427.582	1652.14
428.024	1644.99
428.465	1639.52
428.907	1597.04
429.348	1579.23
429.789	1580.05
430.231	1545.87
430.672	1567.32
431.113	1530.46
431.554	1511.88
431.995	1480.53
432.436	1426.85
432.877	1393.25
433.318	1368.43
433.759	1365.68
434.2	1368.47
434.64	1352.42
435.081	1358.33
435.522	1286.84
435.962	1242.02
436.403	1214.97
436.843	1230.95
437.284	1208.36
437.724	1178.99
438.164	1184.84
438.604	1159.27
439.045	1115.09
439.485	1068.99
439.925	1047.86
440.365	1024.03
440.805	1012.31
441.245	1000.38
441.685	966.65
442.125	961.34
442.564	969.2
443.004	947.94
443.444	948.54
443.883	950.84
444.323	948.11
444.762	951.76
445.202	965.66
445.641	983.69
446.081	980.16
446.52	987.77
446.959	979.63
447.398	955.68
447.837	944.83
448.276	928.04
448.716	941.07
449.154	949.08
449.593	927.49
450.032	925.16
450.471	911.23
450.91	913.78
451.349	913.17
451.787	910
452.226	924.61
452.664	926.49
453.103	931.37
453.541	928.86
453.98	928.28
454.418	935.84
454.856	921.81
455.295	920.8
455.733	927.07
456.171	932.64
456.609	934.46
457.047	936.08
457.485	949.05
457.923	948.25
458.361	936.08
458.798	941.18
459.236	938.82
459.674	946.38
460.111	950.88
460.549	942.49
460.987	940.22
461.424	937.38
461.862	933.77
462.299	920.12
462.736	919.91
463.173	923.67
463.611	911.81
464.048	909.63
464.485	918.07
464.922	910.15
465.359	906.91
465.796	889.47
466.233	882.38
466.67	872.82
467.106	870.19
467.543	862.03
467.98	851.67
468.416	830.99
468.853	825.45
469.29	800.28
469.726	791.17
470.162	770.28
470.599	764.67
471.035	758.4
471.471	740.42
471.907	737.27
472.344	732.49
472.78	732.78
473.216	742.04
473.652	732
474.088	730.36
474.523	727.18
474.959	732.85
475.395	725.22
475.831	720.44
476.266	723.86
476.702	720.95
477.138	712.65
477.573	709.93
478.008	706.4
478.444	708.72
478.879	713.82
479.314	716.39
479.75	716.53
480.185	721
480.62	726.24
481.055	729.92
481.49	734.59
481.925	746.28
482.36	759.23
482.795	780.75
483.229	802.97
483.664	819.85
484.099	823.59
484.534	835.95
484.968	843.88
485.403	848.05
485.837	848.49
486.271	848.47
486.706	850.14
487.14	842.01
487.574	829.74
488.009	822.88
488.443	817.04
488.877	826.06
489.311	829.92
489.745	841.3
490.179	850.23
490.613	866.18
491.046	874.22
491.48	881.08
491.914	884.29
492.348	891.81
492.781	899.12
493.215	903.2
493.648	907.27
494.082	916.56
494.515	917.71
494.948	929.24
495.382	937.37
495.815	946
496.248	954.59
496.681	973.49
497.114	991.53
497.547	1006.51
497.98	1025.58
498.413	1034.68
498.846	1049.9
499.279	1064.49
499.711	1073.56
500.144	1080.75
500.577	1097.53
501.009	1116.64
501.442	1131.93
501.874	1136.16
502.306	1142.89
502.739	1155.19
503.171	1180.55
503.603	1188.56
504.036	1206.34
504.468	1218.02
504.9	1237.11
505.332	1250.41
505.764	1260.01
506.196	1272.82
506.627	1297.65
507.059	1319.36
507.491	1338.1
507.923	1337.98
508.354	1361.29
508.786	1378.6
509.217	1406.88
509.649	1430
510.08	1460.37
510.512	1486.8
510.943	1512.15
511.374	1530.96
511.805	1562.87
512.237	1592.47
512.668	1642.71
513.099	1685.07
513.53	1726.25
513.961	1757.14
514.391	1805.09
514.822	1851.89
515.253	1904
515.684	1941.48
516.114	1985.23
516.545	2016.35
516.975	2054.2
517.406	2079.01
517.836	2082.16
518.267	2091.94
518.697	2116.93
519.127	2122.96
519.558	2133.65
519.988	2139.12
520.418	2155.19
520.848	2178.8
521.278	2190.72
521.708	2192.23
522.138	2209.26
522.567	2254.46
522.997	2289.81
523.427	2312.08
523.857	2335.14
524.286	2350.32
524.716	2370.76
525.145	2396.37
525.575	2411.34
526.004	2431.12
526.433	2442.63
526.863	2441.88
527.292	2423.69
527.721	2429.43
528.15	2436.66
528.579	2435.25
529.008	2448.81
529.437	2481.59
529.866	2499.45
530.295	2522.89
530.724	2539.06
531.152	2575.77
531.581	2594.48
532.01	2620.03
532.438	2632.65
532.867	2653.01
533.295	2680.19
533.723	2688.73
534.152	2683.36
534.58	2681.74
535.008	2657.32
535.436	2658.86
535.865	2671.35
536.293	2693.55
536.721	2716.44
537.149	2752.2
537.576	2755.15
538.004	2772.26
538.432	2783.31
538.86	2780.84
539.287	2790.96
539.715	2813.27
540.143	2818.57
540.57	2813.81
540.998	2807.41
541.425	2772.35
541.852	2742.3
542.28	2740.95
542.707	2717.53
543.134	2696.31
543.561	2690.14
543.988	2679.75
544.415	2678.17
544.842	2668.21
545.269	2655.91
545.696	2655.94
546.123	2673.58
546.549	2656.98
546.976	2636.54
547.403	2635.03
547.829	2637.42
548.256	2639.1
548.682	2630.76
549.108	2615.54
549.535	2614.39
549.961	2615.88
550.387	2595.79
550.813	2586.31
551.24	2594.29
551.666	2593.92
552.092	2579.86
552.518	2568.77
552.943	2558.59
553.369	2569.32
553.795	2576.93
554.221	2577.16
554.646	2571.78
555.072	2587.9
555.498	2596.5
555.923	2609.28
556.349	2630.36
556.774	2640.39
557.199	2642.74
557.625	2651.34
558.05	2642.47
558.475	2658.42
558.9	2656.42
559.325	2643.44
559.75	2632.79
560.175	2622.5
560.6	2612.51
561.025	2609.44
561.449	2611.19
561.874	2616.83
562.299	2621.84
562.723	2631.79
563.148	2615.94
563.572	2622.11
563.997	2636.63
564.421	2646.06
564.846	2646.54
565.27	2651.86
565.694	2650.26
566.118	2667.52
566.542	2680.35
566.966	2672.95
567.39	2666.98
567.814	2652.06
568.238	2653.72
568.662	2663.84
569.086	2668.95
569.509	2681.66
569.933	2661.13
570.357	2652.24
570.78	2624.74
571.204	2605.79
571.627	2591.24
572.05	2591.29
572.474	2592.5
572.897	2574.32
573.32	2561.38
573.743	2547.69
574.166	2520.67
574.589	2521.78
575.012	2509.07
575.435	2505.91
575.858	2492.1
576.281	2475.31
576.704	2450.32
577.126	2433.06
577.549	2415.67
577.972	2402.81
578.394	2386.49
578.817	2374.78
579.239	2345.75
579.661	2325.97
580.084	2301.65
580.506	2283.02
580.928	2276.55
581.35	2260.12
581.772	2253.16
582.194	2234.39
582.616	2213.91
583.038	2192.92
583.46	2178.42
583.882	2173.96
584.303	2179.31
584.725	2173.56
585.147	2172.85
585.568	2187.55
585.99	2204.12
586.411	2211.96
586.833	2232.68
587.254	2235.24
587.675	2256.72
588.096	2274.7
588.518	2266.72
588.939	2241.37
589.36	2237.19
589.781	2223.77
590.202	2180.89
590.623	2167.17
591.043	2163.06
591.464	2143.74
591.885	2138.93
592.305	2129.09
592.726	2108.57
593.147	2109.63
593.567	2102.15
593.987	2091.53
594.408	2085.52
594.828	2084.74
595.248	2076.4
595.669	2050.24
596.089	2040.29
596.509	2028.85
596.929	2009.65
597.349	2010.55
597.769	1997.08
598.189	1989.36
598.608	1991.85
599.028	1995.44
599.448	1996.01
599.867	1978.69
600.287	1974.05
600.706	1967.39
601.126	1954.94
601.545	1953.1
601.965	1950.63
602.384	1942.03
602.803	1944.76
603.222	1937.4
603.641	1927.35
604.061	1921.05
604.48	1914.95
604.898	1925.82
605.317	1933.16
605.736	1935.9
606.155	1931.44
606.574	1919.78
606.992	1927.51
607.411	1920.8
607.829	1909.7
608.248	1905.26
608.666	1902.7
609.085	1901.87
609.503	1889.2
609.921	1880.09
610.339	1883.06
610.758	1882.8
611.176	1876.7
611.594	1863.71
612.012	1858.67
612.43	1862.5
612.847	1870.95
613.265	1871.54
613.683	1878.23
614.101	1880.62
614.518	1875.72
614.936	1861.43
615.353	1839.97
615.771	1833.69
616.188	1833.33
616.606	1828.77
617.023	1818.35
617.44	1798.79
617.857	1789.41
618.274	1777.06
618.691	1766.39
619.108	1753.46
619.525	1744.44
619.942	1752.66
620.359	1756.1
620.776	1748.08
621.192	1741.7
621.609	1737.54
622.026	1745.49
622.442	1753.08
622.859	1757.25
623.275	1748.11
623.691	1754.94
624.108	1770.89
624.524	1791.61
624.94	1791.43
625.356	1806.22
625.772	1824.94
626.188	1843.64
626.604	1845.57
627.02	1840.42
627.436	1836.7
627.852	1846.33
628.268	1862.43
628.683	1849.53
629.099	1836.73
629.514	1830.57
629.93	1835.58
630.345	1841.18
630.761	1835.5
631.176	1841.17
631.591	1831.17
632.007	1823.06
632.422	1819.31
632.837	1802.74
633.252	1799.08
633.667	1784.41
634.082	1771.05
634.497	1751.86
634.911	1723.28
635.326	1715.98
635.741	1690.07
636.155	1675.09
636.57	1674.92
636.984	1673.92
637.399	1675.43
637.813	1672.55
638.228	1669.07
638.642	1673.05
639.056	1657.97
639.47	1655.4
639.884	1642.24
640.298	1631.78
640.712	1628.77
641.126	1609.81
641.54	1594.47
641.954	1585.21
642.368	1566.63
642.781	1552.86
643.195	1526.42
643.609	1523.81
644.022	1514.61
644.436	1507.13
644.849	1488.49
645.262	1471.15
645.676	1471.65
646.089	1464.73
646.502	1441.96
646.915	1433.48
647.328	1408.84
647.741	1403.87
648.154	1385.47
648.567	1379.14
648.98	1358.7
649.393	1358.59
649.805	1352.39
650.218	1341.72
650.631	1318.8
651.043	1310.28
651.456	1301.46
651.868	1303.4
652.28	1326.68
652.693	1344.4
653.105	1352.39
653.517	1366.09
653.929	1364.63
654.341	1370.57
654.753	1353
655.165	1361.12
655.577	1357.3
655.989	1349.97
656.401	1338.27
656.813	1287.83
657.224	1260.47
657.636	1221.93
658.047	1196.43
658.459	1169.46
658.87	1156.22
659.282	1140.09
659.693	1111.08
660.104	1090.83
660.515	1071.63
660.926	1067.13
661.338	1062.33
661.749	1051.34
662.159	1038.22
662.57	1030.42
662.981	1024.33
663.392	1012.9
663.803	1015.28
664.213	1010.99
664.624	1004.04
665.035	1006.28
665.445	987.44
665.855	976.82
666.266	965.6
666.676	961.77
667.086	950.49
667.497	947.84
667.907	939.85
668.317	927.32
668.727	920.99
669.137	919.99
669.547	916.65
669.956	919.51
670.366	921.84
670.776	923.43
671.186	927.52
671.595	930.67
672.005	935.18
672.414	933.71
672.824	931.83
673.233	938.33
673.642	941.42
674.052	944.55
674.461	946.53
674.87	951.62
675.279	948.54
675.688	951.08
676.097	952.41
676.506	947.57
676.915	965.33
677.323	968.53
677.732	967.44
678.141	968.75
678.549	956.03
678.958	956.65
679.366	957.69
679.775	965.25
680.183	978.62
680.592	987.43
681	997.06
681.408	990.29
681.816	1002.76
682.224	1014.53
682.632	1026.64
683.04	1067.19
683.448	1099.54
683.856	1139.3
684.264	1185.31
684.671	1229.59
685.079	1284.08
685.487	1342.73
685.894	1425.33
686.302	1494.43
686.709	1552.07
687.116	1619.8
687.524	1674.25
687.931	1723.16
688.338	1765.34
688.745	1803.96
689.152	1845.44
689.559	1901.04
689.966	1956.82
690.373	1984.66
690.78	2037.87
691.187	2119.22
691.593	2181.96
692	2235.83
692.407	2316.71
692.813	2415.1
693.22	2491.55
693.626	2571.66
694.032	2633.66
694.439	2732.22
694.845	2807.86
695.251	2901.98
695.657	2987.19
696.063	3117.31
696.469	3211.38
696.875	3296.1
697.281	3344.55
697.687	3404.86
698.093	3454.59
698.498	3551.36
698.904	3625.95
699.31	3740.01
699.715	3819.41
700.12	3941.35
700.526	3959.71
700.931	4051.56
701.337	4118.64
701.742	4158.76
702.147	4266.77
702.552	4303.34
702.957	4382.86
703.362	4407.95
703.767	4443.33
704.172	4494.76
704.577	4425.79
704.981	4486.92
705.386	4504.92
705.791	4493.09
706.195	4592.8
706.6	4603.02
707.004	4709.29
707.408	4664.66
707.813	4696.95
708.217	4676.44
708.621	4676.72
709.025	4803.19
709.43	4801.24
709.834	4877.77
710.237	4968.46
710.641	4945.14
711.045	4972.74
711.449	4962.01
711.853	4995.65
712.256	5048.6
712.66	5095.8
713.064	5191.1
713.467	5245.01
713.87	5392.26
714.274	5453.02
714.677	5595.39
715.08	5806.46
715.484	6025.51
715.887	6288.92
716.29	6554.08
716.693	6826.45
717.096	7142.53
717.499	7316.24
717.901	7349.13
718.304	7381.67
718.707	7410.17
719.109	7271.65
719.512	7227.35
719.915	7045.16
720.317	6969.23
720.719	7025.21
721.122	6985.52
721.524	6918.44
721.926	6861.68
722.328	6992.5
722.731	6976.46
723.133	7010.55
723.535	7262.09
723.937	7285.93
724.338	7352.77
724.74	7400.74
725.142	7277.9
725.544	7268.45
725.945	7294.14
726.347	7286.79
726.748	7272.41
727.15	7288.16
727.551	7235.28
727.952	7199.16
728.354	7157.73
728.755	7155.31
729.156	7102.49
729.557	7118.34
729.958	6961.4
730.359	6894
730.76	6868.86
731.161	6787.83
731.562	6756.97
731.962	6762.99
732.363	6675.51
732.763	6592.02
733.164	6641.37
733.564	6550.03
733.965	6425.93
734.365	6380.6
734.766	6415.62
735.166	6365.5
735.566	6294.42
735.966	6258.85
736.366	6250.72
736.766	6170.79
737.166	6213.29
737.566	6160
737.966	6127.21
738.365	6178.78
738.765	6167.69
739.165	6070.74
739.564	6033.52
739.964	6093.01
740.363	6033.36
740.763	6029.26
741.162	6012.78
741.561	5971.01
741.96	5908.38
742.36	5936.51
742.759	5939.67
743.158	5991.92
743.557	6012.56
743.955	6065.53
744.354	6006.19
744.753	6080.35
745.152	6024.9
745.55	6097.43
745.949	6088.65
746.348	6089.11
746.746	6107.45
747.144	6054.92
747.543	6023.45
747.941	6080.91
748.339	5987.2
748.737	5977.55
749.136	5962.94
749.534	6045.07
749.932	6004.88
750.33	6034.19
750.727	6108.93
751.125	6076.17
751.523	6055.64
751.921	6108.99
752.318	6068.58
752.716	6147.25
753.113	6162.74
753.511	6196.08
753.908	6196.98
754.305	6175.86
754.703	6254.03
755.1	6326.43
755.497	6404.94
755.894	6648.66
756.291	6880.92
756.688	7299.51
757.085	7862.16
757.482	8653.13
757.878	9513.23
758.275	10291.93
758.672	11367.28
759.068	12244.07
759.465	13491
759.861	15103.7
760.258	16975.16
760.654	17938.95
761.05	17800.2
761.447	16983.64
761.843	15805.7
762.239	14600.45
762.635	14055.66
763.031	13530.2
763.427	12769.1
763.822	11978.4
764.218	11182.91
764.614	10160.81
765.01	9477.27
765.405	9034.12
765.801	8698.51
766.196	8273.36
766.592	8031.48
766.987	7627.71
767.382	7352.76
767.778	7239.05
768.173	7071.77
768.568	6983.38
768.963	6823.55
769.358	6845.67
769.753	6786.01
770.148	6677.01
770.542	6676.49
770.937	6634.5
771.332	6752.37
771.726	6782.27
772.121	6699.66
772.515	6769.37
772.91	6749.31
773.304	6834.48
773.699	6750.41
774.093	6817.75
774.487	6888.84
774.881	6941.53
775.275	6937.43
775.669	6885.4
776.063	6938.56
776.457	6984.06
776.851	6887.83
777.245	6877.32
777.638	6925.77
778.032	7070.49
778.425	7022.89
778.819	7073.3
779.212	7017.64
779.606	6966.17
779.999	6987.31
780.392	6964.81
780.786	7070.07
781.179	7097.44
781.572	7152.92
781.965	7166.44
782.358	7095.53
782.751	7170.29
783.143	7108.74
783.536	7203.71
783.929	7259.6
784.322	7406.17
784.714	7444.84
785.107	7438.52
785.499	7531.67
785.891	7503.69
786.284	7480.68
786.676	7659.95
787.068	7631.39
787.46	7699.45
787.852	7725.79
788.245	7833.4
788.636	7869.94
789.028	7957.41
789.42	8006.43
789.812	8015.51
790.204	8137.28
790.595	8264.63
790.987	8015.51
791.378	8047.32
791.77	8212.43
792.161	8378.69
792.553	8449.33
792.944	8307.49
793.335	8221.78
793.726	8316.15
794.117	8429.25
794.508	8605.71
794.899	8561.74
795.29	8738.26
795.681	8810.03
796.072	8630
796.463	8386.23
796.853	8395.03
797.244	8594.7
797.634	8634.04
798.025	8630.93
798.415	8644.9
798.806	8753.86
799.196	8861.94
799.586	8924.29
799.976	8875.38
800.366	9169.48
800.756	9483.67
801.146	9437.24
801.536	9474.05
801.926	9567.31
802.316	9596.22
802.706	9684.65
803.095	9526.34
803.485	9653.99
803.874	9708.26
804.264	10037.4
804.653	9997.39
805.043	10180.24
805.432	10315.1
805.821	10315.23
806.21	10342.23
806.599	10493.61
806.988	10548.91
807.377	10683.05
807.766	10853.9
808.155	11207.52
808.544	10872.25
808.933	10892.66
809.321	10863.76
809.71	11234.89
810.098	11429.29
810.487	12006.85
810.875	12613.25
811.264	12644.25
811.652	12997.56
812.04	13173.4
812.428	13377.43
812.816	14331.2
813.204	14853.91
813.592	15546.37
813.98	15972.88
814.368	15853.53
814.756	16452.71
815.144	16345.65
815.531	16926.67
815.919	16839.94
816.306	17218.32
816.694	16831.06
817.081	16897.23
817.469	17327.59
817.856	17326.88
818.243	17656.2
818.63	18147
819.017	17621.79
819.404	17697.15
819.791	18166.31
820.178	18938.62
820.565	19252.7
820.952	20414.35
821.339	19791.36
821.725	20020.71
822.112	19084.85
822.498	19029.66
822.885	19194.45
823.271	19071.94
823.657	19599.61
824.044	19616.03
824.43	19716.21
824.816	19662.83
825.202	19123.67
825.588	20406.44
825.974	20423.91
826.36	21073.64
826.746	21125.74
827.132	21572.85
827.517	21548
827.903	20563.35
828.289	20607.14
828.674	19626.16
829.06	19505.43
829.445	20001.39
829.83	20451.11
830.216	21057.26
830.601	21513.13
830.986	20999.65
831.371	20837.77
831.756	21531.29
832.141	20999.71
832.526	20999.23
832.911	21360.56
833.295	21227.21
833.68	21816.72
834.065	21042.2
834.449	19904.73
834.834	19815.1
835.218	19807.94
835.603	20234.91
835.987	19977.84
836.371	21031.65
836.755	20906.28
837.139	21408.72
837.524	21717.4
837.908	21499.11
838.291	21571.49
838.675	21650.94
839.059	21914
839.443	21910.24
839.827	21625.71
840.21	22235.21
840.594	22036.79
840.977	22301.07
841.361	22284.61
841.744	22753.18
842.127	22554.37
842.511	22867.34
842.894	23623.41
843.277	24114.37
843.66	24795.58
844.043	24899.39
844.426	23877.36
844.809	23488.27
845.191	23515.03
845.574	22931.41
845.957	22470.28
846.339	22336.69
846.722	21675.44
847.104	21757.65
847.487	21545.47
847.869	21562.41
848.252	21910.63
848.634	22327.26
849.016	22666.23
849.398	22825.74
849.78	23896.74
850.162	23903.52
850.544	24427.93
850.926	25225.92
851.307	25112.08
851.689	25453.69
852.071	26021.43
852.452	26434.27
852.834	26415.26
853.215	26898.25
853.597	27099.86
853.978	27462.42
854.359	28032.54
854.741	26766.93
855.122	26639.71
855.503	26272.4
855.884	26434.92
856.265	26361.11
856.646	26498.88
857.026	25995.5
857.407	25926.06
857.788	26114.24
858.169	26483.56
858.549	25413.3
858.93	26211.98
859.31	26262.09
859.69	26524.66
860.071	26029.3
860.451	25745.29
860.831	24807.94
861.211	26253.01
861.591	26944.53
861.971	26916.98
862.351	27152.26
862.731	27640.81
863.111	27960.6
863.491	28380.05
863.87	29472.27
864.25	29901.21
864.629	29404.06
865.009	30056.16
865.388	31139.18
865.768	33359.61
866.147	33228.55
866.526	31382.68
866.905	31754.37
867.284	33553.01
867.663	31863.95
868.042	30552.09
868.421	30445.78
868.8	30949.59
869.179	31243.87
869.558	29422.83
869.936	27127.75
870.315	27604.49
870.693	28277.77
871.072	30501.61
871.45	29046.16
871.828	29406.48
872.207	30903.62
872.585	30439.22
872.963	31263.57
873.341	30190.59
873.719	29830.08
874.097	29465.11
874.475	30022.15
874.853	30712.82
875.23	29417.07
875.608	30652.42
875.986	33155.3
876.363	31717.57
876.741	32682.93
877.118	31870.3
877.495	33440.88
877.873	33993.73
878.25	35772.16
878.627	34316.98
879.004	34809.39
879.381	34654.37
879.758	33722.47
880.135	31405.57
880.512	33207.72
880.889	32329.1
881.265	31988
881.642	31720.08
882.019	32271.53
882.395	31601.18
882.772	32851.3
883.148	31408.15
883.524	31275.78
883.901	31101.01
884.277	31568.11
884.653	31367.77
885.029	32263
885.405	35731.01
885.781	35457.07
886.157	33981.53
886.532	34396.05
886.908	34384.66
887.284	38233.64
887.659	39483.35
888.035	40709.21
888.411	41751.32
888.786	42303.34
889.161	43782.41
889.537	42996.3
889.912	44359.68
890.287	44318.3
890.662	45472.34
891.037	44650.99
891.412	41659.7
891.787	41255.79
892.162	39823.54
892.536	40750.11
892.911	39223.84
893.286	38395.32
893.66	36817.25
894.035	37763.47
894.409	41133.41
894.784	39480.56
895.158	40128.98
895.532	42490.83
895.906	43637.42
896.281	44668.37
896.655	43953.74
897.029	50218.28
897.402	52303.08
897.776	58247.32
898.15	58062.48
898.524	57449.95
898.898	58210
899.271	65169.45
899.645	56442.78
900.018	54207.01
900.392	56194.12
900.765	56661.48
901.138	52445.92
901.511	51659.82
901.884	47418.86
902.258	43715.3
902.631	45144.41
903.003	51946.46
903.376	46885.73
903.749	52577.18
904.122	56303.51
904.495	62008.81
904.867	62791.09
905.24	54480.39
905.612	50679.53
905.985	51841.18
906.357	54201.59
906.729	51725.4
907.102	44166.51
907.474	42462.18
907.846	42722.44
908.218	42155.91
908.59	37233.3
908.962	36006.22
909.334	38771.41
909.705	40742.02
910.077	39555.38
910.449	41178.22
910.82	42351.28
911.192	46632.57
911.563	48453.24
911.935	51867.43
912.306	51932.32
912.677	53650.97
913.048	53112.55
913.419	57644.14
913.79	57968.05
914.161	62166.66
914.532	59398.11
914.903	54582.61
915.274	51813.66
915.645	51049.21
916.015	44926.48
916.386	42829.9
916.756	45576.73
917.127	47011.51
917.497	41996.12
917.868	45706.67
918.238	43400.05
918.608	44645.68
918.978	45571.45
919.348	48260.75
919.718	49872.87
920.088	48018.31
920.458	49861.06
920.828	52473.43
921.198	49724.87
921.567	53112.53
921.937	41115.39
922.306	41508.57
922.676	44784.1
923.045	37318.02
923.415	35440.5
923.784	32259.29
924.153	33150.89
924.522	33118.47
924.891	31133.62
925.26	33346.43
925.629	32551.09
925.998	37423.19
926.367	36524.95
926.736	34755.89
927.104	41407.32
927.473	44520.91
927.842	53765.78
928.21	53243.3
928.578	55980.54
928.947	52906.55
929.315	53206.47
929.683	62401.9
930.051	62868.1
930.42	73001.41
930.788	62412.8
931.156	61912.82
931.523	58015.13
931.891	53587.89
932.259	51472.55
932.627	59635.47
932.994	84397.76
933.362	69744.8
933.729	60591.56
934.097	57992.19
934.464	49087.21
934.831	56623.27
935.199	55847.11
935.566	54152.1
935.933	54932.72
936.3	66525.75
936.667	51789.06
937.034	46672.21
937.401	46198.59
937.767	39824.83
938.134	35463.37
938.501	50027.15
938.867	53292.93
939.234	90076.03
939.6	76894.45
939.967	84618.48
940.333	56694.26
940.699	48272.22
941.065	38758.09
941.431	50767.34
941.798	48940.04
942.163	64295.14
942.529	40149.24
942.895	36984.47
943.261	23923.98
943.627	31388.18
943.992	27472.87
944.358	27505.62
944.723	27592.67
945.089	26939.81
945.454	24906.61
945.82	26628.53
946.185	25572.11
946.55	29641.21
946.915	26597.53
947.28	31212.07
947.645	27459.27
948.01	25332.51
948.375	26391.71
948.74	31650.73
949.104	36858.31
949.469	53260.4
949.834	94024.54
950.198	89182.1
950.562	53387.16
950.927	44462.56
951.291	53551.02
951.655	45655.72
952.02	42932.07
952.384	32490.95
952.748	28263.71
953.112	27562
953.476	23970.99
953.839	22170.98
954.203	21930.04
954.567	27438.8
954.931	43268.52
955.294	36965.7
955.658	37168.28
956.021	63198.94
956.385	107193.08
956.748	158235.63
957.111	245641.21
957.474	275784.92
957.837	310954.27
958.2	235404.16
958.563	84790.54
958.926	57295.86
959.289	86956.8
959.652	97184.05
960.015	72942.43
960.377	104717.12
960.74	119651.99
961.102	206565.81
961.465	221616.25
961.827	118337.7
962.189	227147.75
962.552	157362.96
962.914	126055.57
963.276	81856.17
963.638	67638.33
964	66994.36
964.362	45249.15
964.724	43741.11
965.085	31183.63
965.447	25578.07
965.809	29216.73
966.17	29261.85
966.532	31667.39
966.893	29068.86
967.255	26439.96
967.616	31193.47
967.977	24989.62
968.338	27302.31
968.699	22400.78
969.061	22416.18
969.421	22583.81
969.782	25344.46
970.143	21398.32
970.504	22140.73
970.865	25144.64
971.225	25677.16
971.586	25147.16
971.946	35810.61
972.307	31083.62
972.667	40696.93
973.027	41885.55
973.388	50753.2
973.748	34502.86
974.108	37588.21
974.468	50937.71
974.828	39289.44
975.188	30271.56
975.548	27799.99
975.907	23342.81
976.267	26176.95
976.627	21971.85
976.986	22773.9
977.346	21706.4
977.705	20865.38
978.064	18988.8
978.424	15782.51
978.783	16334.04
979.142	18658.05
979.501	17848.01
979.86	18855.88
980.219	18172.41
980.578	23458.58
980.937	26269.57
981.296	23412.22
981.654	24101.46
982.013	37503.15
982.371	48688.35
982.73	45447.4
983.088	51411.95
983.447	54860.8
983.805	78445.9
984.163	163797.25
984.521	181765.26
984.879	266717.73
985.237	-433916.73
985.595	418428.16
985.953	104062.24
986.311	60118.62
986.669	34938.51
987.026	30174.38
987.384	40568.9
987.741	41934.33
988.099	29949.18
988.456	23878.15
988.814	22340.43
989.171	19416.87
989.528	19182.35
989.885	20254.71
990.242	16014.09
990.599	19926.17
990.956	16272.18
991.313	11392.3
991.67	9355.03
992.027	9895.39
992.383	8790.84
992.74	7700.31
993.096	8062.81
993.453	8350.21
993.809	8652.86
994.165	11530.93
994.522	10539.99
994.878	11644.16
995.234	14599.31
995.59	14394.24
995.946	13678.68
996.302	15584.61
996.658	18021.04
997.013	19888.83
997.369	23588.97
997.725	30158.24
998.08	19541.64
998.436	30255.54
998.791	41671.57
999.147	41611.03
999.502	45428.01
999.857	33008.15
1000.212	53814.72
1000.567	76629.2
1000.922	44184.54
1001.277	28054.53
1001.632	20823.75
1001.987	26860.73
1002.342	19233.94
1002.696	15404.01
1003.051	12269.27
1003.406	14851.34
1003.76	14796.12
1004.114	14574.76
1004.469	12261.6
1004.823	10155.31
1005.177	10977.03
1005.531	8704.32
1005.885	7714.32
1006.239	8715.83
1006.593	10906.09
1006.947	14628.62
1007.301	10987.56
1007.655	11978.4
1008.008	8798.7
1008.362	9882.7
1008.715	14093.68
1009.069	12776.76
1009.422	19201.52
1009.776	38577.09
1010.129	25586.56
1010.482	21441.42
1010.835	18156.48
1011.188	37731.93
1011.541	35502.74
1011.894	-216955.79
1012.247	638255.97
1012.6	43444.59
1012.952	27423.24
1013.305	14159.93
1013.657	10168.32
1014.01	9633.43
1014.362	7940.85
1014.715	7027.48
1015.067	6113.12
1015.419	5978.13
1015.771	5294.07
1016.123	4697.78
1016.475	4829.47
1016.827	5128.5
1017.179	5497.85
1017.531	5542.03
1017.883	5669.69
1018.234	5426.52
1018.586	6853.42
1018.938	7229.36
1019.289	9958.89
1019.64	11424.56
1019.992	10682.1
1020.343	9795.26
1020.694	7744.75
1021.045	6854.86
1021.396	7838.87
1021.747	8401.27
1022.098	10131.56
1022.449	7355.95
1022.8	6865.62
1023.151	4768.59
1023.501	4216.27
1023.852	4580.17
1024.202	4740.93
1024.553	5222.72
1024.903	5102.84
1025.253	4356.14
1025.604	3925.14
1025.954	4886.11
1026.304	5985.68
1026.654	6985.27
1027.004	10286.15
1027.354	16673.9
1027.703	15623.39
1028.053	20594.6
1028.403	29911.36
1028.753	43401.23
1029.102	59233.89
1029.452	303752.59
1029.801	13133.17
1030.15	8453.18
1030.499	7163.99
897.758	2073.68
901.051	2003.18
904.343	2035.9
907.636	2043.64
910.928	2105.43
914.22	2029.23
917.511	2032.78
920.803	2080.54
924.094	2072.45
927.384	2080.09
930.675	2044.98
933.965	2010.36
937.255	2046.06
940.544	2018.22
943.834	2010.39
947.123	1951.97
950.411	2037.59
953.7	2019.99
956.988	2007.52
960.276	1946.04
963.563	1988.9
966.851	1999.92
970.138	2038.51
973.424	2039.36
976.711	1992.71
979.997	2042.89
983.283	2084.01
986.568	2020.77
989.853	2007.49
993.138	2032.93
996.423	2118.8
999.708	2082.44
1002.992	2113.56
1006.275	2031
1009.559	2035.54
1012.842	2132.03
1016.125	2088.46
1019.408	2071.78
1022.69	2121.09
1025.972	2158.77
1029.254	2135.08
1032.536	2103.8
1035.817	2108.78
1039.098	2078.26
1042.379	2125.59
1045.659	2151.89
1048.939	2102.39
1052.219	2107.58
1055.498	2096.03
1058.778	2096.04
1062.057	2070.42
1065.335	2095.95
1068.614	2105.69
1071.892	2107.62
1075.17	2155.71
1078.447	2162.54
1081.724	2158.68
1085.001	2183.52
1088.278	2164.15
1091.554	2169.71
1094.83	2164.97
1098.106	2201.96
1101.382	2229.35
1104.657	2231.03
1107.932	2229.1
1111.206	2213.21
1114.481	2162.43
1117.755	2161.67
1121.029	2158.12
1124.302	2220.09
1127.575	2189.77
1130.848	2187.74
1134.121	2163.08
1137.393	2127.44
1140.665	2181.01
1143.937	2162.31
1147.208	2105.98
1150.48	2170.93
1153.75	2162.35
1157.021	2156
1160.291	2135.19
1163.561	2190.38
1166.831	2152.48
1170.101	2176.11
1173.37	2131.81
1176.639	2092.83
1179.907	2134.36
1183.176	2161.17
1186.444	2161.25
1189.711	2182.64
1192.979	2211.67
1196.246	2167.24
1199.513	2179.87
1202.78	2186.66
1206.046	2196.47
1209.312	2226.11
1212.578	2241.83
1215.843	2212.38
1219.108	2178.76
1222.373	2200.13
1225.638	2176.99
1228.902	2169.3
1232.166	2120.51
1235.43	2109.2
1238.693	2137.1
1241.956	2125.68
1245.219	2177.55
1248.482	2159.58
1251.744	2156.61
1255.006	2271.4
1258.268	2219.78
1261.529	2177.2
1264.79	2176.98
1268.051	2276.54
1271.312	2282.04
1274.572	2255.8
1277.832	2242.9
1281.092	2220.09
1284.351	2214.37
1287.61	2201.3
1290.869	2141.22
1294.128	2141.75
1297.386	2182.98
1300.644	2175.48
1303.902	2185.03
1307.159	2056.98
1310.416	2104.91
1313.673	2135.92
1316.93	2137.48
1320.186	2162.31
1323.442	2193.64
1326.697	2199.98
1329.953	2167.71
1333.208	2204.7
1336.463	2175.96
1339.717	2141.91
1342.972	2242.01
1346.226	2212.01
1349.479	2164.15
1352.733	2144.44
1355.986	2148.08
1359.238	2129.43
1362.491	2132.59
1365.743	2131.55
1368.995	2121.14
1372.247	2133.99
1375.498	2152.97
1378.749	2199.69
1382	2148.27
1385.251	2180.85
1388.501	2131.28
1391.751	2136.99
1395	2100.94
1398.25	2124.73
1401.499	2150.66
1404.748	2106.05
1407.996	2082.12
1411.244	2071.21
1414.492	2057.26
1417.74	2045.31
1420.987	2047.39
1424.234	2108.09
1427.481	2066.9
1430.728	2122.79
1433.974	2099.94
1437.22	2095.85
1440.465	2090.23
1443.711	2096.21
1446.956	2116.8
1450.201	2084.24
1453.445	2127.37
1456.689	2120.98
1459.933	2129.84
1463.177	2170.63
1466.42	2145.38
1469.663	2129.13
1472.906	2150.33
1476.148	2196.46
1479.391	2160.6
1482.633	2138.98
1485.874	2170.49
1489.115	2177.12
1492.356	2156.03
1495.597	2139.24
1498.838	2130.62
1502.078	2119.21
1505.318	2095.26
1508.557	2126.25
1511.797	2126.38
1515.036	2179.22
1518.274	2144.54
1521.513	2093.8
1524.751	2103.13
1527.989	2131.66
1531.227	2150.52
1534.464	2170.75
1537.701	2161.34
1540.938	2171.65
1544.174	2119.61
1547.41	2108.49
1550.646	2145.35
1553.882	2202.1
1557.117	2257.86
1560.352	2268.22
1563.587	2229.34
1566.821	2197.38
1570.055	2208.5
1573.289	2193.07
1576.523	2247.3
1579.756	2265.58
1582.989	2286.88
1586.222	2249.29
1589.454	2272.27
1592.686	2261.04
1595.918	2287.95
1599.15	2289.83
1602.381	2328.56
1605.612	2315.4
1608.843	2405.77
1612.073	2331.04
1615.303	2320.63
1618.533	2319.65
1621.762	2315.87
1624.992	2289.44
1628.221	2295.84
1631.449	2283.78
1634.678	2303.02
1637.906	2273.82
1641.134	2298.61
1644.361	2266.92
1647.588	2256.67
1650.815	2277.17
1654.042	2237.6
1657.269	2266.45
1660.495	2252.54
1663.72	2229.35
1666.946	2200.74
1670.171	2180.48
1673.396	2151.73
1676.621	2133.42
1679.845	2123.34
1683.069	2128.49
1686.293	2156.23
1689.517	2153.51
1692.74	2107.56
1695.963	2124.75
1699.185	2172.1
1702.408	2143.14
1705.63	2170.62
1708.852	2193.27
1712.073	2160.76
1715.294	2177.28
1718.515	2216.83
1721.736	2177.95
1724.956	2152.41
1728.176	2173.38
1731.396	2198.57
1734.616	2181.56
1737.835	2219.96
1741.054	2187.15
1744.272	2176.45
1747.491	2220.8
1750.709	2237.78
1753.927	2194.49
1757.144	2215.14
1760.361	2277.73
1763.578	2245.94
1766.795	2196.05
1770.011	2182.89
1773.227	2204.07
1776.443	2247.08
1779.658	2289.79
1782.874	2227.02
1786.089	2224.7
1789.303	2225.93
1792.518	2223.5
1795.732	2206.83
1798.945	2226.43
1802.159	2265.16
1805.372	2215.44
1808.585	2211.61
1811.797	2212.92
1815.01	2226.75
1818.222	2254.02
1821.434	2203.64
1824.645	2244.3
1827.856	2254.76
1831.067	2285.59
1834.278	2218.66
1837.488	2203.75
1840.698	2317.73
1843.908	2263.39
1847.117	2231.65
1850.326	2166.73
1853.535	2216.75
1856.744	2260.5
1859.952	2181.77
1863.16	2184.08
1866.368	2194.86
1869.575	2307.96
1872.782	2188.27
1875.989	2122.11
1879.196	2162.49
1882.402	2155.18
1885.608	2182.93
1888.814	2132.01
1892.019	2041.56
1895.224	2092.24
1898.429	2051.63
1901.634	2035.14
1904.838	2010.16
1908.042	2068.13
1911.246	2080.44
1914.449	2048.74
1917.652	2027.25
1920.855	2008.78
1924.058	2026.84
1927.26	2071.28
1930.462	2092.4
1933.664	2135.93
1936.865	2080.87
1940.066	2097.78
1943.267	2042.83
1946.467	2051.96
1949.668	2069.1
1952.868	2136.39
1956.067	2129.68
1959.267	2076.48
1962.466	2098.15
1965.665	2078.97
1968.863	2073.58
1972.061	2075.33
1975.259	2066.39
1978.457	2138.83
1981.654	2099.83
1984.852	2104.5
1988.048	2061.94
1991.245	2048.79
1994.441	2136.25
1997.637	2088.54
2000.833	2072.24
2004.028	2106.16
2007.223	2167.49
2010.418	2160.04
2013.613	2107.64
2016.807	2106.73
2020.001	2098.62
2023.194	2117.8
2026.388	2103.69
2029.581	2046.67
2032.774	2114.51
2035.966	2125.34
2039.158	2073.48
2042.35	2092.6
2045.542	2020.7
2048.733	2097.05
2051.924	2084
2055.115	2097.38
2058.306	2065.98
2061.496	2118.96
2064.686	2166.44
2067.875	2073.16
2071.065	2072.26
2074.254	2089.65
2077.442	2046
2080.631	2123.64
2083.819	2066.55
2087.007	2058.91
2090.195	2046.78
2093.382	2058.93
2096.569	2043.92
2099.756	2009.08
2102.942	2058.79
2106.128	2077.11
2109.314	2064.29
2112.5	2052.39
2115.685	2019.6
2118.87	2027.67
2122.055	2087.08
2125.239	2070.44
2128.424	2060.54
2131.608	2110.39
2134.791	2092.17
2137.974	2125.74
2141.157	2115.13
2144.34	2091.55
2147.523	2077.28
2150.705	2106.18
2153.887	2069.98
2157.068	2048.17
2160.25	2021.99
2163.431	2044.94
2166.611	2019.26
2169.792	2044.1
2172.972	1959.44
2176.152	2002.72
2179.331	2028.27
2182.511	2034.91
2185.69	2055.16
2188.868	2063.77
2192.047	2092.22
2195.225	2115.78
2198.403	2061.3
2201.58	2048.4
2204.758	2029.59
2207.935	2101.65
2211.111	2024.44
2214.288	2014.3
2217.464	2047.96
2220.64	1998.74
2223.815	2046.26
2226.991	1980.62
2230.166	1995.99
2233.34	2040.91
2236.515	2051.59
2239.689	2115.3
2242.863	2066
2246.036	2117.67
2249.209	2097.32
2252.382	2112.02
2255.555	2125.35
2258.727	2078.27
2261.9	2107.12
2265.071	2099.56
2268.243	2093.84
2271.414	2047.29
2274.585	2033.49
2277.756	2094.13
2280.926	2050.39
2284.096	2076.03
2287.266	2011.53
2290.436	2056.91
2293.605	2073.64
2296.774	2111.03
2299.942	2112.31
2303.111	2129.87
2306.279	2178.14
2309.447	2164.88
2312.614	2133.36
2315.781	2160.71
2318.948	2138.99
2322.115	2174.18
2325.281	2075.48
2328.447	2081.09
2331.613	2050.75
2334.779	2045.76
2337.944	2038.26
2341.109	2042.7
2344.274	2031.65
2347.438	2001.06
2350.602	2019.54
2353.766	2027.14
2356.929	2018.3
2360.092	2052.82
2363.255	2027.43
2366.418	2001.28
2369.58	2056.23
2372.742	1954.72
2375.904	1941.97
2379.066	1929.35
2382.227	1952.71
2385.388	1914.34
2388.548	1871.2
2391.709	1909.42
2394.869	1902.6
2398.029	1947.08
2401.188	1939.82
2404.347	1910.44
2407.506	1972.84
2410.665	2015.9
2413.823	1996.42
2416.981	1980.82
2420.139	1994.98
2423.296	2032.44
2426.453	2005.36
2429.61	2024.33
2432.767	2003.71
2435.923	2044.23
2439.079	1986.94
2442.235	2016.58
2445.391	1960.98
2448.546	2006.19
2451.701	2036.93
2454.855	2037.58
2458.009	2060.1
2461.163	2045.8
2464.317	2022.6
2467.471	2046.38
2470.624	2071.56
2473.777	2066.21
2476.929	2084.55
2480.082	2108.58
2483.234	2084.24
2486.385	2023.42
2489.537	2017.61
2492.688	2013.92
2495.839	2029.34
2498.989	2043.07
2502.14	2031.61
2505.29	2025.96
2508.439	2047.2
2511.589	1991.44
2514.738	1988.25
2517.887	2010.21
2521.035	2085.3
2524.183	2041.33
2527.331	2030.44
2530.479	2029.59
2533.627	2029.98
