Data from C_1_DEC_NC_4N_Splice17_11-44-13-247.txt Node
Date: Sat Mar 14 11:44:13 EDT 2020
User: sa697716
Spectrometer: FLMS03696
Trigger mode: 0
Integration Time (sec): 3.180400E-1
Scans to average: 20
Electric dark correction enabled: true
Nonlinearity correction enabled: true
Boxcar width: 5
XAxis mode: Wavelengths
Number of Pixels in Spectrum: 2048
>>>>>Begin Spectral Data<<<<<
187.83	-198656.31
188.298	1487.46
188.766	772.85
189.233	680.55
189.701	986.02
190.169	1400.85
190.636	472.71
191.104	329.04
191.571	6.53
192.039	-37.73
192.506	-80.61
192.974	281.46
193.441	-327.43
193.908	-160.49
194.375	-60.27
194.842	-27.05
195.31	-49.46
195.777	62.29
196.244	177.16
196.711	105.46
197.177	99.19
197.644	62.28
198.111	92.39
198.578	73.37
199.045	38.1
199.511	24.94
199.978	-31.53
200.445	14.87
200.911	-37.2
201.378	-130.49
201.844	-94.34
202.31	-208.35
202.777	-206.1
203.243	-131.77
203.709	-116.62
204.176	-101.64
204.642	-75.35
205.108	-26.03
205.574	-30.48
206.04	-47.03
206.506	-53.31
206.972	-87.47
207.438	-86.38
207.903	-112.92
208.369	-75.07
208.835	-59.69
209.301	-72.08
209.766	-83.59
210.232	-108.55
210.697	-133.75
211.163	-203.45
211.628	-321.46
212.094	-199.48
212.559	-127
213.024	-65.84
213.49	-80.12
213.955	-83.83
214.42	-113.35
214.885	-98.36
215.35	-83.36
215.815	-1.27
216.28	40.9
216.745	49.13
217.21	71.2
217.675	18.86
218.14	24.43
218.604	10.58
219.069	2.92
219.534	48.75
219.998	30.01
220.463	39.69
220.927	-44.56
221.392	-23.77
221.856	-25.21
222.32	-89.39
222.785	-82.98
223.249	-99.83
223.713	-98.89
224.177	-83.72
224.642	-209.54
225.106	-219.25
225.57	-256.89
226.034	-110.11
226.497	-182.8
226.961	-89.62
227.425	-35.49
227.889	-80.01
228.353	-146.65
228.816	-362.48
229.28	-278.09
229.744	-140.64
230.207	-23.44
230.671	-21.8
231.134	-210.81
231.597	-184.9
232.061	-318.12
232.524	-378.28
232.987	-237.51
233.45	-123.46
233.914	-115.45
234.377	-177.82
234.84	-169.87
235.303	-272.72
235.766	-262.71
236.229	-259.17
236.691	-186.73
237.154	-224.38
237.617	-147.94
238.08	-166.58
238.542	-215.97
239.005	-121.31
239.468	-103.91
239.93	-98.2
240.393	-75.35
240.855	-76.64
241.317	-83.69
241.78	-135.77
242.242	-110.91
242.704	-88.5
243.166	-58.27
243.629	-25.13
244.091	-51.41
244.553	-71.09
245.015	-55.34
245.477	-79.71
245.939	-116.61
246.4	-119.72
246.862	-82.54
247.324	-98.2
247.786	-143.58
248.247	-274.23
248.709	-399.75
249.17	-242.84
249.632	-115.93
250.093	-88.3
250.555	-74.71
251.016	-20.05
251.477	-11.13
251.939	0.33
252.4	-9.6
252.861	-53.7
253.322	-0.72
253.783	-46.74
254.244	-103.69
254.705	-148.79
255.166	-183.87
255.627	-182.53
256.088	-209.28
256.549	-202.87
257.009	-206.26
257.47	-291.09
257.931	-233.23
258.391	-160.94
258.852	-123.78
259.312	-146.67
259.773	-195.7
260.233	-90.19
260.694	-32.44
261.154	-74.69
261.614	-10.26
262.074	-6.66
262.534	26.62
262.994	33.97
263.455	18.49
263.915	28.76
264.374	33.24
264.834	49.94
265.294	11.9
265.754	-2.65
266.214	-6.84
266.673	-30.27
267.133	-52.15
267.593	-82.39
268.052	-77.86
268.512	-85.63
268.971	-70.32
269.431	-63.3
269.89	-71.29
270.349	-89.5
270.809	-99.2
271.268	-92.12
271.727	-371.01
272.186	-192.91
272.645	-130.41
273.104	-157.57
273.563	-219.64
274.022	-257.08
274.481	-187.77
274.94	-117.58
275.399	-104.72
275.857	-153.57
276.316	-239.81
276.775	-210.49
277.233	-203.22
277.692	-151.85
278.15	-126.27
278.609	-69.54
279.067	-67.51
279.525	-50.99
279.984	-115.29
280.442	-113.27
280.9	6.49
281.358	26.13
281.816	52.08
282.274	39.87
282.732	-4.26
283.19	-49.16
283.648	-82.3
284.106	-77.84
284.564	-111.83
285.021	-72.45
285.479	-73.79
285.937	-117.79
286.394	-93.08
286.852	-117.78
287.309	-128.11
287.767	-91.8
288.224	-72.2
288.682	-77.54
289.139	-75.88
289.596	-63.88
290.053	-91.46
290.511	-117.23
290.968	-120.88
291.425	-205.21
291.882	-89.28
292.339	-60.66
292.796	-82.65
293.252	-75.36
293.709	-21.73
294.166	-32.54
294.623	-48.06
295.079	-48.82
295.536	-25.8
295.992	-17.4
296.449	5.89
296.905	0.7
297.362	42.64
297.818	37.02
298.274	45.2
298.731	6.24
299.187	19.79
299.643	20.14
300.099	23.97
300.555	20.96
301.011	17.18
301.467	74
301.923	37.54
302.379	-0.02
302.835	-18.24
303.291	-11.73
303.746	-26.08
304.202	-63.78
304.658	-45.2
305.113	0.81
305.569	9.13
306.024	-14.43
306.479	-106.44
306.935	-70.66
307.39	-104.45
307.845	-90.76
308.301	-71.63
308.756	-65.95
309.211	-49.98
309.666	-62.79
310.121	-69.12
310.576	-112.81
311.031	-134.7
311.486	-179.92
311.94	-220.46
312.395	-311.16
312.85	-627.69
313.305	-4282.99
313.759	-17458.18
314.214	-1307.22
314.668	-1029.38
315.123	-842.76
315.577	-236.96
316.032	-162.5
316.486	-200.27
316.94	-90.73
317.394	-30.05
317.849	-9.68
318.303	-16.02
318.757	-13.32
319.211	-4
319.665	-12.13
320.119	-25.76
320.572	-85.12
321.026	-58.15
321.48	-41.45
321.934	-83.28
322.387	-100.81
322.841	-91.93
323.295	-8.7
323.748	-53.46
324.202	-61.59
324.655	-44.3
325.108	60.85
325.562	83.62
326.015	41.11
326.468	58.73
326.921	80.49
327.374	110.73
327.827	142.43
328.28	124.14
328.733	96.28
329.186	80.96
329.639	87.92
330.092	42.14
330.545	55.55
330.997	69.73
331.45	97.95
331.903	138.49
332.355	151.73
332.808	94.66
333.26	30.94
333.713	40.57
334.165	36.47
334.617	-13.51
335.069	-69.03
335.522	-303.07
335.974	-296.56
336.426	-395.14
336.878	-383.41
337.33	-158.92
337.782	-180.33
338.234	-147.67
338.686	-187.85
339.137	-210.38
339.589	-208.98
340.041	-127.14
340.493	-81.34
340.944	-105.74
341.396	-102.73
341.847	-41.95
342.299	-11.04
342.75	74.52
343.201	6.01
343.653	3.31
344.104	-50.6
344.555	-41.66
345.006	-186.3
345.457	-49.93
345.908	-47.24
346.359	-29.47
346.81	-18.7
347.261	-65.07
347.712	-110.64
348.163	-147.41
348.613	-90.09
349.064	-65.88
349.515	-50.8
349.965	-15.04
350.416	-76.3
350.866	-93.85
351.317	-149.65
351.767	-256.27
352.217	-279.1
352.668	-176.75
353.118	-109.22
353.568	-263.93
354.018	-171.32
354.468	-139.47
354.918	-84.86
355.368	-52.84
355.818	-81.68
356.268	-281.56
356.718	-1098.83
357.168	-276.2
357.617	-181.48
358.067	-245.76
358.517	-178.76
358.966	-202.38
359.416	-170.5
359.865	-222.32
360.315	-437.52
360.764	-152.27
361.213	-57.06
361.663	-89.86
362.112	-121.54
362.561	-201.14
363.01	-131.92
363.459	-129.4
363.908	-167.57
364.357	-115.02
364.806	-239.37
365.255	-118.58
365.703	-89.55
366.152	-92.86
366.601	-60.79
367.05	-27.19
367.498	-3.86
367.947	-17.65
368.395	-4.49
368.844	1.93
369.292	-54.38
369.74	-21.85
370.189	-86.92
370.637	-136.28
371.085	-127.9
371.533	-172.89
371.981	-211.19
372.429	-193.21
372.877	-218.17
373.325	-186.64
373.773	-223.02
374.221	-221.8
374.669	-298.8
375.116	-218.46
375.564	-206.54
376.012	-260.43
376.459	-190.9
376.907	-229.04
377.354	-293.64
377.801	-230.92
378.249	-254.3
378.696	-316.03
379.143	-329.17
379.591	-354.41
380.038	-604.2
380.485	-369.71
380.932	-326.89
381.379	-133.68
381.826	13.74
382.273	-5.13
382.72	-31.38
383.166	6.37
383.613	32.53
384.06	21.87
384.506	19.75
384.953	5.98
385.4	-5.54
385.846	-8.1
386.292	-52.75
386.739	-70.63
387.185	-78.38
387.631	-76.52
388.078	-62.68
388.524	-81.61
388.97	-70.2
389.416	-41.57
389.862	-39.36
390.308	-39.22
390.754	-24.05
391.2	-19.79
391.645	-35.48
392.091	0.79
392.537	12.96
392.983	-13.49
393.428	32.32
393.874	31.46
394.319	47.02
394.765	59.26
395.21	56.07
395.655	41.34
396.101	40.16
396.546	40.48
396.991	15.26
397.436	8.86
397.881	8.66
398.326	-16.28
398.771	-7.77
399.216	-19.15
399.661	-26.17
400.106	-25.59
400.551	-16.81
400.995	-14.24
401.44	-8.09
401.885	-3.65
402.329	-6.11
402.774	-1.03
403.218	13.7
403.663	13.42
404.107	19.88
404.551	26.11
404.995	24.27
405.44	14.7
405.884	10.9
406.328	1.38
406.772	-1.11
407.216	0.6
407.66	-3.57
408.104	-13.18
408.547	-13.76
408.991	-13.93
409.435	-15.38
409.879	-13.17
410.322	-9.21
410.766	-4.67
411.209	2.88
411.653	4.56
412.096	8.48
412.54	7.83
412.983	9.52
413.426	13.84
413.869	10.65
414.312	13.86
414.756	12.46
415.199	9.6
415.642	10.45
416.085	9.32
416.527	7.68
416.97	5.58
417.413	6.74
417.856	3.1
418.298	-1.07
418.741	-3.33
419.184	-5.82
419.626	-10.2
420.069	-9.49
420.511	-8.63
420.953	-5.44
421.396	-3.8
421.838	-6.34
422.28	-7.1
422.722	-4.14
423.164	-5.67
423.606	-2.81
424.048	-3.09
424.49	2.32
424.932	2.18
425.374	-1.7
425.816	-6.56
426.258	-8.38
426.699	-6.06
427.141	0.65
427.582	-1.47
428.024	-0.16
428.465	-4.1
428.907	-4.01
429.348	-5.31
429.789	-3.03
430.231	2.74
430.672	4.36
431.113	4.84
431.554	5
431.995	0.92
432.436	4.49
432.877	6.34
433.318	10.89
433.759	7.16
434.2	5.82
434.64	4.9
435.081	3.64
435.522	5.12
435.962	4.73
436.403	5.25
436.843	2.62
437.284	-1.45
437.724	-4.99
438.164	-8.15
438.604	-7.26
439.045	-4.59
439.485	-2.59
439.925	-4.94
440.365	-5.96
440.805	-5.72
441.245	-4.39
441.685	-4.18
442.125	-4.8
442.564	-5.25
443.004	-3.6
443.444	-2.78
443.883	-3.67
444.323	-7.64
444.762	-11.88
445.202	-13.11
445.641	-9.96
446.081	-12.64
446.52	-12.08
446.959	-9.63
447.398	-5.92
447.837	-5.97
448.276	-5.94
448.716	-4.72
449.154	-6.1
449.593	-1.41
450.032	-0.79
450.471	-4.83
450.91	-4.87
451.349	-3.17
451.787	-5.27
452.226	-7.51
452.664	-8.03
453.103	-8.1
453.541	-9.81
453.98	-4.44
454.418	-5.5
454.856	-2.53
455.295	-2.31
455.733	-1.54
456.171	-3.1
456.609	0.28
457.047	0.93
457.485	3.22
457.923	5.06
458.361	3.74
458.798	1.77
459.236	2.48
459.674	-0.06
460.111	0.96
460.549	0.91
460.987	1.35
461.424	-0.95
461.862	-0.06
462.299	-0.77
462.736	-0.19
463.173	1.22
463.611	3.29
464.048	4.51
464.485	5.44
464.922	5.31
465.359	4.78
465.796	12.94
466.233	13.77
466.67	16.19
467.106	17.51
467.543	16.2
467.98	15.12
468.416	13.89
468.853	11.85
469.29	11.1
469.726	9.71
470.162	9.93
470.599	2.54
471.035	2.14
471.471	0.3
471.907	-1.9
472.344	-3.32
472.78	-2.87
473.216	-4.11
473.652	-4.08
474.088	-5.16
474.523	-4.32
474.959	-4.9
475.395	-3.88
475.831	-3.63
476.266	-4.92
476.702	-4.99
477.138	-3.78
477.573	-3.12
478.008	-2.49
478.444	-1.2
478.879	0.72
479.314	1.61
479.75	2.33
480.185	1.78
480.62	1.38
481.055	1.98
481.49	2.31
481.925	2.92
482.36	4.84
482.795	3.35
483.229	2.64
483.664	1.75
484.099	0.89
484.534	1.54
484.968	2.3
485.403	2.36
485.837	1.56
486.271	1.6
486.706	0.61
487.14	-0.85
487.574	0.3
488.009	-0.06
488.443	-0.53
488.877	0.67
489.311	-0.22
489.745	-0.11
490.179	0.51
490.613	2.72
491.046	1.94
491.48	1.54
491.914	1.39
492.348	1.44
492.781	2.02
493.215	2.4
493.648	1.3
494.082	0.88
494.515	0.81
494.948	1.41
495.382	-0.58
495.815	0.05
496.248	0.92
496.681	0.43
497.114	-0.51
497.547	-0.41
497.98	0.61
498.413	2.38
498.846	3.04
499.279	2.38
499.711	1.21
500.144	1.62
500.577	2.35
501.009	1.86
501.442	2.9
501.874	4.76
502.306	3.71
502.739	5.73
503.171	4.97
503.603	4.59
504.036	4.01
504.468	4.32
504.9	4.51
505.332	4.11
505.764	4.83
506.196	3.99
506.627	3.43
507.059	4.4
507.491	0.92
507.923	1.06
508.354	1.81
508.786	2.75
509.217	2.72
509.649	2.62
510.08	1.75
510.512	2.46
510.943	2.57
511.374	2.37
511.805	1.75
512.237	1.99
512.668	0.85
513.099	-0.15
513.53	-0.57
513.961	0.07
514.391	0.04
514.822	2.02
515.253	1.39
515.684	2.07
516.114	2
516.545	3.33
516.975	3.16
517.406	3.16
517.836	2.86
518.267	3.15
518.697	3.28
519.127	2.99
519.558	1.68
519.988	0.94
520.418	-0.44
520.848	-1.02
521.278	-2.61
521.708	30.7
522.138	32.14
522.567	32.06
522.997	31.75
523.427	30.95
523.857	31.21
524.286	31
524.716	31.45
525.145	32.07
525.575	33
526.004	32.79
526.433	0.75
526.863	-0.65
527.292	0.63
527.721	1.58
528.15	1.42
528.579	1.77
529.008	1.72
529.437	0.97
529.866	1.02
530.295	-0.12
530.724	1.05
531.152	0.86
531.581	1.75
532.01	1.56
532.438	0.48
532.867	0.12
533.295	0.12
533.723	0.29
534.152	0.85
534.58	1.36
535.008	1.65
535.436	2.41
535.865	2.15
536.293	0.91
536.721	0.32
537.149	0.91
537.576	1.95
538.004	2.07
538.432	1.76
538.86	2.24
539.287	1.76
539.715	2.59
540.143	1.1
540.57	1.75
540.998	2.27
541.425	4.37
541.852	3.92
542.28	3.33
542.707	2.59
543.134	2.96
543.561	2.82
543.988	3.4
544.415	2.01
544.842	2.01
545.269	1.81
545.696	2.67
546.123	1.75
546.549	1.96
546.976	1.94
547.403	2.41
547.829	1.71
548.256	1.08
548.682	0.76
549.108	2.6
549.535	2.74
549.961	1.88
550.387	0.81
550.813	1.85
551.24	1.63
551.666	1.5
552.092	1.45
552.518	1.65
552.943	2.76
553.369	2.5
553.795	1.87
554.221	2.26
554.646	2.36
555.072	3.94
555.498	2.06
555.923	1.31
556.349	1.56
556.774	1.35
557.199	1.4
557.625	0.15
558.05	0.78
558.475	0.37
558.9	0.49
559.325	1.34
559.75	1.06
560.175	0.84
560.6	1.09
561.025	0.34
561.449	0.76
561.874	0.23
562.299	0.99
562.723	0.42
563.148	0.09
563.572	-0.41
563.997	-0.74
564.421	-1.99
564.846	-2.18
565.27	-1.72
565.694	-1.55
566.118	-2.03
566.542	-0.18
566.966	0.12
567.39	0.41
567.814	1.37
568.238	1.32
568.662	0.92
569.086	1.69
569.509	1.41
569.933	2.9
570.357	3.17
570.78	2.93
571.204	3.69
571.627	3.47
572.05	2.9
572.474	3.82
572.897	4.22
573.32	5.36
573.743	4.5
574.166	5.27
574.589	4.03
575.012	3.73
575.435	3.58
575.858	2.5
576.281	2.72
576.704	2.83
577.126	1.35
577.549	0.75
577.972	-0.51
578.394	-0.34
578.817	1.33
579.239	0.88
579.661	1.92
580.084	3.68
580.506	3.85
580.928	3.12
581.35	3.14
581.772	3.27
582.194	3.68
582.616	3.24
583.038	2.92
583.46	1.34
583.882	2.08
584.303	0.92
584.725	-0.29
585.147	4
585.568	4.68
585.99	5.59
586.411	6.07
586.833	6.23
587.254	7.04
587.675	7
588.096	6.34
588.518	5.66
588.939	6.72
589.36	7.16
589.781	1.02
590.202	3.72
590.623	3.44
591.043	2.2
591.464	1.79
591.885	1.64
592.305	1.53
592.726	1.88
593.147	1.85
593.567	1.27
593.987	0.51
594.408	0.91
594.828	-2.39
595.248	-2.32
595.669	-1
596.089	-0.32
596.509	-0.78
596.929	-0.59
597.349	0.25
597.769	0.33
598.189	0.3
598.608	0.9
599.028	0.58
599.448	-0.25
599.867	-0.2
600.287	-1.26
600.706	-1.47
601.126	-0.64
601.545	-0
601.965	-0.41
602.384	-0.13
602.803	-0.19
603.222	-0.33
603.641	-0.11
604.061	1.19
604.48	0.56
604.898	0.97
605.317	0.78
605.736	0.38
606.155	0.31
606.574	0.47
606.992	0.16
607.411	0.25
607.829	-0.43
608.248	-0.37
608.666	-0.95
609.085	-0.31
609.503	0.02
609.921	0.91
610.339	0.89
610.758	0.27
611.176	-0.24
611.594	0.41
612.012	0.49
612.43	1.39
612.847	1.21
613.265	2.35
613.683	2.22
614.101	1.68
614.518	0.24
614.936	0.28
615.353	1.22
615.771	1.37
616.188	1.13
616.606	1.07
617.023	1.16
617.44	1.21
617.857	-0.34
618.274	-0.99
618.691	-0.3
619.108	0.18
619.525	0.36
619.942	0.4
620.359	0.46
620.776	0.38
621.192	1.06
621.609	1.26
622.026	2.13
622.442	2.74
622.859	2.58
623.275	1.76
623.691	1.86
624.108	1.55
624.524	1.39
624.94	1.92
625.356	1.53
625.772	0.28
626.188	-0.43
626.604	-0.65
627.02	-0.79
627.436	-0.54
627.852	0.84
628.268	1.24
628.683	0.64
629.099	0.23
629.514	-1.03
629.93	-1.04
630.345	-0.44
630.761	-1.25
631.176	-1.45
631.591	0.52
632.007	1.62
632.422	0.21
632.837	-0.64
633.252	1.28
633.667	1.3
634.082	1.65
634.497	2.44
634.911	4.42
635.326	4.77
635.741	5.02
636.155	2.89
636.57	3.53
636.984	4.08
637.399	5.74
637.813	4.32
638.228	4.85
638.642	4.76
639.056	3.99
639.47	2.63
639.884	3.24
640.298	3.02
640.712	4.19
641.126	3.24
641.54	2.73
641.954	-0.13
642.368	0.12
642.781	2.3
643.195	2.42
643.609	2.7
644.022	2.21
644.436	1.31
644.849	0.87
645.262	0.61
645.676	-0.13
646.089	-0.4
646.502	2.09
646.915	1.78
647.328	-0.22
647.741	0.39
648.154	1.04
648.567	3.2
648.98	4.22
649.393	4.15
649.805	3.75
650.218	3.84
650.631	5.06
651.043	4.6
651.456	5.37
651.868	5.25
652.28	4.42
652.693	3.23
653.105	1.28
653.517	0.36
653.929	0.5
654.341	1.3
654.753	2.01
655.165	1.08
655.577	0.93
655.989	0.53
656.401	-0.01
656.813	0.62
657.224	1.25
657.636	0.85
658.047	2.31
658.459	2.64
658.87	0.38
659.282	0.08
659.693	1.19
660.104	1.32
660.515	1.23
660.926	0.49
661.338	-0.33
661.749	-1.12
662.159	-0.6
662.57	-2.15
662.981	-2.24
663.392	-0.78
663.803	-1.1
664.213	-2.31
664.624	-2.97
665.035	-3.23
665.445	-3.54
665.855	-1.07
666.266	0.24
666.676	-0.12
667.086	-0.23
667.497	-0.36
667.907	-0.37
668.317	-0.96
668.727	2.51
669.137	1.17
669.547	1.07
669.956	1.33
670.366	0.44
670.776	0.48
671.186	0.34
671.595	1.72
672.005	1.38
672.414	1.28
672.824	2.82
673.233	-0.59
673.642	0.48
674.052	0.52
674.461	1.49
674.87	0.73
675.279	1.34
675.688	0.17
676.097	1.22
676.506	1.28
676.915	0.82
677.323	0.51
677.732	0.18
678.141	-0.34
678.549	-0.17
678.958	-1.97
679.366	-2.25
679.775	-3.99
680.183	-0.58
680.592	-2.1
681	-2.36
681.408	-2.82
681.816	-3.37
682.224	-3.03
682.632	-0.47
683.04	-0.15
683.448	0.45
683.856	1.33
684.264	3.13
684.671	1.02
685.079	0.19
685.487	-0.57
685.894	-0.63
686.302	-2.36
686.709	-1.82
687.116	-2.95
687.524	-1.97
687.931	-0.36
688.338	-0.43
688.745	-2.7
689.152	-3.42
689.559	-2.51
689.966	-0.74
690.373	0.21
690.78	2.68
691.187	2.71
691.593	3.65
692	2.45
692.407	2.31
692.813	4.35
693.22	6.28
693.626	5.82
694.032	7.02
694.439	6.73
694.845	6.39
695.251	4.83
695.657	5.02
696.063	2.37
696.469	2.39
696.875	2.43
697.281	0.34
697.687	-1.32
698.093	-1.16
698.498	-1.73
698.904	-3.18
699.31	-2.32
699.715	0.61
700.12	-0.27
700.526	0.79
700.931	0.63
701.337	1.24
701.742	1.72
702.147	1.74
702.552	2.53
702.957	0.63
703.362	1.22
703.767	0.98
704.172	-1.4
704.577	-1.83
704.981	-2.92
705.386	-2.6
705.791	-3.17
706.195	-4.12
706.6	-3.24
707.004	-4.75
707.408	-4.38
707.813	-2.88
708.217	-2.28
708.621	-2.71
709.025	-2.27
709.43	0.18
709.834	0.56
710.237	-0.15
710.641	0.3
711.045	0.62
711.449	2.39
711.853	6.28
712.256	4.83
712.66	4.54
713.064	5.56
713.467	6.05
713.87	5.04
714.274	5.53
714.677	6.74
715.08	7.6
715.484	7.46
715.887	9.96
716.29	6.35
716.693	8.69
717.096	8.97
717.499	8.57
717.901	7.18
718.304	7.18
718.707	6.31
719.109	5.97
719.512	4.67
719.915	7.46
720.317	4.75
720.719	4.73
721.122	3.15
721.524	2.37
721.926	7.6
722.328	8.62
722.731	7.27
723.133	7.02
723.535	6.43
723.937	6.07
724.338	5.93
724.74	8.04
725.142	62.15
725.544	66.46
725.945	80.38
726.347	75.5
726.748	76.05
727.15	78.05
727.551	81.48
727.952	80.17
728.354	79.82
728.755	78.3
729.156	75.29
729.557	22.62
729.958	17.67
730.359	5.33
730.76	4.94
731.161	4.63
731.562	2.22
731.962	-1.54
732.363	-1.14
732.763	-0.49
733.164	-3.16
733.564	-2.87
733.965	-1.51
734.365	-0.78
734.766	-1.33
735.166	-0.76
735.566	0.07
735.966	1.95
736.366	1.98
736.766	2.63
737.166	1.16
737.566	2.08
737.966	3.17
738.365	2.66
738.765	4.21
739.165	4.54
739.564	4.11
739.964	2.79
740.363	1.01
740.763	1.08
741.162	2.27
741.561	1.95
741.96	1.96
742.36	0.1
742.759	0.9
743.158	-1.3
743.557	-2.56
743.955	-2.35
744.354	-2.57
744.753	-2.78
745.152	-1.32
745.55	-3.95
745.949	-3.47
746.348	-3.41
746.746	-3.72
747.144	-1.77
747.543	-2.06
747.941	-2.46
748.339	-2.72
748.737	-1.65
749.136	0.33
749.534	-2.03
749.932	1.88
750.33	2.08
750.727	1.56
751.125	3.04
751.523	0.13
751.921	3.81
752.318	5.64
752.716	7.44
753.113	6.72
753.511	5.93
753.908	6.52
754.305	9.78
754.703	11.19
755.1	12.83
755.497	12.35
755.894	12.05
756.291	9.49
756.688	9.43
757.085	6.98
757.482	8.43
757.878	11.21
758.275	14.4
758.672	5.29
759.068	3.92
759.465	0.56
759.861	-2.1
760.258	-3.06
760.654	-3.42
761.05	-0.72
761.447	-0.71
761.843	-1.2
762.239	-4.48
762.635	-9.26
763.031	-10.18
763.427	-10.47
763.822	-8.53
764.218	-8.54
764.614	-7.86
765.01	-8.89
765.405	-11.1
765.801	-8.08
766.196	-8.81
766.592	-8.09
766.987	-6.4
767.382	-5.88
767.778	-5.87
768.173	-5.96
768.568	-5.36
768.963	-4.33
769.358	-3.53
769.753	-1.84
770.148	-2.42
770.542	-1.93
770.937	-2.13
771.332	-1.25
771.726	-1.26
772.121	2.13
772.515	2.54
772.91	3.57
773.304	4.48
773.699	4.4
774.093	2.86
774.487	2.64
774.881	2.72
775.275	2.51
775.669	-0.18
776.063	-1.75
776.457	-4.32
776.851	-4.24
777.245	-3.36
777.638	-5.39
778.032	-6.63
778.425	-4.57
778.819	-1.45
779.212	1.62
779.606	4.62
779.999	6.08
780.392	7.96
780.786	6.44
781.179	6.42
781.572	6.46
781.965	8.46
782.358	9.93
782.751	8.77
783.143	5.52
783.536	3.68
783.929	0.21
784.322	0.51
784.714	0.1
785.107	2.07
785.499	3.45
785.891	5.1
786.284	6.01
786.676	5.25
787.068	7.78
787.46	8.51
787.852	6.11
788.245	6.05
788.636	4.02
789.028	6.67
789.42	7.06
789.812	8.05
790.204	6.03
790.595	6.17
790.987	6.85
791.378	5.83
791.77	3.78
792.161	4.2
792.553	6.4
792.944	7.52
793.335	4.81
793.726	5.02
794.117	4.82
794.508	3.41
794.899	-0.02
795.29	-1.27
795.681	-4.39
796.072	-2.76
796.463	20.25
796.853	23.22
797.244	23.86
797.634	24.38
798.025	24.32
798.415	20.77
798.806	23.31
799.196	27.12
799.586	31.14
799.976	35.2
800.366	33.31
800.756	8.52
801.146	4.55
801.536	3.18
801.926	3.65
802.316	4.64
802.706	5.04
803.095	4.37
803.485	2.14
803.874	-0.46
804.264	-3.41
804.653	-1.39
805.043	2.28
805.432	2.64
805.821	6.48
806.21	7.42
806.599	5.72
806.988	8.85
807.377	5.43
807.766	2.67
808.155	3.48
808.544	3.53
808.933	3.52
809.321	4.31
809.71	0.71
810.098	0.11
810.487	-2.22
810.875	-5.84
811.264	-6.55
811.652	8.97
812.04	13.04
812.428	13.17
812.816	11.59
813.204	12.92
813.592	6.99
813.98	11.16
814.368	14.33
814.756	14.1
815.144	19.1
815.531	21.6
815.919	5.11
816.306	4.33
816.694	4.86
817.081	8.61
817.469	8.61
817.856	8.29
818.243	4.86
818.63	-1.85
819.017	-0.11
819.404	-0.49
819.791	-4.35
820.178	-8.55
820.565	-4.8
820.952	0.74
821.339	1.45
821.725	3.99
822.112	11.02
822.498	14.3
822.885	11.48
823.271	11
823.657	4.01
824.044	5.53
824.43	8.23
824.816	16.83
825.202	14.87
825.588	12.79
825.974	12.49
826.36	6.6
826.746	3.82
827.132	6.34
827.517	12.39
827.903	17.44
828.289	22.99
828.674	22.74
829.06	15.06
829.445	10.12
829.83	7.47
830.216	3.14
830.601	6.66
830.986	18.51
831.371	20.18
831.756	21.36
832.141	28.83
832.526	26.05
832.911	30.27
833.295	24.94
833.68	25.91
834.065	29.45
834.449	29.84
834.834	33.48
835.218	27.57
835.603	30.92
835.987	24.22
836.371	18.26
836.755	16.11
837.139	10.16
837.524	7.02
837.908	4.66
838.291	7.19
838.675	6.78
839.059	3.04
839.443	-0.67
839.827	-8.33
840.21	-11.18
840.594	-6.25
840.977	-5.8
841.361	-4.91
841.744	-3.68
842.127	-5.12
842.511	-6.83
842.894	-10.27
843.277	-13.04
843.66	-13.11
844.043	-8.12
844.426	0.95
844.809	-5.98
845.191	-7.07
845.574	-5.49
845.957	-3.55
846.339	2.95
846.722	1.73
847.104	4.15
847.487	-0.25
847.869	1.86
848.252	5.01
848.634	1.39
849.016	3.24
849.398	1.18
849.78	-1.79
850.162	3.78
850.544	0.95
850.926	-2.72
851.307	-3.35
851.689	3.93
852.071	-3.97
852.452	-7.04
852.834	-8.18
853.215	-7.94
853.597	-4.98
853.978	0.19
854.359	-3.83
854.741	0.59
855.122	1.38
855.503	-0.81
855.884	-5.24
856.265	2.87
856.646	-1.62
857.026	2.04
857.407	3.34
857.788	-1.37
858.169	-7.72
858.549	-0.97
858.93	-3.16
859.31	-0.79
859.69	5.27
860.071	8.64
860.451	10.08
860.831	10.83
861.211	2.54
861.591	-1.66
861.971	1.31
862.351	0.97
862.731	-7.11
863.111	-6.27
863.491	-2.12
863.87	-6.5
864.25	-11.82
864.629	-9.58
865.009	-10.46
865.388	-4.09
865.768	-7.2
866.147	-5.56
866.526	0.78
866.905	3.1
867.284	-8.42
867.663	-17.41
868.042	-18.98
868.421	-16.64
868.8	-20.33
869.179	-14.26
869.558	-16.25
869.936	-9.83
870.315	-13.13
870.693	-8.99
871.072	-10.74
871.45	-7.98
871.828	-1.61
872.207	-0.32
872.585	5.25
872.963	0.65
873.341	9.4
873.719	21.13
874.097	21.51
874.475	22.61
874.853	15.22
875.23	17.83
875.608	21.64
875.986	22.16
876.363	23.35
876.741	33.22
877.118	47.43
877.495	42.11
877.873	30.5
878.25	23.53
878.627	24.47
879.004	28.66
879.381	23.22
879.758	25.42
880.135	27.7
880.512	27.67
880.889	10
881.265	-3.99
881.642	-8.43
882.019	-8.75
882.395	7.11
882.772	14.28
883.148	16.92
883.524	17.64
883.901	20.13
884.277	13.16
884.653	11.33
885.029	21.49
885.405	35.85
885.781	37.19
886.157	36.28
886.532	27.92
886.908	22.91
887.284	19.3
887.659	23.19
888.035	20.61
888.411	17.18
888.786	16.53
889.161	11.41
889.537	1.51
889.912	-2.37
890.287	1.94
890.662	-1.71
891.037	-9.86
891.412	-7.78
891.787	-16.17
892.162	-11.32
892.536	-5.36
892.911	3.57
893.286	2.15
893.66	4.88
894.035	8.38
894.409	-2.83
894.784	7.46
895.158	13.49
895.532	12.9
895.906	21.43
896.281	16.54
896.655	23.86
897.029	19.56
897.402	18.49
897.776	8.38
898.15	11.08
898.524	16.59
898.898	8.13
899.271	11.76
899.645	18.85
900.018	7.21
900.392	15.99
900.765	1.18
901.138	-0.15
901.511	-0.38
901.884	16.54
902.258	21.24
902.631	41
903.003	41.34
903.376	29.35
903.749	27.56
904.122	30.93
904.495	15.05
904.867	10.79
905.24	17.04
905.612	19.8
905.985	1.18
906.357	-21.57
906.729	-35.73
907.102	-21.92
907.474	-15.17
907.846	-9.84
908.218	-5.86
908.59	10.88
908.962	17.31
909.334	17.34
909.705	21.79
910.077	19.67
910.449	27.28
910.82	31.76
911.192	20.59
911.563	34.57
911.935	23.54
912.306	11.01
912.677	-0.77
913.048	6.63
913.419	7.25
913.79	-9.05
914.161	-0.7
914.532	21.88
914.903	13.88
915.274	22.52
915.645	9.96
916.015	2.57
916.386	7.09
916.756	3.55
917.127	-6.75
917.497	2.47
917.868	18
918.238	19.38
918.608	-6.45
918.978	-5.57
919.348	-19.41
919.718	-15.94
920.088	-1.74
920.458	10.79
920.828	-0.66
921.198	6.21
921.567	-4.28
921.937	-7.28
922.306	-22.22
922.676	-17.91
923.045	-1.16
923.415	15.38
923.784	8.62
924.153	21.9
924.522	27.45
924.891	27.2
925.26	20.04
925.629	13.68
925.998	-0.48
926.367	9.65
926.736	38.29
927.104	27.33
927.473	19.79
927.842	18.89
928.21	-9.61
928.578	-35.15
928.947	-13.64
929.315	-5.68
929.683	22.63
930.051	53.66
930.42	68.55
930.788	33.58
931.156	47.96
931.523	85.48
931.891	80.95
932.259	98.48
932.627	135.45
932.994	155.69
933.362	162.48
933.729	131.9
934.097	119.84
934.464	102.31
934.831	90.57
935.199	73.73
935.566	38.54
935.933	110.51
936.3	120.14
936.667	93.36
937.034	178.09
937.401	166.1
937.767	153.62
938.134	136.08
938.501	177.91
938.867	235.31
939.234	396.94
939.6	305.48
939.967	187.29
940.333	160.05
940.699	107.98
941.065	14.47
941.431	18.8
941.798	62.19
942.163	111.66
942.529	58.68
942.895	39.32
943.261	40.93
943.627	67.36
943.992	71.57
944.358	40.52
944.723	84.8
945.089	74.04
945.454	78.31
945.82	42.37
946.185	6.01
946.55	22.01
946.915	9.43
947.28	5.14
947.645	14.04
948.01	41.66
948.375	64.42
948.74	35.08
949.104	26.33
949.469	-71.8
949.834	-114.83
950.198	63.66
950.562	81.16
950.927	75.93
951.291	100.55
951.655	66.56
952.02	10.6
952.384	19.36
952.748	36.65
953.112	84.65
953.476	107.07
953.839	93.28
954.203	104.34
954.567	113.12
954.931	113.64
955.294	115.24
955.658	100.66
956.021	168.19
956.385	172.1
956.748	265.99
957.111	-30.14
957.474	-186.49
957.837	-331.72
958.2	-497.36
958.563	-165.09
958.926	-12.76
959.289	-94.11
959.652	-34.73
960.015	-12.09
960.377	-2.16
960.74	-5.22
961.102	8.01
961.465	183.3
961.827	610.31
962.189	1109.46
962.552	741.62
962.914	551.87
963.276	349.22
963.638	302.57
964	282.88
964.362	223.47
964.724	189.13
965.085	150.98
965.447	128.56
965.809	41.4
966.17	32.25
966.532	18.99
966.893	17.1
967.255	25.64
967.616	5.3
967.977	11.78
968.338	1.99
968.699	26.66
969.061	25.14
969.421	29.58
969.782	13.82
970.143	33.91
970.504	83.03
970.865	111.9
971.225	140.19
971.586	133.34
971.946	152.29
972.307	128.81
972.667	108.34
973.027	104.03
973.388	84.28
973.748	96.44
974.108	103.54
974.468	31
974.828	54.99
975.188	10.37
975.548	13.72
975.907	24.23
976.267	15.15
976.627	58.27
976.986	58.42
977.346	49.4
977.705	44.32
978.064	40.29
978.424	43.72
978.783	11.35
979.142	4.39
979.501	13.65
979.86	28.81
980.219	32.33
980.578	-12.15
980.937	-52.98
981.296	-32.69
981.654	-37.17
982.013	-104.05
982.371	-115.13
982.73	-109.64
983.088	-111.77
983.447	-118.68
983.805	-175.24
984.163	-351.53
984.521	-302.91
984.879	-260.3
985.237	183.55
985.595	49.47
985.953	-49.83
986.311	-84.19
986.669	-38.8
987.026	-43.77
987.384	-140.16
987.741	-190.43
988.099	-60.65
988.456	-38.22
988.814	-21.16
989.171	-35.91
989.528	-78.24
989.885	-79.66
990.242	-36.3
990.599	-80.11
990.956	-68.74
991.313	-27.71
991.67	-10.15
992.027	19.46
992.383	23.57
992.74	32.53
993.096	39.67
993.453	50.87
993.809	55.28
994.165	53.01
994.522	120.39
994.878	135.08
995.234	181.39
995.59	156.3
995.946	60.04
996.302	63.42
996.658	53.89
997.013	43.53
997.369	83.49
997.725	138.1
998.08	74.72
998.436	-80.42
998.791	-72.32
999.147	-108.34
999.502	-70.96
999.857	-79.14
1000.212	-238.69
1000.567	-400.68
1000.922	-241.03
1001.277	-187.99
1001.632	-137.05
1001.987	-139.55
1002.342	-71.84
1002.696	-62.24
1003.051	-40.2
1003.406	-51.53
1003.76	-70.05
1004.114	-36.22
1004.469	-20.45
1004.823	-10.97
1005.177	-24.26
1005.531	-18.42
1005.885	-4.42
1006.239	5.08
1006.593	12.58
1006.947	45.33
1007.301	24.72
1007.655	35.23
1008.008	32.84
1008.362	32
1008.715	45.83
1009.069	62.52
1009.422	137.47
1009.776	169.18
1010.129	80.4
1010.482	40.96
1010.835	-64.07
1011.188	-145.8
1011.541	-51.36
1011.894	989.58
1012.247	-3227.46
1012.6	-259.03
1012.952	-204.46
1013.305	-163.26
1013.657	-78.96
1014.01	-84.22
1014.362	-76.02
1014.715	0.13
1015.067	32.86
1015.419	30.18
1015.771	45.35
1016.123	69.66
1016.475	87.69
1016.827	99.73
1017.179	120.49
1017.531	103.51
1017.883	94.88
1018.234	149.69
1018.586	169.16
1018.938	216.88
1019.289	304.8
1019.64	316.87
1019.992	232.92
1020.343	161.33
1020.694	163.97
1021.045	147.14
1021.396	164.86
1021.747	211.39
1022.098	172.09
1022.449	101.68
1022.8	61.04
1023.151	46.5
1023.501	62.99
1023.852	56.01
1024.202	83.04
1024.553	59.3
1024.903	83.68
1025.253	100.17
1025.604	95.88
1025.954	110.1
1026.304	106
1026.654	106.63
1027.004	105.18
1027.354	27.45
1027.703	192.99
1028.053	169.46
1028.403	581.64
1028.753	500.82
1029.102	49.04
1029.452	-2231.47
1029.801	-150.65
1030.15	-65.66
1030.499	-101.9
897.758	1885.95
901.051	1813.77
904.343	1847.37
907.636	1856.67
910.928	1909.92
914.22	1839.41
917.511	1843.7
920.803	1881.99
924.094	1873.1
927.384	1883.94
930.675	1846.07
933.965	1816.26
937.255	1849.4
940.544	1822.85
943.834	1809.44
947.123	1759.6
950.411	1837.47
953.7	1821.39
956.988	1814.7
960.276	1748.01
963.563	1783.18
966.851	1796.63
970.138	1828.5
973.424	1831.54
976.711	1786.3
979.997	1830.41
983.283	1865.59
986.568	1808.39
989.853	1792.52
993.138	1812.3
996.423	1894.62
999.708	1861.36
1002.992	1885.88
1006.275	1802.11
1009.559	1803.51
1012.842	1887.55
1016.125	1850.12
1019.408	1832.22
1022.69	1873.69
1025.972	1903.73
1029.254	1881.85
1032.536	1856.14
1035.817	1855.73
1039.098	1829.12
1042.379	1872.02
1045.659	1895.03
1048.939	1848.13
1052.219	1849.34
1055.498	1836.96
1058.778	1834.06
1062.057	1811.07
1065.335	1832.95
1068.614	1837.77
1071.892	1839.36
1075.17	1876.47
1078.447	1883.71
1081.724	1877.89
1085.001	1896.45
1088.278	1877.78
1091.554	1879.41
1094.83	1875.11
1098.106	1906.84
1101.382	1927.16
1104.657	1927.1
1107.932	1923.51
1111.206	1908.91
1114.481	1863.24
1117.755	1863.24
1121.029	1860.67
1124.302	1911.95
1127.575	1886.85
1130.848	1885.75
1134.121	1861.85
1137.393	1831.09
1140.665	1877.35
1143.937	1860.81
1147.208	1811.41
1150.48	1867.87
1153.75	1856.94
1157.021	1851.48
1160.291	1833.63
1163.561	1880.59
1166.831	1843.63
1170.101	1862.72
1173.37	1824.53
1176.639	1792.23
1179.907	1827.98
1183.176	1852.03
1186.444	1852.64
1189.711	1872.31
1192.979	1895.77
1196.246	1857.87
1199.513	1866.9
1202.78	1875.41
1206.046	1884.04
1209.312	1911
1212.578	1920.8
1215.843	1896.18
1219.108	1869.79
1222.373	1888.55
1225.638	1870.6
1228.902	1865.31
1232.166	1826.99
1235.43	1818.23
1238.693	1845.23
1241.956	1836.16
1245.219	1883.57
1248.482	1866.6
1251.744	1865.07
1255.006	1961.49
1258.268	1914.57
1261.529	1879.15
1264.79	1878.56
1268.051	1958.14
1271.312	1965.85
1274.572	1938.32
1277.832	1925.78
1281.092	1904.21
1284.351	1901.97
1287.61	1890.13
1290.869	1839
1294.128	1840.9
1297.386	1869.53
1300.644	1862.69
1303.902	1873.78
1307.159	1760.52
1310.416	1803.43
1313.673	1830.23
1316.93	1832.25
1320.186	1854.17
1323.442	1880.94
1326.697	1887.44
1329.953	1859.99
1333.208	1898.71
1336.463	1874.32
1339.717	1848.22
1342.972	1939.86
1346.226	1914.68
1349.479	1878.33
1352.733	1863.73
1355.986	1864.37
1359.238	1851.1
1362.491	1854.83
1365.743	1857.88
1368.995	1849.44
1372.247	1866.92
1375.498	1883.26
1378.749	1927.77
1382	1885.93
1385.251	1913.87
1388.501	1873.76
1391.751	1883.94
1395	1854.45
1398.25	1878.17
1401.499	1905.12
1404.748	1867.14
1407.996	1847.97
1411.244	1840.47
1414.492	1829.68
1417.74	1821.49
1420.987	1823.12
1424.234	1876.02
1427.481	1838.74
1430.728	1888.96
1433.974	1870.25
1437.22	1862.6
1440.465	1857.48
1443.711	1864.95
1446.956	1881.89
1450.201	1849.63
1453.445	1886.02
1456.689	1878.36
1459.933	1885.8
1463.177	1921.12
1466.42	1897.85
1469.663	1881
1472.906	1901.97
1476.148	1940.61
1479.391	1898.03
1482.633	1878.32
1485.874	1904.56
1489.115	1911.57
1492.356	1890.95
1495.597	1873.06
1498.838	1861.84
1502.078	1851
1505.318	1828.99
1508.557	1854.05
1511.797	1851.18
1515.036	1900.15
1518.274	1865.63
1521.513	1816.15
1524.751	1822.82
1527.989	1844.57
1531.227	1859.18
1534.464	1874.96
1537.701	1862.78
1540.938	1870.06
1544.174	1820.74
1547.41	1808.11
1550.646	1839.29
1553.882	1882.97
1557.117	1932.47
1560.352	1935.78
1563.587	1902.8
1566.821	1876.14
1570.055	1882.61
1573.289	1865.72
1576.523	1909.94
1579.756	1923.98
1582.989	1942.27
1586.222	1903.98
1589.454	1929.69
1592.686	1917.65
1595.918	1941.39
1599.15	1938.52
1602.381	1970.72
1605.612	1960.95
1608.843	2037.96
1612.073	1975.32
1615.303	1966.55
1618.533	1963.99
1621.762	1964.14
1624.992	1935.27
1628.221	1939.89
1631.449	1928.68
1634.678	1942.81
1637.906	1916.38
1641.134	1936.32
1644.361	1908.01
1647.588	1900.37
1650.815	1919.68
1654.042	1885.52
1657.269	1906.65
1660.495	1897.06
1663.72	1875.45
1666.946	1850.57
1670.171	1839.85
1673.396	1816.21
1676.621	1800.32
1679.845	1793.55
1683.069	1794.15
1686.293	1816.82
1689.517	1814.77
1692.74	1781.17
1695.963	1795.17
1699.185	1836.91
1702.408	1815.19
1705.63	1837.66
1708.852	1855.61
1712.073	1829.07
1715.294	1845.99
1718.515	1881.6
1721.736	1849.19
1724.956	1827.54
1728.176	1846.82
1731.396	1866.54
1734.616	1855.32
1737.835	1890.97
1741.054	1862.89
1744.272	1857.93
1747.491	1897.48
1750.709	1908.83
1753.927	1876.02
1757.144	1893.12
1760.361	1950.48
1763.578	1920.32
1766.795	1879.92
1770.011	1867.38
1773.227	1884.52
1776.443	1923.83
1779.658	1959.14
1782.874	1907.54
1786.089	1907.51
1789.303	1910.25
1792.518	1906.38
1795.732	1895.23
1798.945	1913.4
1802.159	1949.68
1805.372	1909.63
1808.585	1905.36
1811.797	1907.32
1815.01	1920.16
1818.222	1948.4
1821.434	1905.67
1824.645	1937.12
1827.856	1953.8
1831.067	1979.16
1834.278	1921.93
1837.488	1909.67
1840.698	2009.39
1843.908	1968.44
1847.117	1941.29
1850.326	1889.43
1853.535	1933.15
1856.744	1973.48
1859.952	1912.02
1863.16	1914.58
1866.368	1928.63
1869.575	2036.35
1872.782	1933.23
1875.989	1877.34
1879.196	1914.32
1882.402	1911.58
1885.608	1940.82
1888.814	1900.98
1892.019	1827.71
1895.224	1874.94
1898.429	1843.07
1901.634	1831.84
1904.838	1808.42
1908.042	1866.29
1911.246	1881.69
1914.449	1857.07
1917.652	1837.45
1920.855	1819.68
1924.058	1835.65
1927.26	1878.72
1930.462	1898.21
1933.664	1937.19
1936.865	1887.97
1940.066	1907.58
1943.267	1856
1946.467	1863.33
1949.668	1876.48
1952.868	1940.78
1956.067	1937.07
1959.267	1886.2
1962.466	1906.71
1965.665	1885.73
1968.863	1883.67
1972.061	1878.81
1975.259	1870.14
1978.457	1934.59
1981.654	1899.66
1984.852	1903.27
1988.048	1865.97
1991.245	1851.41
1994.441	1930.68
1997.637	1881.71
2000.833	1869.35
2004.028	1896.98
2007.223	1957.08
2010.418	1948.68
2013.613	1901.45
2016.807	1903.06
2020.001	1893.59
2023.194	1908.26
2026.388	1896.15
2029.581	1846.65
2032.774	1910.94
2035.966	1921.81
2039.158	1877.34
2042.35	1892.77
2045.542	1825.66
2048.733	1895.32
2051.924	1877.79
2055.115	1889.14
2058.306	1862.79
2061.496	1910.86
2064.686	1948.06
2067.875	1861.54
2071.065	1857.02
2074.254	1870.68
2077.442	1831.23
2080.631	1903.53
2083.819	1854.48
2087.007	1848.84
2090.195	1838.92
2093.382	1846.7
2096.569	1834.81
2099.756	1803.61
2102.942	1852.53
2106.128	1870.17
2109.314	1859.02
2112.5	1851.2
2115.685	1821.57
2118.87	1827.63
2122.055	1881.77
2125.239	1868.46
2128.424	1862.4
2131.608	1900.98
2134.791	1885.61
2137.974	1914.98
2141.157	1906.33
2144.34	1887.18
2147.523	1870.05
2150.705	1897.52
2153.887	1861.25
2157.068	1846.26
2160.25	1819.17
2163.431	1836.22
2166.611	1816.54
2169.792	1840.41
2172.972	1763.44
2176.152	1802.18
2179.331	1823.77
2182.511	1833.77
2185.69	1851.05
2188.868	1860.83
2192.047	1884.05
2195.225	1911
2198.403	1861.46
2201.58	1848.47
2204.758	1830.93
2207.935	1896.55
2211.111	1828.08
2214.288	1819.24
2217.464	1849.73
2220.64	1803.54
2223.815	1847.13
2226.991	1790.2
2230.166	1803.07
2233.34	1847.3
2236.515	1855.1
2239.689	1913.39
2242.863	1871.04
2246.036	1917.13
2249.209	1897.05
2252.382	1908.05
2255.555	1924.55
2258.727	1883.65
2261.9	1904.87
2265.071	1898.65
2268.243	1897.35
2271.414	1857.71
2274.585	1848.98
2277.756	1900.75
2280.926	1862.29
2284.096	1883.91
2287.266	1829.52
2290.436	1869.73
2293.605	1886.02
2296.774	1926.26
2299.942	1924.24
2303.111	1936.32
2306.279	1984.99
2309.447	1970.9
2312.614	1946.76
2315.781	1968.8
2318.948	1952.07
2322.115	1984.78
2325.281	1892.26
2328.447	1894.7
2331.613	1866.44
2334.779	1864.89
2337.944	1858.07
2341.109	1860.93
2344.274	1852.82
2347.438	1821.52
2350.602	1843.8
2353.766	1849.35
2356.929	1841.47
2360.092	1872.82
2363.255	1851.57
2366.418	1831.67
2369.58	1872.83
2372.742	1804.06
2375.904	1785.28
2379.066	1776.7
2382.227	1797.98
2385.388	1763.64
2388.548	1726.15
2391.709	1757.58
2394.869	1754.77
2398.029	1787.7
2401.188	1776.01
2404.347	1757.25
2407.506	1794.52
2410.665	1840.97
2413.823	1819.85
2416.981	1808.04
2420.139	1815.2
2423.296	1852.17
2426.453	1828.04
2429.61	1846.45
2432.767	1834.07
2435.923	1872.75
2439.079	1815.64
2442.235	1841.68
2445.391	1793.94
2448.546	1838.17
2451.701	1863.91
2454.855	1870.29
2458.009	1884.71
2461.163	1872.64
2464.317	1847.85
2467.471	1869.68
2470.624	1892.99
2473.777	1893.19
2476.929	1910.87
2480.082	1928.19
2483.234	1907.03
2486.385	1849.28
2489.537	1842.39
2492.688	1845.19
2495.839	1857.23
2498.989	1873.54
2502.14	1863.62
2505.29	1861.17
2508.439	1879.03
2511.589	1830.25
2514.738	1825.88
2517.887	1845.32
2521.035	1920.3
2524.183	1872.18
2527.331	1863.02
2530.479	1864.93
2533.627	1864.52
