Data from C_1_HIR_IL_4N_Splice17_11-52-16-648.txt Node
Date: Sat Mar 14 11:52:16 EDT 2020
User: sa697716
Spectrometer: FLMS03696
Trigger mode: 0
Integration Time (sec): 3.180400E-1
Scans to average: 20
Electric dark correction enabled: true
Nonlinearity correction enabled: true
Boxcar width: 5
XAxis mode: Wavelengths
Number of Pixels in Spectrum: 2048
>>>>>Begin Spectral Data<<<<<
187.83	-272703.87
188.298	1932.8
188.766	1059.59
189.233	911.36
189.701	1290.2
190.169	1804.01
190.636	643.38
191.104	475.45
191.571	42.33
192.039	-59.81
192.506	-59.07
192.974	239.06
193.441	-415.85
193.908	20.91
194.375	-27.38
194.842	15.13
195.31	105.97
195.777	130.46
196.244	318.18
196.711	400.9
197.177	527.7
197.644	766.5
198.111	1326.32
198.578	1872.97
199.045	1539.05
199.511	2505.61
199.978	2905.91
200.445	2483.29
200.911	2780.26
201.378	3127.5
201.844	2874.65
202.31	4922.55
202.777	5188.15
203.243	2889.01
203.709	2759.6
204.176	3247.29
204.642	2702.33
205.108	2543.29
205.574	2068.56
206.04	1892.68
206.506	1767.66
206.972	1649.72
207.438	1587.35
207.903	1796.39
208.369	1576.87
208.835	1574.02
209.301	1645.94
209.766	1686.35
210.232	1669.31
210.697	2063.12
211.163	2533.17
211.628	3816.87
212.094	3217.55
212.559	3974.98
213.024	2456.28
213.49	2970.02
213.955	2882.48
214.42	2819.95
214.885	2628.41
215.35	2515.88
215.815	2424.32
216.28	2571.62
216.745	2080.86
217.21	2255.48
217.675	2066.34
218.14	2320.11
218.604	2603.51
219.069	2985.26
219.534	3155.76
219.998	3690.53
220.463	4499.52
220.927	5581.51
221.392	5277.62
221.856	5376.79
222.32	6791.72
222.785	8411.05
223.249	10626.39
223.713	11912.3
224.177	11939.27
224.642	15326.74
225.106	18880.53
225.57	20660.38
226.034	15335.62
226.497	23399.2
226.961	21127.15
227.425	24614.21
227.889	27321.33
228.353	27362.04
228.816	56494.4
229.28	54110.1
229.744	45632.41
230.207	27685.75
230.671	27246.85
231.134	45086.64
231.597	51962.55
232.061	51984.13
232.524	50734.37
232.987	34982.81
233.45	31457.34
233.914	28233.18
234.377	28956.5
234.84	26514.65
235.303	31351.53
235.766	35024.54
236.229	36235.57
236.691	22829.26
237.154	25671.11
237.617	19317.41
238.08	19795.52
238.542	23209.72
239.005	16605.94
239.468	16479
239.93	15553.2
240.393	14124.35
240.855	12379.39
241.317	12687.09
241.78	15434.64
242.242	15963.57
242.704	17240.56
243.166	15014.21
243.629	13641.14
244.091	15713.31
244.553	17224.1
245.015	18481.59
245.477	23919.44
245.939	35104.74
246.4	37259.84
246.862	36223.04
247.324	34149.15
247.786	38250.82
248.247	50191.02
248.709	51851.35
249.17	38830.09
249.632	36643.9
250.093	42563.86
250.555	36818.35
251.016	22488.7
251.477	21350.93
251.939	23070.67
252.4	24254.64
252.861	28869.39
253.322	26872.93
253.783	32000.93
254.244	41543.29
254.705	32775.64
255.166	29198.5
255.627	28754.73
256.088	40563.57
256.549	43098.66
257.009	37162.22
257.47	45095.38
257.931	36723.09
258.391	27521.43
258.852	28396.24
259.312	29742.82
259.773	36736.8
260.233	31063.17
260.694	26244.85
261.154	29785.73
261.614	23937.26
262.074	21427.69
262.534	22286.86
262.994	21023.92
263.455	28062.32
263.915	23664.49
264.374	22330.28
264.834	24399.92
265.294	27066.75
265.754	28047.76
266.214	26574
266.673	24910.38
267.133	31417.86
267.593	31218.33
268.052	38254.53
268.512	33300.13
268.971	40145.52
269.431	44046.73
269.89	39465.7
270.349	59156.91
270.809	66013.86
271.268	59447.6
271.727	133439.99
272.186	86551.78
272.645	64863.67
273.104	46826.65
273.563	67833.26
274.022	53419.68
274.481	45458.98
274.94	35033.01
275.399	26072.84
275.857	30368.36
276.316	41084.49
276.775	36594.52
277.233	36044.73
277.692	33766.43
278.15	38174.05
278.609	39219.85
279.067	36300.63
279.525	33758.45
279.984	43606.82
280.442	52363.3
280.9	51606.85
281.358	33926.85
281.816	31616.38
282.274	30992.49
282.732	32061.85
283.19	32241.14
283.648	27864.1
284.106	29706.62
284.564	30193.21
285.021	28032.6
285.479	20893.86
285.937	19011.96
286.394	16702
286.852	17198.38
287.309	18064.56
287.767	17428.07
288.224	16585.08
288.682	18202.95
289.139	19976.89
289.596	18291.31
290.053	18989.59
290.511	24001.78
290.968	29098.25
291.425	39512.42
291.882	32914.3
292.339	28685.81
292.796	28483.25
293.252	26865.39
293.709	21330.4
294.166	19122.44
294.623	21138.54
295.079	20316.36
295.536	20403.41
295.992	18542.52
296.449	18336.17
296.905	19025.55
297.362	18222.17
297.818	19176.13
298.274	19903.62
298.731	20301.78
299.187	20095.36
299.643	21582.59
300.099	26124.77
300.555	28683.97
301.011	23978.45
301.467	23102.02
301.923	27056.79
302.379	26449.24
302.835	25988.36
303.291	26001.64
303.746	29600.41
304.202	37387.42
304.658	37551.2
305.113	25257.36
305.569	24730.68
306.024	26390.95
306.479	25126.44
306.935	21209.83
307.39	23164.71
307.845	21411.45
308.301	21531.29
308.756	20987.72
309.211	20245.68
309.666	20717.83
310.121	25700.34
310.576	26119
311.031	25911.56
311.486	29666.61
311.94	29642.29
312.395	39641.66
312.85	74395.52
313.305	365497.72
313.759	1889482.88
314.214	136847.18
314.668	108638.45
315.123	91399.74
315.577	32722.2
316.032	29077.78
316.486	36459.8
316.94	28762.17
317.394	20015.45
317.849	15555.27
318.303	14748.55
318.757	13928.07
319.211	15410.51
319.665	13479.8
320.119	13648.51
320.572	19588.15
321.026	18287.71
321.48	15237.75
321.934	16610.1
322.387	16650.75
322.841	17992.98
323.295	16178.71
323.748	18671.89
324.202	18935.67
324.655	22767.74
325.108	31810.85
325.562	22501.96
326.015	26759.86
326.468	20234.99
326.921	22636.44
327.374	21128.53
327.827	22001.88
328.28	24902.38
328.733	16660.25
329.186	14647.5
329.639	13956.9
330.092	11766.94
330.545	11195.98
330.997	11308.82
331.45	12368.43
331.903	14499.93
332.355	24948.83
332.808	24267.42
333.26	20046.63
333.713	21795.84
334.165	22012.35
334.617	29433.08
335.069	23795.05
335.522	43075.47
335.974	47666.08
336.426	43570.22
336.878	30260.94
337.33	15359.4
337.782	15004.62
338.234	18809.72
338.686	22534.87
339.137	26638.8
339.589	25077.6
340.041	19698.12
340.493	16957.03
340.944	17372
341.396	18717.97
341.847	15750.24
342.299	18610.22
342.75	22757.74
343.201	19871.6
343.653	22834.45
344.104	28110.69
344.555	22133.51
345.006	34424.52
345.457	26332.8
345.908	20959.76
346.359	19724.44
346.81	16042.7
347.261	16918.24
347.712	16652.67
348.163	17895.35
348.613	18118.2
349.064	16947.64
349.515	14852.83
349.965	15219.87
350.416	18365.51
350.866	20161.9
351.317	22819.46
351.767	37814.76
352.217	47753.78
352.668	39620.66
353.118	36223.09
353.568	34973.57
354.018	27667.82
354.468	29180.16
354.918	20933.44
355.368	18315.97
355.818	25900.85
356.268	74508.78
356.718	311469.87
357.168	77580.22
357.617	38941.14
358.067	43422.79
358.517	40631.14
358.966	47595.38
359.416	53386.03
359.865	57890.87
360.315	68847.63
360.764	32180.47
361.213	18025.41
361.663	17119.79
362.112	21128.87
362.561	34190.15
363.01	25733.09
363.459	21703.6
363.908	23474.91
364.357	19953.38
364.806	33711.17
365.255	23223.7
365.703	21250.21
366.152	21286.91
366.601	17258.09
367.05	14031.4
367.498	12750.11
367.947	13349.62
368.395	13905.34
368.844	12329.32
369.292	14890.45
369.74	10293.62
370.189	15763.45
370.637	18518.58
371.085	15978.56
371.533	19479.73
371.981	18774.05
372.429	17917.64
372.877	18695.99
373.325	15663.79
373.773	16012.26
374.221	14266.02
374.669	17707.08
375.116	15347.98
375.564	15490.83
376.012	17397.63
376.459	14398.86
376.907	17273.24
377.354	20935.8
377.801	19576.38
378.249	22570.67
378.696	28935.22
379.143	35084.52
379.591	37479.67
380.038	63650.22
380.485	46110.44
380.932	49957.2
381.379	45774.72
381.826	33709.42
382.273	24046.86
382.72	21109.66
383.166	20610.99
383.613	13385.87
384.06	12131.35
384.506	14092.35
384.953	10373.99
385.4	10473.15
385.846	9191.43
386.292	8986.11
386.739	8819.8
387.185	8752.76
387.631	8750.57
388.078	8499.98
388.524	9112.02
388.97	8415.42
389.416	7017.4
389.862	7464.07
390.308	7075.87
390.754	7187.25
391.2	7809.89
391.645	8000.27
392.091	7635.97
392.537	7383.02
392.983	7397.87
393.428	7260.28
393.874	7788.52
394.319	7825.75
394.765	7401.81
395.21	7599.37
395.655	7111.33
396.101	6648.54
396.546	5994.53
396.991	6048.22
397.436	5614.26
397.881	5418.83
398.326	5129.21
398.771	4837.83
399.216	4226.38
399.661	3803.31
400.106	3787.59
400.551	3864.77
400.995	3456.47
401.44	3416.51
401.885	3203.3
402.329	3229.95
402.774	3088.18
403.218	2984.47
403.663	2868.26
404.107	2935.53
404.551	2950.15
404.995	2698.98
405.44	2601.5
405.884	2635.28
406.328	2541.77
406.772	2527.28
407.216	2299.04
407.66	2222.24
408.104	2104.57
408.547	1967.39
408.991	1899.93
409.435	1825.36
409.879	1793.85
410.322	1767.51
410.766	1701.79
411.209	1615.44
411.653	1547.59
412.096	1511.44
412.54	1507.68
412.983	1494.8
413.426	1496.31
413.869	1493.35
414.312	1462.99
414.756	1410.78
415.199	1342.79
415.642	1305.27
416.085	1305.4
416.527	1295.16
416.97	1313.44
417.413	1244.54
417.856	1231.04
418.298	1218.6
418.741	1209.09
419.184	1204.06
419.626	1252.53
420.069	1253.36
420.511	1259.85
420.953	1233.49
421.396	1222.41
421.838	1192.11
422.28	1219.88
422.722	1226.66
423.164	1244.04
423.606	1224.41
424.048	1226.1
424.49	1164.2
424.932	1157.27
425.374	1139.94
425.816	1158.59
426.258	1180.58
426.699	1194.05
427.141	1175.97
427.582	1191.31
428.024	1183.01
428.465	1173.91
428.907	1142.81
429.348	1129.81
429.789	1131.72
430.231	1107.3
430.672	1120.63
431.113	1093.1
431.554	1073.74
431.995	1045.51
432.436	1008.6
432.877	986.64
433.318	969.48
433.759	965.23
434.2	964.8
434.64	952.5
435.081	954.35
435.522	904.98
435.962	870.77
436.403	852.88
436.843	864.73
437.284	846.21
437.724	823.29
438.164	825.91
438.604	807.07
439.045	774.91
439.485	744.21
439.925	729.94
440.365	711.77
440.805	702.64
441.245	693.37
441.685	667.29
442.125	663.42
442.564	666.12
443.004	652.37
443.444	651.65
443.883	653.45
444.323	646.29
444.762	644.53
445.202	651.87
445.641	662.76
446.081	658.74
446.52	663.09
446.959	654.45
447.398	638.88
447.837	627.85
448.276	613.58
448.716	619.41
449.154	624.03
449.593	609.22
450.032	607.01
450.471	594.96
450.91	594.69
451.349	592.84
451.787	589.69
452.226	597.51
452.664	598.15
453.103	600.2
453.541	597.64
453.98	595.65
454.418	599.77
454.856	589.66
455.295	590.5
455.733	595.25
456.171	598.44
456.609	599.24
457.047	599.07
457.485	607.51
457.923	608.75
458.361	599.21
458.798	601.52
459.236	600.55
459.674	604.73
460.111	606.42
460.549	599.46
460.987	597.01
461.424	594.85
461.862	592.14
462.299	583.78
462.736	582.82
463.173	585.41
463.611	580.47
464.048	578.71
464.485	582.66
464.922	578.12
465.359	575.86
465.796	569.49
466.233	565.55
466.67	560.81
467.106	558.6
467.543	553.15
467.98	546.82
468.416	532.19
468.853	528.37
469.29	513.86
469.726	508.46
470.162	494.79
470.599	487.91
471.035	483.35
471.471	471.37
471.907	468.75
472.344	465.15
472.78	465.9
473.216	471.76
473.652	465.88
474.088	465.23
474.523	462.35
474.959	466.12
475.395	460.74
475.831	457.45
476.266	459.47
476.702	457.5
477.138	453.23
477.573	451.06
478.008	447.41
478.444	448.55
478.879	451.7
479.314	453.35
479.75	453.61
480.185	455.61
480.62	459.69
481.055	460.88
481.49	463.92
481.925	469.27
482.36	476.59
482.795	489.96
483.229	502.96
483.664	512.37
484.099	514.05
484.534	521.8
484.968	527.26
485.403	527.83
485.837	526.55
486.271	525.42
486.706	525.67
487.14	519.98
487.574	511.38
488.009	506.91
488.443	502.64
488.877	507.49
489.311	508.28
489.745	513.23
490.179	517.83
490.613	528.31
491.046	531.32
491.48	535.13
491.914	534.75
492.348	538.72
492.781	540.82
493.215	540.96
493.648	540.88
494.082	543.32
494.515	542.96
494.948	548.08
495.382	549.28
495.815	551.95
496.248	554.88
496.681	563.42
497.114	570.08
497.547	576.74
497.98	584.8
498.413	588.04
498.846	594.84
499.279	599.5
499.711	600.78
500.144	601.59
500.577	609.01
501.009	616.47
501.442	623.22
501.874	623.72
502.306	623.87
502.739	629.96
503.171	640.61
503.603	641.68
504.036	647.88
504.468	652.01
504.9	660.41
505.332	664.34
505.764	666.75
506.196	671.13
506.627	681.45
507.059	691.41
507.491	697.16
507.923	695.6
508.354	706.71
508.786	714.84
509.217	728.57
509.649	739.71
510.08	754.32
510.512	767.23
510.943	779.22
511.374	788.1
511.805	803.05
512.237	818.14
512.668	843.16
513.099	864.57
513.53	886.03
513.961	902.03
514.391	927.52
514.822	953.88
515.253	981.86
515.684	1003
516.114	1027.52
516.545	1045.94
516.975	1068.18
517.406	1083.69
517.836	1088.26
518.267	1095.99
518.697	1113.01
519.127	1118.99
519.558	1127.74
519.988	1132.94
520.418	1143.84
520.848	1159.55
521.278	1168.4
521.708	1189.61
522.138	1201.88
522.567	1227.75
522.997	1250.32
523.427	1264.35
523.857	1280.3
524.286	1290.58
524.716	1306.17
525.145	1323.36
525.575	1334.17
526.004	1348.68
526.433	1341.23
526.863	1343.42
527.292	1337.91
527.721	1343.64
528.15	1349.48
528.579	1351.68
529.008	1361.99
529.437	1380.63
529.866	1392.4
530.295	1407.93
530.724	1419.48
531.152	1442.07
531.581	1455.67
532.01	1471.26
532.438	1478.98
532.867	1492.66
533.295	1507.92
533.723	1512.91
534.152	1512.27
534.58	1513.48
535.008	1501.64
535.436	1503.33
535.865	1510.4
536.293	1522.78
536.721	1536.23
537.149	1558.73
537.576	1561.68
538.004	1573.39
538.432	1581.41
538.86	1580.35
539.287	1586.63
539.715	1598.89
540.143	1602.93
540.57	1601.31
540.998	1598.58
541.425	1580.48
541.852	1562.93
542.28	1562.19
542.707	1549.24
543.134	1537.6
543.561	1535.26
543.988	1529.82
544.415	1529.42
544.842	1524.61
545.269	1518.22
545.696	1519.83
546.123	1531.45
546.549	1522.55
546.976	1510.5
547.403	1509.22
547.829	1510.07
548.256	1511.5
548.682	1507.48
549.108	1501.19
549.535	1500.68
549.961	1501.87
550.387	1491.27
550.813	1484.96
551.24	1489.9
551.666	1491.17
552.092	1482.64
552.518	1477.97
552.943	1472.34
553.369	1478.19
553.795	1481.47
554.221	1480.78
554.646	1478.15
555.072	1484.58
555.498	1487.95
555.923	1494.56
556.349	1505.6
556.774	1511.22
557.199	1510.16
557.625	1513.17
558.05	1507.15
558.475	1514.65
558.9	1512.51
559.325	1503.94
559.75	1498.14
560.175	1490.97
560.6	1483.98
561.025	1480.98
561.449	1481.39
561.874	1483.54
562.299	1486.05
562.723	1490.33
563.148	1480.67
563.572	1482.07
563.997	1487.49
564.421	1489.05
564.846	1487.19
565.27	1487.45
565.694	1483.45
566.118	1490.27
566.542	1495.43
566.966	1487.73
567.39	1480.89
567.814	1469.19
568.238	1466.91
568.662	1468.37
569.086	1469.12
569.509	1472.89
569.933	1459.95
570.357	1452.39
570.78	1433.49
571.204	1421.16
571.627	1411.11
572.05	1408.01
572.474	1404.98
572.897	1392.61
573.32	1385.11
573.743	1374.97
574.166	1359.17
574.589	1356.57
575.012	1347.85
575.435	1344.95
575.858	1334.58
576.281	1323.41
576.704	1308.99
577.126	1297.61
577.549	1286.66
577.972	1276.78
578.394	1266.24
578.817	1259.15
579.239	1242.13
579.661	1230.65
580.084	1216.18
580.506	1204.7
580.928	1199.82
581.35	1188.91
581.772	1184.73
582.194	1173.6
582.616	1162.57
583.038	1150.18
583.46	1140.76
583.882	1137.75
584.303	1139.15
584.725	1135.58
585.147	1137.1
585.568	1143.59
585.99	1151.69
586.411	1155.03
586.833	1165.19
587.254	1165.38
587.675	1176.02
588.096	1184.13
588.518	1178.45
588.939	1164.02
589.36	1160.69
589.781	1151.4
590.202	1131.12
590.623	1125.36
591.043	1122.86
591.464	1112.4
591.885	1108.86
592.305	1103.26
592.726	1092.67
593.147	1094.15
593.567	1090.55
593.987	1085.02
594.408	1080.33
594.828	1077.94
595.248	1072.65
595.669	1059.67
596.089	1055.08
596.509	1050.6
596.929	1040.29
597.349	1039.99
597.769	1031.23
598.189	1026.63
598.608	1027.43
599.028	1028.59
599.448	1027.15
599.867	1017.48
600.287	1013.32
600.706	1009.44
601.126	1001.77
601.545	1000.85
601.965	1000.32
602.384	996.97
602.803	998.49
603.222	993.67
603.641	988.05
604.061	986.01
604.48	982.13
604.898	987.63
605.317	989.93
605.736	989.97
606.155	987.14
606.574	978.73
606.992	982.09
607.411	978.08
607.829	972.06
608.248	968.94
608.666	966.89
609.085	966.19
609.503	959.19
609.921	954.4
610.339	955.69
610.758	954.11
611.176	949.68
611.594	941.69
612.012	939.03
612.43	941.38
612.847	945.38
613.265	944.06
613.683	946.15
614.101	946.27
614.518	942.99
614.936	935.27
615.353	923.64
615.771	921.87
616.188	921.38
616.606	917.17
617.023	910.55
617.44	899.11
617.857	893.44
618.274	886.61
618.691	881.92
619.108	874.81
619.525	869.51
619.942	874.7
620.359	875.36
620.776	871.43
621.192	868.99
621.609	867.44
622.026	872.11
622.442	876.3
622.859	878.57
623.275	872.95
623.691	875.83
624.108	884.06
624.524	893.11
624.94	893.8
625.356	900.58
625.772	908.99
626.188	917.08
626.604	918.54
627.02	916.13
627.436	915.54
627.852	921.09
628.268	930.98
628.683	924.53
629.099	918.03
629.514	914.08
629.93	917
630.345	920.34
630.761	916.37
631.176	919.76
631.591	915.43
632.007	910.08
632.422	907.9
632.837	899.14
633.252	897.91
633.667	890.55
634.082	883.61
634.497	874.24
634.911	860.44
635.326	858.39
635.741	845.46
636.155	837.67
636.57	838.97
636.984	838.14
637.399	839.24
637.813	837.46
638.228	837.21
638.642	840.03
639.056	832.81
639.47	832.35
639.884	826.31
640.298	821.32
640.712	820.85
641.126	812.09
641.54	805.69
641.954	801.75
642.368	794.1
642.781	789.44
643.195	777.43
643.609	777.06
644.022	774.13
644.436	771.68
644.849	764.25
645.262	755.63
645.676	756.32
646.089	754.56
646.502	745.39
646.915	741.96
647.328	731.63
647.741	730.89
648.154	723.23
648.567	721.06
648.98	713.2
649.393	713.32
649.805	712.51
650.218	707.31
650.631	696.68
651.043	692.44
651.456	690.04
651.868	690.13
652.28	703.03
652.693	712.95
653.105	718.6
653.517	725.39
653.929	727.44
654.341	732.12
654.753	725.67
655.165	730.74
655.577	729.21
655.989	726.63
656.401	721.61
656.813	696.89
657.224	683.73
657.636	664.34
658.047	653.3
658.459	640.34
658.87	634.29
659.282	627.61
659.693	614.86
660.104	606.48
660.515	597.77
660.926	596.98
661.338	596.79
661.749	593.2
662.159	588.81
662.57	586.81
662.981	585.32
663.392	582.59
663.803	587.13
664.213	587.05
664.624	585.73
665.035	589.69
665.445	582.62
665.855	580.23
666.266	577.64
666.676	577.51
667.086	573.37
667.497	575.31
667.907	571.71
668.317	566.12
668.727	566.71
669.137	569.4
669.547	569.96
669.956	573.36
670.366	576.14
670.776	578.58
671.186	582.75
671.595	585.69
672.005	589.15
672.414	590.42
672.824	590.45
673.233	593.56
673.642	595.42
674.052	597.98
674.461	601.71
674.87	605.62
675.279	604.64
675.688	606.03
676.097	607.9
676.506	605.33
676.915	616.72
677.323	619.75
677.732	618.26
678.141	617.19
678.549	608.08
678.958	605.83
679.366	603.98
679.775	606.5
680.183	613.86
680.592	617.51
681	619.79
681.408	613.12
681.816	616.13
682.224	620.27
682.632	626.2
683.04	646.7
683.448	662.27
683.856	681.46
684.264	704.77
684.671	724.08
685.079	748.4
685.487	775.14
685.894	814.04
686.302	844.41
686.709	868.46
687.116	895.69
687.524	916.42
687.931	932.92
688.338	948.24
688.745	958.65
689.152	971.43
689.559	993.06
689.966	1016.26
690.373	1025.81
690.78	1048.85
691.187	1088.04
691.593	1119.34
692	1146.31
692.407	1189.85
692.813	1242.11
693.22	1284.59
693.626	1330.94
694.032	1369.66
694.439	1427.95
694.845	1472.83
695.251	1532.19
695.657	1586.76
696.063	1665.63
696.469	1729.61
696.875	1788.39
697.281	1828.2
697.687	1875.14
698.093	1917.63
698.498	1988.61
698.904	2046.11
699.31	2128.32
699.715	2190.74
700.12	2275.61
700.526	2304.92
700.931	2373.64
701.337	2428.54
701.742	2471.03
702.147	2553.98
702.552	2593.49
702.957	2657.68
703.362	2689.05
703.767	2729.7
704.172	2777.21
704.577	2754.08
704.981	2807.74
705.386	2835.65
705.791	2845.03
706.195	2920.81
706.6	2942.67
707.004	3025.22
707.408	3012.27
707.813	3050.73
708.217	3052.52
708.621	3068.54
709.025	3166.85
709.43	3182.54
709.834	3249.35
710.237	3326.8
710.641	3326.46
711.045	3357.54
711.449	3366.42
711.853	3403.15
712.256	3452.96
712.66	3502.02
713.064	3583.09
713.467	3633.64
713.87	3749.99
714.274	3805.18
714.677	3918.06
715.08	4080.77
715.484	4251.6
715.887	4454.69
716.29	4657.72
716.693	4867.77
717.096	5107.05
717.499	5245.75
717.901	5287.09
718.304	5325.12
718.707	5364.02
719.109	5282.67
719.512	5267.38
719.915	5151.54
720.317	5109.63
720.719	5163.26
721.122	5147.26
721.524	5108.47
721.926	5081.72
722.328	5190.54
722.731	5193.52
723.133	5230.67
723.535	5425.56
723.937	5456.76
724.338	5519.4
724.74	5567.54
725.142	5503.07
725.544	5508.75
725.945	5544.4
726.347	5548.6
726.748	5549.67
727.15	5569.98
727.551	5540.72
727.952	5521.67
728.354	5501.51
728.755	5509.75
729.156	5476.28
729.557	5481.88
729.958	5368.97
730.359	5319.24
730.76	5306.7
731.161	5250.49
731.562	5230.78
731.962	5240.05
732.363	5180.58
732.763	5120
733.164	5161.99
733.564	5099.47
733.965	5010.58
734.365	4979.5
734.766	5013.71
735.166	4978.08
735.566	4925.97
735.966	4905.11
736.366	4902.6
736.766	4842.38
737.166	4877.78
737.566	4838.17
737.966	4814.39
738.365	4855.54
738.765	4853.4
739.165	4780.81
739.564	4756.1
739.964	4804.98
740.363	4758.23
740.763	4756.29
741.162	4746.62
741.561	4715.34
741.96	4670.04
742.36	4692.94
742.759	4699.82
743.158	4740.67
743.557	4755.94
743.955	4798.62
744.354	4753.35
744.753	4815.86
745.152	4777.89
745.55	4836.38
745.949	4832.74
746.348	4835.47
746.746	4851.61
747.144	4811.69
747.543	4786.81
747.941	4837.97
748.339	4767.8
748.737	4761.35
749.136	4752.4
749.534	4820.97
749.932	4793.51
750.33	4816.44
750.727	4873.65
751.125	4849.87
751.523	4835.59
751.921	4880.51
752.318	4846.69
752.716	4907.29
753.113	4923.66
753.511	4950.38
753.908	4950.12
754.305	4932.6
754.703	4997.22
755.1	5059.06
755.497	5121.96
755.894	5317.36
756.291	5501.71
756.688	5836.58
757.085	6285.59
757.482	6914.95
757.878	7602.85
758.275	8223.93
758.672	9085.3
759.068	9785.09
759.465	10786.97
759.861	12079.46
760.258	13573.35
760.654	14353.42
761.05	14249.72
761.447	13600.56
761.843	12659.06
762.239	11684.27
762.635	11247.52
763.031	10822.79
763.427	10216.06
763.822	9578.33
764.218	8944.19
764.614	8125.9
765.01	7575.12
765.405	7220.2
765.801	6953.88
766.196	6615.71
766.592	6430.53
766.987	6109.12
767.382	5891.9
767.778	5801.79
768.173	5667.92
768.568	5593.82
768.963	5465.56
769.358	5485.16
769.753	5436.36
770.148	5349.46
770.542	5345.38
770.937	5310.16
771.332	5403.89
771.726	5424.62
772.121	5361
772.515	5418.05
772.91	5403.76
773.304	5479.42
773.699	5414.19
774.093	5471.18
774.487	5529.58
774.881	5577.33
775.275	5577.1
775.669	5535.07
776.063	5579.37
776.457	5615.53
776.851	5538.03
777.245	5533.03
777.638	5563.82
778.032	5681.2
778.425	5643.2
778.819	5683.48
779.212	5639.72
779.606	5597.09
779.999	5616.4
780.392	5602.07
780.786	5687.86
781.179	5710.55
781.572	5750.71
781.965	5764.81
782.358	5704.55
782.751	5762.89
783.143	5716.02
783.536	5791.23
783.929	5836.4
784.322	5951.77
784.714	5980.4
785.107	5974.56
785.499	6046.55
785.891	6022.74
786.284	6003.92
786.676	6146.79
787.068	6124.45
787.46	6175.77
787.852	6196.15
788.245	6283.21
788.636	6313.42
789.028	6383.12
789.42	6421.88
789.812	6431.06
790.204	6529.84
790.595	6629.88
790.987	6432.92
791.378	6455.75
791.77	6588.71
792.161	6722.43
792.553	6774
792.944	6661.24
793.335	6593.13
793.726	6667.46
794.117	6758.65
794.508	6899.53
794.899	6866.88
795.29	7009.78
795.681	7069.62
796.072	6924.37
796.463	6732.17
796.853	6743.73
797.244	6901.94
797.634	6932.78
798.025	6928.78
798.415	6937.33
798.806	7027.25
799.196	7113.51
799.586	7163.62
799.976	7123.06
800.366	7354.54
800.756	7606.03
801.146	7567.31
801.536	7599.61
801.926	7672.72
802.316	7699.68
802.706	7774.36
803.095	7648.84
803.485	7753.06
803.874	7793.04
804.264	8057.39
804.653	8031.5
805.043	8176.07
805.432	8282.26
805.821	8280.33
806.21	8304.08
806.599	8424.86
806.988	8471.74
807.377	8580.37
807.766	8712.93
808.155	8999.47
808.544	8730.67
808.933	8743.37
809.321	8722.17
809.71	9025.72
810.098	9187.7
810.487	9651.64
810.875	10138.07
811.264	10156.64
811.652	10448.74
812.04	10594.5
812.428	10759.94
812.816	11537.48
813.204	11960.44
813.592	12521.88
813.98	12861.83
814.368	12771.81
814.756	13257.8
815.144	13177.79
815.531	13652.88
815.919	13582.73
816.306	13891.09
816.694	13569.94
817.081	13627.25
817.469	13972.44
817.856	13969.88
818.243	14241.43
818.63	14627.61
819.017	14203.53
819.404	14265.07
819.791	14651.24
820.178	15272.66
820.565	15526.86
820.952	16474.29
821.339	15964.94
821.725	16156.19
822.112	15401.49
822.498	15351.91
822.885	15487.9
823.271	15391.37
823.657	15819.18
824.044	15823.69
824.43	15894.93
824.816	15857.75
825.202	15419.2
825.588	16450.52
825.974	16467.6
826.36	16992.44
826.746	17033.41
827.132	17385.92
827.517	17359.6
827.903	16557.8
828.289	16599.61
828.674	15812.91
829.06	15711.49
829.445	16120.88
829.83	16485.21
830.216	16973.01
830.601	17337.11
830.986	16924.98
831.371	16796.23
831.756	17365.57
832.141	16940.81
832.526	16935.23
832.911	17231.01
833.295	17122.93
833.68	17601.47
834.065	16974.69
834.449	16052.82
834.834	15985.84
835.218	15987.47
835.603	16334.92
835.987	16125.07
836.371	16971.98
836.755	16868.45
837.139	17274.25
837.524	17519.86
837.908	17343.26
838.291	17405.76
838.675	17478.06
839.059	17687.44
839.443	17679.74
839.827	17446.76
840.21	17934.97
840.594	17784.75
840.977	18003.09
841.361	17983.99
841.744	18361.25
842.127	18202.57
842.511	18458.85
842.894	19069.67
843.277	19454.02
843.66	20008.3
844.043	20087.64
844.426	19277.68
844.809	18962.67
845.191	18989.52
845.574	18528.11
845.957	18166.41
846.339	18058.84
846.722	17523.49
847.104	17586.09
847.487	17424.85
847.869	17434.76
848.252	17730.6
848.634	18064.77
849.016	18331.23
849.398	18461.26
849.78	19324.27
850.162	19327.29
850.544	19747.01
850.926	20388.17
851.307	20303.68
851.689	20584.8
852.071	21053.6
852.452	21384.99
852.834	21365.54
853.215	21777.8
853.597	21938.31
853.978	22235.58
854.359	22705.71
854.741	21696.02
855.122	21596.21
855.503	21299.5
855.884	21430.44
856.265	21361.29
856.646	21476.48
857.026	21066.17
857.407	21002.75
857.788	21151.96
858.169	21442.22
858.549	20573.79
858.93	21206.85
859.31	21252.61
859.69	21466.12
860.071	21055.02
860.451	20833.53
860.831	20067.74
861.211	21256.81
861.591	21806
861.971	21790.86
862.351	21984.09
862.731	22366.34
863.111	22623.37
863.491	22948.65
863.87	23842.3
864.25	24198.2
864.629	23781.8
865.009	24320.49
865.388	25176.31
865.768	26985.11
866.147	26880.72
866.526	25402.63
866.905	25719.46
867.284	27180.2
867.663	25810.92
868.042	24738.67
868.421	24648.02
868.8	25073.65
869.179	25304.53
869.558	23836.05
869.936	21958.7
870.315	22349.52
870.693	22895.25
871.072	24688.6
871.45	23503.87
871.828	23805.65
872.207	25026.33
872.585	24661.13
872.963	25325.07
873.341	24465.98
873.719	24169.78
874.097	23889.05
874.475	24339.83
874.853	24899.03
875.23	23872.57
875.608	24879.75
875.986	26924.78
876.363	25748.42
876.741	26527.75
877.118	25866.78
877.495	27132.95
877.873	27591.44
878.25	29049.25
878.627	27862.74
879.004	28241.14
879.381	28083.84
879.758	27345.46
880.135	25462.27
880.512	26924
880.889	26209.51
881.265	25938.07
881.642	25721.69
882.019	26167.56
882.395	25633.16
882.772	26661.07
883.148	25508.71
883.524	25424.37
883.901	25291.34
884.277	25674.26
884.653	25518.62
885.029	26268.83
885.405	29092.82
885.781	28875.28
886.157	27668.23
886.532	28001.06
886.908	27982.03
887.284	31119.23
887.659	32114.3
888.035	33095.71
888.411	33928.29
888.786	34368.55
889.161	35560.33
889.537	34912.16
889.912	36025.6
890.287	36010.45
890.662	36941.05
891.037	36266.26
891.412	33788.35
891.787	33465.98
892.162	32305.41
892.536	33076.67
892.911	31839.27
893.286	31160.34
893.66	29895.33
894.035	30666.59
894.409	33395.3
894.784	32040.75
895.158	32579.48
895.532	34537.84
895.906	35471.15
896.281	36295.94
896.655	35719.84
897.029	40820.61
897.402	42518.08
897.776	47328.9
898.15	47143.19
898.524	46613.33
898.898	47235.97
899.271	52882.66
899.645	45788.29
900.018	43978.53
900.392	45604.47
900.765	45942.7
901.138	42506.96
901.511	41863.75
901.884	38448.15
902.258	35475.8
902.631	36649.93
903.003	42181.76
903.376	38067.05
903.749	42694.98
904.122	45700.63
904.495	50346.4
904.867	51011.8
905.24	44276.16
905.612	41216.45
905.985	42139.46
906.357	44068.55
906.729	42089.59
907.102	35941.04
907.474	34543.33
907.846	34759.63
908.218	34298.47
908.59	30294.45
908.962	29289.08
909.334	31528.17
909.705	33104.43
910.077	32139.75
910.449	33424.31
910.82	34338.23
911.192	37799.6
911.563	39285.46
911.935	42048.51
912.306	42136.41
912.677	43502.15
913.048	43062.43
913.419	46741.94
913.79	47025.32
914.161	50437.14
914.532	48212.2
914.903	44318
915.274	42073.6
915.645	41439.32
916.015	36443.59
916.386	34718.96
916.756	36968.99
917.127	38129.87
917.497	34062.25
917.868	37058.35
918.238	35217.68
918.608	36237
918.978	37004.72
919.348	39202.05
919.718	40510
920.088	39037.92
920.458	40566.96
920.828	42667.78
921.198	40459.76
921.567	43226.47
921.937	33490.4
922.306	33792.96
922.676	36432.34
923.045	30363.46
923.415	28837.49
923.784	26272.85
924.153	27020.21
924.522	26997.84
924.891	25376.27
925.26	27178.03
925.629	26538.33
925.998	30511.09
926.367	29797.29
926.736	28387.7
927.104	33837.72
927.473	36388.33
927.842	43929.44
928.21	43483.6
928.578	45710.64
928.947	43241.14
929.315	43506.76
929.683	51027.35
930.051	51415.13
930.42	59673.62
930.788	51021.77
931.156	50613.39
931.523	47426.17
931.891	43822.08
932.259	42117.4
932.627	48776.3
932.994	69039.95
933.362	57042.99
933.729	49515.71
934.097	47376.71
934.464	40071.64
934.831	46204.94
935.199	45552.14
935.566	44174.12
935.933	44814.37
936.3	54279.38
936.667	42304.83
937.034	38129.23
937.401	37738.49
937.767	32575.91
938.134	29023.72
938.501	40964.12
938.867	43673.74
939.234	73830.68
939.6	63049.34
939.967	69369.46
940.333	46391.16
940.699	39469.05
941.065	31706.57
941.431	41565.92
941.798	40066.11
942.163	52561.76
942.529	32818.09
942.895	30258.74
943.261	19582.69
943.627	25704.71
943.992	22506.17
944.358	22560.01
944.723	22663.37
945.089	22090.52
945.454	20395.9
945.82	21796.71
946.185	20957.7
946.55	24307.19
946.915	21777.78
947.28	25564.34
947.645	22464.27
948.01	20729.73
948.375	21609.41
948.74	25913.04
949.104	30214.29
949.469	43689.58
949.834	77155.35
950.198	73109.82
950.562	43810.6
950.927	36459.41
951.291	43821.14
951.655	37359.71
952.02	35154.52
952.384	26598.87
952.748	23117.87
953.112	22540.24
953.476	19608.52
953.839	18138.36
954.203	17941.46
954.567	22449.61
954.931	35413.76
955.294	30295.81
955.658	30451.05
956.021	51711.78
956.385	87661.61
956.748	129380.73
957.111	200844.74
957.474	225317.49
957.837	253526.84
958.2	191993.72
958.563	69081.84
958.926	46695.26
959.289	70882.82
959.652	79291.32
960.015	59491.76
960.377	85423.07
960.74	97532.37
961.102	168171.74
961.465	180518.92
961.827	96686.99
962.189	185646.69
962.552	128562.45
962.914	103080.25
963.276	66888.31
963.638	55245.32
964	54739.8
964.362	37004.3
964.724	35739.77
965.085	25507.97
965.447	20931.43
965.809	23876.69
966.17	23916.66
966.532	25893.1
966.893	23742.36
967.255	21595.87
967.616	25499.78
967.977	20407.35
968.338	22275.75
968.699	18313.12
969.061	18313.33
969.421	18407.05
969.782	20647.13
970.143	17417.37
970.504	18031.19
970.865	20510.52
971.225	20970.73
971.586	20516.89
971.946	29270.69
972.307	25409.29
972.667	33235.14
973.027	34239.01
973.388	41537.72
973.748	28243.8
974.108	30760.53
974.468	41638.27
974.828	32082.07
975.188	24728.58
975.548	22705.99
975.907	19050.55
976.267	21377.89
976.627	17968.43
976.986	18608.7
977.346	17750.58
977.705	17076.18
978.064	15556.07
978.424	12952
978.783	13379.54
979.142	15254.71
979.501	14614.05
979.86	15452.59
980.219	14868.96
980.578	19154.48
980.937	21452.81
981.296	19107.33
981.654	19668.38
982.013	30562.56
982.371	39618.62
982.73	37038.76
983.088	41926.28
983.447	44753.37
983.805	63955.58
984.163	133726.73
984.521	148464.57
984.879	217572.4
985.237	-354198.11
985.595	341051.04
985.953	84897.77
986.311	49051.55
986.669	28511.08
987.026	24626.13
987.384	33098.31
987.741	34209.26
988.099	24427.6
988.456	19461.35
988.814	18222.93
989.171	15817.45
989.528	15621.72
989.885	16477.67
990.242	13033.12
990.599	16218.77
990.956	13238.86
991.313	9256.31
991.67	7592.6
992.027	8040.04
992.383	7156.46
992.74	6275.88
993.096	6582.92
993.453	6812.54
993.809	7072.25
994.165	9435.12
994.522	8632.68
994.878	9526.24
995.234	11928.29
995.59	11767.67
995.946	11151.45
996.302	12705.56
996.658	14692.53
997.013	16193.03
997.369	19239.6
997.725	24590.7
998.08	15932.59
998.436	24589.31
998.791	33913.91
999.147	33935.26
999.502	37033.56
999.857	26933.6
1000.212	43859.75
1000.567	62419.6
1000.922	36073.61
1001.277	22945.01
1001.632	17019.16
1001.987	21897.1
1002.342	15735.01
1002.696	12582.47
1003.051	10032.85
1003.406	12155.63
1003.76	12086.21
1004.114	11926.9
1004.469	10019.55
1004.823	8273.32
1005.177	8911.38
1005.531	7065.44
1005.885	6263.11
1006.239	7038.93
1006.593	8850.55
1006.947	11846.79
1007.301	8895.03
1007.655	9701.96
1008.008	7123.79
1008.362	8004.18
1008.715	11416.86
1009.069	10396.37
1009.422	15637.94
1009.776	31430.89
1010.129	20891.43
1010.482	17406.38
1010.835	14713.05
1011.188	30595.71
1011.541	28801.38
1011.894	-176020.99
1012.247	518356.87
1012.6	35333.19
1012.952	22192.76
1013.305	11442.66
1013.657	8228.67
1014.01	7777.89
1014.362	6411.81
1014.715	5688.4
1015.067	4951.71
1015.419	4866.47
1015.771	4311.53
1016.123	3833.12
1016.475	3945.97
1016.827	4214.72
1017.179	4539.72
1017.531	4573.77
1017.883	4680.65
1018.234	4515.75
1018.586	5680.66
1018.938	6009.54
1019.289	8247.8
1019.64	9439.08
1019.992	8788.47
1020.343	8016.15
1020.694	6325.32
1021.045	5568.81
1021.396	6367.2
1021.747	6832.35
1022.098	8196.57
1022.449	5997.02
1022.8	5578.21
1023.151	3882.46
1023.501	3445.02
1023.852	3747.64
1024.202	3901.15
1024.553	4306.83
1024.903	4199.03
1025.253	3582.2
1025.604	3231.74
1025.954	4022.65
1026.304	4903.7
1026.654	5680.91
1027.004	8321.97
1027.354	13414.51
1027.703	12622.73
1028.053	16536.05
1028.403	23790.85
1028.753	34553.79
1029.102	47153.37
1029.452	242660.24
1029.801	10483.8
1030.15	6733.89
1030.499	5726.33
897.758	2107.27
901.051	2041.4
904.343	2073.99
907.636	2083.49
910.928	2143.59
914.22	2065.68
917.511	2069.02
920.803	2116.73
924.094	2112.24
927.384	2119.8
930.675	2083.57
933.965	2049.13
937.255	2079.6
940.544	2051.3
943.834	2043.47
947.123	1986.42
950.411	2070.78
953.7	2052.76
956.988	2040.36
960.276	1976.03
963.563	2022.04
966.851	2031.04
970.138	2070.65
973.424	2073.23
976.711	2026.47
979.997	2076.78
983.283	2118.19
986.568	2054.9
989.853	2043.46
993.138	2069.29
996.423	2153.65
999.708	2113.21
1002.992	2145.35
1006.275	2063.29
1009.559	2070.17
1012.842	2165.5
1016.125	2120.38
1019.408	2102.07
1022.69	2154.15
1025.972	2190.72
1029.254	2166.07
1032.536	2133.79
1035.817	2142.55
1039.098	2112.08
1042.379	2158.21
1045.659	2182.25
1048.939	2134.83
1052.219	2140.71
1055.498	2132.19
1058.778	2129.69
1062.057	2105.91
1065.335	2129.36
1068.614	2140.69
1071.892	2139.01
1075.17	2190.38
1078.447	2194.82
1081.724	2190.14
1085.001	2215.26
1088.278	2193.37
1091.554	2197.9
1094.83	2193.78
1098.106	2229.15
1101.382	2256.3
1104.657	2256.54
1107.932	2254.5
1111.206	2233.29
1114.481	2186.8
1117.755	2188.08
1121.029	2180.75
1124.302	2241.73
1127.575	2210.71
1130.848	2207.28
1134.121	2178.39
1137.393	2145.97
1140.665	2200.19
1143.937	2181.03
1147.208	2129.36
1150.48	2190.06
1153.75	2179
1157.021	2177.19
1160.291	2156.22
1163.561	2209.46
1166.831	2176.08
1170.101	2202.43
1173.37	2159.33
1176.639	2120
1179.907	2160.08
1183.176	2185.39
1186.444	2186.39
1189.711	2208.17
1192.979	2234.06
1196.246	2190.83
1199.513	2202.55
1202.78	2207.63
1206.046	2217.47
1209.312	2243.96
1212.578	2260.3
1215.843	2232.13
1219.108	2197.66
1222.373	2219.16
1225.638	2194.6
1228.902	2188.17
1232.166	2142.16
1235.43	2131.13
1238.693	2157.35
1241.956	2146.6
1245.219	2196.75
1248.482	2177.97
1251.744	2175.7
1255.006	2291.84
1258.268	2239.9
1261.529	2197.34
1264.79	2196.85
1268.051	2293.67
1271.312	2302.31
1274.572	2274.68
1277.832	2263.11
1281.092	2242.41
1284.351	2235.1
1287.61	2221.01
1290.869	2161.46
1294.128	2160.9
1297.386	2203.17
1300.644	2197.76
1303.902	2206.41
1307.159	2077.45
1310.416	2126.71
1313.673	2155.42
1316.93	2155.06
1320.186	2184.25
1323.442	2215.52
1326.697	2218.21
1329.953	2190.75
1333.208	2228.36
1336.463	2197.84
1339.717	2163.23
1342.972	2265.92
1346.226	2236.39
1349.479	2188.48
1352.733	2170.12
1355.986	2172.97
1359.238	2155.01
1362.491	2158.8
1365.743	2158.43
1368.995	2147.31
1372.247	2160.71
1375.498	2179.7
1378.749	2223.08
1382	2175.13
1385.251	2207.48
1388.501	2158.8
1391.751	2163.32
1395	2127.03
1398.25	2153.34
1401.499	2175.37
1404.748	2132.13
1407.996	2108.5
1411.244	2097.48
1414.492	2083.81
1417.74	2068.09
1420.987	2072.21
1424.234	2132.39
1427.481	2091.41
1430.728	2148.49
1433.974	2122.87
1437.22	2120.85
1440.465	2115.5
1443.711	2118.48
1446.956	2141.56
1450.201	2110.84
1453.445	2151.6
1456.689	2143.14
1459.933	2152.52
1463.177	2194.21
1466.42	2169.62
1469.663	2153.5
1472.906	2171.47
1476.148	2217.92
1479.391	2185.59
1482.633	2161.51
1485.874	2188.94
1489.115	2199
1492.356	2179.83
1495.597	2160.16
1498.838	2151.85
1502.078	2137.82
1505.318	2112.37
1508.557	2144.12
1511.797	2140.85
1515.036	2192.34
1518.274	2159.75
1521.513	2110.34
1524.751	2120.5
1527.989	2146.95
1531.227	2165.42
1534.464	2181.57
1537.701	2173.19
1540.938	2184.63
1544.174	2133.46
1547.41	2123.43
1550.646	2157.37
1553.882	2211.25
1557.117	2268.85
1560.352	2277.57
1563.587	2238.79
1566.821	2207.51
1570.055	2220.67
1573.289	2203.05
1576.523	2258.85
1579.756	2274.3
1582.989	2296.67
1586.222	2259.23
1589.454	2284.05
1592.686	2269.45
1595.918	2296.01
1599.15	2295.89
1602.381	2338.09
1605.612	2322.18
1608.843	2414.54
1612.073	2337.67
1615.303	2326.86
1618.533	2326.39
1621.762	2322.27
1624.992	2297.56
1628.221	2302.49
1631.449	2292.23
1634.678	2313.39
1637.906	2282.64
1641.134	2307.59
1644.361	2274.6
1647.588	2263.2
1650.815	2284.93
1654.042	2245.98
1657.269	2274.89
1660.495	2258.14
1663.72	2239.67
1666.946	2208.71
1670.171	2187.79
1673.396	2156.47
1676.621	2140.91
1679.845	2133.7
1683.069	2142.63
1686.293	2171.36
1689.517	2164.85
1692.74	2119.64
1695.963	2139.35
1699.185	2182.79
1702.408	2155.44
1705.63	2182.43
1708.852	2206.11
1712.073	2175.18
1715.294	2190.57
1718.515	2228.55
1721.736	2189.52
1724.956	2166.32
1728.176	2186.86
1731.396	2208.44
1734.616	2192.5
1737.835	2229.99
1741.054	2199.87
1744.272	2190.77
1747.491	2231.47
1750.709	2250.52
1753.927	2204.98
1757.144	2225.65
1760.361	2286.02
1763.578	2258.73
1766.795	2210.58
1770.011	2200.43
1773.227	2221.94
1776.443	2263.8
1779.658	2306.73
1782.874	2244.3
1786.089	2239.87
1789.303	2241.62
1792.518	2240.32
1795.732	2225.5
1798.945	2243.65
1802.159	2281.16
1805.372	2227.39
1808.585	2222.71
1811.797	2225.48
1815.01	2240.5
1818.222	2267.04
1821.434	2220.73
1824.645	2261.9
1827.856	2272.04
1831.067	2303.22
1834.278	2237.14
1837.488	2224.75
1840.698	2340.3
1843.908	2285.72
1847.117	2253.57
1850.326	2187.26
1853.535	2241.64
1856.744	2281.55
1859.952	2206.26
1863.16	2208.24
1866.368	2218.53
1869.575	2331.34
1872.782	2214.58
1875.989	2149.4
1879.196	2193.02
1882.402	2184.67
1885.608	2214.61
1888.814	2161.62
1892.019	2070.62
1895.224	2120.14
1898.429	2082.25
1901.634	2067.26
1904.838	2044.02
1908.042	2098.01
1911.246	2111.56
1914.449	2077.97
1917.652	2057.23
1920.855	2039.18
1924.058	2058.73
1927.26	2105.64
1930.462	2125.53
1933.664	2170.03
1936.865	2112.46
1940.066	2129.39
1943.267	2074.77
1946.467	2084.13
1949.668	2100.65
1952.868	2171.15
1956.067	2162.53
1959.267	2105.29
1962.466	2126.95
1965.665	2110.57
1968.863	2102.89
1972.061	2104.96
1975.259	2096.04
1978.457	2171.41
1981.654	2132.43
1984.852	2136.3
1988.048	2090.56
1991.245	2079.55
1994.441	2168.97
1997.637	2123.57
2000.833	2105.85
2004.028	2139.82
2007.223	2205.23
2010.418	2195.41
2013.613	2143.7
2016.807	2141.31
2020.001	2135.39
2023.194	2156.43
2026.388	2140.54
2029.581	2085.29
2032.774	2150.15
2035.966	2161.99
2039.158	2109.7
2042.35	2127.22
2045.542	2054.6
2048.733	2133.23
2051.924	2119.9
2055.115	2135.13
2058.306	2101.99
2061.496	2156.59
2064.686	2203.65
2067.875	2108.6
2071.065	2107.69
2074.254	2124.8
2077.442	2081.52
2080.631	2158.82
2083.819	2097.39
2087.007	2091.27
2090.195	2077.6
2093.382	2091.93
2096.569	2075.49
2099.756	2038.57
2102.942	2089.93
2106.128	2106.02
2109.314	2093.92
2112.5	2080.71
2115.685	2048.79
2118.87	2055.92
2122.055	2115.25
2125.239	2097.09
2128.424	2085.01
2131.608	2138.31
2134.791	2122.47
2137.974	2158.37
2141.157	2147.64
2144.34	2122.11
2147.523	2108.84
2150.705	2138.14
2153.887	2105.45
2157.068	2082.05
2160.25	2059.21
2163.431	2081.42
2166.611	2054.81
2169.792	2077.11
2172.972	1991.95
2176.152	2037.05
2179.331	2064.63
2182.511	2068.7
2185.69	2088.61
2188.868	2093.79
2192.047	2126.09
2195.225	2145.74
2198.403	2093.58
2201.58	2079.09
2204.758	2065.48
2207.935	2137.12
2211.111	2061.67
2214.288	2048.96
2217.464	2084.78
2220.64	2037.51
2223.815	2086.21
2226.991	2020.16
2230.166	2034.84
2233.34	2080.46
2236.515	2091.08
2239.689	2153.37
2242.863	2104.71
2246.036	2154.48
2249.209	2136.59
2252.382	2152.3
2255.555	2165.93
2258.727	2117.6
2261.9	2143.53
2265.071	2136.1
2268.243	2130.77
2271.414	2084.97
2274.585	2069.3
2277.756	2128.76
2280.926	2086.62
2284.096	2114.56
2287.266	2047.2
2290.436	2091.33
2293.605	2109.3
2296.774	2149.58
2299.942	2151.59
2303.111	2167.93
2306.279	2217.75
2309.447	2204.78
2312.614	2173.65
2315.781	2197.9
2318.948	2176.04
2322.115	2213.88
2325.281	2113.51
2328.447	2120.79
2331.613	2090.94
2334.779	2086.07
2337.944	2080.37
2341.109	2083.38
2344.274	2071.95
2347.438	2041.84
2350.602	2060.26
2353.766	2067.81
2356.929	2056.91
2360.092	2095.02
2363.255	2068.07
2366.418	2038.15
2369.58	2097.77
2372.742	1987.91
2375.904	1976.83
2379.066	1963.98
2382.227	1985.22
2385.388	1952.73
2388.548	1907.74
2391.709	1946.07
2394.869	1938.04
2398.029	1984.15
2401.188	1976.92
2404.347	1944.57
2407.506	2012.86
2410.665	2054.91
2413.823	2037.63
2416.981	2022.88
2420.139	2031.8
2423.296	2070.53
2426.453	2045.09
2429.61	2064.94
2432.767	2041.78
2435.923	2083.44
2439.079	2025.74
2442.235	2056.23
2445.391	1999.79
2448.546	2041.54
2451.701	2072.56
2454.855	2074.04
2458.009	2098.35
2461.163	2085.81
2464.317	2058.17
2467.471	2084.34
2470.624	2109.8
2473.777	2106.12
2476.929	2123.44
2480.082	2146.22
2483.234	2123.55
2486.385	2063.67
2489.537	2057.19
2492.688	2051.01
2495.839	2068.74
2498.989	2085.04
2502.14	2070
2505.29	2065.1
2508.439	2086.3
2511.589	2028.76
2514.738	2029.58
2517.887	2050.22
2521.035	2127.68
2524.183	2082.47
2527.331	2071.68
2530.479	2066.69
2533.627	2067.16
