Data from C_1_HIR_WI_4N_Splice17_11-41-53-315.txt Node
Date: Sat Mar 14 11:41:53 EDT 2020
User: sa697716
Spectrometer: FLMS03696
Trigger mode: 0
Integration Time (sec): 3.180400E-1
Scans to average: 20
Electric dark correction enabled: true
Nonlinearity correction enabled: true
Boxcar width: 5
XAxis mode: Wavelengths
Number of Pixels in Spectrum: 2048
>>>>>Begin Spectral Data<<<<<
187.83	-108138.43
188.298	939.77
188.766	503.39
189.233	361
189.701	490.41
190.169	722.35
190.636	301.27
191.104	224.55
191.571	-11.52
192.039	-73.49
192.506	-92.43
192.974	264.45
193.441	-418.8
193.908	-134.03
194.375	-102.55
194.842	-90.19
195.31	-85.96
195.777	81.95
196.244	193.22
196.711	99.91
197.177	71.96
197.644	33.14
198.111	47.88
198.578	39.42
199.045	17.47
199.511	-10.53
199.978	-48.03
200.445	-10.51
200.911	-45.02
201.378	-138.67
201.844	-94.28
202.31	-203.49
202.777	-193.72
203.243	-110.71
203.709	-102.34
204.176	-136.34
204.642	-106.79
205.108	-106.41
205.574	-97.72
206.04	-123.46
206.506	-106.33
206.972	-115.55
207.438	-118.52
207.903	-136.6
208.369	-96.7
208.835	-71.34
209.301	-65.14
209.766	-68.17
210.232	-65.4
210.697	-104.61
211.163	-128.9
211.628	-243.6
212.094	-173.42
212.559	-95.43
213.024	-55.38
213.49	-44.09
213.955	-89.27
214.42	-127.43
214.885	-111.45
215.35	-66.27
215.815	32.19
216.28	51.01
216.745	46.05
217.21	81.67
217.675	35.35
218.14	35.09
218.604	3.36
219.069	21.39
219.534	73.53
219.998	64.46
220.463	40.54
220.927	-42.56
221.392	-46.44
221.856	-36.64
222.32	-117.04
222.785	-141
223.249	-147.86
223.713	-143.11
224.177	-136.66
224.642	-266.2
225.106	-328.08
225.57	-339.45
226.034	-179.44
226.497	-245.26
226.961	-153.84
227.425	-147.09
227.889	-152.1
228.353	-217.55
228.816	-582.69
229.28	-464.73
229.744	-379.47
230.207	-154.81
230.671	-159.2
231.134	-412.81
231.597	-371.85
232.061	-414.48
232.524	-409.77
232.987	-279.17
233.45	-187.85
233.914	-144.31
234.377	-219.31
234.84	-219.97
235.303	-314.1
235.766	-355.63
236.229	-368.21
236.691	-262.09
237.154	-332.71
237.617	-232.09
238.08	-239.44
238.542	-287.31
239.005	-189.01
239.468	-165.27
239.93	-135.71
240.393	-113.97
240.855	-91.76
241.317	-111.91
241.78	-160.7
242.242	-133.9
242.704	-95.38
243.166	-62.71
243.629	-26.41
244.091	-32.89
244.553	-40.24
245.015	-34.81
245.477	-47.74
245.939	-93.09
246.4	2.35
246.862	16.18
247.324	-25.81
247.786	-128.74
248.247	-230
248.709	-342.26
249.17	-210.08
249.632	-95.68
250.093	-66.15
250.555	-70.89
251.016	-3.2
251.477	-26.08
251.939	-10.04
252.4	-10.42
252.861	-32.92
253.322	-4.63
253.783	-40.4
254.244	-124.96
254.705	-168.14
255.166	-190.83
255.627	-178.17
256.088	-227.55
256.549	-226.65
257.009	-208.52
257.47	-284.08
257.931	-233.77
258.391	-169.22
258.852	-155
259.312	-160.26
259.773	-226.66
260.233	-132.38
260.694	-96.25
261.154	-144.33
261.614	-66.76
262.074	-73.05
262.534	-53.63
262.994	-32.38
263.455	-70.89
263.915	-59.39
264.374	-47.16
264.834	-35.42
265.294	-65.27
265.754	-49.19
266.214	-63.59
266.673	-70.61
267.133	-86.82
267.593	-110.63
268.052	-125.29
268.512	-117.7
268.971	-78.79
269.431	-63.97
269.89	-71.75
270.349	-103.94
270.809	-131.18
271.268	-65.13
271.727	-332.27
272.186	-224.57
272.645	-145.48
273.104	-157.48
273.563	-195.62
274.022	-244
274.481	-175.87
274.94	-114.06
275.399	-99.16
275.857	-154.35
276.316	-249.66
276.775	-232.54
277.233	-221.46
277.692	-189.29
278.15	-173.76
278.609	-145.51
279.067	-121.73
279.525	-124.5
279.984	-184.51
280.442	-221.29
280.9	-118.2
281.358	-76.28
281.816	-49.58
282.274	-49.21
282.732	-82.95
283.19	-121.19
283.648	-129.37
284.106	-145.43
284.564	-173.1
285.021	-138.47
285.479	-99.75
285.937	-137.5
286.394	-97.06
286.852	-109.48
287.309	-112.44
287.767	-62.49
288.224	-38.08
288.682	-44.9
289.139	-34.68
289.596	-15.61
290.053	-42.75
290.511	-77.43
290.968	-51.86
291.425	-113.02
291.882	-42.97
292.339	-27.17
292.796	-89.07
293.252	-119.53
293.709	-58.5
294.166	-56.34
294.623	-70.11
295.079	-69.36
295.536	-42.46
295.992	-34.6
296.449	-26.14
296.905	-15.46
297.362	14.75
297.818	19.12
298.274	56.24
298.731	41.47
299.187	26.29
299.643	22.76
300.099	35.1
300.555	23.57
301.011	12.99
301.467	74.28
301.923	36.18
302.379	21.3
302.835	25.83
303.291	29.06
303.746	22.67
304.202	38.87
304.658	15.16
305.113	19.3
305.569	24.8
306.024	15.09
306.479	-71.31
306.935	-24.01
307.39	-68.64
307.845	-74.11
308.301	-85.17
308.756	-108.29
309.211	-99.17
309.666	-106.04
310.121	-116.38
310.576	-148.55
311.031	-159.9
311.486	-205.98
311.94	-270.6
312.395	-383.04
312.85	-824.97
313.305	-4738.11
313.759	-19489.19
314.214	-1310.78
314.668	-968.12
315.123	-802.73
315.577	-239.25
316.032	-207.4
316.486	-270.13
316.94	-169.98
317.394	-90.05
317.849	-36.21
318.303	-44.53
318.757	-49.83
319.211	-69.34
319.665	-56.59
320.119	-47.51
320.572	-96.65
321.026	-76.06
321.48	-45.94
321.934	-87.38
322.387	-93.69
322.841	-87.88
323.295	-19.2
323.748	-75.07
324.202	-71.92
324.655	-85.7
325.108	-65.95
325.562	-14.17
326.015	-45.62
326.468	-26.72
326.921	-12.78
327.374	30.95
327.827	38.03
328.28	26.03
328.733	67.75
329.186	67.72
329.639	68.62
330.092	29
330.545	29.8
330.997	39.55
331.45	59.03
331.903	92.03
332.355	62.52
332.808	20.36
333.26	5.85
333.713	2.7
334.165	-31.3
334.617	-82.98
335.069	-107.78
335.522	-331.34
335.974	-374.63
336.426	-405
336.878	-345.02
337.33	-136.42
337.782	-121.26
338.234	-133.21
338.686	-207.49
339.137	-251.12
339.589	-227.41
340.041	-157.6
340.493	-117.07
340.944	-117.92
341.396	-141.66
341.847	-72.39
342.299	-60.72
342.75	-41.85
343.201	-81.78
343.653	-83.96
344.104	-94.58
344.555	-59.49
345.006	-159.54
345.457	-9.68
345.908	-8.95
346.359	33.78
346.81	24.15
347.261	5.5
347.712	-25.01
348.163	-37.09
348.613	13.51
349.064	20.9
349.515	17.34
349.965	31.86
350.416	-21
350.866	-28.66
351.317	-72.63
351.767	-157.41
352.217	-222.12
352.668	-185.66
353.118	-142.15
353.568	-215.32
354.018	-141.63
354.468	-115.84
354.918	-42.83
355.368	-21.38
355.818	-47.56
356.268	-209.16
356.718	-510.5
357.168	-40.78
357.617	5.83
358.067	-98.97
358.517	-135.45
358.966	-148.54
359.416	-133.61
359.865	-229.37
360.315	-451.23
360.764	-183.24
361.213	-82.42
361.663	-135.42
362.112	-222.78
362.561	-409.14
363.01	-239.44
363.459	-195.57
363.908	-243.68
364.357	-171.02
364.806	-321.42
365.255	-186.34
365.703	-153.7
366.152	-159.04
366.601	-105.05
367.05	-43.77
367.498	-13.36
367.947	-53.61
368.395	-56.12
368.844	-33.52
369.292	-121.73
369.74	-72.93
370.189	-142.46
370.637	-170.21
371.085	-155.08
371.533	-219.58
371.981	-266.49
372.429	-231.73
372.877	-246.02
373.325	-186.72
373.773	-222.8
374.221	-186.38
374.669	-243.2
375.116	-188.56
375.564	-207.57
376.012	-233.63
376.459	-150.58
376.907	-180.83
377.354	-266.25
377.801	-192.87
378.249	-208.38
378.696	-249.39
379.143	-271.12
379.591	-263.9
380.038	-468.27
380.485	-286.1
380.932	-264.14
381.379	-225.44
381.826	-63.31
382.273	-15.25
382.72	-56.23
383.166	-51.83
383.613	-11.14
384.06	-10.23
384.506	-0.67
384.953	0.53
385.4	-11.54
385.846	-9.99
386.292	-29.6
386.739	-50.51
387.185	-68.39
387.631	-64.34
388.078	-47.42
388.524	-66.93
388.97	-72.33
389.416	-53.33
389.862	-49.78
390.308	-38.9
390.754	-31.39
391.2	-27.02
391.645	-31.29
392.091	3.81
392.537	17.79
392.983	-8.27
393.428	31.78
393.874	36.53
394.319	50.94
394.765	65.37
395.21	53.58
395.655	46.44
396.101	39.45
396.546	45.28
396.991	23.11
397.436	21.01
397.881	20.41
398.326	-5.83
398.771	6.43
399.216	-1.42
399.661	-6.36
400.106	0.35
400.551	1.79
400.995	0.84
401.44	-1.52
401.885	0.25
402.329	-2.75
402.774	5.03
403.218	19.68
403.663	15.16
404.107	15.41
404.551	15.92
404.995	12.28
405.44	8.92
405.884	9.64
406.328	4.27
406.772	1.69
407.216	1.31
407.66	-3.12
408.104	-14.79
408.547	-14.44
408.991	-14.3
409.435	-15.45
409.879	-8.61
410.322	-6.23
410.766	-5.97
411.209	-0.96
411.653	1.15
412.096	5.1
412.54	1.61
412.983	4.32
413.426	8.38
413.869	6.67
414.312	10.27
414.756	4.82
415.199	1.63
415.642	5.88
416.085	6.43
416.527	4.49
416.97	1.7
417.413	7
417.856	6.26
418.298	3.35
418.741	0.35
419.184	-3.68
419.626	-9.18
420.069	-7.47
420.511	-9.39
420.953	-6.7
421.396	-5.86
421.838	-7.15
422.28	-9.82
422.722	-10.45
423.164	-11.21
423.606	-8.92
424.048	-9.72
424.49	-5.27
424.932	-8.57
425.374	-9.52
425.816	-13.7
426.258	-14.37
426.699	-11.45
427.141	-5.72
427.582	-8.12
428.024	-9.42
428.465	-12.2
428.907	-11.2
429.348	-11.99
429.789	-7.69
430.231	-4.1
430.672	-2.42
431.113	-4.48
431.554	-6.55
431.995	-10.62
432.436	-6.66
432.877	-5.08
433.318	-1.47
433.759	-1.38
434.2	-0.48
434.64	-1.43
435.081	-2.26
435.522	-1.14
435.962	1.29
436.403	3.37
436.843	1.34
437.284	-0.4
437.724	-2.66
438.164	-6.78
438.604	-7.04
439.045	-3.51
439.485	-1.08
439.925	-1.85
440.365	-4.48
440.805	-5.47
441.245	-4
441.685	-1.78
442.125	-0.98
442.564	-0.51
443.004	1.96
443.444	2.14
443.883	1.54
444.323	-3.43
444.762	-8.06
445.202	-8.02
445.641	-5.99
446.081	-9.55
446.52	-9.8
446.959	-9.5
447.398	-8
447.837	-8.22
448.276	-7.68
448.716	-7.82
449.154	-8.26
449.593	-4.15
450.032	-4.31
450.471	-6.2
450.91	-6.93
451.349	-6.3
451.787	-8.24
452.226	-9.12
452.664	-9.07
453.103	-9.77
453.541	-11.7
453.98	-7.3
454.418	-7.63
454.856	-4.65
455.295	-4.05
455.733	-1.73
456.171	-2.66
456.609	-0.47
457.047	0.23
457.485	2.3
457.923	4.13
458.361	4.09
458.798	2.21
459.236	1.66
459.674	-0.06
460.111	0.56
460.549	0.57
460.987	0.2
461.424	-0.17
461.862	-0.95
462.299	-1.47
462.736	-0.66
463.173	-1.56
463.611	2.24
464.048	3.7
464.485	4.12
464.922	2.86
465.359	2.39
465.796	11.09
466.233	11.91
466.67	15.08
467.106	16.62
467.543	14.47
467.98	14.46
468.416	12.2
468.853	10.48
469.29	8.99
469.726	8.43
470.162	8.16
470.599	1.13
471.035	-0.49
471.471	-2.25
471.907	-5.43
472.344	-5.55
472.78	-4.55
473.216	-5.96
473.652	-5.51
474.088	-5.4
474.523	-3.69
474.959	-4.74
475.395	-5.18
475.831	-5.05
476.266	-5.11
476.702	-4.65
477.138	-4.71
477.573	-4.77
478.008	-3.89
478.444	-2.62
478.879	-0.63
479.314	-0.73
479.75	0.1
480.185	0.4
480.62	0.38
481.055	0.31
481.49	1.18
481.925	1.77
482.36	4.1
482.795	2.89
483.229	1.73
483.664	0.27
484.099	-0.47
484.534	-0.16
484.968	1.08
485.403	0.98
485.837	0.03
486.271	-0.43
486.706	-1.18
487.14	-3.22
487.574	-2.32
488.009	-2.38
488.443	-2.23
488.877	-0.97
489.311	-1.79
489.745	-2.46
490.179	-1.72
490.613	0.93
491.046	0.67
491.48	1.25
491.914	1.57
492.348	1.19
492.781	1.83
493.215	1.7
493.648	0.52
494.082	0.81
494.515	0.91
494.948	1.23
495.382	-1.04
495.815	-0.83
496.248	-0.77
496.681	-0.89
497.114	-0.99
497.547	-0.87
497.98	0.56
498.413	2.28
498.846	2.92
499.279	2.14
499.711	1.14
500.144	1.47
500.577	2.53
501.009	2.18
501.442	2.9
501.874	3.78
502.306	3.19
502.739	5.12
503.171	4.32
503.603	4.63
504.036	4.87
504.468	5.36
504.9	5.13
505.332	3.98
505.764	4.34
506.196	4.33
506.627	4.14
507.059	4.2
507.491	1.17
507.923	1.66
508.354	1.54
508.786	2
509.217	2.13
509.649	2.28
510.08	2.46
510.512	3.41
510.943	3.25
511.374	3.14
511.805	2.75
512.237	2.48
512.668	0.91
513.099	-0.19
513.53	-0.8
513.961	-0.8
514.391	-0.58
514.822	0.84
515.253	0.4
515.684	0.44
516.114	0.47
516.545	1.11
516.975	1.15
517.406	1.34
517.836	0.95
518.267	1.62
518.697	2.04
519.127	2.12
519.558	0.99
519.988	0.49
520.418	-0.14
520.848	-1.32
521.278	-1.6
521.708	30.29
522.138	31.42
522.567	31.34
522.997	30.84
523.427	30.12
523.857	29.83
524.286	29.47
524.716	29.82
525.145	30.16
525.575	31.51
526.004	30.9
526.433	-0.43
526.863	-1.48
527.292	0.08
527.721	0.53
528.15	0.19
528.579	0.89
529.008	0.95
529.437	0.01
529.866	-0.51
530.295	-1.62
530.724	-0.38
531.152	0.11
531.581	0.96
532.01	0.2
532.438	-0.29
532.867	-0.31
533.295	-0.87
533.723	-0.79
534.152	0.03
534.58	0.61
535.008	1.17
535.436	1.77
535.865	1.09
536.293	-0.05
536.721	-0.3
537.149	0
537.576	0.73
538.004	1.03
538.432	0.67
538.86	0.43
539.287	0.14
539.715	0.22
540.143	-1.15
540.57	-0.54
540.998	-0.12
541.425	1.99
541.852	1.4
542.28	1.04
542.707	0.57
543.134	0.94
543.561	1.21
543.988	1.4
544.415	1.15
544.842	0.96
545.269	0.55
545.696	1.16
546.123	0.07
546.549	0.96
546.976	1.35
547.403	1.43
547.829	0.99
548.256	0.78
548.682	0.95
549.108	1.99
549.535	2.28
549.961	2.19
550.387	1.42
550.813	2.42
551.24	2.05
551.666	1.57
552.092	1.6
552.518	1.97
552.943	2.31
553.369	1.83
553.795	1.4
554.221	1.25
554.646	1.1
555.072	2.48
555.498	0.73
555.923	-0.04
556.349	0.02
556.774	-0.21
557.199	-1.09
557.625	-2.05
558.05	-2.01
558.475	-2.65
558.9	-2.04
559.325	-0.75
559.75	-1.05
560.175	-0.63
560.6	-0.11
561.025	-0.51
561.449	-0.44
561.874	-0.63
562.299	0.14
562.723	0.27
563.148	0.23
563.572	-0.48
563.997	-1.44
564.421	-2.27
564.846	-2.62
565.27	-2.27
565.694	-2.41
566.118	-2.11
566.542	-0.4
566.966	0.07
567.39	-0.03
567.814	0.58
568.238	1.07
568.662	0.72
569.086	0.89
569.509	0.43
569.933	1.47
570.357	1.67
570.78	1.46
571.204	1.64
571.627	1.12
572.05	1.39
572.474	1.94
572.897	1.51
573.32	2.09
573.743	1.62
574.166	2.65
574.589	1.38
575.012	1.21
575.435	0.98
575.858	0.69
576.281	0.12
576.704	-0.36
577.126	-1.3
577.549	-1.36
577.972	-1.8
578.394	-1.38
578.817	-0.09
579.239	0.4
579.661	1.22
580.084	2.45
580.506	2.71
580.928	2.7
581.35	2.45
581.772	2.71
582.194	3.32
582.616	2.6
583.038	1.55
583.46	0.03
583.882	-0.37
584.303	-1.57
584.725	-2.83
585.147	1.1
585.568	2.07
585.99	3.4
586.411	3.64
586.833	3.6
587.254	4.71
587.675	5.24
588.096	5.4
588.518	5.5
588.939	5.94
589.36	6.6
589.781	0.86
590.202	3.04
590.623	2.5
591.043	1.68
591.464	1.63
591.885	1.59
592.305	1.09
592.726	0.51
593.147	0.72
593.567	1.06
593.987	0.76
594.408	1.09
594.828	-2.08
595.248	-1.51
595.669	-0.35
596.089	-0.64
596.509	-1.4
596.929	-1.24
597.349	-1.14
597.769	-1.79
598.189	-1.66
598.608	-1.6
599.028	-1.68
599.448	-1.58
599.867	-2.48
600.287	-3.41
600.706	-2.41
601.126	-1.67
601.545	-0.44
601.965	-0.11
602.384	0.34
602.803	0.42
603.222	0.84
603.641	0.69
604.061	1.25
604.48	1.43
604.898	1.87
605.317	0.95
605.736	0.55
606.155	0.7
606.574	0.5
606.992	0.55
607.411	0.25
607.829	-0.9
608.248	-0.57
608.666	-1.08
609.085	-0.8
609.503	-1.64
609.921	-0.92
610.339	-0.88
610.758	-2.1
611.176	-1.91
611.594	-1.76
612.012	-1.53
612.43	-0.25
612.847	-0.74
613.265	0.37
613.683	-0.08
614.101	0.47
614.518	-0.75
614.936	-0.82
615.353	0.42
615.771	0.6
616.188	1.15
616.606	1.56
617.023	1.85
617.44	2.25
617.857	0.79
618.274	0.78
618.691	1.17
619.108	1.72
619.525	1.84
619.942	1.73
620.359	1.4
620.776	0.87
621.192	1.21
621.609	1.23
622.026	1.92
622.442	2.84
622.859	2.69
623.275	2.25
623.691	2.06
624.108	2.57
624.524	2.47
624.94	3.07
625.356	2.33
625.772	1.02
626.188	-0.06
626.604	-1.01
627.02	-1.37
627.436	-0.41
627.852	0.86
628.268	1.77
628.683	0.81
629.099	0.25
629.514	-0.85
629.93	-0.83
630.345	-1.03
630.761	-1.55
631.176	-1.5
631.591	-0.05
632.007	0.4
632.422	-1.26
632.837	-2.97
633.252	-1.49
633.667	-1.96
634.082	-1.55
634.497	-0.62
634.911	1.31
635.326	2.1
635.741	2.73
636.155	1.65
636.57	1.95
636.984	2.62
637.399	4.54
637.813	3.75
638.228	3.92
638.642	3.23
639.056	2.88
639.47	2.3
639.884	1.75
640.298	1.63
640.712	2.22
641.126	1.67
641.54	1.04
641.954	-1.76
642.368	-1.47
642.781	1.65
643.195	2.31
643.609	2.56
644.022	1.6
644.436	1.67
644.849	1.54
645.262	0.08
645.676	-1.09
646.089	-1.22
646.502	1.27
646.915	0.21
647.328	-1.31
647.741	-0.65
648.154	-0.76
648.567	2.67
648.98	2.94
649.393	2.8
649.805	3.78
650.218	3.57
650.631	4.26
651.043	3.93
651.456	5.09
651.868	4.56
652.28	3.16
652.693	2.6
653.105	-0.4
653.517	-0.07
653.929	-0.12
654.341	-0.02
654.753	1.29
655.165	0.69
655.577	-0.02
655.989	-0.63
656.401	-1.82
656.813	-0.15
657.224	-0.31
657.636	-0.64
658.047	0.19
658.459	-0.4
658.87	-0.79
659.282	-2.05
659.693	-1.2
660.104	0.27
660.515	0.2
660.926	-0.12
661.338	-1.01
661.749	-1.42
662.159	-0.82
662.57	-2.3
662.981	-1.28
663.392	-2.44
663.803	-1.79
664.213	-2.08
664.624	-3.05
665.035	-3.84
665.445	-3.72
665.855	-2.82
666.266	-1.37
666.676	-1.55
667.086	-1.86
667.497	-1.55
667.907	-1.05
668.317	-1.46
668.727	1.66
669.137	0.61
669.547	0.56
669.956	0.53
670.366	0.08
670.776	-0.15
671.186	-0.2
671.595	0.85
672.005	-0.57
672.414	0.16
672.824	0.98
673.233	-2.45
673.642	-2.11
674.052	-0.79
674.461	0.55
674.87	0.48
675.279	1.54
675.688	0.32
676.097	0.94
676.506	1.15
676.915	-0.22
677.323	-0.88
677.732	-0.58
678.141	-0.56
678.549	-1.07
678.958	-3
679.366	-3.97
679.775	-6.43
680.183	-3.93
680.592	-4.85
681	-4.8
681.408	-4.19
681.816	-4.82
682.224	-5.31
682.632	-2.84
683.04	-3.05
683.448	-2.62
683.856	-0.76
684.264	0.47
684.671	-1.93
685.079	-2.45
685.487	-2.71
685.894	-2.6
686.302	-3.21
686.709	-2.71
687.116	-4.1
687.524	-2.21
687.931	0.16
688.338	-0.7
688.745	-1.75
689.152	-1.44
689.559	-1.69
689.966	0.27
690.373	0.86
690.78	3.75
691.187	3.58
691.593	3.44
692	1.34
692.407	0.75
692.813	3.22
693.22	4.49
693.626	3.18
694.032	4.33
694.439	3.84
694.845	3.63
695.251	1.56
695.657	2.1
696.063	0.9
696.469	0.6
696.875	0.07
697.281	-2.58
697.687	-2.51
698.093	-1.06
698.498	-0.78
698.904	-2.5
699.31	-2.74
699.715	-0.6
700.12	-1.1
700.526	0.22
700.931	0.13
701.337	0.77
701.742	1.83
702.147	1.75
702.552	2.04
702.957	0.91
703.362	1.62
703.767	1.88
704.172	-0.37
704.577	-0.76
704.981	-2.21
705.386	-1.22
705.791	-1.44
706.195	-2.79
706.6	-3.65
707.004	-5.27
707.408	-5.32
707.813	-3.88
708.217	-3.42
708.621	-2.53
709.025	-2.39
709.43	-0.33
709.834	-1.11
710.237	-2.28
710.641	-1.65
711.045	-0.25
711.449	2.05
711.853	5.58
712.256	3.96
712.66	2.98
713.064	2.7
713.467	3.65
713.87	2.74
714.274	3.45
714.677	4.41
715.08	5.13
715.484	4.52
715.887	6.56
716.29	2.47
716.693	4.33
717.096	6.91
717.499	7.14
717.901	6.38
718.304	5.24
718.707	5.55
719.109	5.76
719.512	4.51
719.915	7.1
720.317	4.89
720.719	4.77
721.122	3.27
721.524	1.79
721.926	5.45
722.328	5.41
722.731	5.35
723.133	4.93
723.535	3.95
723.937	2.76
724.338	2.33
724.74	2.64
725.142	53.22
725.544	58.05
725.945	71.58
726.347	68.43
726.748	69.11
727.15	71.12
727.551	74.85
727.952	72.99
728.354	72.52
728.755	71.36
729.156	69.24
729.557	20.34
729.958	15.44
730.359	2.28
730.76	1.96
731.161	2.07
731.562	0.37
731.962	-2.75
732.363	-1.72
732.763	-0.8
733.164	-3.37
733.564	-2.85
733.965	-1.64
734.365	-0.69
734.766	-0.8
735.166	-1.47
735.566	-0.55
735.966	0.24
736.366	-0.14
736.766	0.73
737.166	-0.1
737.566	0.9
737.966	1.8
738.365	2.12
738.765	3.08
739.165	3.02
739.564	2.77
739.964	0.33
740.363	-0.74
740.763	-1.03
741.162	-0.09
741.561	0.24
741.96	0.33
742.36	-0.47
742.759	-0.94
743.158	-3.42
743.557	-3.74
743.955	-3.41
744.354	-3.28
744.753	-3.88
745.152	-2.44
745.55	-3.68
745.949	-3.29
746.348	-3.51
746.746	-5.34
747.144	-2.83
747.543	-2.62
747.941	-3.58
748.339	-3.6
748.737	-2.55
749.136	-1.39
749.534	-4.17
749.932	-2.58
750.33	-3.33
750.727	-4.37
751.125	-1.99
751.523	-4.08
751.921	-0.76
752.318	1.17
752.716	2.85
753.113	3.27
753.511	2.44
753.908	3.9
754.305	7.2
754.703	7.68
755.1	9.73
755.497	8.93
755.894	8.23
756.291	5.04
756.688	5.47
757.085	4.2
757.482	4.14
757.878	7.61
758.275	8.19
758.672	-2.18
759.068	-3.4
759.465	-6.31
759.861	-7.51
760.258	-10.41
760.654	-9.36
761.05	-6.63
761.447	-8.83
761.843	-7.78
762.239	-10.04
762.635	-12.02
763.031	-8
763.427	-6.09
763.822	-4.36
764.218	-4.12
764.614	-3
765.01	-4.62
765.405	-7.66
765.801	-5.64
766.196	-6.86
766.592	-7.32
766.987	-5.06
767.382	-5.64
767.778	-4.79
768.173	-5.83
768.568	-6.59
768.963	-5.19
769.358	-4.42
769.753	-3.41
770.148	-3.28
770.542	-3.64
770.937	-4.27
771.332	-5.4
771.726	-5.21
772.121	-2.87
772.515	-2.71
772.91	-2.54
773.304	-3.5
773.699	-3
774.093	-3.74
774.487	-3.95
774.881	-3.95
775.275	-2.58
775.669	-2.67
776.063	-3.29
776.457	-5.09
776.851	-4.05
777.245	-2.53
777.638	-2.14
778.032	-4.15
778.425	-3.01
778.819	0.47
779.212	3.45
779.606	4.73
779.999	4.17
780.392	6.67
780.786	3.56
781.179	4.27
781.572	5.13
781.965	4.37
782.358	6.52
782.751	5.67
783.143	2.47
783.536	1.61
783.929	0.01
784.322	1.51
784.714	-0.3
785.107	1.6
785.499	1.74
785.891	1.12
786.284	1.61
786.676	0.16
787.068	2.47
787.46	3.53
787.852	1.53
788.245	-0.9
788.636	-4.14
789.028	-2.46
789.42	-1.49
789.812	-1.57
790.204	-1.57
790.595	1.35
790.987	3.26
791.378	2.49
791.77	-0.51
792.161	-0.27
792.553	2.54
792.944	4.93
793.335	0.39
793.726	-0.81
794.117	-0.62
794.508	-2.55
794.899	-6.28
795.29	-7.89
795.681	-8.84
796.072	-6.95
796.463	14.28
796.853	17.63
797.244	18.01
797.634	21.91
798.025	23.08
798.415	20.4
798.806	22
799.196	25.9
799.586	27.99
799.976	28.68
800.366	25.85
800.756	2.13
801.146	0.12
801.536	-1.32
801.926	-2.05
802.316	-0.1
802.706	2.1
803.095	3
803.485	0.16
803.874	-1.48
804.264	-2.04
804.653	1.52
805.043	5.31
805.432	6.77
805.821	9.56
806.21	11.35
806.599	6.25
806.988	5.79
807.377	1.96
807.766	0.12
808.155	-0.71
808.544	-1.54
808.933	-1.85
809.321	-1.36
809.71	-6.59
810.098	-7.2
810.487	-11.94
810.875	-11.63
811.264	-12.16
811.652	-0.22
812.04	0.97
812.428	5.17
812.816	3.65
813.204	4.65
813.592	-3.7
813.98	-4.69
814.368	0.99
814.756	2.96
815.144	6.61
815.531	9.8
815.919	0.11
816.306	-0.95
816.694	-4.81
817.081	0.11
817.469	0.93
817.856	1.44
818.243	2.73
818.63	-4.66
819.017	0.99
819.404	1.81
819.791	-0.51
820.178	-4.7
820.565	1.52
820.952	11.24
821.339	10.29
821.725	8.92
822.112	16.01
822.498	17.98
822.885	18.03
823.271	12.37
823.657	7.6
824.044	9.16
824.43	8.99
824.816	13.92
825.202	9.59
825.588	6.93
825.974	9.91
826.36	7.79
826.746	6.9
827.132	5.89
827.517	10.65
827.903	11.49
828.289	13.5
828.674	14.62
829.06	8.17
829.445	4.15
829.83	4.45
830.216	1.23
830.601	2.32
830.986	9.58
831.371	9.25
831.756	8.52
832.141	16.8
832.526	18.59
832.911	20.75
833.295	19.14
833.68	19.72
834.065	21.02
834.449	20.3
834.834	21.28
835.218	20.25
835.603	25.59
835.987	22.1
836.371	17.71
836.755	16.4
837.139	10.39
837.524	8.81
837.908	4.44
838.291	6.67
838.675	5.88
839.059	3.98
839.443	-1.78
839.827	-6.83
840.21	-11
840.594	-7.39
840.977	-8.14
841.361	-2.83
841.744	-6.14
842.127	-1.3
842.511	-5
842.894	-8.13
843.277	-7.88
843.66	-10.13
844.043	-10.26
844.426	-3.09
844.809	-11.34
845.191	-13.42
845.574	-15.22
845.957	-10.9
846.339	-7.75
846.722	-4.49
847.104	-4.89
847.487	-6.96
847.869	-3.14
848.252	-1.91
848.634	-2.31
849.016	1.15
849.398	-1.38
849.78	-1.99
850.162	-1.76
850.544	-3.71
850.926	-8.52
851.307	-6.81
851.689	-6.58
852.071	-14.67
852.452	-13.8
852.834	-14.36
853.215	-12.62
853.597	-9.38
853.978	-4.31
854.359	-4.06
854.741	-3.32
855.122	-5.32
855.503	-4.02
855.884	1.17
856.265	5.8
856.646	-0.19
857.026	0.34
857.407	0.23
857.788	-1.69
858.169	-9.97
858.549	-1.69
858.93	-2.9
859.31	2.53
859.69	9.05
860.071	6.5
860.451	8.39
860.831	12.26
861.211	7.23
861.591	2.26
861.971	0.18
862.351	3.44
862.731	-8.41
863.111	-6.48
863.491	-4.84
863.87	-14.08
864.25	-17.69
864.629	-10.33
865.009	-13.33
865.388	-8.78
865.768	-10.77
866.147	-3.78
866.526	1.05
866.905	6.22
867.284	-7.48
867.663	-13.62
868.042	-12.24
868.421	-10.91
868.8	-19.99
869.179	-13.62
869.558	-15.12
869.936	-10
870.315	-15.54
870.693	-13.47
871.072	-18.33
871.45	-10.66
871.828	-6.02
872.207	-4.82
872.585	-5.53
872.963	-10.56
873.341	-4.73
873.719	5.63
874.097	4.95
874.475	5.38
874.853	-2.55
875.23	2.73
875.608	5.63
875.986	2.84
876.363	3.77
876.741	14.48
877.118	31.33
877.495	29.56
877.873	25.03
878.25	26.38
878.627	26.2
879.004	31.18
879.381	23.89
879.758	25.53
880.135	24.95
880.512	24.41
880.889	11.55
881.265	3.48
881.642	-6.45
882.019	-8.74
882.395	-2.4
882.772	6.94
883.148	8.87
883.524	10.56
883.901	10.74
884.277	6.73
884.653	7.96
885.029	15.07
885.405	24.56
885.781	29.53
886.157	23.12
886.532	17.78
886.908	9.72
887.284	2.94
887.659	7.67
888.035	4.57
888.411	4.07
888.786	4.65
889.161	5.82
889.537	-6.07
889.912	-5.94
890.287	5.87
890.662	3.66
891.037	-2.28
891.412	1.19
891.787	-5.5
892.162	-0.84
892.536	1.6
892.911	5.77
893.286	-0.15
893.66	2.26
894.035	1.7
894.409	-9.94
894.784	-5.76
895.158	-3.06
895.532	-1.61
895.906	5.92
896.281	3.87
896.655	14.38
897.029	5.56
897.402	5.35
897.776	-2.89
898.15	-0.26
898.524	1.26
898.898	3.44
899.271	6.24
899.645	7.35
900.018	4.05
900.392	2.91
900.765	-9.15
901.138	2.66
901.511	7.67
901.884	23.4
902.258	27.73
902.631	35.59
903.003	29.06
903.376	22.28
903.749	20.72
904.122	13.66
904.495	-1.7
904.867	-14.76
905.24	-15.02
905.612	-22.82
905.985	-43.22
906.357	-58.11
906.729	-59.43
907.102	-43.76
907.474	-32.25
907.846	-24.8
908.218	-23.92
908.59	0.08
908.962	5.78
909.334	2.11
909.705	6.38
910.077	5.24
910.449	8.53
910.82	11.79
911.192	15.66
911.563	22.68
911.935	0.84
912.306	-8.94
912.677	-26.25
913.048	-13.55
913.419	-15.07
913.79	-32.21
914.161	-39.05
914.532	-37.55
914.903	-28.74
915.274	-26.58
915.645	-41.58
916.015	-36.82
916.386	-28.06
916.756	-30.68
917.127	-46.14
917.497	-27.86
917.868	-13.49
918.238	-6.25
918.608	-5.5
918.978	-9.37
919.348	-21.83
919.718	-14.84
920.088	-3.79
920.458	7.19
920.828	-5.32
921.198	1.63
921.567	-14.62
921.937	-11.74
922.306	-18.06
922.676	-32.16
923.045	-13.65
923.415	0.61
923.784	-0.17
924.153	5.21
924.522	11.56
924.891	7.84
925.26	3.02
925.629	-0.33
925.998	-4.37
926.367	10.62
926.736	35.58
927.104	29.22
927.473	9.93
927.842	-10.69
928.21	-25.45
928.578	-68.83
928.947	-41.3
929.315	-24.82
929.683	-5.13
930.051	-7.26
930.42	-30.92
930.788	-42.7
931.156	-60.21
931.523	8.03
931.891	30.57
932.259	53
932.627	95.04
932.994	124.63
933.362	115.49
933.729	95.3
934.097	92.5
934.464	94
934.831	82.87
935.199	91.44
935.566	54.93
935.933	21.1
936.3	-2.91
936.667	1.98
937.034	85.22
937.401	62.02
937.767	40.46
938.134	30.9
938.501	5.47
938.867	38.66
939.234	48.87
939.6	-0.26
939.967	63.67
940.333	78.34
940.699	39.73
941.065	-78.4
941.431	-107.17
941.798	-44.31
942.163	-1.51
942.529	12.31
942.895	-15.77
943.261	-7.49
943.627	0.25
943.992	11.34
944.358	-4.16
944.723	39.45
945.089	55.52
945.454	74.06
945.82	57.77
946.185	41.08
946.55	69.53
946.915	65.08
947.28	78.38
947.645	74.98
948.01	81.98
948.375	119.19
948.74	97.88
949.104	97.97
949.469	38.07
949.834	57.33
950.198	134.69
950.562	87.99
950.927	91.23
951.291	104.18
951.655	82.87
952.02	31.09
952.384	19.08
952.748	44.92
953.112	93.22
953.476	110.62
953.839	88.87
954.203	94.79
954.567	99.44
954.931	126
955.294	145.99
955.658	128.68
956.021	216.04
956.385	256.63
956.748	372.38
957.111	182.49
957.474	-46
957.837	46.56
958.2	-135.98
958.563	10.77
958.926	44.39
959.289	13.91
959.652	96.34
960.015	83.55
960.377	112.29
960.74	86.46
961.102	112.02
961.465	323.49
961.827	560.15
962.189	982.41
962.552	675.81
962.914	519.42
963.276	295.57
963.638	203.43
964	209.66
964.362	171.58
964.724	131.41
965.085	102.18
965.447	88.06
965.809	6.39
966.17	-3.96
966.532	-27.15
966.893	-29.54
967.255	-23.63
967.616	-43.07
967.977	-31.74
968.338	-42.15
968.699	-4.49
969.061	-10.57
969.421	-2.64
969.782	-5.8
970.143	26.14
970.504	63.23
970.865	82.88
971.225	115.39
971.586	128.22
971.946	150.26
972.307	119.01
972.667	117.39
973.027	133.64
973.388	101.58
973.748	75.1
974.108	65.84
974.468	13.8
974.828	74.76
975.188	24.3
975.548	23.37
975.907	42
976.267	47.82
976.627	65.99
976.986	48.96
977.346	53.62
977.705	52.46
978.064	37.59
978.424	43.01
978.783	12.46
979.142	12.56
979.501	15.21
979.86	23.38
980.219	14.39
980.578	-12.73
980.937	-27.28
981.296	-10.23
981.654	-5.87
982.013	-29.25
982.371	-54.41
982.73	-59.23
983.088	-39
983.447	-35.01
983.805	-48.17
984.163	-65.2
984.521	-130.64
984.879	-18.84
985.237	-7.35
985.595	364.25
985.953	1.68
986.311	-65.67
986.669	-6.41
987.026	-20.11
987.384	-109.05
987.741	-189.82
988.099	-57.49
988.456	-33.64
988.814	-6.95
989.171	-16.85
989.528	-48.59
989.885	-37.6
990.242	-2.01
990.599	-33.78
990.956	-27.11
991.313	9.14
991.67	22.36
992.027	58.53
992.383	57.05
992.74	54.29
993.096	70.33
993.453	79.06
993.809	70.8
994.165	71.97
994.522	122.17
994.878	126.69
995.234	147.99
995.59	147.62
995.946	54.83
996.302	73.7
996.658	63.38
997.013	40.62
997.369	56.66
997.725	123.19
998.08	107.74
998.436	-28.78
998.791	-51.6
999.147	-36.87
999.502	-21.24
999.857	-19.53
1000.212	-162.51
1000.567	-242.78
1000.922	-110.66
1001.277	-86.02
1001.632	-57.78
1001.987	-87.78
1002.342	-31.5
1002.696	2.92
1003.051	27.56
1003.406	44.92
1003.76	33.49
1004.114	69.44
1004.469	77.61
1004.823	74.73
1005.177	61.95
1005.531	57.46
1005.885	70.36
1006.239	80.34
1006.593	106.66
1006.947	127.72
1007.301	68.59
1007.655	71.79
1008.008	54.9
1008.362	58.75
1008.715	56.44
1009.069	74.51
1009.422	166.16
1009.776	304.44
1010.129	202.64
1010.482	147.49
1010.835	44.5
1011.188	59.94
1011.541	59.03
1011.894	39.39
1012.247	-558.81
1012.6	-19.82
1012.952	44.12
1013.305	-40.79
1013.657	-47.1
1014.01	-65.5
1014.362	-61.95
1014.715	5.96
1015.067	21.03
1015.419	14.51
1015.771	32.42
1016.123	48.33
1016.475	53.21
1016.827	49.9
1017.179	68.61
1017.531	66.52
1017.883	69.12
1018.234	119.71
1018.586	132
1018.938	173.68
1019.289	244.64
1019.64	208.62
1019.992	139.47
1020.343	102.13
1020.694	124.75
1021.045	111.23
1021.396	135.11
1021.747	193.67
1022.098	130.21
1022.449	91.85
1022.8	95.39
1023.151	103.01
1023.501	129.06
1023.852	155.3
1024.202	181.58
1024.553	174.35
1024.903	205.54
1025.253	193.02
1025.604	176.44
1025.954	218.08
1026.304	239.24
1026.654	236.08
1027.004	264.58
1027.354	276.85
1027.703	290.25
1028.053	219.36
1028.403	550.5
1028.753	380.54
1029.102	-277.27
1029.452	-5495.16
1029.801	-322.16
1030.15	-208.74
1030.499	-218.05
897.758	1825.43
901.051	1753.83
904.343	1786.41
907.636	1793.44
910.928	1845.03
914.22	1778.52
917.511	1781.44
920.803	1819.85
924.094	1810.97
927.384	1818.67
930.675	1785.44
933.965	1756.31
937.255	1789.55
940.544	1764.78
943.834	1754.54
947.123	1706.34
950.411	1779.38
953.7	1765.66
956.988	1758
960.276	1697.83
963.563	1731.28
966.851	1741.64
970.138	1773.12
973.424	1775.51
976.711	1729.82
979.997	1774.16
983.283	1806.47
986.568	1753.06
989.853	1737.01
993.138	1753.78
996.423	1832.16
999.708	1800.61
1002.992	1823.82
1006.275	1745.23
1009.559	1747.02
1012.842	1829.82
1016.125	1790.54
1019.408	1774.3
1022.69	1813.32
1025.972	1843.17
1029.254	1825.33
1032.536	1797.48
1035.817	1798.46
1039.098	1772.35
1042.379	1812.08
1045.659	1832.95
1048.939	1787.02
1052.219	1789.92
1055.498	1778.11
1058.778	1774.6
1062.057	1751.41
1065.335	1770.88
1068.614	1777.21
1071.892	1776.55
1075.17	1816.02
1078.447	1821.71
1081.724	1817.39
1085.001	1835.08
1088.278	1814.19
1091.554	1817.59
1094.83	1814.66
1098.106	1845.34
1101.382	1866.17
1104.657	1862.42
1107.932	1862.48
1111.206	1845.96
1114.481	1802.89
1117.755	1803.35
1121.029	1801.04
1124.302	1852.73
1127.575	1827.09
1130.848	1826.2
1134.121	1801.87
1137.393	1771.27
1140.665	1819.61
1143.937	1801.02
1147.208	1755.74
1150.48	1808.81
1153.75	1797.6
1157.021	1794.06
1160.291	1773.86
1163.561	1819.44
1166.831	1785.84
1170.101	1805.19
1173.37	1768.69
1176.639	1736.02
1179.907	1771.24
1183.176	1791.43
1186.444	1791.46
1189.711	1811.67
1192.979	1832.07
1196.246	1799.89
1199.513	1807.99
1202.78	1813.74
1206.046	1822.12
1209.312	1847.14
1212.578	1856.93
1215.843	1831.13
1219.108	1806.85
1222.373	1825.69
1225.638	1805.7
1228.902	1802.57
1232.166	1764.45
1235.43	1756.98
1238.693	1781.79
1241.956	1775.67
1245.219	1819.4
1248.482	1805.35
1251.744	1805.19
1255.006	1897.28
1258.268	1855.37
1261.529	1822.9
1264.79	1818.89
1268.051	1896.72
1271.312	1902.61
1274.572	1877.03
1277.832	1866.1
1281.092	1846.07
1284.351	1841.9
1287.61	1829.81
1290.869	1783.76
1294.128	1782.06
1297.386	1809.36
1300.644	1804.71
1303.902	1814.2
1307.159	1708.02
1310.416	1749.23
1313.673	1773
1316.93	1775.6
1320.186	1797.3
1323.442	1823.46
1326.697	1826.44
1329.953	1801.53
1333.208	1838.55
1336.463	1818.39
1339.717	1792.27
1342.972	1876.49
1346.226	1856.98
1349.479	1821.31
1352.733	1806.24
1355.986	1809.66
1359.238	1794.37
1362.491	1799.7
1365.743	1803.46
1368.995	1794.92
1372.247	1810.3
1375.498	1825.21
1378.749	1868.59
1382	1826.9
1385.251	1852.6
1388.501	1814.35
1391.751	1821.25
1395	1795.04
1398.25	1816.33
1401.499	1843.51
1404.748	1807.32
1407.996	1787.4
1411.244	1781.6
1414.492	1770.99
1417.74	1759.92
1420.987	1763.13
1424.234	1815.36
1427.481	1779.43
1430.728	1828.23
1433.974	1808.92
1437.22	1799.95
1440.465	1797.69
1443.711	1803.94
1446.956	1818.17
1450.201	1790.39
1453.445	1825.61
1456.689	1817.09
1459.933	1823.12
1463.177	1859.1
1466.42	1835.47
1469.663	1820.92
1472.906	1839.68
1476.148	1874.78
1479.391	1835.8
1482.633	1818.48
1485.874	1842.52
1489.115	1849.45
1492.356	1830.43
1495.597	1814.19
1498.838	1801.05
1502.078	1792.81
1505.318	1772.63
1508.557	1794.86
1511.797	1791.96
1515.036	1839.5
1518.274	1805.68
1521.513	1755.42
1524.751	1762.34
1527.989	1783.55
1531.227	1797.85
1534.464	1810.89
1537.701	1799.24
1540.938	1806.06
1544.174	1761.42
1547.41	1747.76
1550.646	1778.12
1553.882	1820.32
1557.117	1870.64
1560.352	1872.21
1563.587	1841.31
1566.821	1814.71
1570.055	1823.26
1573.289	1805.76
1576.523	1847.88
1579.756	1860.76
1582.989	1880.3
1586.222	1841.82
1589.454	1867.65
1592.686	1855.52
1595.918	1877.8
1599.15	1874.14
1602.381	1907.35
1605.612	1897.41
1608.843	1973.76
1612.073	1911.01
1615.303	1902.58
1618.533	1900.39
1621.762	1899.94
1624.992	1871.84
1628.221	1875.41
1631.449	1865.59
1634.678	1881.87
1637.906	1856.22
1641.134	1874.05
1644.361	1845.6
1647.588	1839.7
1650.815	1858.42
1654.042	1824.99
1657.269	1846.91
1660.495	1837.22
1663.72	1816.83
1666.946	1794.1
1670.171	1781.5
1673.396	1756.4
1676.621	1740.49
1679.845	1735.23
1683.069	1736.4
1686.293	1757.72
1689.517	1755.05
1692.74	1721.29
1695.963	1737.06
1699.185	1775.63
1702.408	1754.68
1705.63	1776.33
1708.852	1793.14
1712.073	1769.84
1715.294	1785.13
1718.515	1820.41
1721.736	1789.25
1724.956	1770.54
1728.176	1788.32
1731.396	1805.41
1734.616	1795.79
1737.835	1829.8
1741.054	1801.57
1744.272	1799.08
1747.491	1835.64
1750.709	1848.41
1753.927	1816.69
1757.144	1831.71
1760.361	1883.33
1763.578	1857.07
1766.795	1817.81
1770.011	1807.52
1773.227	1824.37
1776.443	1862.44
1779.658	1895.68
1782.874	1848.09
1786.089	1844.88
1789.303	1845.14
1792.518	1845.67
1795.732	1836.73
1798.945	1853.67
1802.159	1888.28
1805.372	1848.68
1808.585	1845.32
1811.797	1843.96
1815.01	1858.17
1818.222	1884
1821.434	1846.62
1824.645	1878.7
1827.856	1893.48
1831.067	1916.61
1834.278	1862.73
1837.488	1849.53
1840.698	1946.25
1843.908	1905.44
1847.117	1884.62
1850.326	1831.86
1853.535	1874.08
1856.744	1911.85
1859.952	1852.09
1863.16	1852.72
1866.368	1868.11
1869.575	1968.68
1872.782	1871.28
1875.989	1818.41
1879.196	1854.54
1882.402	1849.47
1885.608	1878.44
1888.814	1840.27
1892.019	1769.12
1895.224	1815.2
1898.429	1784.9
1901.634	1773.2
1904.838	1753.88
1908.042	1808.71
1911.246	1823.01
1914.449	1798.57
1917.652	1782.05
1920.855	1766.42
1924.058	1778.62
1927.26	1820.69
1930.462	1837.97
1933.664	1877.12
1936.865	1829.41
1940.066	1845.41
1943.267	1794.57
1946.467	1803.43
1949.668	1815.81
1952.868	1876.57
1956.067	1872.06
1959.267	1824.99
1962.466	1843.68
1965.665	1826.67
1968.863	1820.84
1972.061	1818.43
1975.259	1809.91
1978.457	1876.34
1981.654	1838.84
1984.852	1842.86
1988.048	1806.19
1991.245	1791.46
1994.441	1868.43
1997.637	1823.45
2000.833	1807.84
2004.028	1836.01
2007.223	1893.67
2010.418	1885.35
2013.613	1837.9
2016.807	1839.2
2020.001	1830.13
2023.194	1846.5
2026.388	1834.22
2029.581	1786.78
2032.774	1845.64
2035.966	1855.38
2039.158	1812.97
2042.35	1827.53
2045.542	1763.44
2048.733	1830.82
2051.924	1815.13
2055.115	1827.04
2058.306	1800.8
2061.496	1845.15
2064.686	1885.35
2067.875	1801.68
2071.065	1801.67
2074.254	1814.15
2077.442	1774.63
2080.631	1846.16
2083.819	1798.73
2087.007	1792.72
2090.195	1783.23
2093.382	1789.41
2096.569	1780.04
2099.756	1747.32
2102.942	1796.41
2106.128	1808.94
2109.314	1799.77
2112.5	1793.08
2115.685	1760.28
2118.87	1766.2
2122.055	1821.52
2125.239	1806.44
2128.424	1800.6
2131.608	1837.71
2134.791	1824.29
2137.974	1849.99
2141.157	1844.46
2144.34	1825.77
2147.523	1808.04
2150.705	1836.44
2153.887	1803.64
2157.068	1785.74
2160.25	1762.27
2163.431	1780.04
2166.611	1761.72
2169.792	1782.55
2172.972	1708.79
2176.152	1747.02
2179.331	1765.96
2182.511	1777.1
2185.69	1793.96
2188.868	1800.79
2192.047	1824.24
2195.225	1848.36
2198.403	1801.9
2201.58	1788.18
2204.758	1772.3
2207.935	1836.94
2211.111	1770.03
2214.288	1761.59
2217.464	1788.25
2220.64	1747.11
2223.815	1788.4
2226.991	1732.43
2230.166	1744.58
2233.34	1785.49
2236.515	1795.35
2239.689	1850.62
2242.863	1808.77
2246.036	1852.39
2249.209	1836.89
2252.382	1849.38
2255.555	1861.91
2258.727	1824.2
2261.9	1847.34
2265.071	1840.83
2268.243	1840.34
2271.414	1799.54
2274.585	1791.63
2277.756	1843.69
2280.926	1808.56
2284.096	1826.52
2287.266	1773.35
2290.436	1813.21
2293.605	1827.56
2296.774	1863.23
2299.942	1863.37
2303.111	1873.63
2306.279	1921.66
2309.447	1905.87
2312.614	1881.37
2315.781	1900.7
2318.948	1885.95
2322.115	1917.72
2325.281	1828.8
2328.447	1832.74
2331.613	1805.44
2334.779	1804.14
2337.944	1796.88
2341.109	1800.5
2344.274	1793.73
2347.438	1764.64
2350.602	1785.03
2353.766	1790.66
2356.929	1782.54
2360.092	1811.41
2363.255	1790.32
2366.418	1771.82
2369.58	1808.4
2372.742	1750.9
2375.904	1729.99
2379.066	1720.96
2382.227	1742.33
2385.388	1706.86
2388.548	1669.55
2391.709	1701.45
2394.869	1700.74
2398.029	1734.27
2401.188	1721.61
2404.347	1707.06
2407.506	1734.7
2410.665	1782.86
2413.823	1762.61
2416.981	1749.17
2420.139	1759.67
2423.296	1796.46
2426.453	1772.33
2429.61	1788.12
2432.767	1775.23
2435.923	1812.27
2439.079	1757.33
2442.235	1784.65
2445.391	1734.26
2448.546	1777.82
2451.701	1804.03
2454.855	1806.68
2458.009	1823.08
2461.163	1810.55
2464.317	1788.63
2467.471	1808.02
2470.624	1830.61
2473.777	1828.87
2476.929	1842.83
2480.082	1862.63
2483.234	1842.55
2486.385	1787.9
2489.537	1783.23
2492.688	1781.31
2495.839	1796.57
2498.989	1810.32
2502.14	1801.01
2505.29	1798.66
2508.439	1817.01
2511.589	1770.42
2514.738	1767.01
2517.887	1782.84
2521.035	1853.58
2524.183	1809.82
2527.331	1802.06
2530.479	1800.84
2533.627	1800.87
