Data from C_1_HIR_IL_4N_Splice17_11-51-46-023.txt Node
Date: Sat Mar 14 11:51:46 EDT 2020
User: sa697716
Spectrometer: FLMS03696
Trigger mode: 0
Integration Time (sec): 3.180400E-1
Scans to average: 20
Electric dark correction enabled: true
Nonlinearity correction enabled: true
Boxcar width: 5
XAxis mode: Wavelengths
Number of Pixels in Spectrum: 2048
>>>>>Begin Spectral Data<<<<<
187.83	-229417.78
188.298	1768.37
188.766	955.37
189.233	798.31
189.701	1059.16
190.169	1455.79
190.636	543.98
191.104	443.08
191.571	85.55
192.039	-56.18
192.506	-83.99
192.974	286.83
193.441	-412
193.908	-55.49
194.375	-50.5
194.842	-61.14
195.31	-61.46
195.777	105.63
196.244	311.77
196.711	436.23
197.177	581.47
197.644	847.31
198.111	1471.22
198.578	2081.34
199.045	1708.05
199.511	2795.61
199.978	3266.43
200.445	2776.31
200.911	3072.22
201.378	3471.38
201.844	3180.69
202.31	5456.54
202.777	5661.1
203.243	3136.37
203.709	3002.97
204.176	3536.88
204.642	2926.64
205.108	2750.31
205.574	2270.46
206.04	2072.94
206.506	1923.01
206.972	1818.25
207.438	1770.55
207.903	2033.37
208.369	1791.43
208.835	1780.42
209.301	1863.31
209.766	1909.89
210.232	1904.75
210.697	2364.36
211.163	2950.35
211.628	4471.4
212.094	3744.24
212.559	4550.59
213.024	2808.89
213.49	3403.15
213.955	3323.74
214.42	3256.11
214.885	3034.33
215.35	2895.61
215.815	2745.31
216.28	2882.25
216.745	2349.23
217.21	2541.94
217.675	2329.26
218.14	2616.54
218.604	2913.57
219.069	3339.11
219.534	3497.71
219.998	4076.48
220.463	4925.71
220.927	6094.79
221.392	5729.81
221.856	5793.9
222.32	7286.09
222.785	8994.74
223.249	11320.43
223.713	12649.47
224.177	12600.11
224.642	16152.55
225.106	19841.93
225.57	21685.2
226.034	16082.5
226.497	24483.8
226.961	22168.76
227.425	25838.1
227.889	28651.03
228.353	28640.69
228.816	59056.24
229.28	56529.04
229.744	47690.12
230.207	28967.09
230.671	28505.65
231.134	47138.79
231.597	54300.95
232.061	54199.43
232.524	52750.48
232.987	36361.27
233.45	32705.46
233.914	29297.59
234.377	29993.69
234.84	27438.08
235.303	32344.63
235.766	36040.55
236.229	37216.89
236.691	23429.85
237.154	26305.42
237.617	19784.03
238.08	20257.69
238.542	23692.5
239.005	16967.71
239.468	16839.2
239.93	15847.83
240.393	14392.69
240.855	12637.76
241.317	12932.91
241.78	15723.65
242.242	16241.38
242.704	17541.29
243.166	15231.13
243.629	13816.17
244.091	15897.35
244.553	17411.03
245.015	18721.06
245.477	24218.58
245.939	35464.16
246.4	37638.96
246.862	36585.59
247.324	34453.41
247.786	38537.65
248.247	50564.63
248.709	52227.18
249.17	39071.86
249.632	36791.89
250.093	42651.54
250.555	36841.97
251.016	22469.69
251.477	21317.57
251.939	22993.03
252.4	24120.26
252.861	28704.43
253.322	26665.49
253.783	31753.35
254.244	41152.45
254.705	32440.65
255.166	28851.26
255.627	28395.27
256.088	40043.54
256.549	42536.49
257.009	36677.73
257.47	44547
257.931	36252.85
258.391	27212.01
258.852	28053.05
259.312	29414.11
259.773	36344.08
260.233	30685.77
260.694	25871.2
261.154	29360.26
261.614	23565.36
262.074	21080.75
262.534	21906.07
262.994	20660.63
263.455	27511.39
263.915	23168.78
264.374	21848.2
264.834	23857.1
265.294	26478.4
265.754	27427.41
266.214	25957.21
266.673	24325.9
267.133	30700.23
267.593	30459.32
268.052	37264.39
268.512	32438.56
268.971	39117.66
269.431	42904.41
269.89	38475.75
270.349	57691.47
270.809	64363.22
271.268	57927.25
271.727	130093.42
272.186	84308.88
272.645	63302.55
273.104	45637.52
273.563	66108.72
274.022	52054.14
274.481	44256.13
274.94	34061.82
275.399	25330.85
275.857	29534.02
276.316	39944.11
276.775	35524.72
277.233	34973.88
277.692	32724.23
278.15	37060.95
278.609	38137.78
279.067	35325.45
279.525	32828.94
279.984	42452.59
280.442	51023.99
280.9	50208.41
281.358	33021.77
281.816	30795.42
282.274	30171.03
282.732	31184.74
283.19	31351.21
283.648	27049.25
284.106	28819.39
284.564	29332.51
285.021	27188.59
285.479	20260.77
285.937	18465
286.394	16208.43
286.852	16672.37
287.309	17518.99
287.767	16919.18
288.224	16080.74
288.682	17663.59
289.139	19364.47
289.596	17701.42
290.053	18376.8
290.511	23178.87
290.968	28087.97
291.425	38106.05
291.882	31690.21
292.339	27587.94
292.796	27381.89
293.252	25794.02
293.709	20465.75
294.166	18335.76
294.623	20259.77
295.079	19460.01
295.536	19541.52
295.992	17729.88
296.449	17515.5
296.905	18206.16
297.362	17450.41
297.818	18338.15
298.274	19037.11
298.731	19376.6
299.187	19171.52
299.643	20589.09
300.099	24889.93
300.555	27304.9
301.011	22830.07
301.467	22007.28
301.923	25746.69
302.379	25119.93
302.835	24671.53
303.291	24683.52
303.746	28080.14
304.202	35461.24
304.658	35613.85
305.113	23961.03
305.569	23464.13
306.024	25005.9
306.479	23806.11
306.935	20063.5
307.39	21914.41
307.845	20232.91
308.301	20361.63
308.756	19877.93
309.211	19145.19
309.666	19601.7
310.121	24297.65
310.576	24658
311.031	24456.62
311.486	28018.47
311.94	28010.65
312.395	37486.92
312.85	70435.3
313.305	345883.14
313.759	1789928.42
314.214	129694.68
314.668	102675.48
315.123	86397.66
315.577	30982.67
316.032	27576.38
316.486	34569.73
316.94	27274
317.394	18981.9
317.849	14759.14
318.303	13965.2
318.757	13161.78
319.211	14539.74
319.665	12738.87
320.119	12915.55
320.572	18517.33
321.026	17272.51
321.48	14377.44
321.934	15681.03
322.387	15717.15
322.841	16970.25
323.295	15257.76
323.748	17572.44
324.202	17857.21
324.655	21436.99
325.108	29927.53
325.562	21160.91
326.015	25163.43
326.468	19006.15
326.921	21260.45
327.374	19824.63
327.827	20679.59
328.28	23421.72
328.733	15686.15
329.186	13793.45
329.639	13153.73
330.092	11074.66
330.545	10540.32
330.997	10639.9
331.45	11638.73
331.903	13634.03
332.355	23476.74
332.808	22807.63
333.26	18815.74
333.713	20472.5
334.165	20612.64
334.617	27552.99
335.069	22271.3
335.522	40323.49
335.974	44640.02
336.426	40810.3
336.878	28315.9
337.33	14339.05
337.782	13978.01
338.234	17507.88
338.686	20911.98
339.137	24807.82
339.589	23320.86
340.041	18301.55
340.493	15716.86
340.944	16108.72
341.396	17335.95
341.847	14572.69
342.299	17223.49
342.75	21054.31
343.201	18419.25
343.653	21213.73
344.104	26023.42
344.555	20503.68
345.006	31862.27
345.457	24377.55
345.908	19375.59
346.359	18237.72
346.81	14850.86
347.261	15642.19
347.712	15402.07
348.163	16516.8
348.613	16703.67
349.064	15568.75
349.515	13604.48
349.965	13955.71
350.416	16817.09
350.866	18427.84
351.317	20838.41
351.767	34464.89
352.217	43508.68
352.668	36093.04
353.118	32979.68
353.568	31804.9
354.018	25210.01
354.468	26625.91
354.918	19139.3
355.368	16732.83
355.818	23623.94
356.268	68000.5
356.718	284839.27
357.168	70913.91
357.617	35596.06
358.067	39644.32
358.517	37197.56
358.966	43633.56
359.416	48935.27
359.865	52855.77
360.315	63102.47
360.764	29470.4
361.213	16503.9
361.663	15650.12
362.112	19311.97
362.561	31167.48
363.01	23502.91
363.459	19772.75
363.908	21378.89
364.357	18191.4
364.806	30691.15
365.255	21044.33
365.703	19282.5
366.152	19315.2
366.601	15638.92
367.05	12690.51
367.498	11557.59
367.947	12087.3
368.395	12597.08
368.844	11189.49
369.292	13494.1
369.74	9345.8
370.189	14340.43
370.637	16847.17
371.085	14567.02
371.533	17806.86
371.981	17239.65
372.429	16458.01
372.877	17196.49
373.325	14397.04
373.773	14693.94
374.221	13130.84
374.669	16325.32
375.116	14154.67
375.564	14317.87
376.012	16078.94
376.459	13303.83
376.907	15938.21
377.354	19360.07
377.801	18130.66
378.249	20904.13
378.696	26825.8
379.143	32610.01
379.591	34930.13
380.038	59368.75
380.485	43188.07
380.932	46765.52
381.379	42947.4
381.826	31801.5
382.273	22698.34
382.72	19946.03
383.166	19554.91
383.613	12734.29
384.06	11530.36
384.506	13391.03
384.953	9878.6
385.4	9964.33
385.846	8755.91
386.292	8556.61
386.739	8383.13
387.185	8310.89
387.631	8325.78
388.078	8089.41
388.524	8683.06
388.97	8028.82
389.416	6710.65
389.862	7137.1
390.308	6767.17
390.754	6886.63
391.2	7495.28
391.645	7683.47
392.091	7354.37
392.537	7123.54
392.983	7135.76
393.428	7010.4
393.874	7516.86
394.319	7531.05
394.765	7142.39
395.21	7337.33
395.655	6866.51
396.101	6420.51
396.546	5785.86
396.991	5828.31
397.436	5385.28
397.881	5202.52
398.326	4919.35
398.771	4640.29
399.216	4052.24
399.661	3646.3
400.106	3630.55
400.551	3711.05
400.995	3321.62
401.44	3280.22
401.885	3079.57
402.329	3113.44
402.774	2974.62
403.218	2876.36
403.663	2765.4
404.107	2834.53
404.551	2845.41
404.995	2600.83
405.44	2497.45
405.884	2523.84
406.328	2436.59
406.772	2419.01
407.216	2193.03
407.66	2113.36
408.104	1996.25
408.547	1864.2
408.991	1800.77
409.435	1728.38
409.879	1699.8
410.322	1674.87
410.766	1614.69
411.209	1530
411.653	1468.76
412.096	1437.15
412.54	1436.01
412.983	1425.4
413.426	1426.95
413.869	1421.96
414.312	1393.99
414.756	1343.01
415.199	1279.96
415.642	1239.34
416.085	1240.17
416.527	1226.66
416.97	1243.57
417.413	1178.3
417.856	1163.23
418.298	1148.08
418.741	1140.37
419.184	1132.59
419.626	1174.03
420.069	1170.66
420.511	1175.82
420.953	1146.26
421.396	1135.4
421.838	1105.93
422.28	1129.17
422.722	1134.55
423.164	1148.11
423.606	1126.17
424.048	1125.62
424.49	1071.65
424.932	1067.21
425.374	1053.56
425.816	1073.15
426.258	1091.86
426.699	1101.51
427.141	1081.83
427.582	1096.28
428.024	1089.48
428.465	1083.38
428.907	1057.56
429.348	1044.2
429.789	1042.9
430.231	1018.63
430.672	1030.41
431.113	1005.13
431.554	990.28
431.995	967.72
432.436	934.23
432.877	914.04
433.318	896.47
433.759	890.37
434.2	889.11
434.64	879.57
435.081	883.71
435.522	839.08
435.962	809.17
436.403	791.93
436.843	802.96
437.284	785.57
437.724	765.2
438.164	768.21
438.604	753.08
439.045	722.95
439.485	692.37
439.925	677.69
440.365	660.62
440.805	649.18
441.245	641.29
441.685	618.95
442.125	613.5
442.564	615.67
443.004	600.09
443.444	596.72
443.883	597.37
444.323	592.9
444.762	591.86
445.202	598.67
445.641	611.94
446.081	607.36
446.52	610.32
446.959	602.93
447.398	588.26
447.837	581.43
448.276	570.63
448.716	576.65
449.154	578.31
449.593	564.11
450.032	561.94
450.471	548.84
450.91	549.13
451.349	547.75
451.787	545.29
452.226	553.4
452.664	552.42
453.103	553.27
453.541	550.57
453.98	550.14
454.418	552.78
454.856	543.43
455.295	541.21
455.733	543.52
456.171	544.66
456.609	546.28
457.047	546.28
457.485	554.54
457.923	555.88
458.361	548.47
458.798	550.73
459.236	549.92
459.674	552.81
460.111	556.24
460.549	552.16
460.987	550.75
461.424	547.7
461.862	545.17
462.299	535.66
462.736	534.43
463.173	537.31
463.611	532.15
464.048	531.89
464.485	536.2
464.922	531.47
465.359	528.33
465.796	523.5
466.233	520.26
466.67	515.52
467.106	515.06
467.543	509.95
467.98	503.29
468.416	489.42
468.853	484
469.29	470.97
469.726	466.26
470.162	453.64
470.599	445.22
471.035	440.4
471.471	429.37
471.907	425.99
472.344	423.4
472.78	423.24
473.216	427.88
473.652	422.85
474.088	420.9
474.523	418.84
474.959	422.23
475.395	418.49
475.831	415.53
476.266	416.66
476.702	414.39
477.138	407.9
477.573	405.39
478.008	403.37
478.444	405.38
478.879	408.07
479.314	408.92
479.75	407.4
480.185	408.75
480.62	411.39
481.055	413.08
481.49	417.1
481.925	423.23
482.36	431.41
482.795	442.52
483.229	453.27
483.664	461.74
484.099	463.08
484.534	471.04
484.968	474.95
485.403	475.96
485.837	474.88
486.271	472.33
486.706	472.94
487.14	467.42
487.574	460.25
488.009	455.65
488.443	451.86
488.877	456.8
489.311	457.45
489.745	463.25
490.179	468.26
490.613	477.19
491.046	481.76
491.48	484.58
491.914	484.61
492.348	488.31
492.781	491.5
493.215	493.52
493.648	493.76
494.082	497.42
494.515	497.02
494.948	502.62
495.382	505.45
495.815	508.66
496.248	513.54
496.681	523.46
497.114	531.63
497.547	538.95
497.98	548.34
498.413	554.29
498.846	562.43
499.279	569.59
499.711	572.86
500.144	576.14
500.577	584.99
501.009	593.51
501.442	601.75
501.874	603.76
502.306	607.66
502.739	614.85
503.171	626.46
503.603	631.01
504.036	640.35
504.468	646.65
504.9	656.7
505.332	664.3
505.764	670.01
506.196	677.4
506.627	690.78
507.059	703.35
507.491	712.07
507.923	713.74
508.354	727.47
508.786	738.22
509.217	755.19
509.649	770.31
510.08	788.61
510.512	805.43
510.943	821.11
511.374	833.52
511.805	852.84
512.237	872.22
512.668	902.73
513.099	928.96
513.53	955.38
513.961	977.18
514.391	1007.14
514.822	1038.88
515.253	1073.64
515.684	1100.11
516.114	1131.36
516.545	1155.17
516.975	1182.94
517.406	1203.29
517.836	1211.21
518.267	1224.63
518.697	1245.2
519.127	1256
519.558	1267.7
519.988	1275.64
520.418	1289.99
520.848	1309.93
521.278	1322.32
521.708	1343.77
522.138	1360.07
522.567	1391.84
522.997	1418.31
523.427	1436.42
523.857	1455.47
524.286	1469.08
524.716	1486.94
525.145	1507.48
525.575	1521.96
526.004	1539.99
526.433	1539.05
526.863	1542.35
527.292	1537.02
527.721	1544.63
528.15	1552.96
528.579	1556.61
529.008	1569.01
529.437	1592.76
529.866	1607.96
530.295	1626.38
530.724	1639.15
531.152	1665.43
531.581	1680.9
532.01	1699.38
532.438	1709.72
532.867	1725.97
533.295	1744.43
533.723	1751.95
534.152	1751.61
534.58	1753.32
535.008	1739.36
535.436	1742.8
535.865	1752.4
536.293	1767.32
536.721	1783.83
537.149	1807.72
537.576	1811.56
538.004	1824.88
538.432	1834.23
538.86	1833.94
539.287	1841.15
539.715	1855.83
540.143	1858.99
540.57	1855.59
540.998	1852
541.425	1829.56
541.852	1810.67
542.28	1809.86
542.707	1794.88
543.134	1781.31
543.561	1777.27
543.988	1770.87
544.415	1769.65
544.842	1764.18
545.269	1757.04
545.696	1760.39
546.123	1772.96
546.549	1762.91
546.976	1749.4
547.403	1748.26
547.829	1749.96
548.256	1752.8
548.682	1748.19
549.108	1740.6
549.535	1740.48
549.961	1742.01
550.387	1728.01
550.813	1722.36
551.24	1728.21
551.666	1728.72
552.092	1719.48
552.518	1712.05
552.943	1704.06
553.369	1710.32
553.795	1713.93
554.221	1714.03
554.646	1710.03
555.072	1719.86
555.498	1723.64
555.923	1730.39
556.349	1744.04
556.774	1750.02
557.199	1749.12
557.625	1754.38
558.05	1747.01
558.475	1755.87
558.9	1751.72
559.325	1740.94
559.75	1731.47
560.175	1722.7
560.6	1713.4
561.025	1707.48
561.449	1705.83
561.874	1709.6
562.299	1710.43
562.723	1715.36
563.148	1703.25
563.572	1704.37
563.997	1711.45
564.421	1712.48
564.846	1710.61
565.27	1711.42
565.694	1707.98
566.118	1715.44
566.542	1718.88
566.966	1709.11
567.39	1701.03
567.814	1687.43
568.238	1683.64
568.662	1684.85
569.086	1685.21
569.509	1688.43
569.933	1671.03
570.357	1659.83
570.78	1637.86
571.204	1622.46
571.627	1608.81
572.05	1603.2
572.474	1599.37
572.897	1584.68
573.32	1574.31
573.743	1561.56
574.166	1541.76
574.589	1539.18
575.012	1529.82
575.435	1525.28
575.858	1513.27
576.281	1501.29
576.704	1483.37
577.126	1469.07
577.549	1457.1
577.972	1444.69
578.394	1433.51
578.817	1424.54
579.239	1404.7
579.661	1388.9
580.084	1372.54
580.506	1358.8
580.928	1352.23
581.35	1340.88
581.772	1334.88
582.194	1321.16
582.616	1310.12
583.038	1295.29
583.46	1282.89
583.882	1277.46
584.303	1278.92
584.725	1272.57
585.147	1272.59
585.568	1279.36
585.99	1287.9
586.411	1292.28
586.833	1301.92
587.254	1300.21
587.675	1309.12
588.096	1318.34
588.518	1312.74
588.939	1296.87
589.36	1293.91
589.781	1283.03
590.202	1258.57
590.623	1249.57
591.043	1246.32
591.464	1234.85
591.885	1229.48
592.305	1224.89
592.726	1212.99
593.147	1213.77
593.567	1209.77
593.987	1203.47
594.408	1198.37
594.828	1195.7
595.248	1190.87
595.669	1175.56
596.089	1168.53
596.509	1163.54
596.929	1151.22
597.349	1150.79
597.769	1140.93
598.189	1134.21
598.608	1134.2
599.028	1134.37
599.448	1134.35
599.867	1123.51
600.287	1119.17
600.706	1115.32
601.126	1106.64
601.545	1105.07
601.965	1103.87
602.384	1098.65
602.803	1100.05
603.222	1095.67
603.641	1089.41
604.061	1084.64
604.48	1079.84
604.898	1084.1
605.317	1086.11
605.736	1086.26
606.155	1082.42
606.574	1072.38
606.992	1076.4
607.411	1071.45
607.829	1062.98
608.248	1059.44
608.666	1056.35
609.085	1054
609.503	1045.69
609.921	1039.63
610.339	1038.33
610.758	1035.99
611.176	1031.78
611.594	1021.47
612.012	1016.7
612.43	1016.39
612.847	1019.17
613.265	1018.07
613.683	1019.77
614.101	1018.97
614.518	1013.62
614.936	1004.97
615.353	992.48
615.771	987.56
616.188	986.77
616.606	982.03
617.023	975.81
617.44	963.84
617.857	956.84
618.274	948.74
618.691	942.35
619.108	934.26
619.525	928.46
619.942	931.77
620.359	932.86
620.776	927.36
621.192	924.52
621.609	922.13
622.026	925.18
622.442	928.68
622.859	930.51
623.275	924.75
623.691	928.23
624.108	935.9
624.524	945.93
624.94	944.84
625.356	952.34
625.772	961.12
626.188	969.24
626.604	971.19
627.02	967.49
627.436	965.49
627.852	970.78
628.268	979.32
628.683	972.53
629.099	965.73
629.514	962.19
629.93	964.72
630.345	967.5
630.761	964.39
631.176	966.11
631.591	961.33
632.007	956.85
632.422	954.53
632.837	945.61
633.252	942.84
633.667	935.02
634.082	926.45
634.497	915.44
634.911	900.44
635.326	895.1
635.741	880.85
636.155	871.56
636.57	870.31
636.984	868.3
637.399	868.36
637.813	866.27
638.228	862.16
638.642	863.93
639.056	854.56
639.47	852.07
639.884	844.93
640.298	838.54
640.712	836.33
641.126	824.7
641.54	816.23
641.954	809.61
642.368	799.07
642.781	793.38
643.195	779.89
643.609	777.82
644.022	771.7
644.436	767.27
644.849	757.44
645.262	746.64
645.676	747.04
646.089	741.8
646.502	730.81
646.915	725.46
647.328	712.06
647.741	709.28
648.154	700.35
648.567	698.11
648.98	688.74
649.393	688.04
649.805	686.14
650.218	679.77
650.631	668.85
651.043	664.24
651.456	659.37
651.868	659.74
652.28	669.86
652.693	677.88
653.105	681.19
653.517	686.21
653.929	685.02
654.341	687.29
654.753	679.64
655.165	682.75
655.577	679.75
655.989	676.46
656.401	669.5
656.813	646.03
657.224	632.77
657.636	612.75
658.047	600.93
658.459	588.66
658.87	582.16
659.282	573.49
659.693	560.47
660.104	550.82
660.515	541.87
660.926	539.85
661.338	536.66
661.749	531.32
662.159	525.93
662.57	523.66
662.981	520.76
663.392	516.58
663.803	519.48
664.213	517.7
664.624	515.26
665.035	518.37
665.445	510.45
665.855	507.37
666.266	503.55
666.676	503.14
667.086	497.77
667.497	498.19
667.907	495.73
668.317	490.7
668.727	490.82
669.137	492.4
669.547	490.94
669.956	493.3
670.366	495.91
670.776	498.05
671.186	501.31
671.595	504.45
672.005	507.53
672.414	508.17
672.824	509.25
673.233	512.37
673.642	515.73
674.052	519.21
674.461	521.96
674.87	525.99
675.279	526.04
675.688	527.32
676.097	529.54
676.506	528.14
676.915	538.63
677.323	539.9
677.732	539.91
678.141	540.03
678.549	533.49
678.958	533.32
679.366	533.43
679.775	536.34
680.183	544.62
680.592	548.43
681	553.55
681.408	548.45
681.816	554.11
682.224	559.73
682.632	565.9
683.04	584.78
683.448	601.78
683.856	621.43
684.264	644.85
684.671	665.36
685.079	692.17
685.487	720.8
685.894	762.32
686.302	794.99
686.709	821.41
687.116	852.33
687.524	880.95
687.931	905.26
688.338	925.32
688.745	944.01
689.152	965.44
689.559	996.04
689.966	1027.1
690.373	1045.66
690.78	1078.42
691.187	1129.37
691.593	1173.06
692	1210.05
692.407	1262.26
692.813	1327.95
693.22	1383.59
693.626	1440.54
694.032	1490.98
694.439	1561.68
694.845	1620.91
695.251	1693.29
695.657	1760.82
696.063	1853.57
696.469	1929.41
696.875	2003.2
697.281	2053.43
697.687	2112.27
698.093	2166.1
698.498	2248.67
698.904	2319.13
699.31	2415.5
699.715	2491.69
700.12	2591.59
700.526	2629.53
700.931	2712.26
701.337	2780.29
701.742	2831.18
702.147	2928.68
702.552	2976.39
702.957	3051.81
703.362	3089.83
703.767	3136.16
704.172	3194.66
704.577	3168.86
704.981	3232.05
705.386	3266.19
705.791	3276.24
706.195	3367.41
706.6	3392.52
707.004	3489.23
707.408	3478.37
707.813	3523.67
708.217	3529.31
708.621	3547.21
709.025	3664.54
709.43	3683.22
709.834	3761.28
710.237	3850.29
710.641	3852.87
711.045	3894.04
711.449	3904.19
711.853	3949.22
712.256	4010.23
712.66	4065.2
713.064	4160.19
713.467	4219.64
713.87	4356.05
714.274	4423.98
714.677	4555.37
715.08	4745.05
715.484	4940.37
715.887	5178.04
716.29	5411.59
716.693	5654.5
717.096	5933.44
717.499	6095.43
717.901	6140.68
718.304	6186.07
718.707	6228.97
719.109	6134.04
719.512	6113.2
719.915	5977.81
720.317	5926.32
720.719	5990.3
721.122	5971.7
721.524	5930.71
721.926	5899.29
722.328	6023.35
722.731	6024.8
723.133	6066.76
723.535	6299.68
723.937	6334.43
724.338	6403.06
724.74	6463.88
725.142	6376.33
725.544	6384.59
725.945	6418.21
726.347	6424.27
726.748	6424.81
727.15	6447.81
727.551	6413.33
727.952	6388.39
728.354	6365.44
728.755	6377.82
729.156	6335.65
729.557	6353.61
729.958	6217.88
730.359	6165.76
730.76	6150.91
731.161	6088.76
731.562	6066.68
731.962	6078.82
732.363	6010.48
732.763	5940.78
733.164	5988.22
733.564	5914.28
733.965	5809.67
734.365	5774.18
734.766	5810.96
735.166	5767
735.566	5705.8
735.966	5679.84
736.366	5676.19
736.766	5607.79
737.166	5648.63
737.566	5604.87
737.966	5580.52
738.365	5626.28
738.765	5622.27
739.165	5537.32
739.564	5511.68
739.964	5570.51
740.363	5519.24
740.763	5518.17
741.162	5502.95
741.561	5466.84
741.96	5410.77
742.36	5434.46
742.759	5442
743.158	5490.66
743.557	5513.33
743.955	5561.67
744.354	5507.72
744.753	5576.39
745.152	5528.36
745.55	5597.67
745.949	5591.47
746.348	5595.7
746.746	5618.46
747.144	5574.39
747.543	5547.6
747.941	5603.25
748.339	5521.59
748.737	5511.6
749.136	5503.62
749.534	5582.68
749.932	5551.77
750.33	5579.5
750.727	5647.8
751.125	5618.88
751.523	5599.77
751.921	5650.6
752.318	5611.82
752.716	5679.43
753.113	5700.23
753.511	5730.7
753.908	5729.45
754.305	5708.01
754.703	5783.23
755.1	5853.37
755.497	5926.11
755.894	6151.93
756.291	6366.19
756.688	6756.23
757.085	7276.04
757.482	8004.77
757.878	8797.28
758.275	9522.51
758.672	10513.59
759.068	11318.46
759.465	12477.33
759.861	13968.99
760.258	15699.22
760.654	16596.52
761.05	16467.57
761.447	15724.85
761.843	14646.55
762.239	13531.18
762.635	13023.87
763.031	12542.81
763.427	11846.78
763.822	11107.74
764.218	10372.02
764.614	9426.18
765.01	8788.96
765.405	8380.39
765.801	8065.19
766.196	7663.08
766.592	7443.33
766.987	7070.35
767.382	6816.43
767.778	6709.8
768.173	6555.8
768.568	6473.12
768.963	6324.15
769.358	6348.22
769.753	6291.05
770.148	6192.01
770.542	6193.29
770.937	6157.76
771.332	6266.09
771.726	6292.16
772.121	6216.84
772.515	6282.84
772.91	6265.25
773.304	6349.18
773.699	6270.07
774.093	6335.9
774.487	6403.63
774.881	6455.89
775.275	6448.49
775.669	6401.3
776.063	6448.83
776.457	6494.58
776.851	6407.61
777.245	6398.26
777.638	6440.2
778.032	6576.56
778.425	6531.76
778.819	6580.61
779.212	6532.38
779.606	6481.88
779.999	6503.88
780.392	6486.78
780.786	6584.57
781.179	6606.53
781.572	6656.81
781.965	6673
782.358	6604.58
782.751	6672.9
783.143	6615.42
783.536	6699.42
783.929	6753.9
784.322	6888.84
784.714	6927.89
785.107	6920.9
785.499	7004.76
785.891	6974.94
786.284	6948.16
786.676	7114.5
787.068	7088.77
787.46	7151.02
787.852	7177.03
788.245	7276.49
788.636	7310.72
789.028	7387.95
789.42	7429.53
789.812	7441.38
790.204	7559.83
790.595	7674.07
790.987	7444.53
791.378	7471.66
791.77	7623.73
792.161	7780.21
792.553	7846.29
792.944	7716.31
793.335	7637.29
793.726	7725.71
794.117	7833.01
794.508	7993.04
794.899	7961.3
795.29	8125.87
795.681	8193.52
796.072	8027.49
796.463	7797.9
796.853	7805.77
797.244	7985.21
797.634	8022.13
798.025	8018.43
798.415	8031.29
798.806	8138.9
799.196	8233.81
799.586	8292.66
799.976	8247.63
800.366	8516.73
800.756	8812.58
801.146	8769.31
801.536	8809
801.926	8892.18
802.316	8926.37
802.706	9008.77
803.095	8861.28
803.485	8982.35
803.874	9029.13
804.264	9334.89
804.653	9301.13
805.043	9467.59
805.432	9593.14
805.821	9592.74
806.21	9620.71
806.599	9757.27
806.988	9809.7
807.377	9938.6
807.766	10097.24
808.155	10433.04
808.544	10120.73
808.933	10137.06
809.321	10107.55
809.71	10456.93
810.098	10641.67
810.487	11184.34
810.875	11742.97
811.264	11772.51
811.652	12099.76
812.04	12260.89
812.428	12447.9
812.816	13346.41
813.204	13836.4
813.592	14491.81
813.98	14888.08
814.368	14775.51
814.756	15335.74
815.144	15246.76
815.531	15784.93
815.919	15703.76
816.306	16062.83
816.694	15699.66
817.081	15758.56
817.469	16159.62
817.856	16152.33
818.243	16460.87
818.63	16917.72
819.017	16420.88
819.404	16488.07
819.791	16933.68
820.178	17655.43
820.565	17952.2
820.952	19034.38
821.339	18452.4
821.725	18664.89
822.112	17793.42
822.498	17744.35
822.885	17895.13
823.271	17782.35
823.657	18269.8
824.044	18270.57
824.43	18359.74
824.816	18315.49
825.202	17804
825.588	18990.09
825.974	19013
826.36	19616.85
826.746	19658.25
827.132	20071.58
827.517	20049.45
827.903	19134.54
828.289	19184.14
828.674	18270.35
829.06	18153.62
829.445	18624.02
829.83	19041.82
830.216	19608.23
830.601	20034.1
830.986	19557.09
831.371	19399.97
831.756	20051.17
832.141	19555.96
832.526	19554.64
832.911	19881.03
833.295	19746.82
833.68	20301.97
834.065	19579.87
834.449	18512.4
834.834	18435.04
835.218	18435.73
835.603	18845.19
835.987	18598.04
836.371	19573.85
836.755	19458.59
837.139	19945.72
837.524	20242.16
837.908	20041.28
838.291	20120.28
838.675	20204.55
839.059	20452.86
839.443	20449
839.827	20179.32
840.21	20746.4
840.594	20576.72
840.977	20822.29
841.361	20789.2
841.744	21228.66
842.127	21041.61
842.511	21327.48
842.894	22028.75
843.277	22471.01
843.66	23106.71
844.043	23197.42
844.426	22256.51
844.809	21900.15
845.191	21929.51
845.574	21396.84
845.957	20961.29
846.339	20832.99
846.722	20219.93
847.104	20301.09
847.487	20106.32
847.869	20116.66
848.252	20448.38
848.634	20836.27
849.016	21133.33
849.398	21277.96
849.78	22266.88
850.162	22280.14
850.544	22776.46
850.926	23513.35
851.307	23407.04
851.689	23726.13
852.071	24261.56
852.452	24647.08
852.834	24628.55
853.215	25092.83
853.597	25271.7
853.978	25617.86
854.359	26153.62
854.741	24979.1
855.122	24854.41
855.503	24515.22
855.884	24683.1
856.265	24605.41
856.646	24738.96
857.026	24280.37
857.407	24214.02
857.788	24408.74
858.169	24750.78
858.549	23747.67
858.93	24479.48
859.31	24542.16
859.69	24784.66
860.071	24292.63
860.451	24037.27
860.831	23161.18
861.211	24506.93
861.591	25143.96
861.971	25114.15
862.351	25337.26
862.731	25784.53
863.111	26090.61
863.491	26473.5
863.87	27500.3
864.25	27923.75
864.629	27455.62
865.009	28049.2
865.388	29048.08
865.768	31133.59
866.147	31009.45
866.526	29288
866.905	29643.11
867.284	31300.12
867.663	29729.52
868.042	28486.61
868.421	28381.27
868.8	28855.96
869.179	29148.23
869.558	27449.56
869.936	25296.23
870.315	25744.86
870.693	26360.62
871.072	28432.11
871.45	27083.6
871.828	27412.64
872.207	28825.32
872.585	28391.05
872.963	29158.18
873.341	28160.34
873.719	27832.73
874.097	27499.21
874.475	28012.46
874.853	28678.22
875.23	27477.04
875.608	28632.78
875.986	30980.09
876.363	29636.91
876.741	30552.31
877.118	29779.13
877.495	31236.62
877.873	31750.22
878.25	33415.33
878.627	32061.84
879.004	32509.32
879.381	32365.76
879.758	31515.87
880.135	29343.76
880.512	31010.43
880.889	30187.4
881.265	29882.62
881.642	29643.03
882.019	30138.31
882.395	29513.49
882.772	30687.01
883.148	29349.28
883.524	29218.41
883.901	29041.61
884.277	29489.46
884.653	29316.64
885.029	30159.79
885.405	33399.04
885.781	33119.87
886.157	31777.18
886.532	32171.74
886.908	32145.41
887.284	35744.47
887.659	36917.72
888.035	38073.07
888.411	39031.74
888.786	39544.55
889.161	40906.17
889.537	40150.1
889.912	41441.98
890.287	41384.88
890.662	42454.59
891.037	41690.56
891.412	38868.02
891.787	38475.41
892.162	37125.49
892.536	37998.63
892.911	36559.3
893.286	35788.63
893.66	34339.28
894.035	35218.69
894.409	38353.04
894.784	36811.54
895.158	37437.57
895.532	39663.96
895.906	40744.81
896.281	41727.02
896.655	41066.45
897.029	46932.58
897.402	48887.6
897.776	54431.19
898.15	54250.05
898.524	53659.11
898.898	54358.54
899.271	60822.89
899.645	52696.13
900.018	50634.59
900.392	52487.59
900.765	52905.32
901.138	48956.89
901.511	48199.16
901.884	44257.88
902.258	40818.88
902.631	42198.8
903.003	48572.69
903.376	43833.25
903.749	49128.35
904.122	52591.02
904.495	57912.1
904.867	58663.18
905.24	50934.8
905.612	47419.75
905.985	48488.66
906.357	50715.22
906.729	48377.98
907.102	41325.42
907.474	39747.09
907.846	39993.19
908.218	39454.98
908.59	34855.12
908.962	33709.51
909.334	36304.8
909.705	38136.24
910.077	37025.65
910.449	38545.97
910.82	39632.39
911.192	43606.07
911.563	45285.16
911.935	48496.73
912.306	48558.67
912.677	50134.06
913.048	49616.59
913.419	53817.37
913.79	54128.03
914.161	58055.22
914.532	55455.4
914.903	50950.58
915.274	48376.36
915.645	47694.08
916.015	41937.64
916.386	39965.67
916.756	42538.9
917.127	43882.18
917.497	39214.07
917.868	42669.55
918.238	40526.51
918.608	41680.28
918.978	42547.33
919.348	45080.51
919.718	46556.73
920.088	44856.45
920.458	46601.23
920.828	49054.17
921.198	46502.65
921.567	49685.53
921.937	38483.03
922.306	38845.26
922.676	41892.99
923.045	34925.54
923.415	33165.8
923.784	30207.68
924.153	31047.92
924.522	31022.31
924.891	29162.3
925.26	31234.64
925.629	30469.56
925.998	35006.8
926.367	34181.97
926.736	32544.66
927.104	38786.33
927.473	41691.09
927.842	50356.35
928.21	49905.34
928.578	52464.05
928.947	49609.58
929.315	49889.07
929.683	58543.65
930.051	59050.52
930.42	68568.23
930.788	58630.36
931.156	58176.89
931.523	54533.75
931.891	50388.77
932.259	48366.03
932.627	56059.05
932.994	79308.44
933.362	65563.1
933.729	56940.38
934.097	54506.4
934.464	46135
934.831	53206.5
935.199	52439.59
935.566	50836.15
935.933	51564.72
936.3	62481.26
936.667	48670.32
937.034	43827.57
937.401	43314.08
937.767	37373.64
938.134	33264.98
938.501	46880
938.867	49987.8
939.234	84552.49
939.6	72204.68
939.967	79444.31
940.333	53134.59
940.699	45191.62
941.065	36362.43
941.431	47719.58
941.798	45959.55
942.163	60370.49
942.529	37718.58
942.895	34741.65
943.261	22462.18
943.627	29461.9
943.992	25795.84
944.358	25870.5
944.723	25966.07
945.089	25323.27
945.454	23391.46
945.82	24994.91
946.185	23992.9
946.55	27829.97
946.915	24967.78
947.28	29277.53
947.645	25800.85
948.01	23828.14
948.375	24812.93
948.74	29762.05
949.104	34651.79
949.469	50090.97
949.834	88521.96
950.198	83897.62
950.562	50228.34
950.927	41804.2
951.291	50324.64
951.655	42839.59
952.02	40236.72
952.384	30447.27
952.748	26492.75
953.112	25850.08
953.476	22452.62
953.839	20770.71
954.203	20564.93
954.567	25743.63
954.931	40563.03
955.294	34716.68
955.658	34909.3
956.021	59330.19
956.385	100584.34
956.748	148392.99
957.111	230236.28
957.474	258694.69
957.837	291250.18
958.2	220460.47
958.563	79236.01
958.926	53564.43
959.289	81234.16
959.652	90803.99
960.015	68165.51
960.377	97896.55
960.74	111836.63
961.102	192924.05
961.465	207213.74
961.827	110713.94
962.189	212469.58
962.552	147452.19
962.914	118255.76
963.276	76757.38
963.638	63356.76
964	62689.1
964.362	42344.56
964.724	40915.82
965.085	29201.53
965.447	23917.4
965.809	27327.75
966.17	27369.7
966.532	29614.22
966.893	27153.79
967.255	24725.6
967.616	29233.16
967.977	23409.55
968.338	25572.94
968.699	20994.89
969.061	21001.89
969.421	21169.45
969.782	23736.17
970.143	20045.34
970.504	20748.77
970.865	23606.68
971.225	24115.2
971.586	23584.76
971.946	33611.25
972.307	29194.45
972.667	38186.09
973.027	39284.28
973.388	47567.38
973.748	32361.59
974.108	35211.6
974.468	47647.15
974.828	36675.43
975.188	28245.25
975.548	25940.06
975.907	21807.82
976.267	24424.45
976.627	20503.02
976.986	21275.71
977.346	20326.51
977.705	19569.87
978.064	17827.35
978.424	14835.66
978.783	15368.05
979.142	17537.24
979.501	16772.29
979.86	17719.51
980.219	17095.64
980.578	22101.61
980.937	24757.1
981.296	22050.35
981.654	22675.19
982.013	35311.02
982.371	45795.66
982.73	42774.78
983.088	48409.55
983.447	51726.88
983.805	73919.76
984.163	154572.54
984.521	171497.73
984.879	251457.05
985.237	-408230.45
985.595	393763.38
985.953	97956.94
986.311	56596.7
986.669	32828.87
987.026	28326.51
987.384	38118.51
987.741	39415.73
988.099	28104.36
988.456	22379.64
988.814	20943.04
989.171	18219.15
989.528	17989.26
989.885	18980.82
990.242	15017.69
990.599	18726.28
990.956	15339.25
991.313	10714.23
991.67	8787.57
992.027	9302.08
992.383	8249.21
992.74	7220.9
993.096	7568.81
993.453	7839.69
993.809	8124.82
994.165	10820.31
994.522	9873.84
994.878	10879.67
995.234	13639.45
995.59	13468.74
995.946	12787.91
996.302	14624.29
996.658	16946.85
997.013	18680.1
997.369	22123.96
997.725	28314.08
998.08	18372.49
998.436	28433.26
998.791	39161.9
999.147	39090.81
999.502	42622.1
999.857	30960.31
1000.212	50341.91
1000.567	71587.94
1000.922	41294.41
1001.277	26257.2
1001.632	19502.34
1001.987	25114.72
1002.342	17992.86
1002.696	14373.97
1003.051	11468.27
1003.406	13882.35
1003.76	13825.77
1004.114	13645.25
1004.469	11463.5
1004.823	9511.09
1005.177	10285.79
1005.531	8143.89
1005.885	7223.03
1006.239	8162.95
1006.593	10252.43
1006.947	13715.99
1007.301	10300.54
1007.655	11238.42
1008.008	8240.5
1008.362	9267.32
1008.715	13216.21
1009.069	12006.24
1009.422	18028.25
1009.776	36115.42
1010.129	23980.09
1010.482	20005.22
1010.835	17003.13
1011.188	35454.44
1011.541	33336.73
1011.894	-204319.22
1012.247	601733.43
1012.6	40892.48
1012.952	25699.24
1013.305	13264.44
1013.657	9574.45
1014.01	9057.91
1014.362	7497.23
1014.715	6633.09
1015.067	5761.38
1015.419	5636.15
1015.771	4974.26
1016.123	4420.46
1016.475	4542.82
1016.827	4850.44
1017.179	5209.13
1017.531	5248.56
1017.883	5361.63
1018.234	5152.35
1018.586	6486.47
1018.938	6833.88
1019.289	9412.54
1019.64	10834.32
1019.992	10110.67
1020.343	9255.45
1020.694	7278.07
1021.045	6429.64
1021.396	7354.23
1021.747	7891.87
1022.098	9499.12
1022.449	6901.81
1022.8	6451.12
1023.151	4486.4
1023.501	3958.9
1023.852	4291.79
1024.202	4437.04
1024.553	4872.39
1024.903	4751.81
1025.253	4042.48
1025.604	3637.95
1025.954	4526.06
1026.304	5529.41
1026.654	6453.48
1027.004	9475.45
1027.354	15339.04
1027.703	14387.56
1028.053	19053.63
1028.403	27680.8
1028.753	40469.46
1029.102	55292.43
1029.452	284356.55
1029.801	12251.6
1030.15	7912.19
1030.499	6681.36
897.758	2102.51
901.051	2032.36
904.343	2067.55
907.636	2075.51
910.928	2137.97
914.22	2059.61
917.511	2062.56
920.803	2111.22
924.094	2106.15
927.384	2113.46
930.675	2077.37
933.965	2042.58
937.255	2075.64
940.544	2045.39
943.834	2038.54
947.123	1980.1
950.411	2066.44
953.7	2051.4
956.988	2036.04
960.276	1971.57
963.563	2016.97
966.851	2024.8
970.138	2065.25
973.424	2067.68
976.711	2021.89
979.997	2072.34
983.283	2113.69
986.568	2049.56
989.853	2036.86
993.138	2063.21
996.423	2151.89
999.708	2110.93
1002.992	2144.82
1006.275	2061.5
1009.559	2068.25
1012.842	2164.65
1016.125	2120.99
1019.408	2102.86
1022.69	2154.48
1025.972	2189.9
1029.254	2166.22
1032.536	2131.88
1035.817	2140.63
1039.098	2111.13
1042.379	2157.53
1045.659	2181.53
1048.939	2134.17
1052.219	2140.02
1055.498	2129.39
1058.778	2128.23
1062.057	2105.46
1065.335	2129.71
1068.614	2139.53
1071.892	2139.52
1075.17	2189.71
1078.447	2194.67
1081.724	2193.12
1085.001	2216.38
1088.278	2194.13
1091.554	2200.33
1094.83	2194.16
1098.106	2230.91
1101.382	2259.51
1104.657	2259.28
1107.932	2259.11
1111.206	2238.81
1114.481	2192.03
1117.755	2191.32
1121.029	2186.4
1124.302	2248.34
1127.575	2216.88
1130.848	2215.62
1134.121	2185.89
1137.393	2151.81
1140.665	2207.78
1143.937	2187.94
1147.208	2134.82
1150.48	2197.8
1153.75	2184.03
1157.021	2181.43
1160.291	2159.99
1163.561	2215.12
1166.831	2179.21
1170.101	2207.27
1173.37	2161.83
1176.639	2122.29
1179.907	2163.24
1183.176	2189.56
1186.444	2190.36
1189.711	2213.96
1192.979	2240.67
1196.246	2198.27
1199.513	2209.79
1202.78	2218.21
1206.046	2226.01
1209.312	2254.77
1212.578	2271.28
1215.843	2242.64
1219.108	2205.91
1222.373	2228.26
1225.638	2205.7
1228.902	2197.22
1232.166	2149.53
1235.43	2139.05
1238.693	2163.68
1241.956	2152.61
1245.219	2205.39
1248.482	2186.43
1251.744	2184.19
1255.006	2301.38
1258.268	2247.94
1261.529	2205.36
1264.79	2205.78
1268.051	2301.64
1271.312	2311.14
1274.572	2283.73
1277.832	2273.99
1281.092	2249.85
1284.351	2243.17
1287.61	2228.38
1290.869	2168.73
1294.128	2168.65
1297.386	2208.9
1300.644	2204.3
1303.902	2214.87
1307.159	2082.26
1310.416	2132.21
1313.673	2160.7
1316.93	2161.73
1320.186	2191.06
1323.442	2220.73
1326.697	2223.88
1329.953	2194.38
1333.208	2233.16
1336.463	2201.26
1339.717	2166.5
1342.972	2268.12
1346.226	2239.22
1349.479	2190.32
1352.733	2171.98
1355.986	2174.69
1359.238	2155.99
1362.491	2162.08
1365.743	2162.14
1368.995	2149.17
1372.247	2161.69
1375.498	2181.79
1378.749	2228.97
1382	2176.6
1385.251	2209.19
1388.501	2158.71
1391.751	2161.87
1395	2126.65
1398.25	2150.15
1401.499	2173.82
1404.748	2130.18
1407.996	2105.72
1411.244	2094.8
1414.492	2079.1
1417.74	2064.49
1420.987	2067.36
1424.234	2128.34
1427.481	2087.64
1430.728	2146.77
1433.974	2119.94
1437.22	2117.39
1440.465	2111.58
1443.711	2116.97
1446.956	2138.13
1450.201	2107.43
1453.445	2149.53
1456.689	2141.76
1459.933	2150.23
1463.177	2190.14
1466.42	2164.48
1469.663	2149.96
1472.906	2165.07
1476.148	2215.05
1479.391	2181.42
1482.633	2157.46
1485.874	2185.81
1489.115	2194.67
1492.356	2175.85
1495.597	2159.05
1498.838	2150.78
1502.078	2136.85
1505.318	2111.86
1508.557	2144.46
1511.797	2140.57
1515.036	2191.92
1518.274	2162.87
1521.513	2112.24
1524.751	2123.38
1527.989	2148.56
1531.227	2166.63
1534.464	2186.42
1537.701	2178.07
1540.938	2189.44
1544.174	2139.09
1547.41	2128.09
1550.646	2163.99
1553.882	2216.2
1557.117	2274.27
1560.352	2282.38
1563.587	2247.34
1566.821	2214.77
1570.055	2227.5
1573.289	2210.58
1576.523	2267.58
1579.756	2283.38
1582.989	2306.17
1586.222	2269.39
1589.454	2295.09
1592.686	2284.19
1595.918	2310
1599.15	2310.23
1602.381	2351.44
1605.612	2336.35
1608.843	2428.9
1612.073	2352.18
1615.303	2341.51
1618.533	2341.58
1621.762	2335.74
1624.992	2309.54
1628.221	2313.33
1631.449	2303.83
1634.678	2324.99
1637.906	2294.51
1641.134	2319.73
1644.361	2286.6
1647.588	2276.77
1650.815	2298.42
1654.042	2259.07
1657.269	2290.82
1660.495	2273.93
1663.72	2253.7
1666.946	2222.83
1670.171	2202.1
1673.396	2172.11
1676.621	2154.37
1679.845	2146.81
1683.069	2153.13
1686.293	2182.07
1689.517	2175.38
1692.74	2127.12
1695.963	2147.57
1699.185	2191.5
1702.408	2162.42
1705.63	2189.88
1708.852	2213.22
1712.073	2183.29
1715.294	2197.68
1718.515	2237.46
1721.736	2197.01
1724.956	2174.34
1728.176	2194.96
1731.396	2217.73
1734.616	2201.87
1737.835	2241.08
1741.054	2211.07
1744.272	2201.39
1747.491	2243.49
1750.709	2260.03
1753.927	2213.46
1757.144	2237.01
1760.361	2299.07
1763.578	2270.26
1766.795	2219.36
1770.011	2207.38
1773.227	2230.11
1776.443	2270.06
1779.658	2312.92
1782.874	2249.56
1786.089	2248.67
1789.303	2250.7
1792.518	2245.14
1795.732	2229.96
1798.945	2248.27
1802.159	2287.59
1805.372	2235.86
1808.585	2231.92
1811.797	2232.38
1815.01	2248.01
1818.222	2274.21
1821.434	2226.32
1824.645	2266.91
1827.856	2280.43
1831.067	2310.13
1834.278	2244.13
1837.488	2229.59
1840.698	2344.48
1843.908	2288.32
1847.117	2257.42
1850.326	2189.45
1853.535	2244.55
1856.744	2283.44
1859.952	2207.42
1863.16	2208.47
1866.368	2219.44
1869.575	2331.18
1872.782	2210
1875.989	2147.3
1879.196	2187.54
1882.402	2179.99
1885.608	2208.12
1888.814	2151.96
1892.019	2062.96
1895.224	2111.64
1898.429	2070.83
1901.634	2054.61
1904.838	2029.76
1908.042	2087.07
1911.246	2097
1914.449	2065.72
1917.652	2044.47
1920.855	2028.68
1924.058	2046.75
1927.26	2091.21
1930.462	2111.64
1933.664	2155.18
1936.865	2100.18
1940.066	2117.6
1943.267	2063.46
1946.467	2073.44
1949.668	2089.41
1952.868	2158.16
1956.067	2148.99
1959.267	2096.75
1962.466	2117.42
1965.665	2099.59
1968.863	2094.35
1972.061	2095.66
1975.259	2087.89
1978.457	2161.33
1981.654	2122.42
1984.852	2126.25
1988.048	2082.95
1991.245	2070.65
1994.441	2158.13
1997.637	2113.72
2000.833	2095.58
2004.028	2130.34
2007.223	2191.9
2010.418	2182.34
2013.613	2131.93
2016.807	2128.07
2020.001	2122.28
2023.194	2141.84
2026.388	2126.9
2029.581	2070.08
2032.774	2135.44
2035.966	2147
2039.158	2094.54
2042.35	2112.69
2045.542	2040.57
2048.733	2118.33
2051.924	2107.12
2055.115	2122.73
2058.306	2089.7
2061.496	2144.06
2064.686	2191.12
2067.875	2097.92
2071.065	2099.36
2074.254	2116.68
2077.442	2072.25
2080.631	2152.51
2083.819	2091.58
2087.007	2085.02
2090.195	2072.19
2093.382	2085.91
2096.569	2069.64
2099.756	2033.96
2102.942	2083.91
2106.128	2100.57
2109.314	2088.36
2112.5	2078.45
2115.685	2043.09
2118.87	2050.09
2122.055	2109.39
2125.239	2090.38
2128.424	2078.35
2131.608	2130.79
2134.791	2115.37
2137.974	2150.65
2141.157	2140.6
2144.34	2114.34
2147.523	2101.29
2150.705	2131.15
2153.887	2096.78
2157.068	2073.95
2160.25	2049.71
2163.431	2075.01
2166.611	2047.61
2169.792	2069.92
2172.972	1984.64
2176.152	2026.59
2179.331	2054.7
2182.511	2058.69
2185.69	2080.27
2188.868	2086.69
2192.047	2117.66
2195.225	2139.46
2198.403	2082.79
2201.58	2071.7
2204.758	2055.93
2207.935	2128.91
2211.111	2052.7
2214.288	2040.29
2217.464	2075.25
2220.64	2027.89
2223.815	2077.38
2226.991	2010.94
2230.166	2025.43
2233.34	2072.39
2236.515	2081.46
2239.689	2147.7
2242.863	2096.55
2246.036	2148.7
2249.209	2128.54
2252.382	2143.56
2255.555	2154.43
2258.727	2107.41
2261.9	2133.45
2265.071	2125.61
2268.243	2122.79
2271.414	2075.95
2274.585	2058.83
2277.756	2119.82
2280.926	2075.13
2284.096	2105.13
2287.266	2039.8
2290.436	2083.43
2293.605	2100.47
2296.774	2140.67
2299.942	2145.33
2303.111	2158.11
2306.279	2209.12
2309.447	2195.7
2312.614	2163.38
2315.781	2190.72
2318.948	2167.24
2322.115	2204.24
2325.281	2106.3
2328.447	2112.43
2331.613	2082.59
2334.779	2074.21
2337.944	2070.3
2341.109	2071.22
2344.274	2060.58
2347.438	2030.09
2350.602	2049.24
2353.766	2055.88
2356.929	2044.95
2360.092	2083.23
2363.255	2056.67
2366.418	2027.65
2369.58	2087.12
2372.742	1978.44
2375.904	1968.65
2379.066	1954.58
2382.227	1979.63
2385.388	1944.13
2388.548	1899.94
2391.709	1937.45
2394.869	1929.1
2398.029	1974.7
2401.188	1967.38
2404.347	1936.81
2407.506	2002.24
2410.665	2044.29
2413.823	2027.64
2416.981	2009.74
2420.139	2022.05
2423.296	2060.05
2426.453	2035.56
2429.61	2054.1
2432.767	2032.97
2435.923	2074.61
2439.079	2016.5
2442.235	2047.51
2445.391	1991.24
2448.546	2035.34
2451.701	2066.25
2454.855	2066.39
2458.009	2092.42
2461.163	2076.99
2464.317	2051.79
2467.471	2075.58
2470.624	2100.98
2473.777	2097.4
2476.929	2115.33
2480.082	2138.14
2483.234	2113.75
2486.385	2053.72
2489.537	2048.09
2492.688	2040.37
2495.839	2060.44
2498.989	2074.13
2502.14	2061.08
2505.29	2054.7
2508.439	2074.96
2511.589	2018.91
2514.738	2018.75
2517.887	2038.53
2521.035	2116.18
2524.183	2070.14
2527.331	2061
2530.479	2055.63
2533.627	2056.89
