Data from C_1_DIV_WI_4N_Splice17_11-47-57-478.txt Node
Date: Sat Mar 14 11:47:57 EDT 2020
User: sa697716
Spectrometer: FLMS03696
Trigger mode: 0
Integration Time (sec): 3.180400E-1
Scans to average: 20
Electric dark correction enabled: true
Nonlinearity correction enabled: true
Boxcar width: 5
XAxis mode: Wavelengths
Number of Pixels in Spectrum: 2048
>>>>>Begin Spectral Data<<<<<
187.83	-217170.38
188.298	1575.79
188.766	886.4
189.233	782.22
189.701	1086.33
190.169	1528.63
190.636	561.21
191.104	467.49
191.571	59.56
192.039	-71.94
192.506	-74.18
192.974	404
193.441	-940.81
193.908	-357.96
194.375	-60.89
194.842	-20.49
195.31	110.38
195.777	147.64
196.244	365.84
196.711	473.04
197.177	603.35
197.644	875.25
198.111	1536.55
198.578	2176.37
199.045	1739.72
199.511	2839.7
199.978	3328.3
200.445	2786.81
200.911	3064.95
201.378	3407.71
201.844	3085.15
202.31	5318.61
202.777	5571.08
203.243	3087.68
203.709	2986.66
204.176	3593.09
204.642	2966.1
205.108	2768.66
205.574	2263.9
206.04	2090.85
206.506	1966.1
206.972	1872.95
207.438	1794.5
207.903	2050.28
208.369	1798.61
208.835	1774.9
209.301	1861.28
209.766	1914.2
210.232	1910.52
210.697	2400.54
211.163	3000.45
211.628	4592.63
212.094	3884.47
212.559	4804.7
213.024	3016.02
213.49	3704.14
213.955	3638.33
214.42	3615.37
214.885	3384.9
215.35	3268.67
215.815	3128.57
216.28	3363.97
216.745	2795.85
217.21	3072.09
217.675	2914.89
218.14	3374.56
218.604	3895.46
219.069	4603.16
219.534	4936.45
219.998	5903.19
220.463	7328.75
220.927	9325.78
221.392	8933.06
221.856	9160.41
222.32	11764.88
222.785	14666.79
223.249	18631.95
223.713	20967.26
224.177	21060.97
224.642	27187.02
225.106	33639.25
225.57	36966.38
226.034	27486.04
226.497	41916.19
226.961	37904.92
227.425	44115.75
227.889	49129.63
228.353	49193.88
228.816	101750.52
229.28	97479.93
229.744	82343.49
230.207	49998.13
230.671	49174.22
231.134	81590.78
231.597	94148.77
232.061	94325.97
232.524	92183.96
232.987	63477.25
233.45	57094.36
233.914	51220.78
234.377	52589.34
234.84	48137.04
235.303	56792.82
235.766	63334.27
236.229	65420.37
236.691	41197.52
237.154	46272.15
237.617	34757.38
238.08	35566.31
238.542	41649.18
239.005	29728.88
239.468	29449.39
239.93	27730.43
240.393	25180.18
240.855	22096.05
241.317	22608.03
241.78	27500.97
242.242	28382.56
242.704	30597.79
243.166	26610.9
243.629	24096.72
244.091	27761.07
244.553	30391.04
245.015	32650.51
245.477	42222.78
245.939	61843.17
246.4	65568.16
246.862	63675.45
247.324	59996.05
247.786	67173.64
248.247	88097.13
248.709	91110.9
249.17	68073.33
249.632	64049.19
250.093	74124.16
250.555	63945.42
251.016	38978.55
251.477	36946.99
251.939	39841.19
252.4	41778.26
252.861	49601.2
253.322	46039.74
253.783	54745.36
254.244	70975.62
254.705	55993.64
255.166	49747.69
255.627	48985.57
256.088	69003.94
256.549	73249.58
257.009	63071.92
257.47	76513.78
257.931	62345.98
258.391	46726.37
258.852	48141.17
259.312	50484.87
259.773	62335.1
260.233	52637.24
260.694	44364.48
261.154	50354.48
261.614	40374.15
262.074	36101.56
262.534	37468.18
262.994	35266.67
263.455	47026.61
263.915	39607.25
264.374	37299.32
264.834	40729.87
265.294	45187.06
265.754	46771.69
266.214	44277.44
266.673	41490.16
267.133	52377.65
267.593	51969.42
268.052	63616.12
268.512	55291.17
268.971	66524.74
269.431	72877.59
269.89	65214.1
270.349	97659.04
270.809	108881.16
271.268	97779.59
271.727	219375.05
272.186	141917.46
272.645	106411.81
273.104	76740.64
273.563	110990.65
274.022	87357.93
274.481	74244.85
274.94	57138.6
275.399	42468.42
275.857	49414.68
276.316	66843.68
276.775	59398.14
277.233	58467.28
277.692	54614.23
278.15	61703.52
278.609	63407.39
279.067	58620.9
279.525	54361.74
279.984	70158.33
280.442	84157.71
280.9	82775.96
281.358	54332.13
281.816	50568.93
282.274	49430.48
282.732	51110.36
283.19	51333.53
283.648	44284.21
284.106	47155.18
284.564	47952.46
285.021	44419.73
285.479	33091.75
285.937	30120.17
286.394	26415.34
286.852	27179.04
287.309	28552.24
287.767	27499.34
288.224	26109.93
288.682	28601.52
289.139	31362.08
289.596	28657.2
290.053	29746.51
290.511	37506.39
290.968	45446.56
291.425	61585.11
291.882	51109.37
292.339	44422.86
292.796	44082.7
293.252	41546.4
293.709	32948.56
294.166	29501.56
294.623	32590.72
295.079	31262.15
295.536	31375.93
295.992	28423.71
296.449	28117.13
296.905	29221.67
297.362	27981.58
297.818	29412.87
298.274	30435.24
298.731	31035.57
299.187	30678.19
299.643	32900.64
300.099	39733.74
300.555	43532.15
301.011	36377.97
301.467	34956.75
301.923	40907.46
302.379	39921.81
302.835	39221.01
303.291	39258.95
303.746	44613.58
304.202	56314.16
304.658	56496.01
305.113	37984.47
305.569	37185.13
306.024	39610.79
306.479	37730.58
306.935	31742.23
307.39	34654.13
307.845	31925.26
308.301	32035.33
308.756	31214.85
309.211	30037.86
309.666	30749.53
310.121	38086.94
310.576	38640.9
311.031	38279.1
311.486	43786.49
311.94	43769.48
312.395	58448.49
312.85	109784.51
313.305	540206.01
313.759	2785149.07
314.214	201516.12
314.668	159504.62
315.123	133995.79
315.577	47930.86
316.032	42651.35
316.486	53349.58
316.94	41974.5
317.394	29187.36
317.849	22660.71
318.303	21435.38
318.757	20222.17
319.211	22329.21
319.665	19515.12
320.119	19744.91
320.572	28338.28
321.026	26385.51
321.48	21964
321.934	23951.22
322.387	24000.76
322.841	25886.81
323.295	23159.4
323.748	26685.08
324.202	27029.34
324.655	32419.44
325.108	45151.51
325.562	31817.72
326.015	37849
326.468	28543.18
326.921	31879.88
327.374	29654.88
327.827	30839.85
328.28	34934.6
328.733	23355.45
329.186	20527.23
329.639	19542.78
330.092	16462.28
330.545	15659.79
330.997	15753.24
331.45	17186.25
331.903	20098.06
332.355	34575.99
332.808	33566.34
333.26	27682.58
333.713	30043.96
334.165	30285.18
334.617	40426.82
335.069	32694.67
335.522	59134.96
335.974	65442.83
336.426	59800.17
336.878	41491.62
337.33	21005.93
337.782	20522.96
338.234	25685.76
338.686	30696.08
339.137	36305.46
339.589	34198.73
340.041	26763.39
340.493	22974.78
340.944	23504.19
341.396	25303.7
341.847	21223.44
342.299	24988.56
342.75	30458.22
343.201	26613.2
343.653	30617.47
344.104	37582.75
344.555	29546.59
345.006	46036.33
345.457	35172.23
345.908	27962.89
346.359	26261.85
346.81	21395.38
347.261	22574.88
347.712	22191.26
348.163	23775.83
348.613	24003.23
349.064	22404.45
349.515	19606.4
349.965	20059.06
350.416	24151.41
350.866	26492.13
351.317	30000.17
351.767	49632.12
352.217	62639.32
352.668	51965.99
353.118	47573.33
353.568	45893.14
354.018	36228.56
354.468	38156
354.918	27382.5
355.368	23935.42
355.818	33796.3
356.268	97283.83
356.718	406732.78
357.168	101213.15
357.617	50841.36
358.067	56658.44
358.517	53083.18
358.966	62259.49
359.416	69783.41
359.865	75313.72
360.315	89736.47
360.764	41856.95
361.213	23392.62
361.663	22174.09
362.112	27345.17
362.561	44095.03
363.01	33176.42
363.459	27913.08
363.908	30171.28
364.357	25548.6
364.806	43231.39
365.255	29724.71
365.703	27205.52
366.152	27239.58
366.601	22079.91
367.05	17919.15
367.498	16306.12
367.947	17046.24
368.395	17732.94
368.844	15712.87
369.292	19018.93
369.74	13136.42
370.189	20141.86
370.637	23596.12
371.085	20379.62
371.533	24856.57
371.981	23932.05
372.429	22780.68
372.877	23716.6
373.325	19883.54
373.773	20333
374.221	18099.8
374.669	22466.41
375.116	19475.64
375.564	19700.96
376.012	22065.97
376.459	18212.84
376.907	21854.77
377.354	26528.83
377.801	24782.11
378.249	28504.16
378.696	36488.41
379.143	44410.51
379.591	47525.2
380.038	80502.01
380.485	58253.32
380.932	63050.78
381.379	57736.3
381.826	42634.83
382.273	30374.8
382.72	26663.67
383.166	26059.88
383.613	16958.62
384.06	15295.83
384.506	17723.06
384.953	13059.84
385.4	13208.55
385.846	11606.9
386.292	11365.18
386.739	11129.32
387.185	11037.62
387.631	11059.2
388.078	10737.71
388.524	11498.18
388.97	10637.15
389.416	8877.8
389.862	9443.49
390.308	8955.92
390.754	9099.67
391.2	9882.17
391.645	10131.45
392.091	9661.17
392.537	9335.33
392.983	9363.85
393.428	9180.37
393.874	9835.58
394.319	9844.02
394.765	9318.04
395.21	9557.75
395.655	8943.24
396.101	8364.42
396.546	7535.32
396.991	7596.46
397.436	7045.36
397.881	6791.22
398.326	6439.62
398.771	6082.54
399.216	5327.19
399.661	4785.68
400.106	4756.07
400.551	4858.33
400.995	4344.02
401.44	4284.6
401.885	4021.98
402.329	4052.93
402.774	3879.63
403.218	3740.44
403.663	3591.27
404.107	3673.31
404.551	3695.06
404.995	3383.39
405.44	3258.03
405.884	3297.54
406.328	3189.23
406.772	3173.38
407.216	2878.8
407.66	2780.27
408.104	2639.59
408.547	2467.23
408.991	2384.38
409.435	2290.13
409.879	2251.44
410.322	2214.74
410.766	2134.62
411.209	2026.12
411.653	1941.07
412.096	1898.37
412.54	1893.48
412.983	1873.44
413.426	1875.38
413.869	1869.52
414.312	1830.39
414.756	1759.67
415.199	1675.36
415.642	1625.41
416.085	1623.48
416.527	1609.69
416.97	1632.26
417.413	1545.22
417.856	1527.59
418.298	1510.41
418.741	1500.23
419.184	1495.94
419.626	1555.89
420.069	1554.98
420.511	1558.21
420.953	1521.14
421.396	1502.58
421.838	1464.5
422.28	1494.05
422.722	1499.15
423.164	1516.14
423.606	1489.66
424.048	1483.96
424.49	1409.25
424.932	1399.69
425.374	1379.01
425.816	1404.16
426.258	1431.41
426.699	1445.42
427.141	1422.29
427.582	1442.99
428.024	1434.12
428.465	1425.17
428.907	1387.53
429.348	1371.21
429.789	1369.82
430.231	1341.25
430.672	1353.77
431.113	1320.36
431.554	1301.25
431.995	1271.57
432.436	1224.38
432.877	1197.71
433.318	1175.32
433.759	1170.02
434.2	1170
434.64	1156.99
435.081	1159.6
435.522	1100.5
435.962	1062.35
436.403	1038.73
436.843	1052.61
437.284	1031.32
437.724	1005
438.164	1009.7
438.604	985.98
439.045	947.69
439.485	907.28
439.925	888.41
440.365	867.62
440.805	855.31
441.245	843.83
441.685	812.36
442.125	806.33
442.564	809.89
443.004	788.37
443.444	787.55
443.883	788.59
444.323	783.35
444.762	784.67
445.202	793.07
445.641	804.51
446.081	800.12
446.52	805.39
446.959	796.15
447.398	775.04
447.837	766.85
448.276	751.23
448.716	757.83
449.154	762.87
449.593	742.61
450.032	738.36
450.471	725.18
450.91	724.49
451.349	721.68
451.787	716.82
452.226	726.95
452.664	725.31
453.103	726.59
453.541	723.34
453.98	722.08
454.418	727.11
454.856	716.47
455.295	713.67
455.733	718.68
456.171	722.48
456.609	724.77
457.047	724.9
457.485	734.53
457.923	735.66
458.361	725.97
458.798	727.93
459.236	727.66
459.674	731.43
460.111	735.81
460.549	728.88
460.987	726.33
461.424	723.26
461.862	720.61
462.299	710.81
462.736	708.96
463.173	712.4
463.611	704.73
464.048	702.42
464.485	708.9
464.922	703.07
465.359	698.49
465.796	687.27
466.233	682.17
466.67	675.15
467.106	672.66
467.543	667.08
467.98	656.98
468.416	640.42
468.853	634.73
469.29	616.07
469.726	608.44
470.162	592.8
470.599	586.84
471.035	581.34
471.471	566.64
471.907	562.93
472.344	559.02
472.78	560.46
473.216	565.63
473.652	557.98
474.088	554.49
474.523	551.08
474.959	555.32
475.395	548.22
475.831	544
476.266	546.25
476.702	543.42
477.138	536.04
477.573	533.3
478.008	530.09
478.444	530.8
478.879	535.47
479.314	537.89
479.75	537.23
480.185	539.77
480.62	542.82
481.055	544.31
481.49	547.74
481.925	555.93
482.36	565.57
482.795	580.52
483.229	596.12
483.664	607.37
484.099	608.52
484.534	616.71
484.968	621.65
485.403	623.86
485.837	622.9
486.271	621.28
486.706	620.48
487.14	612.44
487.574	603.02
488.009	596.09
488.443	589.99
488.877	595.35
489.311	595.9
489.745	601.9
490.179	606.25
490.613	616.26
491.046	619.98
491.48	623.56
491.914	622.57
492.348	625.89
492.781	628.58
493.215	628.86
493.648	628.42
494.082	631.8
494.515	629.85
494.948	634.29
495.382	636.56
495.815	638.66
496.248	640.94
496.681	650.95
497.114	658.61
497.547	665.82
497.98	674.91
498.413	678.41
498.846	684.75
499.279	690.55
499.711	692.52
500.144	692.62
500.577	699.78
501.009	707.23
501.442	713.16
501.874	712.41
502.306	711.47
502.739	716.46
503.171	726.48
503.603	727.35
504.036	733.48
504.468	737.01
504.9	744.73
505.332	747.65
505.764	750.02
506.196	753.61
506.627	763.6
507.059	772.8
507.491	777.95
507.923	774.77
508.354	785.48
508.786	792.46
509.217	805.68
509.649	815.81
510.08	831.16
510.512	843.55
510.943	856.28
511.374	865.29
511.805	881.57
512.237	897.22
512.668	923.67
513.099	946.26
513.53	969.12
513.961	985.55
514.391	1011.89
514.822	1038.98
515.253	1069.02
515.684	1089.37
516.114	1113.64
516.545	1132.24
516.975	1154.11
517.406	1169.37
517.836	1172.15
518.267	1178.46
518.697	1195.11
519.127	1199.88
519.558	1207.97
519.988	1211.46
520.418	1221.79
520.848	1237.18
521.278	1246
521.708	1252.98
522.138	1265.67
522.567	1293.41
522.997	1317.65
523.427	1331.58
523.857	1348.52
524.286	1357.99
524.716	1372.7
525.145	1390
525.575	1402.17
526.004	1415.95
526.433	1422.04
526.863	1423.61
527.292	1416.31
527.721	1421.05
528.15	1427.74
528.579	1429.41
529.008	1440.41
529.437	1461.28
529.866	1474.13
530.295	1489.12
530.724	1501.15
531.152	1525.37
531.581	1538.35
532.01	1554.29
532.438	1562.53
532.867	1575.83
533.295	1592.5
533.723	1598.2
534.152	1597.26
534.58	1598.22
535.008	1585.82
535.436	1588.71
535.865	1595.49
536.293	1609.46
536.721	1624.48
537.149	1647.51
537.576	1650.58
538.004	1662.5
538.432	1669.67
538.86	1668.17
539.287	1674.54
539.715	1687.02
540.143	1689.4
540.57	1688.07
540.998	1685
541.425	1665.66
541.852	1647.77
542.28	1647.23
542.707	1632.15
543.134	1620.37
543.561	1618.04
543.988	1612.39
544.415	1611.83
544.842	1606.12
545.269	1599.01
545.696	1600.12
546.123	1609.83
546.549	1599.12
546.976	1587.61
547.403	1587.51
547.829	1589.15
548.256	1590.14
548.682	1585.22
549.108	1577.73
549.535	1577.3
549.961	1577.85
550.387	1565.26
550.813	1561.01
551.24	1566.5
551.666	1565.34
552.092	1556.13
552.518	1549.63
552.943	1543.28
553.369	1548.84
553.795	1552.66
554.221	1553.64
554.646	1550.58
555.072	1558.67
555.498	1561.44
555.923	1568.36
556.349	1580.69
556.774	1586.73
557.199	1585.87
557.625	1589.33
558.05	1581.85
558.475	1589.23
558.9	1585.55
559.325	1576.7
559.75	1569.72
560.175	1561.6
560.6	1553.84
561.025	1549.97
561.449	1548.43
561.874	1551.34
562.299	1554.05
562.723	1559.77
563.148	1549.67
563.572	1551.42
563.997	1558.28
564.421	1560.8
564.846	1559.44
565.27	1560.36
565.694	1556.32
566.118	1564.93
566.542	1569.02
566.966	1560.49
567.39	1554.37
567.814	1543.13
568.238	1539.85
568.662	1541.72
569.086	1541.77
569.509	1546.28
569.933	1532.03
570.357	1524.2
570.78	1504.39
571.204	1491.55
571.627	1481.7
572.05	1477.48
572.474	1475.54
572.897	1463.55
573.32	1455.71
573.743	1446.19
574.166	1428.2
574.589	1426.79
575.012	1418.05
575.435	1415.2
575.858	1405.96
576.281	1394.64
576.704	1380.4
577.126	1368.37
577.549	1358.74
577.972	1348.4
578.394	1337.74
578.817	1331.64
579.239	1314.44
579.661	1303.23
580.084	1289.57
580.506	1277.99
580.928	1272.76
581.35	1262.89
581.772	1258.08
582.194	1245.08
582.616	1233.65
583.038	1220.95
583.46	1211.05
583.882	1207.56
584.303	1208.92
584.725	1203.34
585.147	1204.04
585.568	1210.61
585.99	1219.34
586.411	1223.25
586.833	1234.75
587.254	1234.03
587.675	1244.65
588.096	1253.23
588.518	1246.77
588.939	1232.43
589.36	1230.76
589.781	1220.5
590.202	1198.07
590.623	1189.12
591.043	1186.33
591.464	1175.2
591.885	1171.43
592.305	1165.78
592.726	1154.12
593.147	1155.3
593.567	1151.39
593.987	1144.88
594.408	1140.96
594.828	1139.96
595.248	1135.03
595.669	1120.61
596.089	1114.02
596.509	1109.46
596.929	1098.76
597.349	1098.6
597.769	1091.33
598.189	1085.24
598.608	1084.85
599.028	1085.44
599.448	1083.65
599.867	1073.01
600.287	1068.73
600.706	1065.82
601.126	1057.83
601.545	1056.12
601.965	1054.42
602.384	1048.43
602.803	1050.22
603.222	1046.07
603.641	1040.69
604.061	1038.61
604.48	1035.66
604.898	1041.14
605.317	1043.69
605.736	1044.58
606.155	1042.62
606.574	1035.32
606.992	1039.21
607.411	1034.69
607.829	1028.18
608.248	1024.78
608.666	1021.79
609.085	1021.37
609.503	1014.86
609.921	1010.03
610.339	1010.73
610.758	1009.35
611.176	1005.53
611.594	998.96
612.012	996.9
612.43	999.8
612.847	1005.31
613.265	1006.34
613.683	1009.72
614.101	1011.25
614.518	1007.75
614.936	999.7
615.353	988.47
615.771	986.16
616.188	985.48
616.606	982.31
617.023	976.47
617.44	964.75
617.857	959.31
618.274	952.04
618.691	946.06
619.108	938.84
619.525	933.89
619.942	938.82
620.359	940.51
620.776	936.47
621.192	932.95
621.609	930.89
622.026	935.98
622.442	938.96
622.859	941.16
623.275	935.53
623.691	939.75
624.108	949.2
624.524	959.41
624.94	959.56
625.356	967.47
625.772	976.86
626.188	984.71
626.604	986.01
627.02	983.56
627.436	982.61
627.852	988.01
628.268	996.42
628.683	989.01
629.099	982.41
629.514	978.8
629.93	980.53
630.345	983.22
630.761	980.31
631.176	981.86
631.591	977.21
632.007	972.03
632.422	969.97
632.837	960.52
633.252	957.97
633.667	950.04
634.082	942.09
634.497	932.42
634.911	917.81
635.326	913.79
635.741	900.14
636.155	891.59
636.57	891.17
636.984	890.14
637.399	890.6
637.813	889.31
638.228	887.71
638.642	890.29
639.056	881.43
639.47	880.11
639.884	874.93
640.298	870.04
640.712	869.35
641.126	859.68
641.54	853.11
641.954	848.31
642.368	838.85
642.781	832.41
643.195	820.03
643.609	820.49
644.022	816.42
644.436	812.78
644.849	804.19
645.262	794.5
645.676	795.57
646.089	791.58
646.502	783.04
646.915	780.03
647.328	767.79
647.741	767.06
648.154	758.75
648.567	757.66
648.98	749.67
649.393	750.28
649.805	749.22
650.218	743.98
650.631	733.4
651.043	729.43
651.456	725.68
651.868	728.06
652.28	740.09
652.693	749.35
653.105	753.89
653.517	760.52
653.929	761.53
654.341	766.1
654.753	758.6
655.165	764.25
655.577	763.08
655.989	760.95
656.401	755.59
656.813	730.34
657.224	717.96
657.636	699.22
658.047	687.6
658.459	674.38
658.87	669.12
659.282	661.72
659.693	648.43
660.104	639.02
660.515	629.99
660.926	628.74
661.338	628.23
661.749	624.23
662.159	618.9
662.57	617.13
662.981	616.85
663.392	612.23
663.803	618.21
664.213	617.58
664.624	615.21
665.035	620.68
665.445	613.73
665.855	609.33
666.266	605.5
666.676	606.01
667.086	600.65
667.497	601.48
667.907	599.17
668.317	592.15
668.727	592
669.137	595.65
669.547	594.68
669.956	597.12
670.366	601.16
670.776	603.97
671.186	608.06
671.595	611.76
672.005	614.87
672.414	615.73
672.824	616.56
673.233	619.9
673.642	622.02
674.052	624.84
674.461	628.21
674.87	631.94
675.279	630.54
675.688	632.13
676.097	635.24
676.506	633.73
676.915	646.04
677.323	647.78
677.732	647.09
678.141	646.49
678.549	639.41
678.958	638.44
679.366	637.93
679.775	641.77
680.183	650.48
680.592	653.27
681	657.73
681.408	651.47
681.816	657.78
682.224	663.16
682.632	670.52
683.04	691.71
683.448	709.49
683.856	731.25
684.264	757.13
684.671	779.48
685.079	807.27
685.487	836.13
685.894	879.72
686.302	912.02
686.709	939.1
687.116	971.5
687.524	995.45
687.931	1013.83
688.338	1029.35
688.745	1041.49
689.152	1057.6
689.559	1082.35
689.966	1107.75
690.373	1116.73
690.78	1142.13
691.187	1183.98
691.593	1213.84
692	1242.24
692.407	1287.37
692.813	1343.94
693.22	1388.96
693.626	1433.55
694.032	1472.38
694.439	1532.96
694.845	1581.7
695.251	1644.43
695.657	1701.03
696.063	1784.29
696.469	1849.23
696.875	1911.25
697.281	1949.95
697.687	1996.52
698.093	2040.94
698.498	2113.53
698.904	2172.85
699.31	2257.23
699.715	2319.34
700.12	2408.26
700.526	2436.87
700.931	2507.3
701.337	2565.57
701.742	2608.65
702.147	2696.18
702.552	2737.61
702.957	2804.47
703.362	2836.46
703.767	2875.89
704.172	2927.28
704.577	2900.42
704.981	2955.92
705.386	2985.29
705.791	2993.79
706.195	3076.62
706.6	3098.73
707.004	3184.57
707.408	3171.62
707.813	3211.75
708.217	3216.13
708.621	3231.69
709.025	3336.58
709.43	3353.67
709.834	3425.29
710.237	3504.71
710.641	3504.98
711.045	3538.88
711.449	3549
711.853	3588.97
712.256	3640.94
712.66	3692.14
713.064	3779.96
713.467	3835.75
713.87	3958.59
714.274	4018.65
714.677	4140.94
715.08	4313.15
715.484	4495.78
715.887	4709.72
716.29	4924.12
716.693	5146.48
717.096	5398.81
717.499	5545.53
717.901	5586.75
718.304	5632.26
718.707	5675.73
719.109	5587.04
719.512	5570.87
719.915	5447.62
720.317	5404.18
720.719	5464.2
721.122	5449.75
721.524	5412.65
721.926	5383.14
722.328	5498.19
722.731	5501.31
723.133	5540.47
723.535	5752.46
723.937	5787.63
724.338	5852.79
724.74	5908.61
725.142	5833.53
725.544	5843.16
725.945	5876.47
726.347	5883.16
726.748	5888.31
727.15	5910.9
727.551	5876.39
727.952	5856.6
728.354	5834.05
728.755	5843.38
729.156	5806.01
729.557	5819.4
729.958	5698.76
730.359	5650.92
730.76	5635.77
731.161	5574.91
731.562	5552.91
731.962	5566.33
732.363	5504.11
732.763	5440.75
733.164	5483.87
733.564	5417.36
733.965	5320.7
734.365	5284.46
734.766	5319.52
735.166	5283.09
735.566	5227.84
735.966	5205
736.366	5201.07
736.766	5137.27
737.166	5172.49
737.566	5132.27
737.966	5106.9
738.365	5152.19
738.765	5152.42
739.165	5077.8
739.564	5052.85
739.964	5105.51
740.363	5057.19
740.763	5058.75
741.162	5048.69
741.561	5019.89
741.96	4972.55
742.36	4997.64
742.759	5004.35
743.158	5045.81
743.557	5061.74
743.955	5106.67
744.354	5060.71
744.753	5125.42
745.152	5081.07
745.55	5142.19
745.949	5134.39
746.348	5136.4
746.746	5155.99
747.144	5112.06
747.543	5089.85
747.941	5143.74
748.339	5068.29
748.737	5059.78
749.136	5049.87
749.534	5120.08
749.932	5090.98
750.33	5118.89
750.727	5181.91
751.125	5155.44
751.523	5141.94
751.921	5187.96
752.318	5151.49
752.716	5217.09
753.113	5230.19
753.511	5259.68
753.908	5260.92
754.305	5238.58
754.703	5301.81
755.1	5363.74
755.497	5428.94
755.894	5633.25
756.291	5826.7
756.688	6184.15
757.085	6658.19
757.482	7330.45
757.878	8060.84
758.275	8722.42
758.672	9640.23
759.068	10384.28
759.465	11449.24
759.861	12821.93
760.258	14411.17
760.654	15243.41
761.05	15115.52
761.447	14428.09
761.843	13431.99
762.239	12395.7
762.635	11933.82
763.031	11488.26
763.427	10847.91
763.822	10174
764.218	9503.98
764.614	8635.54
765.01	8051.45
765.405	7680.39
765.801	7395.53
766.196	7032.87
766.592	6837.61
766.987	6495.18
767.382	6261.92
767.778	6165.81
768.173	6027.01
768.568	5946.5
768.963	5810.08
769.358	5830.32
769.753	5778.71
770.148	5686.61
770.542	5687.69
770.937	5650.55
771.332	5747.27
771.726	5769.18
772.121	5697.63
772.515	5753.56
772.91	5738.29
773.304	5817.13
773.699	5745.52
774.093	5805.89
774.487	5867.07
774.881	5911.42
775.275	5909.23
775.669	5866.14
776.063	5913.4
776.457	5953.7
776.851	5874.15
777.245	5864.21
777.638	5899.47
778.032	6025.73
778.425	5984.29
778.819	6027.58
779.212	5978.69
779.606	5931.41
779.999	5951.37
780.392	5933.95
780.786	6024.85
781.179	6048.55
781.572	6095.91
781.965	6111.54
782.358	6048.74
782.751	6107.04
783.143	6055.88
783.536	6135.6
783.929	6184.23
784.322	6309.35
784.714	6343.93
785.107	6339.79
785.499	6415.87
785.891	6389.67
786.284	6366.1
786.676	6519.26
787.068	6498.36
787.46	6553.48
787.852	6578.51
788.245	6669.97
788.636	6699.62
789.028	6770.81
789.42	6811.77
789.812	6814.54
790.204	6920.87
790.595	7029.75
790.987	6813.71
791.378	6843.96
791.77	6983.65
792.161	7127.4
792.553	7187.41
792.944	7068.16
793.335	6994.76
793.726	7068.75
794.117	7167.98
794.508	7318.59
794.899	7280.9
795.29	7435.24
795.681	7494.91
796.072	7343.26
796.463	7137.29
796.853	7144.18
797.244	7310.87
797.634	7347.77
798.025	7347.07
798.415	7360.24
798.806	7453.8
799.196	7546.62
799.586	7600.39
799.976	7559.9
800.366	7804.82
800.756	8075.97
801.146	8033.36
801.536	8067.26
801.926	8147.21
802.316	8178.8
802.706	8256.35
803.095	8119.17
803.485	8233.8
803.874	8277.36
804.264	8547.73
804.653	8522.23
805.043	8671.36
805.432	8790.52
805.821	8792.08
806.21	8813.68
806.599	8941.52
806.988	8988.74
807.377	9107.91
807.766	9242.68
808.155	9545.9
808.544	9272.1
808.933	9281.25
809.321	9258.32
809.71	9574.59
810.098	9737.22
810.487	10227.36
810.875	10742.15
811.264	10762.51
811.652	11065.85
812.04	11221
812.428	11389.59
812.816	12203.48
813.204	12651.42
813.592	13239.65
813.98	13600.99
814.368	13502.19
814.756	14026.55
815.144	13940.47
815.531	14441.25
815.919	14360.06
816.306	14684.47
816.694	14354.1
817.081	14398.23
817.469	14772.63
817.856	14766.24
818.243	15051.66
818.63	15467.24
819.017	15002.4
819.404	15068.37
819.791	15473.27
820.178	16134.05
820.565	16399.23
820.952	17399.14
821.339	16883.06
821.725	17079.57
822.112	16287.84
822.498	16242.91
822.885	16386.52
823.271	16288.25
823.657	16728.11
824.044	16741.17
824.43	16821.06
824.816	16781.94
825.202	16314.39
825.588	17401.23
825.974	17416.55
826.36	17964.75
826.746	18003.49
827.132	18390.78
827.517	18358.24
827.903	17517.44
828.289	17552.29
828.674	16719.53
829.06	16616.71
829.445	17044.28
829.83	17420.4
830.216	17936.67
830.601	18332.91
830.986	17888.67
831.371	17736.49
831.756	18339.17
832.141	17880.04
832.526	17883.8
832.911	18190.8
833.295	18073.63
833.68	18576.16
834.065	17921.16
834.449	16944.35
834.834	16865.5
835.218	16873.71
835.603	17239.06
835.987	17019.22
836.371	17916.65
836.755	17802.74
837.139	18231.72
837.524	18481.55
837.908	18302.11
838.291	18354.46
838.675	18432.2
839.059	18655.58
839.443	18647.95
839.827	18413.53
840.21	18934.73
840.594	18776.73
840.977	19002.29
841.361	18984.2
841.744	19394.27
842.127	19220.87
842.511	19498.73
842.894	20129.62
843.277	20541.98
843.66	21119.05
844.043	21202.05
844.426	20327.47
844.809	19997.92
845.191	20031.15
845.574	19540.13
845.957	19152.74
846.339	19040.41
846.722	18480.89
847.104	18559.83
847.487	18383.98
847.869	18396.75
848.252	18698.16
848.634	19058.34
849.016	19340.26
849.398	19475.71
849.78	20386.87
850.162	20393.34
850.544	20830.61
850.926	21503.13
851.307	21415.47
851.689	21707.88
852.071	22191.51
852.452	22542.78
852.834	22518.31
853.215	22947.36
853.597	23111.47
853.978	23419.72
854.359	23909.1
854.741	22844.96
855.122	22742.73
855.503	22428.46
855.884	22574.85
856.265	22517.87
856.646	22638.76
857.026	22214.09
857.407	22140.44
857.788	22311.38
858.169	22620.94
858.549	21705.24
858.93	22378.7
859.31	22424.83
859.69	22639.65
860.071	22198.25
860.451	21959.82
860.831	21160.09
861.211	22402.41
861.591	22991.8
861.971	22962.25
862.351	23177.59
862.731	23591.01
863.111	23867.43
863.491	24215.06
863.87	25154.3
864.25	25533.88
864.629	25105.14
865.009	25656.96
865.388	26554.81
865.768	28452.97
866.147	28331.09
866.526	26758.98
866.905	27086.08
867.284	28605.29
867.663	27167.17
868.042	26041.25
868.421	25949.75
868.8	26380.25
869.179	26639.54
869.558	25096.76
869.936	23136.18
870.315	23558.45
870.693	24130.48
871.072	26008.82
871.45	24780.66
871.828	25101.31
872.207	26390.18
872.585	26000.07
872.963	26706.87
873.341	25786.51
873.719	25484.03
874.097	25177.05
874.475	25654.79
874.853	26242.23
875.23	25162.55
875.608	26210.45
875.986	28350.04
876.363	27109.45
876.741	27925.88
877.118	27219.42
877.495	28559.44
877.873	29036.88
878.25	30565.6
878.627	29315.81
879.004	29728.73
879.381	29593.37
879.758	28826.83
880.135	26833.9
880.512	28379.05
880.889	27640.76
881.265	27372.78
881.642	27142.76
882.019	27598.17
882.395	27037.17
882.772	28103.29
883.148	26883.91
883.524	26769.19
883.901	26611.59
884.277	27018.03
884.653	26854.63
885.029	27631.78
885.405	30582.4
885.781	30355.32
886.157	29112.35
886.532	29457.64
886.908	29454.68
887.284	32756.62
887.659	33828.79
888.035	34888.78
888.411	35781.95
888.786	36230.88
889.161	37479.44
889.537	36798.52
889.912	37975.66
890.287	37931.11
890.662	38921.1
891.037	38221.79
891.412	35630.64
891.787	35271.55
892.162	34041.68
892.536	34834.59
892.911	33530.77
893.286	32818.45
893.66	31491.02
894.035	32288.93
894.409	35177.35
894.784	33761.65
895.158	34313.47
895.532	36340.42
895.906	37328.26
896.281	38186.89
896.655	37575.63
897.029	42944.12
897.402	44731.98
897.776	49799.34
898.15	49625.38
898.524	49062.61
898.898	49708.66
899.271	55635.32
899.645	48213.8
900.018	46320.91
900.392	48046.98
900.765	48443.29
901.138	44826.88
901.511	44134.52
901.884	40518.8
902.258	37377.95
902.631	38631.51
903.003	44463.23
903.376	40136.92
903.749	44994.15
904.122	48145.21
904.495	53025.82
904.867	53682.68
905.24	46611.53
905.612	43381.43
905.985	44360.4
906.357	46379.92
906.729	44265.4
907.102	37816.14
907.474	36351.14
907.846	36574.96
908.218	36083.78
908.59	31863.85
908.962	30823.51
909.334	33194.07
909.705	34875.94
910.077	33863.98
910.449	35238.25
910.82	36218.62
911.192	39828.42
911.563	41377.5
911.935	44285.24
912.306	44361.71
912.677	45823.21
913.048	45356.07
913.419	49208.66
913.79	49481.2
914.161	53057.88
914.532	50725.65
914.903	46588.77
915.274	44258.82
915.645	43637.4
916.015	38394.2
916.386	36595.92
916.756	38936.14
917.127	40184.75
917.497	35905.59
917.868	39094.3
918.238	37126.21
918.608	38190.13
918.978	38989.38
919.348	41281.64
919.718	42629.08
920.088	41082.35
920.458	42680.81
920.828	44912.84
921.198	42546.88
921.567	45465.96
921.937	35206.65
922.306	35586.32
922.676	38383.55
923.045	32025.87
923.415	30426.3
923.784	27722.27
924.153	28485.31
924.522	28465.37
924.891	26768.15
925.26	28664.86
925.629	27973.42
925.998	32147.25
926.367	31343.43
926.736	29822.19
927.104	35528.83
927.473	38188.46
927.842	46115.33
928.21	45694.77
928.578	48032.96
928.947	45419.91
929.315	45718.13
929.683	53611.98
930.051	54050.77
930.42	62767.56
930.788	53671.82
931.156	53276.55
931.523	49923.68
931.891	46110.75
932.259	44266.65
932.627	51267.77
932.994	72544.25
933.362	59948.36
933.729	52070.73
934.097	49832.27
934.464	42153.54
934.831	48654.08
935.199	47927.53
935.566	46489.92
935.933	47159.71
936.3	57144.85
936.667	44512.57
937.034	40105.62
937.401	39676.87
937.767	34228.16
938.134	30463.43
938.501	43002.17
938.867	45821.37
939.234	77505.31
939.6	66115.64
939.967	72758.57
940.333	48674.6
940.699	41466.02
941.065	33318.9
941.431	43664.9
941.798	42076.57
942.163	55230.77
942.529	34521.22
942.895	31771.94
943.261	20545.53
943.627	26935.38
943.992	23583.13
944.358	23627.64
944.723	23673.73
945.089	23068.97
945.454	21307.74
945.82	22762.04
946.185	21875.63
946.55	25350.4
946.915	22752.27
947.28	26693.86
947.645	23521.97
948.01	21699.08
948.375	22629.27
948.74	27170.47
949.104	31726.37
949.469	45897.44
949.834	81162.73
950.198	76940.24
950.562	46049.19
950.927	38343.95
951.291	46133.23
951.655	39333.53
952.02	37010.36
952.384	28015.14
952.748	24357.73
953.112	23723.1
953.476	20620.89
953.839	19050.67
954.203	18858.84
954.567	23600.82
954.931	37229.95
955.294	31865.65
955.658	32037.06
956.021	54428.2
956.385	92199.06
956.748	136154.97
957.111	211310.9
957.474	237302.37
957.837	267614.57
958.2	202677.92
958.563	72940.23
958.926	49256.46
959.289	74768.45
959.652	83605.08
960.015	62738.61
960.377	90051.18
960.74	102744.34
961.102	177178.25
961.465	190170.26
961.827	101646.28
962.189	195010.42
962.552	135129.5
962.914	108341.57
963.276	70255.93
963.638	58029.85
964	57461.87
964.362	38860.86
964.724	37598.01
965.085	26847.75
965.447	22004.6
965.809	25104.43
966.17	25156.77
966.532	27267.61
966.893	25045.89
967.255	22817.41
967.616	26964.14
967.977	21617.05
968.338	23611.57
968.699	19387.34
969.061	19390.73
969.421	19518.08
969.782	21911.3
970.143	18475.71
970.504	19114.87
970.865	21695.34
971.225	22138.95
971.586	21621.19
971.946	30797.24
972.307	26739.92
972.667	35001.96
973.027	36048.02
973.388	43791.82
973.748	29815.43
974.108	32504.72
974.468	43969.41
974.828	33869.67
975.188	26112.02
975.548	24035.09
975.907	20179.83
976.267	22633.8
976.627	18997.33
976.986	19686.37
977.346	18764.86
977.705	18031.34
978.064	16416.69
978.424	13671.07
978.783	14178.12
979.142	16187.57
979.501	15458.35
979.86	16342.73
980.219	15740.91
980.578	20314.66
980.937	22749.66
981.296	20255.55
981.654	20854.94
982.013	32473.41
982.371	42117.26
982.73	39352.05
983.088	44529
983.447	47621.96
983.805	68080.49
984.163	142409.56
984.521	158247.98
984.879	232212.72
985.237	-377562.24
985.595	363805.58
985.953	90483.17
986.311	52285.77
986.669	30349.6
987.026	26240.98
987.384	35296.85
987.741	36520.9
988.099	26046.17
988.456	20749.95
988.814	19436.68
989.171	16886.88
989.528	16685.82
989.885	17582.59
990.242	13912.29
990.599	17320.11
990.956	14148.62
991.313	9891.63
991.67	8103.89
992.027	8577.57
992.383	7613.4
992.74	6663.37
993.096	6992.2
993.453	7249.93
993.809	7533.36
994.165	10029.74
994.522	9175.02
994.878	10107.53
995.234	12663.73
995.59	12491.61
995.946	11860.85
996.302	13512.02
996.658	15645.64
997.013	17254.23
997.369	20397.46
997.725	26110.15
998.08	16915.29
998.436	26123.04
998.791	36055.67
999.147	36077.22
999.502	39405.94
999.857	28659.73
1000.212	46823.41
1000.567	66594.27
1000.922	38420.67
1001.277	24469.58
1001.632	18140.49
1001.987	23362.42
1002.342	16745.72
1002.696	13380.84
1003.051	10661.82
1003.406	12917.28
1003.76	12866.77
1004.114	12673.04
1004.469	10651.61
1004.823	8812.83
1005.177	9512.17
1005.531	7538.33
1005.885	6701.93
1006.239	7565.76
1006.593	9501.02
1006.947	12721.04
1007.301	9550.4
1007.655	10405.66
1008.008	7650.57
1008.362	8597.07
1008.715	12283.96
1009.069	11181.19
1009.422	16790.68
1009.776	33599.32
1010.129	22333.57
1010.482	18616.01
1010.835	15736.91
1011.188	32680
1011.541	30766.32
1011.894	-187751.78
1012.247	553218.19
1012.6	37610.4
1012.952	23691.4
1013.305	12277.15
1013.657	8867.35
1014.01	8384.86
1014.362	6932.26
1014.715	6161.77
1015.067	5368.54
1015.419	5262.27
1015.771	4659.26
1016.123	4136.13
1016.475	4257.78
1016.827	4527.51
1017.179	4843.12
1017.531	4902.91
1017.883	5017.69
1018.234	4821.73
1018.586	6083.4
1018.938	6432.03
1019.289	8835.25
1019.64	10148.96
1019.992	9455.4
1020.343	8635.31
1020.694	6820.29
1021.045	6014.19
1021.396	6849.61
1021.747	7340.12
1022.098	8876.97
1022.449	6430.08
1022.8	5975.34
1023.151	4166.12
1023.501	3679.6
1023.852	4009.28
1024.202	4150.93
1024.553	4543.65
1024.903	4449.13
1025.253	3782.57
1025.604	3415.09
1025.954	4225.48
1026.304	5196.92
1026.654	6078.62
1027.004	8963.24
1027.354	14579.03
1027.703	13665.99
1028.053	18059.88
1028.403	26313.65
1028.753	38275.46
1029.102	52345.87
1029.452	268123.88
1029.801	11580.89
1030.15	7429.29
1030.499	6276.52
897.758	1986.65
901.051	1912.65
904.343	1944.3
907.636	1955.46
910.928	2015.1
914.22	1940.12
917.511	1945.04
920.803	1986.73
924.094	1975.24
927.384	1985.95
930.675	1949.87
933.965	1918.93
937.255	1954.62
940.544	1930.39
943.834	1914.39
947.123	1860.6
950.411	1944.59
953.7	1926.6
956.988	1919.14
960.276	1854.77
963.563	1893.24
966.851	1906.19
970.138	1943.42
973.424	1947.77
976.711	1899.61
979.997	1952.49
983.283	1991.39
986.568	1932.75
989.853	1913.99
993.138	1938.11
996.423	2029.18
999.708	1994.55
1002.992	2024.83
1006.275	1934.77
1009.559	1937.22
1012.842	2030.56
1016.125	1990.1
1019.408	1972.39
1022.69	2017.38
1025.972	2057.54
1029.254	2036.59
1032.536	2006.39
1035.817	2008.82
1039.098	1980.17
1042.379	2029.2
1045.659	2054.98
1048.939	2008.78
1052.219	2011.6
1055.498	1997.06
1058.778	1998.13
1062.057	1970.5
1065.335	1994.22
1068.614	2001.32
1071.892	2006.25
1075.17	2050.42
1078.447	2058.99
1081.724	2054.08
1085.001	2077.3
1088.278	2056.53
1091.554	2062.86
1094.83	2055.81
1098.106	2096.74
1101.382	2120.89
1104.657	2121.15
1107.932	2120.59
1111.206	2103.7
1114.481	2052.54
1117.755	2054.9
1121.029	2049.65
1124.302	2112.83
1127.575	2083.31
1130.848	2084.62
1134.121	2054.77
1137.393	2023.78
1140.665	2075.8
1143.937	2057.08
1147.208	1999.01
1150.48	2066.45
1153.75	2055.24
1157.021	2047.63
1160.291	2027.13
1163.561	2080.9
1166.831	2040.43
1170.101	2067.33
1173.37	2020.29
1176.639	1985.3
1179.907	2024.17
1183.176	2053.9
1186.444	2054.28
1189.711	2076.41
1192.979	2104.97
1196.246	2062.22
1199.513	2072.1
1202.78	2081.63
1206.046	2090.27
1209.312	2120.42
1212.578	2134.52
1215.843	2105.86
1219.108	2072.67
1222.373	2093.89
1225.638	2070.7
1228.902	2065.86
1232.166	2016.38
1235.43	2007.18
1238.693	2034.19
1241.956	2023.57
1245.219	2074.64
1248.482	2054.1
1251.744	2053.01
1255.006	2163.56
1258.268	2108.95
1261.529	2070.73
1264.79	2068.34
1268.051	2164.43
1271.312	2171.56
1274.572	2144.26
1277.832	2131.41
1281.092	2108.88
1284.351	2107.39
1287.61	2094.47
1290.869	2036.74
1294.128	2041.8
1297.386	2073.27
1300.644	2067.25
1303.902	2076.92
1307.159	1952.41
1310.416	1999.96
1313.673	2030.62
1316.93	2031.43
1320.186	2055.53
1323.442	2083.9
1326.697	2091.82
1329.953	2057.67
1333.208	2097.66
1336.463	2068.13
1339.717	2037.45
1342.972	2130.54
1346.226	2102.39
1349.479	2058.14
1352.733	2041.59
1355.986	2038.14
1359.238	2022.17
1362.491	2027.48
1365.743	2026.33
1368.995	2015.52
1372.247	2030.85
1375.498	2046.28
1378.749	2097.68
1382	2045.5
1385.251	2074.99
1388.501	2022.83
1391.751	2033.51
1395	1997.15
1398.25	2019.3
1401.499	2047.36
1404.748	2005.96
1407.996	1981.31
1411.244	1973.76
1414.492	1959.71
1417.74	1947.27
1420.987	1947.62
1424.234	2009.08
1427.481	1965.14
1430.728	2020.67
1433.974	1995.21
1437.22	1988.82
1440.465	1983.43
1443.711	1991.61
1446.956	2010.92
1450.201	1978.18
1453.445	2019.18
1456.689	2013.21
1459.933	2022.87
1463.177	2065.41
1466.42	2040.13
1469.663	2025.33
1472.906	2047.91
1476.148	2092.3
1479.391	2046.74
1482.633	2026.45
1485.874	2057.9
1489.115	2068.85
1492.356	2046.96
1495.597	2030.58
1498.838	2018.81
1502.078	2008.48
1505.318	1987.89
1508.557	2018.21
1511.797	2018.71
1515.036	2074.2
1518.274	2039.43
1521.513	1985.37
1524.751	1992.55
1527.989	2019.26
1531.227	2038.02
1534.464	2061.92
1537.701	2049.72
1540.938	2060.14
1544.174	2005.5
1547.41	1992.58
1550.646	2033.15
1553.882	2084.76
1557.117	2143.26
1560.352	2150.95
1563.587	2117.81
1566.821	2087.09
1570.055	2092.63
1573.289	2079
1576.523	2128.28
1579.756	2150.31
1582.989	2171.65
1586.222	2130.24
1589.454	2156.55
1592.686	2144.29
1595.918	2171.6
1599.15	2172.28
1602.381	2206.95
1605.612	2198.99
1608.843	2287.14
1612.073	2215.22
1615.303	2203.67
1618.533	2206.1
1621.762	2204.58
1624.992	2174.91
1628.221	2183.65
1631.449	2173.18
1634.678	2185.95
1637.906	2159.22
1641.134	2182.96
1644.361	2151.47
1647.588	2141.58
1650.815	2163.9
1654.042	2121.2
1657.269	2148.15
1660.495	2139.01
1663.72	2110.89
1666.946	2082.47
1670.171	2069.77
1673.396	2041.86
1676.621	2020.51
1679.845	2010.7
1683.069	2012.5
1686.293	2038.69
1689.517	2036.47
1692.74	1995.87
1695.963	2013.26
1699.185	2062.49
1702.408	2035.51
1705.63	2058.6
1708.852	2081.03
1712.073	2051.74
1715.294	2071.07
1718.515	2107.21
1721.736	2070.61
1724.956	2044.87
1728.176	2064.34
1731.396	2085.13
1734.616	2071.48
1737.835	2109.62
1741.054	2077.31
1744.272	2068.34
1747.491	2111.73
1750.709	2124.59
1753.927	2091.02
1757.144	2105.09
1760.361	2169.65
1763.578	2138.77
1766.795	2091.33
1770.011	2073.7
1773.227	2092.66
1776.443	2137.24
1779.658	2178
1782.874	2116.51
1786.089	2113.35
1789.303	2114.82
1792.518	2111.8
1795.732	2096.73
1798.945	2113.32
1802.159	2151.7
1805.372	2108.51
1808.585	2106.21
1811.797	2105.41
1815.01	2114.96
1818.222	2145.92
1821.434	2095.72
1824.645	2134.03
1827.856	2148.86
1831.067	2176.42
1834.278	2109.53
1837.488	2094.4
1840.698	2203.17
1843.908	2152.92
1847.117	2122.97
1850.326	2064.81
1853.535	2108.48
1856.744	2152.21
1859.952	2076.81
1863.16	2079.45
1866.368	2089.15
1869.575	2202.62
1872.782	2086.29
1875.989	2020.73
1879.196	2055.48
1882.402	2047.59
1885.608	2075.89
1888.814	2030.41
1892.019	1943.98
1895.224	1993.54
1898.429	1953.33
1901.634	1938.44
1904.838	1913.69
1908.042	1972.28
1911.246	1983.14
1914.449	1956.85
1917.652	1935.43
1920.855	1917.91
1924.058	1930.63
1927.26	1976.72
1930.462	1995.66
1933.664	2038.89
1936.865	1988.8
1940.066	2005.37
1943.267	1949.15
1946.467	1958.52
1949.668	1973.35
1952.868	2041.61
1956.067	2035.18
1959.267	1982.75
1962.466	2003.24
1965.665	1984.51
1968.863	1979.55
1972.061	1978.81
1975.259	1970.28
1978.457	2040.83
1981.654	2004.33
1984.852	2008.83
1988.048	1969.62
1991.245	1953.06
1994.441	2043.32
1997.637	1991.38
2000.833	1976.82
2004.028	2010.14
2007.223	2069
2010.418	2063.44
2013.613	2009.17
2016.807	2011.32
2020.001	2001.17
2023.194	2017.55
2026.388	2004.1
2029.581	1947.28
2032.774	2016.45
2035.966	2028.38
2039.158	1979.67
2042.35	1997.92
2045.542	1925.47
2048.733	2001.98
2051.924	1981.69
2055.115	1994.21
2058.306	1965.47
2061.496	2019.37
2064.686	2061.48
2067.875	1967.33
2071.065	1963.77
2074.254	1980.01
2077.442	1936.79
2080.631	2015.47
2083.819	1964.36
2087.007	1959.8
2090.195	1950.64
2093.382	1957.98
2096.569	1944.48
2099.756	1911.94
2102.942	1966.37
2106.128	1985.55
2109.314	1971.29
2112.5	1964.31
2115.685	1929.64
2118.87	1936.07
2122.055	1994.78
2125.239	1978.87
2128.424	1973.51
2131.608	2014.41
2134.791	2001.17
2137.974	2030.46
2141.157	2020.08
2144.34	1999.62
2147.523	1982.23
2150.705	2012.24
2153.887	1974.52
2157.068	1957.79
2160.25	1929.1
2163.431	1948.28
2166.611	1927.43
2169.792	1949.16
2172.972	1869.81
2176.152	1908.95
2179.331	1934.07
2182.511	1943.08
2185.69	1962.51
2188.868	1970.5
2192.047	1995.17
2195.225	2023.51
2198.403	1968.19
2201.58	1955.16
2204.758	1938.08
2207.935	2008.08
2211.111	1936.81
2214.288	1924.93
2217.464	1956.61
2220.64	1904.92
2223.815	1951.13
2226.991	1890.76
2230.166	1904.39
2233.34	1953.6
2236.515	1961.37
2239.689	2021.41
2242.863	1973.84
2246.036	2021.77
2249.209	2000.63
2252.382	2015.08
2255.555	2032
2258.727	1989.6
2261.9	2010.76
2265.071	2004.1
2268.243	1998.53
2271.414	1954.88
2274.585	1946.04
2277.756	2003.63
2280.926	1962.35
2284.096	1988.09
2287.266	1927.77
2290.436	1972.14
2293.605	1987.74
2296.774	2030.95
2299.942	2029.61
2303.111	2044.05
2306.279	2096.75
2309.447	2079.92
2312.614	2049.84
2315.781	2077.64
2318.948	2053.52
2322.115	2088.53
2325.281	1990.62
2328.447	1992.07
2331.613	1962.44
2334.779	1959.42
2337.944	1951.39
2341.109	1953.2
2344.274	1944.25
2347.438	1913.97
2350.602	1932.25
2353.766	1941.75
2356.929	1932.06
2360.092	1965.42
2363.255	1945.47
2366.418	1922.5
2369.58	1967.34
2372.742	1882.65
2375.904	1867.98
2379.066	1858.5
2382.227	1877.73
2385.388	1842.73
2388.548	1801.35
2391.709	1836.75
2394.869	1831.53
2398.029	1867.48
2401.188	1857.15
2404.347	1835.1
2407.506	1886.6
2410.665	1929.6
2413.823	1907.65
2416.981	1896.68
2420.139	1905.55
2423.296	1943.48
2426.453	1917.24
2429.61	1935.4
2432.767	1920.81
2435.923	1963.27
2439.079	1901.35
2442.235	1928.83
2445.391	1878.55
2448.546	1925.5
2451.701	1951.9
2454.855	1955.88
2458.009	1974.69
2461.163	1957.77
2464.317	1935.43
2467.471	1958.95
2470.624	1980.87
2473.777	1982.06
2476.929	1998.16
2480.082	2018.45
2483.234	1996.52
2486.385	1934.44
2489.537	1928.92
2492.688	1929.15
2495.839	1946.07
2498.989	1960.42
2502.14	1948.85
2505.29	1945.52
2508.439	1965.95
2511.589	1916.35
2514.738	1909.51
2517.887	1929.3
2521.035	2010.92
2524.183	1959.55
2527.331	1950.66
2530.479	1951.87
2533.627	1951.84
