Data from C_1_DEC_CT_2N_Splice17_11-45-58-759.txt Node
Date: Sat Mar 14 11:45:58 EDT 2020
User: sa697716
Spectrometer: FLMS03696
Trigger mode: 0
Integration Time (sec): 3.180400E-1
Scans to average: 20
Electric dark correction enabled: true
Nonlinearity correction enabled: true
Boxcar width: 5
XAxis mode: Wavelengths
Number of Pixels in Spectrum: 2048
>>>>>Begin Spectral Data<<<<<
187.83	-156798.45
188.298	1248.16
188.766	777.01
189.233	683.06
189.701	958.19
190.169	1372.97
190.636	509.86
191.104	486.37
191.571	121.37
192.039	-4.18
192.506	-30.31
192.974	515.26
193.441	-813.2
193.908	-159.39
194.375	-22.04
194.842	31.22
195.31	193.58
195.777	168.91
196.244	624.57
196.711	1342.51
197.177	1894.2
197.644	2965.58
198.111	5205.97
198.578	7336.16
199.045	5886.87
199.511	9631.04
199.978	11330.04
200.445	9367.35
200.911	10347.44
201.378	11689.48
201.844	10269.58
202.31	17359.81
202.777	17754.05
203.243	9675.46
203.709	9078.24
204.176	10675.05
204.642	8688.4
205.108	8006.31
205.574	6558.8
206.04	6036.56
206.506	5590.09
206.972	5322.01
207.438	5092.17
207.903	5749.24
208.369	4959.89
208.835	4868
209.301	5043.3
209.766	5161.5
210.232	5045.07
210.697	6188.49
211.163	7566.85
211.628	11345.19
212.094	9335.99
212.559	11086.44
213.024	6770.31
213.49	8087.04
213.955	7801.46
214.42	7607.33
214.885	6928.54
215.35	6518.48
215.815	5979.97
216.28	6151.39
216.745	4846.52
217.21	4960.67
217.675	4364.2
218.14	4578.55
218.604	4753.88
219.069	4974.5
219.534	4715.39
219.998	5005.83
220.463	5528.26
220.927	6246.93
221.392	5379.52
221.856	5019.24
222.32	5862.53
222.785	6741.47
223.249	7968.72
223.713	8378.43
224.177	7924.18
224.642	9653.14
225.106	11371.5
225.57	11940.7
226.034	8537.13
226.497	12543.37
226.961	10934.29
227.425	12333.34
227.889	13245.33
228.353	12775.99
228.816	25477.2
229.28	23588.16
229.744	19365.3
230.207	11515.25
230.671	11005.63
231.134	17667.02
231.597	19836.92
232.061	19354.05
232.524	18391.85
232.987	12426.32
233.45	11014.33
233.914	9713.17
234.377	9793.37
234.84	8830.25
235.303	10228.77
235.766	11272.66
236.229	11495.78
236.691	7181.94
237.154	7983.44
237.617	5986.6
238.08	6043.57
238.542	7011.12
239.005	5011.45
239.468	4962.42
239.93	4654.94
240.393	4227.43
240.855	3695.02
241.317	3773.2
241.78	4546.13
242.242	4689.36
242.704	5058.11
243.166	4406.54
243.629	3993.91
244.091	4551.85
244.553	4938.82
245.015	5278.45
245.477	6754.29
245.939	9843.42
246.4	10405.79
246.862	10068.53
247.324	9423.55
247.786	10397.31
248.247	13566.01
248.709	13879.01
249.17	10369.46
249.632	9834.02
250.093	11386.62
250.555	9780.06
251.016	5980.5
251.477	5654.55
251.939	6088.02
252.4	6355.32
252.861	7541.12
253.322	7030.8
253.783	8344.3
254.244	10798.23
254.705	8462.02
255.166	7503.44
255.627	7386.38
256.088	10387.9
256.549	11008.85
257.009	9464.47
257.47	11467.58
257.931	9328.69
258.391	6929.57
258.852	7107.98
259.312	7407.56
259.773	9063.63
260.233	7626.57
260.694	6390.82
261.154	7157.8
261.614	5743.7
262.074	5079
262.534	5218.22
262.994	4866.54
263.455	6386.76
263.915	5319.2
264.374	4925.97
264.834	5289.85
265.294	5744.09
265.754	5899.88
266.214	5492.43
266.673	5048.51
267.133	6267.6
267.593	6139.33
268.052	7436.04
268.512	6396.23
268.971	7698.14
269.431	8411.53
269.89	7508.14
270.349	11193.96
270.809	12379.61
271.268	11140.35
271.727	24901.96
272.186	16129.16
272.645	12123.87
273.104	8740.11
273.563	12716.42
274.022	9946.41
274.481	8503.73
274.94	6608.71
275.399	4928.97
275.857	5759.82
276.316	7818.91
276.775	6989.73
277.233	6960.1
277.692	6569.82
278.15	7502.49
278.609	7821.92
279.067	7308.66
279.525	6874.13
279.984	8920.41
280.442	10898.96
280.9	10960.63
281.358	7301.18
281.816	6900.43
282.274	6837.92
282.732	7154.38
283.19	7287.59
283.648	6350.18
284.106	6863.35
284.564	7094.75
285.021	6711.65
285.479	5065.26
285.937	4639.57
286.394	4153.38
286.852	4318.18
287.309	4611.6
287.767	4526.54
288.224	4350.1
288.682	4806.87
289.139	5302.49
289.596	4836.52
290.053	4997.86
290.511	6271.11
290.968	7602.18
291.425	10170.51
291.882	8462.71
292.339	7291.23
292.796	7142.95
293.252	6656.58
293.709	5277.02
294.166	4714.12
294.623	5182.49
295.079	4945.48
295.536	4963.65
295.992	4469.52
296.449	4418.11
296.905	4569.02
297.362	4383.8
297.818	4598.81
298.274	4795.98
298.731	4878.25
299.187	4830.61
299.643	5188.29
300.099	6307.28
300.555	6942.43
301.011	5830.65
301.467	5676.53
301.923	6647.15
302.379	6536.55
302.835	6460.1
303.291	6493.66
303.746	7425.29
304.202	9466.73
304.658	9603.72
305.113	6528.51
305.569	6440.83
306.024	6934.49
306.479	6633.72
306.935	5688.49
307.39	6259.89
307.845	5837.61
308.301	5952.63
308.756	5862.58
309.211	5691.84
309.666	5893.79
310.121	7424.38
310.576	7611.77
311.031	7616.06
311.486	8838.65
311.94	8899.06
312.395	12033.41
312.85	22932.24
313.305	113469.69
313.759	596152.58
314.214	43575.38
314.668	34946.48
315.123	29520.58
315.577	10724.44
316.032	9623.14
316.486	12055.29
316.94	9571.6
317.394	6681.64
317.849	5186.39
318.303	4891.28
318.757	4594.65
319.211	5085.65
319.665	4421.48
320.119	4458.62
320.572	6334.25
321.026	5904.16
321.48	4900.8
321.934	5322.35
322.387	5310.97
322.841	5755.62
323.295	5220.18
323.748	6009.06
324.202	6097.06
324.655	7350.28
325.108	10350.18
325.562	7355.94
326.015	8749.11
326.468	6666.87
326.921	7489.96
327.374	7055.22
327.827	7394.14
328.28	8410.42
328.733	5685.3
329.186	5045.06
329.639	4850.48
330.092	4117.92
330.545	3961.65
330.997	4051.44
331.45	4487.03
331.903	5313.06
332.355	9198.68
332.808	8992.79
333.26	7456.4
333.713	8175.69
334.165	8288.98
334.617	11122.11
335.069	9005.22
335.522	16405.58
335.974	18288.18
336.426	16807.9
336.878	11716.31
337.33	5985.71
337.782	5889.03
338.234	7463.59
338.686	8964.3
339.137	10690.11
339.589	10112.35
340.041	7985.47
340.493	6854.04
340.944	7014.87
341.396	7554.15
341.847	6359.01
342.299	7510.42
342.75	9174.86
343.201	7939.44
343.653	9096.2
344.104	11066.82
344.555	8673.82
345.006	13363.1
345.457	10242.22
345.908	8094.76
346.359	7616.8
346.81	6165.24
347.261	6470.09
347.712	6325.67
348.163	6786.65
348.613	6890.67
349.064	6476.69
349.515	5698.37
349.965	5889.08
350.416	7119.51
350.866	7844.06
351.317	8864.03
351.767	14788.91
352.217	18743.07
352.668	15636.48
353.118	14409.02
353.568	13920.25
354.018	11054.25
354.468	11712.96
354.918	8462.18
355.368	7449.46
355.818	10587.29
356.268	30546.71
356.718	128606.56
357.168	32363.5
357.617	16422.86
358.067	18387.94
358.517	17363.51
358.966	20533.55
359.416	23179.15
359.865	25072.31
360.315	29899.48
360.764	14051.61
361.213	7946.16
361.663	7543.84
362.112	9308.56
362.561	15044.36
363.01	11409.45
363.459	9628.4
363.908	10400.02
364.357	8884.94
364.806	15074.87
365.255	10423.99
365.703	9604.67
366.152	9660.32
366.601	7882.65
367.05	6458
367.498	5936.17
367.947	6222.05
368.395	6515
368.844	5822.72
369.292	7047.22
369.74	4917.33
370.189	7555.8
370.637	8865.19
371.085	7680.07
371.533	9377.03
371.981	9050.24
372.429	8638.59
372.877	9053.98
373.325	7613.42
373.773	7801.14
374.221	6961.42
374.669	8649.5
375.116	7510.59
375.564	7604.86
376.012	8530.88
376.459	7076.57
376.907	8495.31
377.354	10343.31
377.801	9709.25
378.249	11228.04
378.696	14437.79
379.143	17671.14
379.591	18949.04
380.038	32395.09
380.485	23743.14
380.932	26083.74
381.379	24270.32
381.826	18251.95
382.273	13265.21
382.72	11918.2
383.166	11962.67
383.613	8034.8
384.06	7520.1
384.506	9096.5
384.953	7012.97
385.4	7465.71
385.846	6961.18
386.292	7350.29
386.739	7829.15
387.185	8502.81
387.631	9382.56
388.078	10079.03
388.524	11886.6
388.97	11956.67
389.416	10676.1
389.862	11981.7
390.308	11975.5
390.754	12968.23
391.2	15305.7
391.645	17278.3
392.091	18179.41
392.537	19205.95
392.983	20744.23
393.428	21495.98
393.874	24573.9
394.319	26903.22
394.765	28602.44
395.21	33394.2
395.655	35462.8
396.101	37150.08
396.546	37190.14
396.991	41578.49
397.436	42589.09
397.881	45469.58
398.326	47984.5
398.771	49946.97
399.216	47912.64
399.661	46729.66
400.106	49744.76
400.551	54056.55
400.995	51222.91
401.44	53168.81
401.885	52125.92
402.329	54699.81
402.774	54221.83
403.218	53866.41
403.663	53691.5
404.107	56936.42
404.551	59237.14
404.995	56353.42
405.44	56394
405.884	59303.1
406.328	59314.64
406.772	60848.62
407.216	57016.46
407.66	56906.08
408.104	56091.04
408.547	54017.27
408.991	53582.17
409.435	52675.89
409.879	52697.01
410.322	52759.32
410.766	51618.43
411.209	49836.21
411.653	48783.52
412.096	48565.9
412.54	49435.96
412.983	49773.15
413.426	50387.47
413.869	51025.82
414.312	50648.53
414.756	49601.81
415.199	48031.61
415.642	47207.45
416.085	47829.26
416.527	48015.46
416.97	49331.82
417.413	47037.55
417.856	46746.33
418.298	46358.7
418.741	46084.21
419.184	46020.46
419.626	48045.38
420.069	47937.8
420.511	48204.4
420.953	47102.71
421.396	46754.43
421.838	45748.58
422.28	46930.2
422.722	47444.48
423.164	48737.17
423.606	48460.19
424.048	48954.93
424.49	46774.09
424.932	47025.17
425.374	46804.74
425.816	48028.94
426.258	48976.45
426.699	49208.95
427.141	47920.12
427.582	48319.43
428.024	47800.69
428.465	47551.12
428.907	46490.12
429.348	46249.99
429.789	46370.76
430.231	45475.74
430.672	46149.82
431.113	45398.8
431.554	45305.7
431.995	45237.51
432.436	44234.7
432.877	43874.71
433.318	43441.94
433.759	43736.22
434.2	44088.43
434.64	44046.98
435.081	44561.41
435.522	42764.63
435.962	41713.47
436.403	41338.84
436.843	42478.48
437.284	42156.75
437.724	41555.2
438.164	42225.47
438.604	41597.06
439.045	40098.32
439.485	38459.42
439.925	37892.36
440.365	37127.69
440.805	36813.5
441.245	36238.16
441.685	34912.07
442.125	34686.67
442.564	34887.43
443.004	33955.29
443.444	33855.34
443.883	33900.99
444.323	33865.95
444.762	34174.86
445.202	34685.01
445.641	35184.02
446.081	35247.68
446.52	35376.25
446.959	34962.23
447.398	34038.21
447.837	33626.61
448.276	33011.54
448.716	33274.6
449.154	33555.24
449.593	32520.71
450.032	32199.3
450.471	31537.97
450.91	31330.17
451.349	30965.17
451.787	30646.73
452.226	30830.3
452.664	30565.88
453.103	30322.85
453.541	29981.5
453.98	29369.02
454.418	29167.84
454.856	28250.36
455.295	27876.35
455.733	27649.48
456.171	27503.72
456.609	27163.54
457.047	26750.05
457.485	26766.83
457.923	26511.66
458.361	25985.34
458.798	26000.68
459.236	25834.41
459.674	26070.24
460.111	26092.69
460.549	25874.42
460.987	25875.31
461.424	25833.37
461.862	25821.85
462.299	25492.13
462.736	25454.07
463.173	25630.2
463.611	25283.12
464.048	25287.62
464.485	25537.11
464.922	25429.1
465.359	25437.97
465.796	24754.98
466.233	24702.3
466.67	24498.67
467.106	24513.93
467.543	24476.65
467.98	24278.46
468.416	23888.78
468.853	23840.08
469.29	23224.07
469.726	23044.14
470.162	22473.38
470.599	22538.21
471.035	22367.15
471.471	21861.87
471.907	21804.83
472.344	21639.52
472.78	21570.94
473.216	21749.16
473.652	21340.06
474.088	21167.05
474.523	20870.44
474.959	20886.89
475.395	20511.26
475.831	20144.31
476.266	20052.7
476.702	19785.17
477.138	19314.31
477.573	19028.54
478.008	18689.26
478.444	18470.6
478.879	18312.93
479.314	18142.39
479.75	17865.18
480.185	17716.59
480.62	17627.96
481.055	17470.92
481.49	17304.2
481.925	17274.49
482.36	17209.13
482.795	17414.24
483.229	17632.91
483.664	17714.72
484.099	17506.48
484.534	17476.16
484.968	17373.75
485.403	17185.5
485.837	16966.15
486.271	16728.18
486.706	16549.05
487.14	16264.12
487.574	15846.83
488.009	15561.55
488.443	15299.26
488.877	15283.1
489.311	15205.76
489.745	15230.84
490.179	15220.57
490.613	15293.06
491.046	15296.39
491.48	15286.12
491.914	15166.72
492.348	15158.63
492.781	15124.6
493.215	15063.5
493.648	15025.37
494.082	15044.25
494.515	14952.9
494.948	14994.62
495.382	15028.03
495.815	14997.99
496.248	14985.69
496.681	15134.17
497.114	15255.12
497.547	15314.03
497.98	15400.26
498.413	15329.63
498.846	15349.64
499.279	15367.05
499.711	15314.88
500.144	15204.43
500.577	15224.22
501.009	15275.16
501.442	15266.17
501.874	15096.73
502.306	14997.72
502.739	14927.78
503.171	15070.33
503.603	14970.4
504.036	14966.66
504.468	14885.14
504.9	14899.55
505.332	14843.07
505.764	14726.25
506.196	14669.88
506.627	14719.35
507.059	14729.45
507.491	14724.46
507.923	14459.54
508.354	14476.74
508.786	14433.08
509.217	14485.8
509.649	14491.7
510.08	14557.53
510.512	14564.88
510.943	14558.24
511.374	14500.1
511.805	14553.79
512.237	14600.01
512.668	14827.98
513.099	14965.22
513.53	15066.03
513.961	15065.83
514.391	15199.18
514.822	15305.76
515.253	15473.35
515.684	15506.27
516.114	15588.56
516.545	15559.98
516.975	15590.28
517.406	15524.77
517.836	15310.58
518.267	15150.85
518.697	15118.96
519.127	14955.92
519.558	14839.7
519.988	14680.08
520.418	14599.11
520.848	14586.89
521.278	14493.94
521.708	14091.16
522.138	14049.33
522.567	14174.03
522.997	14235.33
523.427	14207.59
523.857	14179.99
524.286	14116.68
524.716	14099.85
525.145	14112.57
525.575	14072.67
526.004	14080.32
526.433	14250.02
526.863	14142.12
527.292	13942.35
527.721	13898.63
528.15	13883.44
528.579	13826.19
529.008	13851.33
529.437	13971.95
529.866	14010.26
530.295	14070.04
530.724	14076.26
531.152	14209.59
531.581	14238.25
532.01	14315.36
532.438	14322.46
532.867	14377.47
533.295	14464.42
533.723	14455.25
534.152	14387.11
534.58	14339.8
535.008	14180.98
535.436	14156.49
535.865	14184.93
536.293	14268.22
536.721	14352.48
537.149	14498.7
537.576	14472.96
538.004	14542.5
538.432	14586.32
538.86	14556.61
539.287	14606.05
539.715	14700.45
540.143	14735.62
540.57	14715.6
540.998	14707.38
541.425	14535.13
541.852	14414.25
542.28	14438.86
542.707	14355.72
543.134	14279.84
543.561	14277.44
543.988	14247.5
544.415	14281.36
544.842	14269.34
545.269	14236.98
545.696	14270.83
546.123	14421.23
546.549	14368.04
546.976	14292.55
547.403	14311.15
547.829	14359.3
548.256	14414.18
548.682	14415.06
549.108	14378.83
549.535	14406.48
549.961	14453.3
550.387	14377.23
550.813	14345.51
551.24	14421.84
551.666	14456.2
552.092	14403.38
552.518	14377.85
552.943	14341.5
553.369	14430.18
553.795	14498.32
554.221	14515.24
554.646	14506.19
555.072	14583.23
555.498	14639.23
555.923	14715.22
556.349	14833.84
556.774	14901.99
557.199	14908.39
557.625	14978.3
558.05	14924.89
558.475	15016.32
558.9	15013.47
559.325	14946.39
559.75	14912.71
560.175	14873.63
560.6	14841.85
561.025	14838.24
561.449	14860.67
561.874	14911.87
562.299	14931.68
562.723	14992.96
563.148	14898.3
563.572	14926.59
563.997	15006.67
564.421	15049.41
564.846	15043.4
565.27	15047.03
565.694	15012.15
566.118	15074.27
566.542	15106.32
566.966	15033.81
567.39	14966.53
567.814	14856.15
568.238	14838.8
568.662	14873.74
569.086	14891.01
569.509	14968.43
569.933	14861.05
570.357	14845.29
570.78	14726.16
571.204	14664.65
571.627	14647.13
572.05	14714.65
572.474	14793.85
572.897	14789.85
573.32	14821.76
573.743	14856.29
574.166	14798.29
574.589	14921.01
575.012	14962.9
575.435	15077.96
575.858	15125.6
576.281	15158.58
576.704	15154.03
577.126	15190.11
577.549	15219.51
577.972	15272.85
578.394	15299.31
578.817	15337.8
579.239	15293.13
579.661	15289.86
580.084	15241.56
580.506	15244.5
580.928	15333.64
581.35	15346.49
581.772	15414.86
582.194	15388.79
582.616	15357.54
583.038	15328.04
583.46	15342.81
583.882	15398.56
584.303	15540.49
584.725	15606.16
585.147	15639.4
585.568	15796.48
585.99	15955.68
586.411	16060.22
586.833	16252.47
587.254	16310.25
587.675	16505.18
588.096	16688.57
588.518	16679.65
588.939	16542.22
589.36	16556.43
589.781	16564.82
590.202	16269.64
590.623	16237.94
591.043	16266.49
591.464	16164.96
591.885	16147.32
592.305	16104.41
592.726	15961.27
593.147	15964.08
593.567	15895.77
593.987	15792.69
594.408	15709.15
594.828	15697.57
595.248	15572.83
595.669	15304.6
596.089	15173.06
596.509	15054.14
596.929	14834.03
597.349	14765.42
597.769	14588.34
598.189	14436.94
598.608	14375.48
599.028	14313.41
599.448	14240.56
599.867	14052.06
600.287	13965.53
600.706	13859.07
601.126	13700.4
601.545	13636.22
601.965	13592.17
602.384	13512.96
602.803	13527.01
603.222	13456.19
603.641	13387.33
604.061	13343.38
604.48	13317.52
604.898	13412.66
605.317	13492.19
605.736	13544.9
606.155	13548.63
606.574	13493.87
606.992	13593.23
607.411	13588.18
607.829	13577.51
608.248	13611.9
608.666	13660.41
609.085	13714.91
609.503	13687.42
609.921	13686.16
610.339	13776.81
610.758	13852.36
611.176	13882.19
611.594	13859.99
612.012	13905.59
612.43	13997.33
612.847	14137.99
613.265	14200.69
613.683	14324.8
614.101	14418.99
614.518	14468.67
614.936	14438.49
615.353	14350.1
615.771	14385.26
616.188	14461.26
616.606	14493.89
617.023	14496.38
617.44	14406.28
617.857	14421.41
618.274	14398.79
618.691	14384.47
619.108	14338.8
619.525	14327.78
619.942	14447.54
620.359	14521.56
620.776	14506.92
621.192	14485.98
621.609	14490.93
622.026	14586.27
622.442	14678.22
622.859	14742.39
623.275	14690.74
623.691	14773.56
624.108	14927.25
624.524	15123.36
624.94	15145.79
625.356	15280.58
625.772	15468.33
626.188	15634.66
626.604	15677.27
627.02	15648.69
627.436	15635.86
627.852	15722.54
628.268	15876.81
628.683	15801.65
629.099	15728.42
629.514	15712.89
629.93	15792.4
630.345	15884.54
630.761	15880.85
631.176	15971.66
631.591	15921.98
632.007	15902.74
632.422	15961.25
632.837	15897.51
633.252	15918.87
633.667	15868.75
634.082	15827.16
634.497	15750.17
634.911	15570.2
635.326	15617.45
635.741	15499.52
636.155	15504.15
636.57	15620.05
636.984	15733
637.399	15858.14
637.813	16000.35
638.228	16118.01
638.642	16329.64
639.056	16346.37
639.47	16530.44
639.884	16578.23
640.298	16660.61
640.712	16804.99
641.126	16808.81
641.54	16875.62
641.954	17020.45
642.368	17015.12
642.781	17041.39
643.195	16960.68
643.609	17149.15
644.022	17246.73
644.436	17367.11
644.849	17377.81
645.262	17378.94
645.676	17601.72
646.089	17684.69
646.502	17574.95
646.915	17657.27
647.328	17575.22
647.741	17680.46
648.154	17601.91
648.567	17625.52
648.98	17513.05
649.393	17633.69
649.805	17687.48
650.218	17669.1
650.631	17471.03
651.043	17470.78
651.456	17444.95
651.868	17549.73
652.28	17947.79
652.693	18265.15
653.105	18465.34
653.517	18684.57
653.929	18718.39
654.341	18871.41
654.753	18697.34
655.165	18922.48
655.577	18985.72
655.989	19042.63
656.401	19051.56
656.813	18488.33
657.224	18278.05
657.636	17967.89
658.047	17816.47
658.459	17659.14
658.87	17720.55
659.282	17715
659.693	17474.88
660.104	17359.82
660.515	17269.34
660.926	17416.86
661.338	17570.93
661.749	17639.79
662.159	17596.58
662.57	17719.05
662.981	17807.05
663.392	17807.83
663.803	18059.3
664.213	18201.64
664.624	18290.21
665.035	18531.23
665.445	18377.97
665.855	18332.87
666.266	18251.62
666.676	18334.91
667.086	18239.81
667.497	18304.42
667.907	18257.44
668.317	18129.13
668.727	18029.78
669.137	18127.1
669.547	18119.31
669.956	18239.35
670.366	18333.08
670.776	18408.5
671.186	18543.01
671.595	18628.04
672.005	18751.69
672.414	18714.92
672.824	18650.9
673.233	18847.25
673.642	18878.21
674.052	18910.51
674.461	18903.68
674.87	19003.93
675.279	18888.76
675.688	18922.8
676.097	18887.95
676.506	18761.13
676.915	19090.12
677.323	19122.16
677.732	19035.35
678.141	18986.16
678.549	18705.19
678.958	18660.04
679.366	18594.75
679.775	18689.48
680.183	18762.61
680.592	18826.01
681	18852.32
681.408	18556.41
681.816	18601.13
682.224	18661.81
682.632	18652.94
683.04	19097.13
683.448	19372.09
683.856	19678.88
684.264	20008
684.671	20303.25
685.079	20670.38
685.487	21053.4
685.894	21734.92
686.302	22121.48
686.709	22235.22
687.116	22458.51
687.524	22432.37
687.931	22287.6
688.338	22089.66
688.745	21850.2
689.152	21623.29
689.559	21528.23
689.966	21362.64
690.373	20863.17
690.78	20624.94
691.187	20670.67
691.593	20484.23
692	20226.6
692.407	20191.23
692.813	20259.24
693.22	20171.52
693.626	20142.01
694.032	19954.39
694.439	20045.28
694.845	19998.99
695.251	20094.84
695.657	20105.21
696.063	20422.88
696.469	20487.93
696.875	20502.82
697.281	20302.32
697.687	20155.03
698.093	19931.5
698.498	20007.74
698.904	19968.56
699.31	20141.3
699.715	20107.63
700.12	20313.42
700.526	20025.13
700.931	20126.05
701.337	20108.63
701.742	19990.47
702.147	20209.38
702.552	20099.29
702.957	20194.99
703.362	20044.74
703.767	19958.58
704.172	19970.67
704.577	19467.54
704.981	19529.53
705.386	19396.07
705.791	19141.93
706.195	19358.16
706.6	19211.24
707.004	19473.41
707.408	19119.22
707.813	19084.1
708.217	18840.12
708.621	18684.59
709.025	19029.84
709.43	18862.65
709.834	19014.61
710.237	19228
710.641	19002.89
711.045	18967.2
711.449	18789.54
711.853	18773.93
712.256	18847.39
712.66	18900.01
713.064	19124.21
713.467	19150.86
713.87	19490.68
714.274	19483.19
714.677	19737.67
715.08	20199.9
715.484	20643.58
715.887	21165.78
716.29	21688.6
716.693	22179.94
717.096	22790.85
717.499	22977.54
717.901	22843.49
718.304	22833.98
718.707	22897.76
719.109	22507.14
719.512	22450.89
719.915	21969.75
720.317	21864.27
720.719	22125
721.122	22079.71
721.524	21923.45
721.926	21736.55
722.328	22085.4
722.731	21914.75
723.133	21867.51
723.535	22471.94
723.937	22360.54
724.338	22397.03
724.74	22380.82
725.142	21752.43
725.544	21671.11
725.945	21651.62
726.347	21600.74
726.748	21518.26
727.15	21528
727.551	21315.26
727.952	21161.18
728.354	21012.71
728.755	21013.78
729.156	20899.27
729.557	21153.95
729.958	20746.91
730.359	20675.99
730.76	20708.41
731.161	20588.6
731.562	20600.18
731.962	20746.85
732.363	20591
732.763	20431.37
733.164	20659.8
733.564	20433.75
733.965	20072.44
734.365	19952.25
734.766	20075.88
735.166	19912.64
735.566	19674.06
735.966	19550.39
736.366	19498.88
736.766	19242.93
737.166	19374.99
737.566	19210.35
737.966	19108.62
738.365	19261.17
738.765	19224.48
739.165	18922.94
739.564	18823.19
739.964	19020.75
740.363	18859.06
740.763	18884.49
741.162	18851.52
741.561	18734.5
741.96	18563.48
742.36	18672.65
742.759	18724.05
743.158	18923.42
743.557	19016.64
743.955	19200.39
744.354	19032.28
744.753	19282.66
745.152	19115.21
745.55	19364.42
745.949	19341.82
746.348	19341.22
746.746	19399.48
747.144	19199.14
747.543	19079.89
747.941	19237.63
748.339	18915.33
748.737	18844.88
749.136	18753.37
749.534	18973.8
749.932	18797.84
750.33	18843.13
750.727	19020.55
751.125	18870.74
751.523	18770.15
751.921	18871.11
752.318	18682.43
752.716	18857.73
753.113	18863.1
753.511	18910.95
753.908	18854.97
754.305	18716.81
754.703	18903.48
755.1	19073.19
755.497	19243.38
755.894	19864.66
756.291	20320.84
756.688	21067.46
757.085	21786.92
757.482	22649.75
757.878	23304.47
758.275	23586.34
758.672	24492.16
759.068	24833.21
759.465	25704.23
759.861	26834.5
760.258	28052.22
760.654	27807.2
761.05	26506.17
761.447	25282.81
761.843	24316.47
762.239	23595.15
762.635	23861.07
763.031	23965.38
763.427	23540.9
763.822	23045.15
764.218	22623.78
764.614	21663.29
765.01	21284.25
765.405	21287.39
765.801	21391.55
766.196	21115.59
766.592	21180.31
766.987	20683.35
767.382	20421.56
767.778	20497.06
768.173	20336.12
768.568	20305.16
768.963	20014.7
769.358	20215.65
769.753	20146.78
770.148	19919.43
770.542	19995.53
770.937	19941.75
771.332	20326.58
771.726	20427.07
772.121	20178.87
772.515	20402.32
772.91	20361.51
773.304	20656.72
773.699	20419.78
774.093	20637.4
774.487	20847.13
774.881	21000.99
775.275	20963.01
775.669	20796.11
776.063	20956.15
776.457	21093.73
776.851	20783.98
777.245	20725.09
777.638	20819.18
778.032	21223.15
778.425	21046.09
778.819	21154.57
779.212	20956.56
779.606	20765.51
779.999	20807.44
780.392	20687.41
780.786	20959.3
781.179	20981.9
781.572	21090.08
781.965	21084.19
782.358	20814.84
782.751	20970.31
783.143	20745.98
783.536	20946.67
783.929	21034.26
784.322	21356.38
784.714	21386.56
785.107	21266.05
785.499	21418.79
785.891	21214.8
786.284	21006.83
786.676	21357.43
787.068	21116.52
787.46	21142.62
787.852	21063
788.245	21206.32
788.636	21164.02
789.028	21238.27
789.42	21221.64
789.812	21113.78
790.204	21305.53
790.595	21515.98
790.987	20774.35
791.378	20772.05
791.77	21108.21
792.161	21464.4
792.553	21544.18
792.944	21081.91
793.335	20757.73
793.726	20880.3
794.117	21063.82
794.508	21420.83
794.899	21252.06
795.29	21606.17
795.681	21698.03
796.072	21156.11
796.463	20399.32
796.853	20308.19
797.244	20670.49
797.634	20664.7
798.025	20554.33
798.415	20480.24
798.806	20594.67
799.196	20680.25
799.586	20646.82
799.976	20350.71
800.366	20848.38
800.756	21449.35
801.146	21176.96
801.536	21117.05
801.926	21186
802.316	21131.54
802.706	21208.87
803.095	20762.17
803.485	20954.33
803.874	20986.5
804.264	21606.3
804.653	21425.64
805.043	21689.46
805.432	21862.48
805.821	21723.19
806.21	21616.73
806.599	21745.13
806.988	21641.58
807.377	21699.09
807.766	21774.36
808.155	22208.58
808.544	21264.25
808.933	21000.56
809.321	20633.72
809.71	21006.18
810.098	20987.64
810.487	21624.3
810.875	22218.58
811.264	21743.97
811.652	21768.61
812.04	21466.39
812.428	21186.95
812.816	22043.89
813.204	22145.85
813.592	22458.34
813.98	22380.05
814.368	21609.01
814.756	21868.06
815.144	21241.91
815.531	21583.36
815.919	21146.79
816.306	21339.94
816.694	20628.74
817.081	20579.32
817.469	21100.49
817.856	21199.73
818.243	21730.01
818.63	22430.28
819.017	21790.44
819.404	21774.67
819.791	22103.49
820.178	22682.81
820.565	22761.91
820.952	23922.73
821.339	23030.13
821.725	23117.08
822.112	21814
822.498	21509.57
822.885	21473.82
823.271	21220.87
823.657	21860.03
824.044	22017.72
824.43	22277.74
824.816	22278.32
825.202	21590.66
825.588	22844.24
825.974	22613.99
826.36	23051.13
826.746	22832.96
827.132	23053.69
827.517	22751.75
827.903	21423.38
828.289	21212.75
828.674	20004.24
829.06	19716.51
829.445	20081.49
829.83	20411.6
830.216	20881.26
830.601	21192.53
830.986	20562.46
831.371	20300
831.756	20895.39
832.141	20298.83
832.526	20240.41
832.911	20541.53
833.295	20374.05
833.68	20920.97
834.065	20152.17
834.449	19057.91
834.834	18976.49
835.218	18965.86
835.603	19350.89
835.987	19051.33
836.371	20019.69
836.755	19851.84
837.139	20289.17
837.524	20531.71
837.908	20256.57
838.291	20255.79
838.675	20252.94
839.059	20432.26
839.443	20350.55
839.827	20003.01
840.21	20475.66
840.594	20191.91
840.977	20314.77
841.361	20165.24
841.744	20476.38
842.127	20194.97
842.511	20378.31
842.894	20955.77
843.277	21272.17
843.66	21750.49
844.043	21726.31
844.426	20743.77
844.809	20312.75
845.191	20254.14
845.574	19669.74
845.957	19173.62
846.339	18913.16
846.722	18183.98
847.104	18064.53
847.487	17705.16
847.869	17552.69
848.252	17681.84
848.634	17853.61
849.016	17958.35
849.398	17933.34
849.78	18617.07
850.162	18456.86
850.544	18679.74
850.926	19068.55
851.307	18745.04
851.689	18757.53
852.071	18958.11
852.452	19058.73
852.834	18872.58
853.215	19066.73
853.597	19049.14
853.978	19175.71
854.359	19469.65
854.741	18561.6
855.122	18512.26
855.503	18344.03
855.884	18553.11
856.265	18538.56
856.646	18646.58
857.026	18278.28
857.407	18184.08
857.788	18270.08
858.169	18454.47
858.549	17625.85
858.93	18092.11
859.31	18043.59
859.69	18130.53
860.071	17683.21
860.451	17407.63
860.831	16689.79
861.211	17573.24
861.591	17936.47
861.971	17803.65
862.351	17826.28
862.731	17975.31
863.111	17963.43
863.491	17977.97
863.87	18422.74
864.25	18469.04
864.629	17943.03
865.009	18128.35
865.388	18567.81
865.768	19700.51
866.147	19441.19
866.526	18242.04
866.905	18392.07
867.284	19412.37
867.663	18460.05
868.042	17710.56
868.421	17645.38
868.8	17934.03
869.179	18090.86
869.558	17009.62
869.936	15650.97
870.315	15891.74
870.693	16228.76
871.072	17422.89
871.45	16537.55
871.828	16666.09
872.207	17442.88
872.585	17101.89
872.963	17473.55
873.341	16789.87
873.719	16506.46
874.097	16219.41
874.475	16458.34
874.853	16771.14
875.23	16013.88
875.608	16604.72
875.986	17897.1
876.363	17039.31
876.741	17489.95
877.118	16975.33
877.495	17708.36
877.873	17906.78
878.25	18740.26
878.627	17881.76
879.004	18036.16
879.381	17857.64
879.758	17292.26
880.135	16001.7
880.512	16827.62
880.889	16300.2
881.265	16050.87
881.642	15860.54
882.019	16072.12
882.395	15691.04
882.772	16242.59
883.148	15449.38
883.524	15295.98
883.901	15125
884.277	15269.06
884.653	15095.47
885.029	15432.2
885.405	17005.81
885.781	16777.62
886.157	16010.91
886.532	16115.36
886.908	16023.07
887.284	17735.87
887.659	18259.71
888.035	18755.1
888.411	19159.13
888.786	19323.96
889.161	19900.4
889.537	19414.28
889.912	19900.31
890.287	19710.77
890.662	20042.06
891.037	19495.53
891.412	17984.08
891.787	17567.38
892.162	16711.86
892.536	16822.92
892.911	15895
893.286	15243.72
893.66	14319.89
894.035	14355.27
894.409	15264.79
894.784	14313.83
895.158	14195.14
895.532	14659.72
895.906	14671.59
896.281	14610.76
896.655	14015.71
897.029	15642.88
897.402	15956.52
897.776	17400.73
898.15	17023.31
898.524	16572.41
898.898	16527.73
899.271	18257.35
899.645	15646.79
900.018	14942
900.392	15517.29
900.765	15729.24
901.138	14685.3
901.511	14615.06
901.884	13615.57
902.258	12764.68
902.631	13395.9
903.003	15658.69
903.376	14328.32
903.749	16256.91
904.122	17546.47
904.495	19379.89
904.867	19561.35
905.24	16864.17
905.612	15529.77
905.985	15645.21
906.357	16071.1
906.729	15048.59
907.102	12598.52
907.474	11878.58
907.846	11726.13
908.218	11395.51
908.59	9952.13
908.962	9540.18
909.334	10191.62
909.705	10651.44
910.077	10286.88
910.449	10657.32
910.82	10890.66
911.192	11921.33
911.563	12346.36
911.935	13172.71
912.306	13122.82
912.677	13450.21
913.048	13213.79
913.419	14215.62
913.79	14175.77
914.161	15099.59
914.532	14366
914.903	13154.41
915.274	12446.85
915.645	12215.03
916.015	10727.25
916.386	10252.56
916.756	10947.01
917.127	11365.53
917.497	10255.06
917.868	11282.22
918.238	10844.67
918.608	11283.02
918.978	11659.42
919.348	12500.8
919.718	13084.34
920.088	12769.88
920.458	13379.94
920.828	14151.69
921.198	13463.06
921.567	14371.03
921.937	11103.94
922.306	11176.21
922.676	11989.72
923.045	9973.04
923.415	9445.55
923.784	8555.2
924.153	8730.23
924.522	8663.01
924.891	8100.27
925.26	8602.06
925.629	8305.38
925.998	9431.92
926.367	9062.35
926.736	8497.99
927.104	9905.51
927.473	10371.47
927.842	12155.49
928.21	11619.77
928.578	11736.78
928.947	10629.75
929.315	10220.7
929.683	11447.21
930.051	10957.85
930.42	12075.46
930.788	9762.11
931.156	9132.16
931.523	8081.38
931.891	7036.08
932.259	6388.15
932.627	7039.32
932.994	9432.36
933.362	7479.34
933.729	6228.74
934.097	5765.34
934.464	4756.12
934.831	5353.51
935.199	5196.71
935.566	5000.49
935.933	5121.18
936.3	6277.54
936.667	4957.25
937.034	4700.02
937.401	4785.54
937.767	4313.03
938.134	4018.02
938.501	5907.54
938.867	6612.54
939.234	11743.49
939.6	10517.05
939.967	12058.04
940.333	8463.59
940.699	7435.76
941.065	6032.11
941.431	8064.27
941.798	7925.8
942.163	10520.69
942.529	6598.24
942.895	6071.29
943.261	3939.67
943.627	5156.61
943.992	4480.99
944.358	4419.18
944.723	4424.78
945.089	4298.93
945.454	3963.64
945.82	4175.37
946.185	3981.2
946.55	4613.35
946.915	4144.63
947.28	4861.43
947.645	4280.33
948.01	3979.41
948.375	4171.26
948.74	4971.15
949.104	5793.86
949.469	8315.37
949.834	14756.96
950.198	14068.8
950.562	8467.12
950.927	7028.46
951.291	8381.6
951.655	7101.9
952.02	6581.73
952.384	4973.79
952.748	4354.55
953.112	4263.69
953.476	3702.55
953.839	3388.58
954.203	3347.33
954.567	4136.45
954.931	6487.8
955.294	5570.41
955.658	5616.89
956.021	9570.5
956.385	16198.16
956.748	23929.87
957.111	36889.5
957.474	41394.68
957.837	46597.77
958.2	35071.13
958.563	12685.44
958.926	8608.28
959.289	13056.77
959.652	14618.13
960.015	11051.33
960.377	15874.14
960.74	18137.16
961.102	31295.61
961.465	33956.61
961.827	18750.34
962.189	36369.92
962.552	25514.46
962.914	20654.18
963.276	13536.19
963.638	11303.18
964	11275.79
964.362	7701.64
964.724	7484.37
965.085	5414.31
965.447	4485.55
965.809	5088.03
966.17	5131.28
966.532	5641.9
966.893	5269.08
967.255	4870.62
967.616	5824.47
967.977	4752.22
968.338	5294.35
968.699	4461.5
969.061	4559.76
969.421	4695.99
969.782	5382.93
970.143	4650.45
970.504	4901.86
970.865	5644.25
971.225	5885.42
971.586	5817.49
971.946	8359.27
972.307	7288.12
972.667	9501.79
973.027	9780.1
973.388	11752.18
973.748	7947.57
974.108	8634.67
974.468	11526.67
974.828	8858.16
975.188	6739.64
975.548	6168.34
975.907	5146.81
976.267	5759.34
976.627	4874.61
976.986	5041.94
977.346	4823.35
977.705	4658.42
978.064	4247.77
978.424	3567.18
978.783	3698.73
979.142	4246.7
979.501	4079.26
979.86	4336.91
980.219	4193.95
980.578	5425.27
980.937	6121.14
981.296	5534.44
981.654	5738.73
982.013	8984.94
982.371	11750.23
982.73	11092.11
983.088	12674.66
983.447	13748.13
983.805	19950.67
984.163	42157.96
984.521	46946.81
984.879	69119.41
985.237	-113115.16
985.595	110217.32
985.953	27577.87
986.311	15979.52
986.669	9341.94
987.026	8113.05
987.384	10948.49
987.741	11319.52
988.099	8183.79
988.456	6594.63
988.814	6256.6
989.171	5464.05
989.528	5400.59
989.885	5732.82
990.242	4584.41
990.599	5727.18
990.956	4696.94
991.313	3298.95
991.67	2732.56
992.027	2933.22
992.383	2618.42
992.74	2316.29
993.096	2445.41
993.453	2545.1
993.809	2647.99
994.165	3540.27
994.522	3287.44
994.878	3663.74
995.234	4627.46
995.59	4583.42
995.946	4303.9
996.302	4939.71
996.658	5703.8
997.013	6278.26
997.369	7524.97
997.725	9740.49
998.08	6349.77
998.436	9705.55
998.791	13367.04
999.147	13363.03
999.502	14644.71
999.857	10657.62
1000.212	17393.95
1000.567	24888.87
1000.922	14455.95
1001.277	9234.96
1001.632	6850.76
1001.987	8842.8
1002.342	6367.22
1002.696	5123.9
1003.051	4124.65
1003.406	5007.87
1003.76	5021.13
1004.114	4973.6
1004.469	4201.73
1004.823	3495.51
1005.177	3740.8
1005.531	2992.15
1005.885	2678.93
1006.239	3070.79
1006.593	3857.47
1006.947	5194.18
1007.301	3923.44
1007.655	4309.81
1008.008	3173.74
1008.362	3599.74
1008.715	5157.04
1009.069	4744.27
1009.422	7197.69
1009.776	14478.19
1010.129	9605.42
1010.482	8084.5
1010.835	6828.65
1011.188	14280.35
1011.541	13489.05
1011.894	-83312.16
1012.247	243903.44
1012.6	16671.47
1012.952	10595.88
1013.305	5457.59
1013.657	3975.34
1014.01	3774.7
1014.362	3122.76
1014.715	2817.12
1015.067	2478.57
1015.419	2435.45
1015.771	2181.29
1016.123	1978.12
1016.475	2054.34
1016.827	2206.57
1017.179	2383.79
1017.531	2411.62
1017.883	2484.32
1018.234	2437.89
1018.586	3079.49
1018.938	3272.44
1019.289	4567.47
1019.64	5226.34
1019.992	4887.66
1020.343	4490.51
1020.694	3585.97
1021.045	3214
1021.396	3704.67
1021.747	4000.99
1022.098	4817.99
1022.449	3541.81
1022.8	3340.78
1023.151	2357.83
1023.501	2121.56
1023.852	2323.49
1024.202	2453.47
1024.553	2711.07
1024.903	2679.19
1025.253	2302.56
1025.604	2105.29
1025.954	2633.38
1026.304	3228.5
1026.654	3783.62
1027.004	5554.78
1027.354	9029.19
1027.703	8573.95
1028.053	11306.46
1028.403	16554.05
1028.753	24129.02
1029.102	33260.42
1029.452	172183.23
1029.801	7526.33
1030.15	4896.3
1030.499	4155.3
897.758	1934.72
901.051	1858.41
904.343	1890.81
907.636	1898.77
910.928	1956.1
914.22	1883.67
917.511	1888.05
920.803	1927.85
924.094	1916.52
927.384	1926.8
930.675	1888.02
933.965	1854.64
937.255	1891.89
940.544	1866.44
943.834	1851.98
947.123	1799.7
950.411	1879.29
953.7	1863.53
956.988	1855.11
960.276	1791.13
963.563	1825.91
966.851	1841.45
970.138	1874.29
973.424	1874.7
976.711	1828.48
979.997	1875.95
983.283	1910.92
986.568	1853.09
989.853	1834.66
993.138	1855.62
996.423	1937.88
999.708	1905.37
1002.992	1929.46
1006.275	1844.2
1009.559	1847.93
1012.842	1932.79
1016.125	1893.76
1019.408	1875.14
1022.69	1917.06
1025.972	1951.98
1029.254	1929.45
1032.536	1902.82
1035.817	1902.39
1039.098	1876.06
1042.379	1920.23
1045.659	1940.45
1048.939	1895.81
1052.219	1897.9
1055.498	1884.29
1058.778	1881.12
1062.057	1856.67
1065.335	1877.54
1068.614	1883.88
1071.892	1884.8
1075.17	1922.82
1078.447	1930.36
1081.724	1924.42
1085.001	1943.5
1088.278	1921.53
1091.554	1924.49
1094.83	1919.21
1098.106	1950.97
1101.382	1973.47
1104.657	1969.77
1107.932	1969.86
1111.206	1954.02
1114.481	1907.18
1117.755	1908.71
1121.029	1904.72
1124.302	1961.38
1127.575	1933.91
1130.848	1934.33
1134.121	1908.25
1137.393	1876.55
1140.665	1927.61
1143.937	1907.49
1147.208	1856.86
1150.48	1914.05
1153.75	1902.87
1157.021	1892.62
1160.291	1873.87
1163.561	1922.45
1166.831	1887.37
1170.101	1908.91
1173.37	1866.44
1176.639	1831.85
1179.907	1868.86
1183.176	1891.68
1186.444	1891.31
1189.711	1911.81
1192.979	1939.88
1196.246	1900.02
1199.513	1911.21
1202.78	1916.36
1206.046	1925.4
1209.312	1954.66
1212.578	1966.07
1215.843	1940.64
1219.108	1913.52
1222.373	1935.6
1225.638	1914.31
1228.902	1910.38
1232.166	1870.82
1235.43	1861.14
1238.693	1889.7
1241.956	1879.64
1245.219	1928.16
1248.482	1910.32
1251.744	1908.77
1255.006	2009.44
1258.268	1958.48
1261.529	1924.34
1264.79	1920.24
1268.051	2002.01
1271.312	2010.05
1274.572	1982.04
1277.832	1970.04
1281.092	1947.82
1284.351	1944.62
1287.61	1932.52
1290.869	1880.16
1294.128	1882.41
1297.386	1910.1
1300.644	1905.15
1303.902	1918.1
1307.159	1802.08
1310.416	1844.51
1313.673	1870.6
1316.93	1873.63
1320.186	1896.72
1323.442	1924.14
1326.697	1929.89
1329.953	1904.61
1333.208	1944.53
1336.463	1919.85
1339.717	1889.44
1342.972	1982.55
1346.226	1959.98
1349.479	1922.21
1352.733	1906.68
1355.986	1908.67
1359.238	1894.77
1362.491	1900.29
1365.743	1901.38
1368.995	1895.34
1372.247	1909.47
1375.498	1928.08
1378.749	1974.53
1382	1931.29
1385.251	1960.77
1388.501	1918.57
1391.751	1928.03
1395	1896.8
1398.25	1921.47
1401.499	1950.7
1404.748	1910.82
1407.996	1891.8
1411.244	1883.91
1414.492	1871.5
1417.74	1860.59
1420.987	1863.83
1424.234	1920.65
1427.481	1880.8
1430.728	1934.96
1433.974	1911.27
1437.22	1904.14
1440.465	1900.07
1443.711	1909.11
1446.956	1925.78
1450.201	1894.72
1453.445	1932.2
1456.689	1924.5
1459.933	1929.7
1463.177	1967.59
1466.42	1941.6
1469.663	1926.65
1472.906	1945.35
1476.148	1982.2
1479.391	1940.88
1482.633	1921.01
1485.874	1946.98
1489.115	1954.92
1492.356	1931.8
1495.597	1915.78
1498.838	1902.87
1502.078	1893.56
1505.318	1872.16
1508.557	1897.1
1511.797	1896.84
1515.036	1944.75
1518.274	1909.52
1521.513	1856.33
1524.751	1863.2
1527.989	1885.64
1531.227	1900.78
1534.464	1917.75
1537.701	1904.14
1540.938	1911.33
1544.174	1861.32
1547.41	1846.96
1550.646	1881.22
1553.882	1926.59
1557.117	1980.96
1560.352	1982.49
1563.587	1949.51
1566.821	1921.27
1570.055	1928.83
1573.289	1910.04
1576.523	1953.68
1579.756	1971.4
1582.989	1989.66
1586.222	1951.55
1589.454	1975.37
1592.686	1961.3
1595.918	1986.02
1599.15	1984.44
1602.381	2018.79
1605.612	2007.36
1608.843	2088.04
1612.073	2022.78
1615.303	2012.13
1618.533	2010.81
1621.762	2007.83
1624.992	1979.99
1628.221	1984.29
1631.449	1975.38
1634.678	1990.7
1637.906	1962.11
1641.134	1984.88
1644.361	1955.36
1647.588	1947.46
1650.815	1967
1654.042	1929.13
1657.269	1954.4
1660.495	1943.8
1663.72	1922.18
1666.946	1895.82
1670.171	1882.08
1673.396	1855.82
1676.621	1839.35
1679.845	1831.54
1683.069	1832.38
1686.293	1856.33
1689.517	1855.52
1692.74	1817.91
1695.963	1834.22
1699.185	1875.75
1702.408	1854.28
1705.63	1876.16
1708.852	1897.95
1712.073	1868.64
1715.294	1887.75
1718.515	1924.92
1721.736	1890.31
1724.956	1870.83
1728.176	1889.47
1731.396	1908.95
1734.616	1898.27
1737.835	1933.68
1741.054	1903.04
1744.272	1897.53
1747.491	1939.07
1750.709	1951.74
1753.927	1919.16
1757.144	1937.37
1760.361	1992.59
1763.578	1965.06
1766.795	1924.37
1770.011	1913.41
1773.227	1930.71
1776.443	1974.92
1779.658	2009.61
1782.874	1955.2
1786.089	1953.49
1789.303	1955.5
1792.518	1952.33
1795.732	1941.76
1798.945	1959.66
1802.159	1995.49
1805.372	1954.31
1808.585	1950.88
1811.797	1951.1
1815.01	1964.44
1818.222	1993.86
1821.434	1950.8
1824.645	1984.53
1827.856	1999.88
1831.067	2025.31
1834.278	1966.34
1837.488	1954.48
1840.698	2055.85
1843.908	2012.91
1847.117	1987.08
1850.326	1935.31
1853.535	1978.93
1856.744	2020.4
1859.952	1957.5
1863.16	1961.28
1866.368	1976.64
1869.575	2086.85
1872.782	1981.24
1875.989	1924.28
1879.196	1961.56
1882.402	1959.09
1885.608	1988.67
1888.814	1949.61
1892.019	1873.18
1895.224	1921.84
1898.429	1885.71
1901.634	1874.99
1904.838	1852.72
1908.042	1912.58
1911.246	1926.23
1914.449	1901.73
1917.652	1880.33
1920.855	1862.23
1924.058	1877.94
1927.26	1924.21
1930.462	1941.97
1933.664	1986.13
1936.865	1934.11
1940.066	1952.04
1943.267	1896.78
1946.467	1904.41
1949.668	1919.36
1952.868	1984.07
1956.067	1979.65
1959.267	1926.05
1962.466	1945.88
1965.665	1927.51
1968.863	1923.5
1972.061	1919.72
1975.259	1910.73
1978.457	1979.74
1981.654	1943.29
1984.852	1946.94
1988.048	1910.82
1991.245	1893.98
1994.441	1978.35
1997.637	1927.21
2000.833	1914.43
2004.028	1942
2007.223	2002.51
2010.418	1997.03
2013.613	1946.54
2016.807	1948.28
2020.001	1937.89
2023.194	1953.54
2026.388	1940.35
2029.581	1886.41
2032.774	1951.97
2035.966	1961.48
2039.158	1918.18
2042.35	1934.5
2045.542	1861.36
2048.733	1933.82
2051.924	1917.04
2055.115	1928.34
2058.306	1901.06
2061.496	1951.82
2064.686	1991.92
2067.875	1902.03
2071.065	1899.43
2074.254	1912.92
2077.442	1873.11
2080.631	1948.77
2083.819	1897.29
2087.007	1891.11
2090.195	1883.14
2093.382	1889.26
2096.569	1877.52
2099.756	1845.59
2102.942	1898.14
2106.128	1915.94
2109.314	1902.98
2112.5	1895.17
2115.685	1862.23
2118.87	1868.18
2122.055	1925.44
2125.239	1908.74
2128.424	1903.45
2131.608	1942.72
2134.791	1929.74
2137.974	1958.82
2141.157	1949.13
2144.34	1930.69
2147.523	1910.53
2150.705	1940.58
2153.887	1905.89
2157.068	1889.12
2160.25	1861.28
2163.431	1880.26
2166.611	1859.19
2169.792	1881.97
2172.972	1802.4
2176.152	1842.14
2179.331	1863.7
2182.511	1876.19
2185.69	1895.11
2188.868	1904.85
2192.047	1928.19
2195.225	1956.91
2198.403	1903.86
2201.58	1891.8
2204.758	1875.72
2207.935	1944.21
2211.111	1873.86
2214.288	1865.44
2217.464	1894.86
2220.64	1847.06
2223.815	1889.92
2226.991	1830.92
2230.166	1843.96
2233.34	1889.66
2236.515	1898.85
2239.689	1955.22
2242.863	1911.65
2246.036	1960.6
2249.209	1940.02
2252.382	1953.09
2255.555	1968.79
2258.727	1926.73
2261.9	1951.88
2265.071	1945.41
2268.243	1943.15
2271.414	1899.98
2274.585	1892.39
2277.756	1946.52
2280.926	1906.79
2284.096	1930.13
2287.266	1873.25
2290.436	1916.41
2293.605	1931.17
2296.774	1970.12
2299.942	1967.3
2303.111	1983.05
2306.279	2034.84
2309.447	2018.83
2312.614	1990.48
2315.781	2013.2
2318.948	1996.24
2322.115	2029.11
2325.281	1932.9
2328.447	1936.72
2331.613	1910.3
2334.779	1909.75
2337.944	1901.77
2341.109	1904.75
2344.274	1896.65
2347.438	1868.6
2350.602	1886.8
2353.766	1893.49
2356.929	1886.09
2360.092	1918.77
2363.255	1899.23
2366.418	1876.32
2369.58	1919.71
2372.742	1842.21
2375.904	1825.58
2379.066	1815.74
2382.227	1836.89
2385.388	1801.93
2388.548	1762.22
2391.709	1795.15
2394.869	1792.07
2398.029	1826.09
2401.188	1814.69
2404.347	1794.32
2407.506	1838.05
2410.665	1884.09
2413.823	1863.14
2416.981	1851.51
2420.139	1859.59
2423.296	1895.9
2426.453	1871.52
2429.61	1889.67
2432.767	1875.74
2435.923	1917.04
2439.079	1859.95
2442.235	1885.49
2445.391	1833.45
2448.546	1877.55
2451.701	1905.65
2454.855	1913.78
2458.009	1930.11
2461.163	1914.96
2464.317	1892.69
2467.471	1914.6
2470.624	1936.18
2473.777	1936.01
2476.929	1954.4
2480.082	1975.86
2483.234	1956.27
2486.385	1895.02
2489.537	1887.4
2492.688	1891.27
2495.839	1905.33
2498.989	1919.5
2502.14	1908.15
2505.29	1904.98
2508.439	1924.41
2511.589	1875.3
2514.738	1866.74
2517.887	1885.43
2521.035	1963.12
2524.183	1915.57
2527.331	1903.58
2530.479	1905.25
2533.627	1904.82
