Data from C_1_DIV_PA_2N_Splice17_12-01-04-572.txt Node
Date: Sat Mar 14 12:01:04 EDT 2020
User: sa697716
Spectrometer: FLMS03696
Trigger mode: 0
Integration Time (sec): 3.180400E-1
Scans to average: 20
Electric dark correction enabled: true
Nonlinearity correction enabled: true
Boxcar width: 5
XAxis mode: Wavelengths
Number of Pixels in Spectrum: 2048
>>>>>Begin Spectral Data<<<<<
187.83	-265225.3
188.298	1967.98
188.766	1005.03
189.233	956.29
189.701	1338.99
190.169	1786.32
190.636	737.81
191.104	640.45
191.571	132.25
192.039	-17.34
192.506	-17.79
192.974	510.04
193.441	-681.33
193.908	-207.29
194.375	-33.49
194.842	24.1
195.31	49.65
195.777	166.97
196.244	387.72
196.711	480.77
197.177	606.73
197.644	903.15
198.111	1612.51
198.578	2244.71
199.045	1801.84
199.511	2928.24
199.978	3422.97
200.445	2896.82
200.911	3220.17
201.378	3614.64
201.844	3288.51
202.31	5675.44
202.777	5893.26
203.243	3273.37
203.709	3108.83
204.176	3677.56
204.642	3069.48
205.108	2871.61
205.574	2335.26
206.04	2137.34
206.506	2001.53
206.972	1889.91
207.438	1821
207.903	2072.86
208.369	1796.53
208.835	1808.47
209.301	1896.7
209.766	1942.73
210.232	1912.32
210.697	2376.82
211.163	2909.28
211.628	4384.19
212.094	3687.9
212.559	4524.13
213.024	2811.35
213.49	3413.51
213.955	3296.69
214.42	3228.91
214.885	3005.87
215.35	2895.75
215.815	2785.27
216.28	2955.88
216.745	2399.14
217.21	2577.24
217.675	2358.48
218.14	2635.72
218.604	2946.31
219.069	3353.9
219.534	3513.27
219.998	4084.56
220.463	4945.45
220.927	6099.96
221.392	5759.99
221.856	5847.84
222.32	7390.85
222.785	9157.25
223.249	11566.46
223.713	12939.43
224.177	12981.86
224.642	16671.36
225.106	20541.75
225.57	22520.94
226.034	16779.86
226.497	25646.95
226.961	23204.84
227.425	27077.74
227.889	30100.7
228.353	30185.39
228.816	62547.42
229.28	59986.31
229.744	50829.89
230.207	30995.19
230.671	30565.22
231.134	50702.93
231.597	58530.68
232.061	58781.37
232.524	57523.71
232.987	39739.98
233.45	35873.83
233.914	32272.87
234.377	33212.3
234.84	30486.53
235.303	36082.87
235.766	40431.81
236.229	41949.63
236.691	26504.07
237.154	29843.86
237.617	22542.94
238.08	23165.94
238.542	27218.3
239.005	19487.62
239.468	19371.53
239.93	18293.29
240.393	16650.45
240.855	14635.13
241.317	15006.8
241.78	18298.15
242.242	18941.43
242.704	20450.87
243.166	17829.44
243.629	16201.15
244.091	18731.45
244.553	20549.26
245.015	22114.05
245.477	28674.3
245.939	42111.43
246.4	44755.82
246.862	43591.91
247.324	41163.02
247.786	46156.72
248.247	60635.04
248.709	62718.15
249.17	46897.07
249.632	44272.63
250.093	51368.21
250.555	44380.31
251.016	27091.42
251.477	25746.38
251.939	27820.89
252.4	29259.32
252.861	34859.26
253.322	32447.3
253.783	38713.02
254.244	50305.97
254.705	39713.78
255.166	35395.2
255.627	34876.05
256.088	49246.22
256.549	52386.66
257.009	45156.03
257.47	54844.83
257.931	44707.72
258.391	33512.84
258.852	34553.61
259.312	36252.9
259.773	44899.65
260.233	37950.26
260.694	32054.46
261.154	36400.11
261.614	29207.62
262.074	26144.5
262.534	27149.88
262.994	25597.68
263.455	34134.93
263.915	28730.95
264.374	27085.13
264.834	29552.37
265.294	32793.4
265.754	34009.48
266.214	32214.99
266.673	30218.31
267.133	38123.36
267.593	37880.86
268.052	46391.31
268.512	40357.34
268.971	48702.94
269.431	53385.13
269.89	47829.63
270.349	71675.54
270.809	79919.09
271.268	71846.93
271.727	161263.1
272.186	104615.62
272.645	78476.05
273.104	56643.81
273.563	82086.62
274.022	64621.31
274.481	55036.94
274.94	42413.44
275.399	31572.5
275.857	36769.12
276.316	49765.88
276.775	44292.5
277.233	43559.99
277.692	40773.92
278.15	46121.74
278.609	47453.33
279.067	43940.7
279.525	40811.18
279.984	52741.44
280.442	63368.74
280.9	62454.28
281.358	41129.6
281.816	38348.62
282.274	37595.58
282.732	38907.54
283.19	39136.87
283.648	33814.19
284.106	36071.85
284.564	36748.85
285.021	34081.1
285.479	25416.51
285.937	23155.23
286.394	20311.82
286.852	20933.24
287.309	22039.29
287.767	21296.47
288.224	20257.3
288.682	22245.69
289.139	24410.81
289.596	22345.13
290.053	23275.3
290.511	29431.5
290.968	35788.5
291.425	48682.75
291.882	40510.06
292.339	35304.18
292.796	35096.08
293.252	33145.49
293.709	26362.23
294.166	23671.92
294.623	26233.84
295.079	25203.66
295.536	25345.68
295.992	23011.74
296.449	22790.21
296.905	23729.82
297.362	22777.47
297.818	23978.91
298.274	24888.62
298.731	25411.2
299.187	25187.33
299.643	27056.95
300.099	32775.25
300.555	35964.02
301.011	30099.87
301.467	28987.84
301.923	34005.36
302.379	33256.63
302.835	32727.55
303.291	32810.18
303.746	37405.55
304.202	47301.09
304.658	47592.75
305.113	32026.09
305.569	31447.21
306.024	33592.88
306.479	32087.29
306.935	27046.29
307.39	29583.38
307.845	27342.75
308.301	27561.23
308.756	26891.65
309.211	25936.72
309.666	26557.05
310.121	32985.78
310.576	33504.21
311.031	33241.16
311.486	38091.65
311.94	38109.65
312.395	51015.69
312.85	95973.56
313.305	472171.12
313.759	2442652.96
314.214	177030.7
314.668	140433.04
315.123	118199.38
315.577	42397.04
316.032	37754.79
316.486	47324.28
316.94	37370.99
317.394	26014.42
317.849	20216.67
318.303	19142
318.757	18055.37
319.211	19998.36
319.665	17528.85
320.119	17748.03
320.572	25476.01
321.026	23804
321.48	19830.56
321.934	21663.05
322.387	21734.49
322.841	23480.98
323.295	21085.11
323.748	24322.96
324.202	24657.9
324.655	29602.49
325.108	41351.49
325.562	29263.55
326.015	34838.31
326.468	26375.11
326.921	29490.08
327.374	27516.15
327.827	28657.19
328.28	32485.22
328.733	21768.65
329.186	19177.39
329.639	18289.37
330.092	15446.41
330.545	14710.46
330.997	14832
331.45	16191.04
331.903	18993.8
332.355	32678.41
332.808	31837.25
333.26	26285.96
333.713	28571.54
334.165	28776.98
334.617	38509.56
335.069	31194.91
335.522	56505.98
335.974	62583.12
336.426	57289.57
336.878	39718.39
337.33	20166.32
337.782	19692.45
338.234	24672.3
338.686	29569.6
339.137	35056.04
339.589	33017.61
340.041	25826.56
340.493	22192.89
340.944	22751.94
341.396	24480.75
341.847	20581.54
342.299	24287.33
342.75	29611.93
343.201	25916.3
343.653	29780.89
344.104	36626.11
344.555	28797.68
345.006	44904.97
345.457	34360.58
345.908	27351.63
346.359	25741.95
346.81	20973.68
347.261	22123.49
347.712	21797.89
348.163	23367.27
348.613	23655.28
349.064	22105.08
349.515	19410.29
349.965	19893.49
350.416	23969.05
350.866	26282.18
351.317	29771.5
351.767	49331.05
352.217	62326.36
352.668	51818.43
353.118	47558.8
353.568	46001.82
354.018	36395.07
354.468	38370.34
354.918	27563.91
355.368	24136.19
355.818	34122.41
356.268	98361.43
356.718	411564.71
357.168	102489.6
357.617	51487.76
358.067	57284.63
358.517	53619.2
358.966	62878.35
359.416	70406.24
359.865	76285.66
360.315	90958.34
360.764	42536.82
361.213	23815.82
361.663	22602.26
362.112	27953.58
362.561	45183.3
363.01	34127.02
363.459	28775.46
363.908	31170.08
364.357	26531.98
364.806	44863.53
365.255	30888.42
365.703	28325.96
366.152	28418.43
366.601	23111.68
367.05	18788.63
367.498	17095.57
367.947	17914.54
368.395	18671.87
368.844	16590.07
369.292	20069.52
369.74	13878.69
370.189	21311.58
370.637	25028.01
371.085	21642.51
371.533	26401.43
371.981	25494.63
372.429	24306.46
372.877	25368.86
373.325	21285.42
373.773	21718.83
374.221	19387.36
374.669	24106.26
375.116	20876.93
375.564	21093.12
376.012	23671.06
376.459	19545.64
376.907	23438.53
377.354	28482.66
377.801	26612.19
378.249	30645.07
378.696	39285.08
379.143	47690.81
379.591	51014.28
380.038	86467.46
380.485	62668.46
380.932	67759.15
381.379	62053.3
381.826	45769.6
382.273	32604.23
382.72	28595.11
383.166	27926.62
383.613	18159.47
384.06	16393.17
384.506	19017.05
384.953	14020.31
385.4	14148.96
385.846	12414.43
386.292	12146.64
386.739	11917.12
387.185	11813.39
387.631	11830.37
388.078	11479.97
388.524	12293.03
388.97	11390.93
389.416	9499.1
389.862	10104.78
390.308	9584.83
390.754	9747.58
391.2	10585.66
391.645	10848.25
392.091	10367.21
392.537	10014.62
392.983	10049.76
393.428	9867.11
393.874	10583.88
394.319	10622.76
394.765	10068.43
395.21	10367.26
395.655	9732.65
396.101	9127.99
396.546	8241.17
396.991	8340.32
397.436	7763.93
397.881	7512.18
398.326	7141.46
398.771	6755.47
399.216	5922.07
399.661	5346.24
400.106	5326.58
400.551	5455.11
400.995	4900.77
401.44	4855.04
401.885	4564.21
402.329	4620.58
402.774	4435.75
403.218	4293
403.663	4145.91
404.107	4266.44
404.551	4301.96
404.995	3957.48
405.44	3829.55
405.884	3897.85
406.328	3781.31
406.772	3781.85
407.216	3451.92
407.66	3348.06
408.104	3193.68
408.547	2998
408.991	2906.5
409.435	2806.41
409.879	2768.15
410.322	2736.69
410.766	2645.94
411.209	2521.73
411.653	2425.41
412.096	2379.34
412.54	2387.7
412.983	2375.43
413.426	2379.62
413.869	2384.28
414.312	2344.75
414.756	2267.71
415.199	2166.96
415.642	2109.28
416.085	2116.05
416.527	2107.27
416.97	2144.55
417.413	2036.76
417.856	2021.14
418.298	2006.95
418.741	1998.53
419.184	2000.07
419.626	2087.32
420.069	2090.04
420.511	2102.78
420.953	2057.49
421.396	2039.76
421.838	1991.21
422.28	2038.14
422.722	2048.14
423.164	2081.7
423.606	2047.76
424.048	2047.7
424.49	1947.61
424.932	1939.99
425.374	1918.8
425.816	1957.35
426.258	1995.29
426.699	2023.36
427.141	1994.85
427.582	2031.06
428.024	2024.7
428.465	2019.57
428.907	1968.71
429.348	1945.83
429.789	1945.84
430.231	1901.75
430.672	1928.34
431.113	1885.65
431.554	1855.64
431.995	1813.13
432.436	1745.6
432.877	1703.18
433.318	1668.74
433.759	1661.03
434.2	1662.27
434.64	1644.87
435.081	1648.86
435.522	1561.92
435.962	1504.01
436.403	1470.19
436.843	1490.63
437.284	1460.16
437.724	1424.88
438.164	1433.53
438.604	1404.61
439.045	1351.22
439.485	1293.78
439.925	1266.39
440.365	1233.75
440.805	1216.67
441.245	1200.13
441.685	1154.43
442.125	1148.11
442.564	1153.1
443.004	1123.87
443.444	1119.4
443.883	1117.19
444.323	1109.79
444.762	1113.45
445.202	1125.8
445.641	1142.75
446.081	1135.6
446.52	1142.05
446.959	1123.91
447.398	1093.52
447.837	1077.75
448.276	1054.8
448.716	1064.57
449.154	1071.49
449.593	1042.42
450.032	1036.64
450.471	1017.84
450.91	1016.77
451.349	1011.62
451.787	1006.86
452.226	1021.09
452.664	1018.56
453.103	1019.65
453.541	1014.49
453.98	1010.25
454.418	1015.86
454.856	999.76
455.295	996.18
455.733	1000.91
456.171	1005.35
456.609	1005.71
457.047	1002.76
457.485	1015.14
457.923	1015.61
458.361	1003.68
458.798	1005.52
459.236	1001.93
459.674	1009.14
460.111	1014.05
460.549	1004.06
460.987	1002.25
461.424	1000.2
461.862	996.03
462.299	981.17
462.736	979.21
463.173	981.55
463.611	969.85
464.048	967.06
464.485	972.98
464.922	963.76
465.359	960.64
465.796	941.16
466.233	933.57
466.67	923.92
467.106	922.16
467.543	914.73
467.98	903.73
468.416	882.04
468.853	875.66
469.29	849.45
469.726	838.71
470.162	816.06
470.599	809.43
471.035	801.23
471.471	782.19
471.907	777.73
472.344	771.56
472.78	771.59
473.216	781.02
473.652	771.33
474.088	768.57
474.523	764.61
474.959	770.66
475.395	763.21
475.831	757.92
476.266	760.09
476.702	757.11
477.138	747.84
477.573	743.72
478.008	738.91
478.444	739.11
478.879	743.88
479.314	746.97
479.75	744.89
480.185	747.19
480.62	751.78
481.055	753.99
481.49	757.96
481.925	766.69
482.36	779.28
482.795	800.66
483.229	822.82
483.664	839.09
484.099	841.16
484.534	852.75
484.968	858.86
485.403	860.58
485.837	859.71
486.271	856.81
486.706	856.78
487.14	845.71
487.574	829.89
488.009	820.23
488.443	811.42
488.877	817.11
489.311	816.94
489.745	823.83
490.179	827.9
490.613	839.02
491.046	841.67
491.48	844.58
491.914	841.49
492.348	843.34
492.781	843.72
493.215	840.62
493.648	837.3
494.082	838.22
494.515	833.6
494.948	836.94
495.382	836.44
495.815	836.44
496.248	834.97
496.681	842.69
497.114	848.94
497.547	853.47
497.98	861
498.413	860.01
498.846	863.07
499.279	864.36
499.711	860.58
500.144	854.89
500.577	855.94
501.009	859.16
501.442	859.51
501.874	851.48
502.306	842.34
502.739	839.3
503.171	843.31
503.603	836.17
504.036	833.63
504.468	829.07
504.9	828.05
505.332	823.29
505.764	815.79
506.196	810.71
506.627	811.57
507.059	812.9
507.491	808.54
507.923	795.13
508.354	795.22
508.786	792.8
509.217	795.31
509.649	796.77
510.08	800.06
510.512	801.57
510.943	801.16
511.374	797.9
511.805	800.41
512.237	803.12
512.668	814.91
513.099	823.64
513.53	831.58
513.961	834.08
514.391	843.58
514.822	855.32
515.253	867.03
515.684	873.56
516.114	881.86
516.545	885.96
516.975	892.61
517.406	893.3
517.836	883.84
518.267	878.18
518.697	880.39
519.127	874.61
519.558	870.53
519.988	864.72
520.418	863.16
520.848	866.4
521.278	864.77
521.708	882.4
522.138	885.08
522.567	898.86
522.997	908.55
523.427	912.68
523.857	917.75
524.286	918.71
524.716	924.17
525.145	931.37
525.575	934.43
526.004	938.62
526.433	916.46
526.863	913.08
527.292	905.68
527.721	906.62
528.15	906.96
528.579	905.26
529.008	909.79
529.437	920.45
529.866	926.33
530.295	934.07
530.724	940.25
531.152	954.18
531.581	961.81
532.01	970
532.438	973.17
532.867	980.7
533.295	990.25
533.723	993.18
534.152	991.23
534.58	989.95
535.008	981.02
535.436	982.16
535.865	986.15
536.293	992.95
536.721	1000.45
537.149	1013.57
537.576	1014.86
538.004	1021.25
538.432	1024.33
538.86	1023.73
539.287	1028.26
539.715	1035.78
540.143	1036.07
540.57	1033.81
540.998	1031.23
541.425	1019.37
541.852	1008.17
542.28	1006.97
542.707	998
543.134	990.47
543.561	987.51
543.988	983.44
544.415	982.53
544.842	979.22
545.269	974.77
545.696	975.88
546.123	981.56
546.549	975.52
546.976	968.33
547.403	967.26
547.829	967.87
548.256	968.87
548.682	966.52
549.108	962.74
549.535	961.62
549.961	962.51
550.387	954.68
550.813	952.6
551.24	955.58
551.666	955.33
552.092	949.97
552.518	946.13
552.943	942.34
553.369	944.8
553.795	946.65
554.221	947.53
554.646	945.54
555.072	951.79
555.498	952.07
555.923	955.11
556.349	962.42
556.774	966.44
557.199	967.3
557.625	970.26
558.05	966.86
558.475	972.23
558.9	972.02
559.325	967.15
559.75	962.28
560.175	958.98
560.6	955.92
561.025	954.21
561.449	954.45
561.874	955.45
562.299	957.71
562.723	962.14
563.148	956.27
563.572	957.25
563.997	961.18
564.421	963.66
564.846	964.53
565.27	966.65
565.694	965.38
566.118	971.91
566.542	977.38
566.966	973.54
567.39	971.52
567.814	966.72
568.238	966.89
568.662	970.68
569.086	973.71
569.509	977.37
569.933	970.97
570.357	968.36
570.78	958.46
571.204	953.59
571.627	949.37
572.05	948.32
572.474	950.33
572.897	945.32
573.32	943.9
573.743	939.09
574.166	931.56
574.589	933
575.012	930.61
575.435	930.53
575.858	925.86
576.281	921.59
576.704	915.07
577.126	908.05
577.549	903.55
577.972	898.43
578.394	895.66
578.817	894.36
579.239	885.57
579.661	880.08
580.084	874.41
580.506	869.32
580.928	868.32
581.35	864.02
581.772	864.78
582.194	859.2
582.616	854.01
583.038	846.2
583.46	840.59
583.882	840.07
584.303	842.69
584.725	840.87
585.147	845.06
585.568	852.4
585.99	860.25
586.411	864.66
586.833	873.14
587.254	875.81
587.675	886.49
588.096	895.35
588.518	893.38
588.939	886.21
589.36	887.07
589.781	879.59
590.202	864.94
590.623	860.84
591.043	859.5
591.464	853.58
591.885	851.99
592.305	848.07
592.726	840.86
593.147	842.16
593.567	839.55
593.987	834.62
594.408	832.45
594.828	830.83
595.248	828.6
595.669	819.55
596.089	815.92
596.509	812.45
596.929	805.43
597.349	805.31
597.769	800.21
598.189	796.57
598.608	798.28
599.028	799.99
599.448	801.36
599.867	794.02
600.287	791.31
600.706	790.27
601.126	786.28
601.545	786.25
601.965	786.92
602.384	785.3
602.803	788.73
603.222	787.53
603.641	784.46
604.061	783.27
604.48	782.87
604.898	789.4
605.317	793.4
605.736	795.65
606.155	796.62
606.574	793.19
606.992	797.97
607.411	797.15
607.829	793.94
608.248	794.3
608.666	795.74
609.085	798.63
609.503	796.3
609.921	795.26
610.339	798.77
610.758	800.47
611.176	800.27
611.594	797.13
612.012	797.08
612.43	802.04
612.847	809.09
613.265	812.48
613.683	816.57
614.101	819.58
614.518	819.12
614.936	816.27
615.353	810.36
615.771	811.11
616.188	813.81
616.606	814.65
617.023	813.09
617.44	806.55
617.857	803.24
618.274	800.45
618.691	799.21
619.108	795.46
619.525	793.82
619.942	798.92
620.359	802.24
620.776	801.84
621.192	800.98
621.609	801.08
622.026	806.96
622.442	813.35
622.859	816.84
623.275	812.81
623.691	818.23
624.108	826.35
624.524	837.5
624.94	838.99
625.356	846.29
625.772	856.66
626.188	864.35
626.604	866.91
627.02	864.37
627.436	864.31
627.852	870.74
628.268	879.8
628.683	875.08
629.099	869.8
629.514	866.56
629.93	869.57
630.345	873.07
630.761	871.61
631.176	874.66
631.591	873.13
632.007	869.65
632.422	868.7
632.837	861.69
633.252	860.78
633.667	855.05
634.082	851.32
634.497	845.51
634.911	834.61
635.326	834.69
635.741	825.41
636.155	819.54
636.57	823.91
636.984	827.86
637.399	833.3
637.813	837.33
638.228	842.46
638.642	850.3
639.056	847.69
639.47	853.07
639.884	852.79
640.298	854.18
640.712	860.84
641.126	857.3
641.54	857.24
641.954	859.91
642.368	858.16
642.781	859.68
643.195	854.09
643.609	862.21
644.022	865
644.436	870
644.849	868.64
645.262	866.57
645.676	875.42
646.089	880.01
646.502	876.03
646.915	879.86
647.328	872.77
647.741	876.82
648.154	871.38
648.567	874.94
648.98	869.29
649.393	873.88
649.805	877.05
650.218	875.97
650.631	865.4
651.043	864.35
651.456	862.15
651.868	865.85
652.28	885.59
652.693	901.52
653.105	909.93
653.517	922.21
653.929	927.26
654.341	935.17
654.753	929.42
655.165	941.05
655.577	942.74
655.989	942.63
656.401	941.33
656.813	913.52
657.224	901.18
657.636	881.32
658.047	870.37
658.459	858.95
658.87	858.17
659.282	853.51
659.693	840.49
660.104	834.6
660.515	830.96
660.926	835.88
661.338	840.57
661.749	842.34
662.159	842.8
662.57	847.14
662.981	850.75
663.392	850.84
663.803	863.91
664.213	868.91
664.624	872.28
665.035	882.91
665.445	877.02
665.855	876.97
666.266	874.35
666.676	876.98
667.086	873.37
667.497	877.54
667.907	875.81
668.317	869.95
668.727	870.73
669.137	875.98
669.547	876.3
669.956	882.98
670.366	888.59
670.776	894.18
671.186	902.31
671.595	908.88
672.005	914.92
672.414	915.58
672.824	914.82
673.233	922.53
673.642	926.68
674.052	930.71
674.461	933.29
674.87	939.29
675.279	936.28
675.688	938.03
676.097	938.94
676.506	935.7
676.915	953.4
677.323	957.37
677.732	953.92
678.141	952.09
678.549	938.99
678.958	937.31
679.366	935.02
679.775	938.7
680.183	946.39
680.592	949.58
681	951.95
681.408	939.34
681.816	941.06
682.224	944.24
682.632	947.57
683.04	971.7
683.448	988.42
683.856	1009.03
684.264	1033.15
684.671	1053.77
685.079	1079.39
685.487	1105.47
685.894	1144.6
686.302	1170.61
686.709	1184.08
687.116	1199.83
687.524	1204.55
687.931	1201.39
688.338	1193.35
688.745	1178.94
689.152	1167.97
689.559	1165.48
689.966	1162.85
690.373	1142.16
690.78	1136.76
691.187	1145.75
691.593	1145.18
692	1140.41
692.407	1149.41
692.813	1168.34
693.22	1176.99
693.626	1186.37
694.032	1190.88
694.439	1212.7
694.845	1227.26
695.251	1249.82
695.657	1272.44
696.063	1314.11
696.469	1344.22
696.875	1372.65
697.281	1385.49
697.687	1407
698.093	1427.58
698.498	1467.87
698.904	1497.58
699.31	1547.31
699.715	1588.49
700.12	1644.01
700.526	1659.81
700.931	1706.48
701.337	1745.69
701.742	1775.73
702.147	1835.67
702.552	1864.56
702.957	1912.78
703.362	1940.91
703.767	1974.61
704.172	2014.53
704.577	2004.37
704.981	2051.57
705.386	2081.85
705.791	2097.8
706.195	2165.59
706.6	2192.78
707.004	2265.95
707.408	2268.12
707.813	2307.99
708.217	2324.72
708.621	2349.94
709.025	2440.81
709.43	2466.06
709.834	2532.03
710.237	2606.07
710.641	2621.86
711.045	2665.91
711.449	2690.03
711.853	2741.47
712.256	2801.02
712.66	2856.2
713.064	2942.41
713.467	3003.93
713.87	3120.92
714.274	3188.45
714.677	3304.57
715.08	3463.93
715.484	3632.26
715.887	3830.52
716.29	4026.03
716.693	4234.13
717.096	4469.31
717.499	4617.17
717.901	4678.55
718.304	4743.17
718.707	4802.7
719.109	4757.26
719.512	4769.9
719.915	4688.87
720.317	4674.44
720.719	4750.36
721.122	4763.94
721.524	4757.94
721.926	4755.55
722.328	4881.2
722.731	4907.92
723.133	4973.66
723.535	5188.21
723.937	5244.08
724.338	5330.39
724.74	5404.46
725.142	5376.06
725.544	5407.74
725.945	5465.03
726.347	5497.96
726.748	5523.65
727.15	5570.33
727.551	5563.51
727.952	5567.3
728.354	5570.38
728.755	5597.11
729.156	5583.24
729.557	5603.2
729.958	5502.21
730.359	5473.24
730.76	5477.88
731.161	5441.15
731.562	5436.62
731.962	5462.24
732.363	5415.27
732.763	5365.8
733.164	5424.47
733.564	5372.56
733.965	5290.86
734.365	5271.56
734.766	5320.5
735.166	5296.02
735.566	5254.57
735.966	5242.69
736.366	5251.27
736.766	5198.71
737.166	5246.92
737.566	5216.42
737.966	5203.32
738.365	5258.88
738.765	5267.23
739.165	5197.09
739.564	5178.88
739.964	5238.47
740.363	5198.4
740.763	5206.78
741.162	5203.76
741.561	5177.43
741.96	5135.66
742.36	5168.37
742.759	5183.08
743.158	5234.53
743.557	5257.42
743.955	5310.69
744.354	5267.75
744.753	5340.8
745.152	5298.99
745.55	5370.75
745.949	5371.49
746.348	5379.97
746.746	5406.22
747.144	5366.7
747.543	5346.85
747.941	5407.68
748.339	5329.91
748.737	5325.51
749.136	5318.14
749.534	5398.71
749.932	5370.56
750.33	5404.2
750.727	5472.84
751.125	5449.6
751.523	5435.1
751.921	5488.02
752.318	5452.68
752.716	5526.87
753.113	5548.75
753.511	5581.58
753.908	5585.04
754.305	5566.65
754.703	5640.54
755.1	5712.85
755.497	5783.55
755.894	6007.7
756.291	6219.48
756.688	6606.17
757.085	7117.41
757.482	7832.47
757.878	8617.11
758.275	9331.69
758.672	10312.01
759.068	11110.38
759.465	12253.18
759.861	13716.12
760.258	15420.64
760.654	16301.61
761.05	16171.5
761.447	15431.52
761.843	14370.43
762.239	13276.87
762.635	12777.17
763.031	12299.87
763.427	11613.24
763.822	10886.1
764.218	10176.97
764.614	9249.86
765.01	8631.68
765.405	8231.8
765.801	7928.51
766.196	7542.83
766.592	7328.58
766.987	6963.64
767.382	6717.86
767.778	6612.44
768.173	6462.22
768.568	6380.41
768.963	6234.12
769.358	6253.23
769.753	6199.04
770.148	6103.07
770.542	6102.41
770.937	6065.46
771.332	6170.48
771.726	6193.47
772.121	6120.93
772.515	6186.73
772.91	6171.49
773.304	6255.63
773.699	6179.97
774.093	6244.6
774.487	6310.94
774.881	6363.59
775.275	6358.93
775.669	6311.01
776.063	6363.59
776.457	6407.37
776.851	6318.64
777.245	6306.63
777.638	6345.33
778.032	6480.15
778.425	6438.41
778.819	6485.35
779.212	6432.2
779.606	6384.2
779.999	6406.84
780.392	6387.28
780.786	6483.49
781.179	6507.74
781.572	6558.54
781.965	6573.43
782.358	6504.43
782.751	6569.93
783.143	6516.87
783.536	6603.75
783.929	6656.88
784.322	6792.23
784.714	6829.85
785.107	6822.29
785.499	6909.57
785.891	6882.63
786.284	6862.11
786.676	7031.55
787.068	7008.45
787.46	7069.04
787.852	7093.48
788.245	7193.02
788.636	7230.46
789.028	7308.12
789.42	7354.33
789.812	7362.49
790.204	7475.08
790.595	7590.13
790.987	7357.65
791.378	7386.1
791.77	7537.27
792.161	7697.32
792.553	7762.85
792.944	7631.12
793.335	7556.47
793.726	7645.4
794.117	7753.3
794.508	7912.92
794.899	7879.01
795.29	8047.08
795.681	8113.62
796.072	7949.11
796.463	7725.7
796.853	7733.57
797.244	7915.12
797.634	7952.46
798.025	7947.87
798.415	7959.91
798.806	8067.31
799.196	8165.21
799.586	8222.52
799.976	8179.23
800.366	8450.01
800.756	8734
801.146	8685.85
801.536	8720.58
801.926	8805.55
802.316	8836.2
802.706	8917.75
803.095	8774.5
803.485	8894.75
803.874	8943.08
804.264	9246.41
804.653	9208.36
805.043	9375.19
805.432	9507.98
805.821	9508.28
806.21	9530.24
806.599	9671.59
806.988	9727.52
807.377	9849.74
807.766	9997.75
808.155	10329.86
808.544	10021.52
808.933	10041.38
809.321	10022.39
809.71	10362.98
810.098	10547.83
810.487	11083.92
810.875	11637.65
811.264	11654.53
811.652	11986.85
812.04	12155.55
812.428	12338.53
812.816	13227.34
813.204	13712.7
813.592	14348.21
813.98	14741.29
814.368	14626.97
814.756	15189.87
815.144	15098.01
815.531	15639.08
815.919	15553.99
816.306	15905.71
816.694	15545.46
817.081	15597.12
817.469	15997.36
817.856	15992.45
818.243	16297.1
818.63	16754.48
819.017	16254.9
819.404	16325.79
819.791	16775.51
820.178	17492.2
820.565	17790.37
820.952	18871.84
821.339	18296.28
821.725	18510.89
822.112	17646.64
822.498	17610.34
822.885	17763.85
823.271	17661.2
823.657	18149.19
824.044	18152.84
824.43	18236.74
824.816	18190.13
825.202	17686.69
825.588	18872.98
825.974	18893.41
826.36	19491.66
826.746	19523.47
827.132	19934.52
827.517	19901.6
827.903	18984.68
828.289	19037.94
828.674	18136.02
829.06	18022.87
829.445	18482.05
829.83	18898.98
830.216	19455.47
830.601	19890.36
830.986	19416.72
831.371	19264.8
831.756	19912.65
832.141	19425.08
832.526	19416.02
832.911	19741.92
833.295	19608.52
833.68	20161.6
834.065	19442.61
834.449	18383.51
834.834	18302.35
835.218	18303.86
835.603	18704.24
835.987	18469.75
836.371	19440.14
836.755	19325.2
837.139	19798.61
837.524	20090.65
837.908	19885.7
838.291	19960.14
838.675	20041.44
839.059	20283.43
839.443	20277.89
839.827	20013.07
840.21	20573.8
840.594	20405.4
840.977	20643.24
841.361	20626.26
841.744	21063.5
842.127	20885.25
842.511	21174.57
842.894	21873.2
843.277	22323.86
843.66	22954.38
844.043	23053.71
844.426	22113.16
844.809	21748.11
845.191	21782.64
845.574	21240.07
845.957	20821.95
846.339	20702.46
846.722	20097.67
847.104	20169.43
847.487	19959.8
847.869	19972.7
848.252	20294.55
848.634	20677.45
849.016	20987.15
849.398	21141.11
849.78	22140.3
850.162	22140.71
850.544	22622.27
850.926	23339.87
851.307	23242.46
851.689	23577.3
852.071	24111
852.452	24485.57
852.834	24456.92
853.215	24915.96
853.597	25084.53
853.978	25417.22
854.359	25933.56
854.741	24770.24
855.122	24658.98
855.503	24323.91
855.884	24480.34
856.265	24405.96
856.646	24542.17
857.026	24087.08
857.407	24011.41
857.788	24201.76
858.169	24535.45
858.549	23556.37
858.93	24280.85
859.31	24338.13
859.69	24582.24
860.071	24099.7
860.451	23844.54
860.831	22983.85
861.211	24332.41
861.591	24966.23
861.971	24938.2
862.351	25169.85
862.731	25610.71
863.111	25909.57
863.491	26300.74
863.87	27313.76
864.25	27723.54
864.629	27263.53
865.009	27862.58
865.388	28860.48
865.768	30935.78
866.147	30807.99
866.526	29100.41
866.905	29459.6
867.284	31129.36
867.663	29562.63
868.042	28358.57
868.421	28275.48
868.8	28746.96
869.179	29025.29
869.558	27336.46
869.936	25209.11
870.315	25666.91
870.693	26290.44
871.072	28344.24
871.45	27010.59
871.828	27364.09
872.207	28747.74
872.585	28312.78
872.963	29080.32
873.341	28090.21
873.719	27752.34
874.097	27406.51
874.475	27926.82
874.853	28578.5
875.23	27397.9
875.608	28540.33
875.986	30860.04
876.363	29525.65
876.741	30420.6
877.118	29652.85
877.495	31101.49
877.873	31629.88
878.25	33300.7
878.627	31953.19
879.004	32391.84
879.381	32249.28
879.758	31396.82
880.135	29237.7
880.512	30914.01
880.889	30104.2
881.265	29803.31
881.642	29556.9
882.019	30057.72
882.395	29433.12
882.772	30582.3
883.148	29256.26
883.524	29136.24
883.901	28963.01
884.277	29401.16
884.653	29211.73
885.029	30036.66
885.405	33254.74
885.781	33001.97
886.157	31647.07
886.532	32040
886.908	32043.76
887.284	35629.83
887.659	36802.73
888.035	37959.21
888.411	38916.62
888.786	39428.73
889.161	40804.73
889.537	40062.88
889.912	41347.63
890.287	41294.4
890.662	42355.39
891.037	41577.85
891.412	38786.17
891.787	38380.54
892.162	37037.81
892.536	37916.75
892.911	36500.45
893.286	35729.8
893.66	34281.07
894.035	35154.03
894.409	38290.1
894.784	36758.27
895.158	37362.4
895.532	39564.12
895.906	40641.78
896.281	41597.72
896.655	40927.42
897.029	46776.97
897.402	48728.54
897.776	54241.02
898.15	54049.78
898.524	53460.49
898.898	54126.83
899.271	60604.61
899.645	52490.45
900.018	50420.64
900.392	52284.89
900.765	52718.56
901.138	48756.9
901.511	48019.99
901.884	44101.5
902.258	40690.18
902.631	42050.96
903.003	48428.36
903.376	43725.51
903.749	49049.9
904.122	52520.92
904.495	57844.11
904.867	58580.72
905.24	50871.22
905.612	47345.23
905.985	48407.35
906.357	50611.9
906.729	48314.41
907.102	41264.95
907.474	39664.95
907.846	39919.54
908.218	39392.49
908.59	34802.79
908.962	33658.19
909.334	36261.49
909.705	38108.03
910.077	37014.66
910.449	38523.82
910.82	39606.9
911.192	43590.93
911.563	45288.24
911.935	48453.24
912.306	48522.46
912.677	50130.09
913.048	49591.97
913.419	53800.55
913.79	54097.62
914.161	58008.16
914.532	55428.95
914.903	50939.07
915.274	48374.89
915.645	47670.57
916.015	41957.79
916.386	39984.5
916.756	42521.15
917.127	43892.99
917.497	39211.69
917.868	42684.65
918.238	40555.94
918.608	41728.01
918.978	42572.08
919.348	45116.08
919.718	46594.77
920.088	44874.4
920.458	46642.24
920.828	49091.22
921.198	46519.58
921.567	49696.62
921.937	38480.32
922.306	38842.79
922.676	41875.37
923.045	34918.73
923.415	33143.78
923.784	30218.98
924.153	31089.58
924.522	31043.59
924.891	29174.82
925.26	31257.78
925.629	30521.96
925.998	35092.26
926.367	34260.78
926.736	32637.52
927.104	38897.27
927.473	41820.67
927.842	50465.55
928.21	49941.17
928.578	52500.09
928.947	49667.96
929.315	49958.92
929.683	58573.3
930.051	59013.32
930.42	68502.8
930.788	58562.17
931.156	58116.82
931.523	54449.8
931.891	50283.81
932.259	48329.91
932.627	55972.22
932.994	79225.75
933.362	65514.66
933.729	56895.85
934.097	54470.98
934.464	46084.92
934.831	53184.75
935.199	52421.02
935.566	50867.84
935.933	51541.13
936.3	62388.47
936.667	48618.6
937.034	43797.74
937.401	43307.64
937.767	37379.33
938.134	33286.73
938.501	47009.32
938.867	50063.89
939.234	84720.85
939.6	72323.59
939.967	79746.78
940.333	53385.98
940.699	45459.97
941.065	36504
941.431	47831.47
941.798	46088.34
942.163	60483.26
942.529	37760.71
942.895	34766.13
943.261	22465.45
943.627	29454.33
943.992	25804.93
944.358	25849.89
944.723	25933.69
945.089	25290.29
945.454	23370.07
945.82	24974.26
946.185	24006.86
946.55	27809.78
946.915	24970.78
947.28	29302.25
947.645	25795.6
948.01	23797.25
948.375	24785.58
948.74	29725.67
949.104	34688.96
949.469	50172.95
949.834	88695.76
950.198	83999.24
950.562	50333.61
950.927	41862.99
951.291	50395.18
951.655	42982.84
952.02	40410.46
952.384	30561.56
952.748	26610.67
953.112	25918.65
953.476	22513.19
953.839	20788.46
954.203	20569.44
954.567	25717.77
954.931	40509.97
955.294	34610.88
955.658	34771.74
956.021	59117.38
956.385	100338.61
956.748	147998.31
957.111	229665.29
957.474	257439.43
957.837	290312.58
958.2	219998.13
958.563	79144.02
958.926	53556.12
959.289	81335.21
959.652	90782.28
960.015	68058.08
960.377	97663.79
960.74	111493.56
961.102	192491.36
961.465	206829.37
961.827	110626.58
962.189	212080.35
962.552	147016.6
962.914	117807.73
963.276	76461.24
963.638	63234.61
964	62610.94
964.362	42259.81
964.724	40784.91
965.085	29089.9
965.447	23857.29
965.809	27215.66
966.17	27250.21
966.532	29482.04
966.893	27055.01
967.255	24602.97
967.616	29076.2
967.977	23287.55
968.338	25435.88
968.699	20917.69
969.061	20912.93
969.421	21057.5
969.782	23621.04
970.143	19955.57
970.504	20669.71
970.865	23477.14
971.225	23995.07
971.586	23460.26
971.946	33469.42
972.307	29060.95
972.667	37981.78
973.027	39115.38
973.388	47417.7
973.748	32271.53
974.108	35177.82
974.468	47652.45
974.828	36720.45
975.188	28278.22
975.548	25979.47
975.907	21803.21
976.267	24468.48
976.627	20577.91
976.986	21327.16
977.346	20331.99
977.705	19536.37
978.064	17769.36
978.424	14771.85
978.783	15299.13
979.142	17454.69
979.501	16676.93
979.86	17621.68
980.219	16985.93
980.578	21923.15
980.937	24561.18
981.296	21892.28
981.654	22523.55
982.013	35085.57
982.371	45527.52
982.73	42486.23
983.088	48118.8
983.447	51457.64
983.805	73505.47
984.163	153538.03
984.521	170326.42
984.879	249844.2
985.237	-406729.1
985.595	392048.77
985.953	97303.17
986.311	56159.96
986.669	32612.25
987.026	28150.86
987.384	37848.37
987.741	39190.89
988.099	27986.41
988.456	22272.26
988.814	20837.34
989.171	18112.67
989.528	17893.07
989.885	18903.35
990.242	14979.14
990.599	18669.14
990.956	15268.32
991.313	10696.34
991.67	8777.02
992.027	9289.73
992.383	8263.54
992.74	7245.74
993.096	7596.69
993.453	7870.39
993.809	8177.84
994.165	10900.03
994.522	9971.85
994.878	10985.43
995.234	13753.05
995.59	13556.69
995.946	12857.27
996.302	14663.12
996.658	16955.4
997.013	18660.87
997.369	22124.01
997.725	28285.11
998.08	18331.61
998.436	28358.34
998.791	39192.21
999.147	39115.49
999.502	42632
999.857	30994.82
1000.212	50536.13
1000.567	72002.9
1000.922	41584.47
1001.277	26377.79
1001.632	19556.75
1001.987	25145.76
1002.342	18017.33
1002.696	14403.09
1003.051	11486.46
1003.406	13954.84
1003.76	13899.41
1004.114	13699.89
1004.469	11514.92
1004.823	9529.21
1005.177	10295.97
1005.531	8147.57
1005.885	7230.79
1006.239	8156.73
1006.593	10228.6
1006.947	13727.78
1007.301	10270.66
1007.655	11206.82
1008.008	8232.13
1008.362	9250.13
1008.715	13220.13
1009.069	12017.52
1009.422	18080.1
1009.776	36304.11
1010.129	24134.34
1010.482	20152.03
1010.835	17010.13
1011.188	35503.68
1011.541	33432.38
1011.894	-204420.84
1012.247	601023.92
1012.6	40810.56
1012.952	25777.89
1013.305	13350.89
1013.657	9604.48
1014.01	9073.95
1014.362	7485.42
1014.715	6646.74
1015.067	5775.86
1015.419	5634.14
1015.771	4983.81
1016.123	4446.7
1016.475	4571.75
1016.827	4862.28
1017.179	5198.37
1017.531	5261.69
1017.883	5395.38
1018.234	5198.05
1018.586	6559.23
1018.938	6921.97
1019.289	9560.83
1019.64	10943.32
1019.992	10167.74
1020.343	9311.74
1020.694	7342.89
1021.045	6504.99
1021.396	7428.05
1021.747	7956.09
1022.098	9550.63
1022.449	6941.93
1022.8	6482.23
1023.151	4525.41
1023.501	4012.05
1023.852	4351.89
1024.202	4507.57
1024.553	4973.18
1024.903	4833.14
1025.253	4119.77
1025.604	3697.65
1025.954	4607.52
1026.304	5652.61
1026.654	6568.92
1027.004	9600.68
1027.354	15533.14
1027.703	14642.15
1028.053	19304.11
1028.403	27972.94
1028.753	40815.61
1029.102	55692.2
1029.452	286986.66
1029.801	12387.73
1030.15	7934.64
1030.499	6738.69
897.758	2231.65
901.051	2165.65
904.343	2199.75
907.636	2207.43
910.928	2270.75
914.22	2190.44
917.511	2196.01
920.803	2245.19
924.094	2243.9
927.384	2245.9
930.675	2212.47
933.965	2173.95
937.255	2203.12
940.544	2170.67
943.834	2171.1
947.123	2109.18
950.411	2197.36
953.7	2179.74
956.988	2161.65
960.276	2097.51
963.563	2147.9
966.851	2156.19
970.138	2199.84
973.424	2201.88
976.711	2156.79
979.997	2203.93
983.283	2248.93
986.568	2178.23
989.853	2171.33
993.138	2198.88
996.423	2284.5
999.708	2243.47
1002.992	2273.92
1006.275	2184.61
1009.559	2189.65
1012.842	2289.32
1016.125	2242.3
1019.408	2222.1
1022.69	2281.01
1025.972	2313.98
1029.254	2290.34
1032.536	2250.07
1035.817	2262.01
1039.098	2233.1
1042.379	2290.81
1045.659	2318.47
1048.939	2264.44
1052.219	2275.55
1055.498	2270.66
1058.778	2269.04
1062.057	2243.49
1065.335	2267.33
1068.614	2280.84
1071.892	2275.55
1075.17	2328.37
1078.447	2330.76
1081.724	2327.6
1085.001	2354.63
1088.278	2331.28
1091.554	2337.17
1094.83	2331.18
1098.106	2370.54
1101.382	2402.8
1104.657	2401.09
1107.932	2401.31
1111.206	2379.06
1114.481	2332.64
1117.755	2332.27
1121.029	2326.04
1124.302	2386.82
1127.575	2352.83
1130.848	2349.72
1134.121	2315.01
1137.393	2276.31
1140.665	2335.98
1143.937	2314.16
1147.208	2263.08
1150.48	2319.06
1153.75	2307.83
1157.021	2310.84
1160.291	2285.69
1163.561	2339.25
1166.831	2307.2
1170.101	2336.98
1173.37	2295.44
1176.639	2252.89
1179.907	2296.95
1183.176	2321
1186.444	2324.41
1189.711	2349.62
1192.979	2372.52
1196.246	2328.99
1199.513	2340.29
1202.78	2344.94
1206.046	2356.05
1209.312	2382.89
1212.578	2401.96
1215.843	2367.72
1219.108	2333.21
1222.373	2356.44
1225.638	2328.9
1228.902	2321.42
1232.166	2275.15
1235.43	2264.05
1238.693	2289.83
1241.956	2279.08
1245.219	2329.61
1248.482	2310.68
1251.744	2310.24
1255.006	2435.98
1258.268	2383.29
1261.529	2337.29
1264.79	2337.2
1268.051	2439.09
1271.312	2446.94
1274.572	2419.06
1277.832	2406.82
1281.092	2387.94
1284.351	2378.94
1287.61	2362.75
1290.869	2293.11
1294.128	2288.19
1297.386	2339.49
1300.644	2333.33
1303.902	2341.55
1307.159	2210.55
1310.416	2262.18
1313.673	2289.7
1316.93	2285.43
1320.186	2318.03
1323.442	2352.83
1326.697	2354.13
1329.953	2329.25
1333.208	2364.78
1336.463	2334.52
1339.717	2294.42
1342.972	2400.63
1346.226	2371.38
1349.479	2319.09
1352.733	2299.77
1355.986	2302.89
1359.238	2282.35
1362.491	2288.1
1365.743	2285.69
1368.995	2277.4
1372.247	2290.08
1375.498	2309.8
1378.749	2349.47
1382	2298.34
1385.251	2333.81
1388.501	2286.12
1391.751	2285.23
1395	2249.98
1398.25	2276.17
1401.499	2293.62
1404.748	2241.08
1407.996	2219.11
1411.244	2206.75
1414.492	2192.69
1417.74	2178.55
1420.987	2185.46
1424.234	2242.62
1427.481	2206.7
1430.728	2263.78
1433.974	2237.85
1437.22	2239.12
1440.465	2236.25
1443.711	2233.03
1446.956	2257.52
1450.201	2230.04
1453.445	2268.63
1456.689	2255.93
1459.933	2266.07
1463.177	2305.89
1466.42	2278.11
1469.663	2261.41
1472.906	2275.6
1476.148	2324.95
1479.391	2302.33
1482.633	2277.15
1485.874	2300.27
1489.115	2305.89
1492.356	2290.36
1495.597	2270.91
1498.838	2264.99
1502.078	2249.87
1505.318	2219.72
1508.557	2254.83
1511.797	2251.59
1515.036	2290.78
1518.274	2265.65
1521.513	2221.04
1524.751	2234.77
1527.989	2259.15
1531.227	2276.15
1534.464	2289.44
1537.701	2284.23
1540.938	2298.28
1544.174	2248.39
1547.41	2236.93
1550.646	2278.05
1553.882	2326.48
1557.117	2383.34
1560.352	2390.05
1563.587	2352.93
1566.821	2319.62
1570.055	2336.74
1573.289	2318.17
1576.523	2378.41
1579.756	2390.8
1582.989	2415.51
1586.222	2376.28
1589.454	2403.51
1592.686	2388.74
1595.918	2416.21
1599.15	2414.94
1602.381	2462.08
1605.612	2440.78
1608.843	2534.6
1612.073	2457.13
1615.303	2445.23
1618.533	2442.03
1621.762	2439.9
1624.992	2420.04
1628.221	2420.15
1631.449	2410.7
1634.678	2437.21
1637.906	2405.91
1641.134	2435.27
1644.361	2400.5
1647.588	2388.94
1650.815	2410.46
1654.042	2374.74
1657.269	2402.92
1660.495	2378.93
1663.72	2367.97
1666.946	2336.02
1670.171	2307.94
1673.396	2280.5
1676.621	2264.24
1679.845	2261.93
1683.069	2270.33
1686.293	2300.66
1689.517	2288.83
1692.74	2239.81
1695.963	2261.98
1699.185	2299.65
1702.408	2270.89
1705.63	2301.42
1708.852	2320.24
1712.073	2289.84
1715.294	2299.81
1718.515	2341.8
1721.736	2300.59
1724.956	2282.99
1728.176	2304.86
1731.396	2326.53
1734.616	2311.71
1737.835	2349.33
1741.054	2319.5
1744.272	2310.93
1747.491	2348.76
1750.709	2374.98
1753.927	2321.35
1757.144	2348.56
1760.361	2403.87
1763.578	2376.48
1766.795	2326.35
1770.011	2315.9
1773.227	2342.23
1776.443	2384.47
1779.658	2426.92
1782.874	2365.78
1786.089	2357.84
1789.303	2360.88
1792.518	2356.93
1795.732	2342.1
1798.945	2360.08
1802.159	2401.13
1805.372	2341.59
1808.585	2334.73
1811.797	2335.01
1815.01	2357.75
1818.222	2380.22
1821.434	2336.91
1824.645	2382.26
1827.856	2389.71
1831.067	2421.78
1834.278	2360.17
1837.488	2343.91
1840.698	2467.07
1843.908	2406.96
1847.117	2374.81
1850.326	2296.84
1853.535	2359.62
1856.744	2394.67
1859.952	2313.71
1863.16	2314.49
1866.368	2331.2
1869.575	2441.35
1872.782	2324.09
1875.989	2259.01
1879.196	2311.42
1882.402	2301.21
1885.608	2335.71
1888.814	2274.58
1892.019	2182.45
1895.224	2233.58
1898.429	2202.04
1901.634	2183.9
1904.838	2157.55
1908.042	2215.44
1911.246	2227.22
1914.449	2187.09
1917.652	2169.74
1920.855	2150.9
1924.058	2178.26
1927.26	2222.94
1930.462	2246.46
1933.664	2284.33
1936.865	2225.67
1940.066	2244.66
1943.267	2188.27
1946.467	2196.29
1949.668	2216.14
1952.868	2289.35
1956.067	2278.02
1959.267	2216.75
1962.466	2240.29
1965.665	2222.93
1968.863	2214.32
1972.061	2217.83
1975.259	2211.34
1978.457	2286.45
1981.654	2249.69
1984.852	2252.22
1988.048	2201.21
1991.245	2190.65
1994.441	2279.03
1997.637	2239.09
2000.833	2219.49
2004.028	2257.33
2007.223	2319.23
2010.418	2307.77
2013.613	2259.69
2016.807	2251.84
2020.001	2246.31
2023.194	2271.14
2026.388	2255.9
2029.581	2197.8
2032.774	2258.7
2035.966	2270.84
2039.158	2216.03
2042.35	2234.19
2045.542	2160.02
2048.733	2242.37
2051.924	2238.54
2055.115	2254.2
2058.306	2217.2
2061.496	2272.88
2064.686	2322.71
2067.875	2233.51
2071.065	2237.93
2074.254	2255.6
2077.442	2209.5
2080.631	2294.11
2083.819	2222.94
2087.007	2211.92
2090.195	2197.53
2093.382	2215.39
2096.569	2197.92
2099.756	2160.41
2102.942	2204.71
2106.128	2216
2109.314	2206.7
2112.5	2192.99
2115.685	2157.24
2118.87	2165.4
2122.055	2227.38
2125.239	2206.77
2128.424	2192.19
2131.608	2255.74
2134.791	2240.14
2137.974	2278.04
2141.157	2267.89
2144.34	2237.44
2147.523	2228.77
2150.705	2256.1
2153.887	2226.42
2157.068	2197.13
2160.25	2179.39
2163.431	2204.36
2166.611	2170.39
2169.792	2193.8
2172.972	2103.46
2176.152	2154.7
2179.331	2183.95
2182.511	2186.07
2185.69	2208.47
2188.868	2210.6
2192.047	2247.89
2195.225	2261.43
2198.403	2209.44
2201.58	2197.57
2204.758	2183.59
2207.935	2259.69
2211.111	2174.28
2214.288	2161.28
2217.464	2195.11
2220.64	2152.93
2223.815	2203.58
2226.991	2133.86
2230.166	2151.43
2233.34	2193.2
2236.515	2205.69
2239.689	2268.92
2242.863	2219.62
2246.036	2273.37
2249.209	2256.51
2252.382	2277.11
2255.555	2285.55
2258.727	2233.23
2261.9	2262.98
2265.071	2254.24
2268.243	2250.39
2271.414	2201.24
2274.585	2182.56
2277.756	2245.31
2280.926	2199.9
2284.096	2230.17
2287.266	2158.91
2290.436	2205.06
2293.605	2225.39
2296.774	2262.1
2299.942	2268.74
2303.111	2286.06
2306.279	2336.98
2309.447	2323.7
2312.614	2292.15
2315.781	2319.52
2318.948	2296.07
2322.115	2333.6
2325.281	2230.37
2328.447	2241.05
2331.613	2212.25
2334.779	2201.28
2337.944	2199
2341.109	2199.88
2344.274	2187.16
2347.438	2154.7
2350.602	2176.8
2353.766	2185.33
2356.929	2174.6
2360.092	2215.32
2363.255	2182.86
2366.418	2146.47
2369.58	2217.35
2372.742	2084.35
2375.904	2079.79
2379.066	2065.1
2382.227	2093.83
2385.388	2052.54
2388.548	2002.19
2391.709	2043.2
2394.869	2031.62
2398.029	2090.21
2401.188	2087.83
2404.347	2047.54
2407.506	2130.83
2410.665	2170.22
2413.823	2155.87
2416.981	2132.14
2420.139	2151.53
2423.296	2196.06
2426.453	2169.05
2429.61	2188.22
2432.767	2157.19
2435.923	2197.6
2439.079	2145.89
2442.235	2180.88
2445.391	2120.3
2448.546	2162.36
2451.701	2197.45
2454.855	2192.3
2458.009	2221.12
2461.163	2214
2464.317	2184.38
2467.471	2208.51
2470.624	2237.84
2473.777	2225.57
2476.929	2244
2480.082	2266.76
2483.234	2240.42
2486.385	2181.54
2489.537	2175.51
2492.688	2162.88
2495.839	2177.88
2498.989	2194.84
2502.14	2183.26
2505.29	2174.05
2508.439	2198.55
2511.589	2136.05
2514.738	2137.96
2517.887	2161.6
2521.035	2238.58
2524.183	2197.44
2527.331	2184.93
2530.479	2177.08
2533.627	2179.12
