Data from C_1_DIV_IL_4N_Splice17_11-59-37-955.txt Node
Date: Sat Mar 14 11:59:37 EDT 2020
User: sa697716
Spectrometer: FLMS03696
Trigger mode: 0
Integration Time (sec): 3.180400E-1
Scans to average: 20
Electric dark correction enabled: true
Nonlinearity correction enabled: true
Boxcar width: 5
XAxis mode: Wavelengths
Number of Pixels in Spectrum: 2048
>>>>>Begin Spectral Data<<<<<
187.83	-260885.38
188.298	1959.76
188.766	1079.97
189.233	1001.65
189.701	1384.3
190.169	1951.14
190.636	735.32
191.104	550.21
191.571	86.44
192.039	-38.58
192.506	-11.72
192.974	432.95
193.441	-806.68
193.908	-240.43
194.375	-17
194.842	52.3
195.31	134.02
195.777	164.83
196.244	304.66
196.711	350.69
197.177	439.66
197.644	612.29
198.111	1041.46
198.578	1462.88
199.045	1152.18
199.511	1850.56
199.978	2139.94
200.445	1836.84
200.911	2016
201.378	2259.67
201.844	2042.71
202.31	3475.66
202.777	3653.72
203.243	2006.92
203.709	1912.64
204.176	2281.78
204.642	1886.55
205.108	1765.32
205.574	1432.49
206.04	1311.06
206.506	1220.7
206.972	1162.18
207.438	1115.5
207.903	1258.42
208.369	1130.01
208.835	1148.24
209.301	1220.2
209.766	1234.87
210.232	1237.06
210.697	1536.33
211.163	1889.71
211.628	2872.24
212.094	2431.47
212.559	3040.73
213.024	1926.04
213.49	2361.08
213.955	2290.81
214.42	2237.81
214.885	2115.74
215.35	2031.38
215.815	1968.36
216.28	2106.36
216.745	1713.89
217.21	1863.99
217.675	1703.65
218.14	1927.22
218.604	2170.23
219.069	2517.4
219.534	2686
219.998	3163.48
220.463	3885.99
220.927	4845.36
221.392	4626.52
221.856	4748.42
222.32	6030.52
222.785	7544.76
223.249	9571.89
223.713	10739.65
224.177	10826.85
224.642	13945.95
225.106	17222.68
225.57	18908.63
226.034	14121.21
226.497	21522.53
226.961	19507.01
227.425	22821.63
227.889	25328.54
228.353	25385.11
228.816	52588.43
229.28	50389
229.744	42574.72
230.207	25972.42
230.671	25592.69
231.134	42470.98
231.597	49061.05
232.061	49114.96
232.524	47972.68
232.987	33140.2
233.45	29838.19
233.914	26851.58
234.377	27568.41
234.84	25269.31
235.303	29827.38
235.766	33351.62
236.229	34505.98
236.691	21801.53
237.154	24519.52
237.617	18460.04
238.08	18914.22
238.542	22220.56
239.005	15879.27
239.468	15789.48
239.93	14920.6
240.393	13564.03
240.855	11910.3
241.317	12195.66
241.78	14808.2
242.242	15338.71
242.704	16583.17
243.166	14453.29
243.629	13110.6
244.091	15119.71
244.553	16557.11
245.015	17791.09
245.477	23063.88
245.939	33849.98
246.4	35923.63
246.862	34978.34
247.324	32969.61
247.786	36906.79
248.247	48448.11
248.709	50055.72
249.17	37465.17
249.632	35347.23
250.093	41017.15
250.555	35391.2
251.016	21577.08
251.477	20499.1
251.939	22143.46
252.4	23261.89
252.861	27682.31
253.322	25740.16
253.783	30665.78
254.244	39816.31
254.705	31397.67
255.166	27932.15
255.627	27577.03
256.088	38909.8
256.549	41337.93
257.009	35640.96
257.47	43290.39
257.931	35262.59
258.391	26467.21
258.852	27315.25
259.312	28667.53
259.773	35436.43
260.233	29959.77
260.694	25282.11
261.154	28725.13
261.614	23086.43
262.074	20667.68
262.534	21497.42
262.994	20273.51
263.455	27024.57
263.915	22782.14
264.374	21453.24
264.834	23443.55
265.294	26008.82
265.754	26943.56
266.214	25525.14
266.673	23929.42
267.133	30196.34
267.593	29962.59
268.052	36701.6
268.512	31966.33
268.971	38547.13
269.431	42329.28
269.89	37940.41
270.349	56886.74
270.809	63504.2
271.268	57126.09
271.727	128227.56
272.186	83157.77
272.645	62357.15
273.104	45005.96
273.563	65124.86
274.022	51259.64
274.481	43630.57
274.94	33621.43
275.399	25048.51
275.857	29152.58
276.316	39440.01
276.775	35122.63
277.233	34606.92
277.692	32418.38
278.15	36687.65
278.609	37777.31
279.067	34988.1
279.525	32494.81
279.984	41962.78
280.442	50336.69
280.9	49615.17
281.358	32626.32
281.816	30390.63
282.274	29745.82
282.732	30761.45
283.19	30945.2
283.648	26697.49
284.106	28450.43
284.564	28940.62
285.021	26828.95
285.479	20019.35
285.937	18232.58
286.394	16002.08
286.852	16467.26
287.309	17284.39
287.767	16685.66
288.224	15845.56
288.682	17413.73
289.139	19119.23
289.596	17517.05
290.053	18212.55
290.511	22973.45
290.968	27856.85
291.425	37870.96
291.882	31557.86
292.339	27544.66
292.796	27361.35
293.252	25831.23
293.709	20511.75
294.166	18391.13
294.623	20326.5
295.079	19535.8
295.536	19655.63
295.992	17855.13
296.449	17644.83
296.905	18341.49
297.362	17601.35
297.818	18520.63
298.274	19208.37
298.731	19575.74
299.187	19370.95
299.643	20770.47
300.099	25109.95
300.555	27522.77
301.011	23019.43
301.467	22203.92
301.923	25974.21
302.379	25320.72
302.835	24874.98
303.291	24921.5
303.746	28407.21
304.202	35897
304.658	36072.4
305.113	24291.51
305.569	23808.96
306.024	25348.88
306.479	24123.99
306.935	20362.26
307.39	22225.93
307.845	20530.22
308.301	20652.53
308.756	20096.7
309.211	19362.39
309.666	19835.05
310.121	24593.44
310.576	24972.95
311.031	24798.41
311.486	28401.09
311.94	28339.8
312.395	37965.85
312.85	71305.16
313.305	349882.56
313.759	1808886.63
314.214	130960.47
314.668	103718.54
315.123	87289.95
315.577	31327.02
316.032	27845.81
316.486	34920.71
316.94	27562.19
317.394	19163.64
317.849	14881.63
318.303	14098.17
318.757	13322.38
319.211	14741.82
319.665	12932.56
320.119	13077.94
320.572	18711.68
321.026	17512.27
321.48	14576.98
321.934	15921.53
322.387	15956.52
322.841	17269.05
323.295	15531.39
323.748	17890.75
324.202	18153.26
324.655	21787.21
325.108	30471.66
325.562	21552.01
326.015	25620.56
326.468	19369.5
326.921	21628.35
327.374	20190.08
327.827	21000.14
328.28	23759.38
328.733	15908.36
329.186	13978.47
329.639	13306.82
330.092	11210.78
330.545	10680.58
330.997	10764.54
331.45	11778.74
331.903	13836.75
332.355	23807.42
332.808	23147.36
333.26	19136.01
333.713	20791.86
334.165	20964.01
334.617	28027.08
335.069	22662.48
335.522	41014.51
335.974	45456.17
336.426	41498.29
336.878	28717.78
337.33	14581.49
337.782	14241.52
338.234	17812.43
338.686	21309.5
339.137	25272.76
339.589	23820.49
340.041	18685.38
340.493	16051.9
340.944	16439.59
341.396	17721.99
341.847	14912.14
342.299	17592.13
342.75	21525.15
343.201	18864.52
343.653	21742.29
344.104	26722.82
344.555	21067.64
345.006	32862.91
345.457	25179.94
345.908	20054.59
346.359	18880.31
346.81	15390.82
347.261	16258.78
347.712	16008.88
348.163	17168.06
348.613	17396.52
349.064	16266.71
349.515	14254.06
349.965	14617.05
350.416	17653.14
350.866	19357.05
351.317	21917.47
351.767	36345.78
352.217	45990.99
352.668	38187.38
353.118	35023.4
353.568	33789.05
354.018	26787.95
354.468	28304.06
354.918	20334.8
355.368	17821.1
355.818	25267.62
356.268	72891.34
356.718	305267.21
357.168	76067.63
357.617	38281.16
358.067	42712.92
358.517	40175.79
358.966	47130.09
359.416	52915.9
359.865	57294.39
360.315	68265.35
360.764	31894.65
361.213	17894.99
361.663	17048.57
362.112	21093.65
362.561	34163.06
363.01	25802.84
363.459	21762.67
363.908	23635.48
364.357	20158.6
364.806	34174.25
365.255	23597.89
365.703	21697.74
366.152	21843.43
366.601	17726.21
367.05	14460.34
367.498	13200.04
367.947	13846.62
368.395	14445.47
368.844	12838.63
369.292	15522.87
369.74	10773.79
370.189	16587.11
370.637	19547.53
371.085	16931.4
371.533	20748.43
371.981	20093.54
372.429	19236.92
372.877	20172.5
373.325	17005.43
373.773	17437.83
374.221	15620.47
374.669	19460.07
375.116	16917.21
375.564	17173.43
376.012	19325.53
376.459	16046.63
376.907	19286.81
377.354	23485.75
377.801	22029.14
378.249	25444.1
378.696	32768.68
379.143	39985.29
379.591	43009.42
380.038	73049.53
380.485	53029
380.932	57564.75
381.379	52918.91
381.826	39144.59
382.273	27991.47
382.72	24655.41
383.166	24171.94
383.613	15746.79
384.06	14261.22
384.506	16576.51
384.953	12263.4
385.4	12415.57
385.846	10935.31
386.292	10726.1
386.739	10542.37
387.185	10466.4
387.631	10492.64
388.078	10209.49
388.524	10970.82
388.97	10164.96
389.416	8498.77
389.862	9061.15
390.308	8616.51
390.754	8765.52
391.2	9520.52
391.645	9785.61
392.091	9358.83
392.537	9051.85
392.983	9085.45
393.428	8916.74
393.874	9558.38
394.319	9590.1
394.765	9084.43
395.21	9340.21
395.655	8759.08
396.101	8205.59
396.546	7397.09
396.991	7467.78
397.436	6943.48
397.881	6708.93
398.326	6364.04
398.771	6006.64
399.216	5248
399.661	4728.76
400.106	4693.76
400.551	4792.87
400.995	4291.73
401.44	4235.51
401.885	3978.65
402.329	4005.68
402.774	3826.32
403.218	3689.16
403.663	3548.32
404.107	3635.12
404.551	3647.29
404.995	3339.49
405.44	3210.65
405.884	3251.12
406.328	3137.59
406.772	3113.63
407.216	2827.11
407.66	2730.31
408.104	2589.4
408.547	2422.73
408.991	2343.49
409.435	2252.24
409.879	2211.26
410.322	2180.84
410.766	2098.49
411.209	1990.58
411.653	1909.13
412.096	1867.31
412.54	1864.52
412.983	1848.07
413.426	1850.4
413.869	1844.57
414.312	1806.01
414.756	1742.03
415.199	1657.55
415.642	1608.99
416.085	1609.38
416.527	1593.28
416.97	1615.14
417.413	1528.14
417.856	1510.99
418.298	1491.32
418.741	1480.82
419.184	1473.42
419.626	1533.61
420.069	1530.82
420.511	1534.02
420.953	1499.24
421.396	1486.67
421.838	1448.67
422.28	1479.86
422.722	1484.84
423.164	1504.34
423.606	1474.98
424.048	1474.55
424.49	1399.32
424.932	1391.79
425.374	1374.35
425.816	1398.1
426.258	1420.34
426.699	1431.93
427.141	1410.71
427.582	1432.44
428.024	1423.5
428.465	1414.45
428.907	1373.57
429.348	1354.02
429.789	1349.95
430.231	1319.44
430.672	1334.04
431.113	1301.96
431.554	1280.34
431.995	1245.68
432.436	1196.58
432.877	1168.11
433.318	1146.13
433.759	1142.4
434.2	1143.59
434.64	1131.2
435.081	1132.03
435.522	1070.55
435.962	1030.59
436.403	1009.42
436.843	1023.55
437.284	1001.16
437.724	972.61
438.164	975.99
438.604	953.25
439.045	916.21
439.485	877.19
439.925	859.04
440.365	838.46
440.805	826.44
441.245	815.3
441.685	783.34
442.125	777.99
442.564	784.5
443.004	765.21
443.444	763.48
443.883	763.3
444.323	758.41
444.762	760.56
445.202	769.88
445.641	785.46
446.081	781.34
446.52	788.85
446.959	781.19
447.398	761.26
447.837	752.05
448.276	738.95
448.716	747.34
449.154	754.31
449.593	736.2
450.032	732.85
450.471	719.61
450.91	719.94
451.349	720.16
451.787	717.97
452.226	730.37
452.664	732.05
453.103	733.25
453.541	730.97
453.98	729.35
454.418	735.49
454.856	726.2
455.295	724.64
455.733	732.07
456.171	734.59
456.609	735.24
457.047	734.28
457.485	744.99
457.923	747.12
458.361	738.59
458.798	741.28
459.236	740.04
459.674	743.95
460.111	746.55
460.549	737.69
460.987	737
461.424	735.19
461.862	732.3
462.299	720.53
462.736	718.47
463.173	720.82
463.611	713.53
464.048	710.59
464.485	716.85
464.922	711.56
465.359	707.1
465.796	697.48
466.233	693.02
466.67	686.84
467.106	684.26
467.543	677.36
467.98	669.01
468.416	651.48
468.853	645.83
469.29	626.98
469.726	619.58
470.162	604.19
470.599	595.98
471.035	590.12
471.471	575.24
471.907	573.33
472.344	570.95
472.78	571.79
473.216	580.02
473.652	573.74
474.088	572.51
474.523	570.85
474.959	576.3
475.395	571.44
475.831	566.82
476.266	569.54
476.702	566.93
477.138	560.38
477.573	558.17
478.008	555.54
478.444	558.16
478.879	562.3
479.314	564.62
479.75	564.62
480.185	567.03
480.62	572.21
481.055	575.65
481.49	580.65
481.925	589.76
482.36	599.98
482.795	616.14
483.229	631.52
483.664	645.29
484.099	647.77
484.534	657.8
484.968	664.57
485.403	667.16
485.837	667.04
486.271	665.38
486.706	667.13
487.14	660.33
487.574	649.93
488.009	645.57
488.443	640
488.877	646.72
489.311	649.27
489.745	655.98
490.179	662.38
490.613	674.44
491.046	679.86
491.48	684.3
491.914	685.35
492.348	691.2
492.781	694.75
493.215	696.41
493.648	697.45
494.082	702.23
494.515	703.59
494.948	711.63
495.382	716.71
495.815	722.47
496.248	727.43
496.681	739.59
497.114	750.03
497.547	760.38
497.98	773.98
498.413	780.72
498.846	790.12
499.279	798.4
499.711	801.68
500.144	803.11
500.577	812.07
501.009	822.67
501.442	831.61
501.874	832.57
502.306	833.24
502.739	839.29
503.171	852.29
503.603	854.99
504.036	863.96
504.468	868.52
504.9	878.29
505.332	884.08
505.764	886.95
506.196	892.31
506.627	905.12
507.059	916.79
507.491	923.53
507.923	919.96
508.354	933.56
508.786	940.78
509.217	956.29
509.649	968.16
510.08	983.76
510.512	996.79
510.943	1008.97
511.374	1016.83
511.805	1033.03
512.237	1048.98
512.668	1076.81
513.099	1097.1
513.53	1119.41
513.961	1135.08
514.391	1160.22
514.822	1186.71
515.253	1215.3
515.684	1233.73
516.114	1257.3
516.545	1272.22
516.975	1291.35
517.406	1302.98
517.836	1301.24
518.267	1302.65
518.697	1314.7
519.127	1314.04
519.558	1316.08
519.988	1314.73
520.418	1321.39
520.848	1331.93
521.278	1335.8
521.708	1348.1
522.138	1354.7
522.567	1378.25
522.997	1396.01
523.427	1405.49
523.857	1417.37
524.286	1423.14
524.716	1433.28
525.145	1445.08
525.575	1451.37
526.004	1460.75
526.433	1449.4
526.863	1447.32
527.292	1435.43
527.721	1438.23
528.15	1440.36
528.579	1438.53
529.008	1445.05
529.437	1462.17
529.866	1471.09
530.295	1483.32
530.724	1492.08
531.152	1514.02
531.581	1523.5
532.01	1537.06
532.438	1542.09
532.867	1552.88
533.295	1567.61
533.723	1571.72
534.152	1569.14
534.58	1567.67
535.008	1553.51
535.436	1553.93
535.865	1558.89
536.293	1569.58
536.721	1581.61
537.149	1602.32
537.576	1604.34
538.004	1614.16
538.432	1620.25
538.86	1619.03
539.287	1625.74
539.715	1637.17
540.143	1638.42
540.57	1635.22
540.998	1632.4
541.425	1612.97
541.852	1594.61
542.28	1592.48
542.707	1577.31
543.134	1565.49
543.561	1560.29
543.988	1552.93
544.415	1551.52
544.842	1547.41
545.269	1540.46
545.696	1542.24
546.123	1552.57
546.549	1544.1
546.976	1532.51
547.403	1531.76
547.829	1532.34
548.256	1533.2
548.682	1530.56
549.108	1524.47
549.535	1522.43
549.961	1523.4
550.387	1511.1
550.813	1506.45
551.24	1510.56
551.666	1511.57
552.092	1503.64
552.518	1497.81
552.943	1492.29
553.369	1497.38
553.795	1501.61
554.221	1502.69
554.646	1499.95
555.072	1510.54
555.498	1514.4
555.923	1521.46
556.349	1533.83
556.774	1541.46
557.199	1542.73
557.625	1548.55
558.05	1543.66
558.475	1551.68
558.9	1551.4
559.325	1545.38
559.75	1539.94
560.175	1535
560.6	1531.54
561.025	1529.75
561.449	1531.26
561.874	1536.55
562.299	1541.15
562.723	1548.7
563.148	1542.47
563.572	1546.56
563.997	1555.78
564.421	1560.71
564.846	1563.07
565.27	1566.51
565.694	1566.39
566.118	1577.17
566.542	1585.49
566.966	1581.96
567.39	1580.03
567.814	1571.73
568.238	1573.54
568.662	1580.41
569.086	1584.15
569.509	1592.59
569.933	1581.28
570.357	1576.78
570.78	1560.89
571.204	1551.92
571.627	1545.4
572.05	1545.85
572.474	1548.86
572.897	1541.16
573.32	1536.08
573.743	1530.86
574.166	1516.5
574.589	1519.8
575.012	1515.33
575.435	1516.77
575.858	1510.25
576.281	1501.94
576.704	1489.69
577.126	1479.48
577.549	1469.92
577.972	1462.79
578.394	1454.04
578.817	1449.96
579.239	1434.52
579.661	1422.63
580.084	1409.26
580.506	1398.15
580.928	1394.64
581.35	1386.05
581.772	1383.5
582.194	1372.67
582.616	1361.61
583.038	1349.43
583.46	1339.43
583.882	1337.04
584.303	1342.6
584.725	1339.62
585.147	1342.88
585.568	1353.93
585.99	1364.5
586.411	1371.21
586.833	1385.06
587.254	1388.5
587.675	1402.65
588.096	1415.3
588.518	1410.64
588.939	1396.16
589.36	1395.72
589.781	1386.58
590.202	1361.57
590.623	1354.55
591.043	1352.75
591.464	1342.12
591.885	1337.78
592.305	1332.57
592.726	1320.05
593.147	1321.34
593.567	1317.45
593.987	1310.64
594.408	1305.21
594.828	1303.03
595.248	1298.1
595.669	1281.36
596.089	1275.44
596.509	1270.94
596.929	1259.31
597.349	1261.2
597.769	1253.03
598.189	1247.09
598.608	1248.97
599.028	1251.85
599.448	1252.56
599.867	1241.72
600.287	1239.56
600.706	1236.03
601.126	1228.13
601.545	1227.05
601.965	1226.51
602.384	1222.84
602.803	1225.69
603.222	1222.4
603.641	1217.17
604.061	1214.92
604.48	1211.69
604.898	1218.61
605.317	1223.82
605.736	1226.44
606.155	1225.32
606.574	1217.28
606.992	1222.27
607.411	1219.86
607.829	1213.18
608.248	1211.55
608.666	1210.39
609.085	1211.52
609.503	1204.43
609.921	1199.79
610.339	1202.15
610.758	1202.24
611.176	1199.39
611.594	1193.33
612.012	1191.09
612.43	1193.99
612.847	1200.36
613.265	1201.45
613.683	1205.86
614.101	1208.14
614.518	1205.34
614.936	1197.36
615.353	1185.6
615.771	1184.01
616.188	1183.75
616.606	1180.81
617.023	1176.01
617.44	1164.22
617.857	1160.14
618.274	1154.29
618.691	1149.06
619.108	1141.21
619.525	1136.06
619.942	1142.14
620.359	1143.83
620.776	1140.2
621.192	1137.54
621.609	1135.59
622.026	1141.64
622.442	1146.1
622.859	1147.98
623.275	1142.22
623.691	1148.4
624.108	1159.45
624.524	1172.98
624.94	1174.46
625.356	1183.37
625.772	1195.57
626.188	1205.94
626.604	1207.42
627.02	1204.16
627.436	1202.82
627.852	1210.52
628.268	1220.36
628.683	1211.79
629.099	1203.56
629.514	1198.45
629.93	1201.74
630.345	1205.55
630.761	1202.54
631.176	1205.59
631.591	1201.3
632.007	1196.76
632.422	1195.17
632.837	1186.21
633.252	1184.67
633.667	1176.23
634.082	1168.18
634.497	1157.23
634.911	1140.55
635.326	1138.82
635.741	1125.2
636.155	1116.23
636.57	1118
636.984	1117.34
637.399	1120.4
637.813	1121.87
638.228	1122.51
638.642	1128.11
639.056	1120.03
639.47	1121.31
639.884	1115.3
640.298	1110.4
640.712	1110.9
641.126	1101.32
641.54	1095.98
641.954	1092.46
642.368	1082.11
642.781	1075.69
643.195	1061.15
643.609	1064.05
644.022	1060.44
644.436	1057.97
644.849	1048.4
645.262	1039.73
645.676	1041.63
646.089	1038.59
646.502	1026.74
646.915	1023.75
647.328	1010.52
647.741	1008.74
648.154	997.41
648.567	995.74
648.98	984.31
649.393	985.64
649.805	981.84
650.218	976.14
650.631	961.06
651.043	953.64
651.456	947.77
651.868	947.36
652.28	964.14
652.693	977.69
653.105	984.3
653.517	993.22
653.929	994.34
654.341	1000.39
654.753	988.51
655.165	994.44
655.577	993.07
655.989	988.52
656.401	982.71
656.813	949.56
657.224	930.57
657.636	902.89
658.047	885.43
658.459	867.31
658.87	858.98
659.282	848.46
659.693	830.42
660.104	816.75
660.515	805.04
660.926	802.39
661.338	800.06
661.749	793.81
662.159	785.14
662.57	781.63
662.981	776.2
663.392	769.44
663.803	772.93
664.213	770.39
664.624	766.63
665.035	769.14
665.445	756.6
665.855	749.27
666.266	741.93
666.676	739.8
667.086	730.65
667.497	730.62
667.907	724.63
668.317	715.02
668.727	710.5
669.137	710.56
669.547	706.96
669.956	708.32
670.366	708.9
670.776	709.55
671.186	713.36
671.595	715.67
672.005	717.63
672.414	715.7
672.824	714.5
673.233	718.77
673.642	720.13
674.052	722.55
674.461	724.42
674.87	728.61
675.279	725.56
675.688	725.04
676.097	725.47
676.506	721.68
676.915	734.29
677.323	735.85
677.732	732.95
678.141	731.66
678.549	721.85
678.958	721.4
679.366	719.4
679.775	723.4
680.183	731.62
680.592	736.77
681	742.45
681.408	736.82
681.816	743.13
682.224	751.21
682.632	760.99
683.04	787.91
683.448	809.19
683.856	838.73
684.264	871.19
684.671	901.11
685.079	937.59
685.487	976.96
685.894	1031.63
686.302	1077.29
686.709	1111.27
687.116	1152.44
687.524	1185.71
687.931	1212.04
688.338	1232.18
688.745	1249.29
689.152	1269.32
689.559	1298.51
689.966	1325.57
690.373	1333.55
690.78	1357.18
691.187	1400.95
691.593	1432.12
692	1455.61
692.407	1497.59
692.813	1550.35
693.22	1588.94
693.626	1630.44
694.032	1659.71
694.439	1712.77
694.845	1750.15
695.251	1801.21
695.657	1845.64
696.063	1914
696.469	1962.96
696.875	2006.17
697.281	2026.89
697.687	2054.42
698.093	2076.26
698.498	2127.71
698.904	2162.84
699.31	2225.61
699.715	2267.89
700.12	2330.96
700.526	2337.75
700.931	2384.64
701.337	2419.42
701.742	2438.12
702.147	2495.96
702.552	2511.49
702.957	2551.09
703.362	2560.31
703.767	2573.98
704.172	2597.01
704.577	2555.54
704.981	2587.31
705.386	2593.86
705.791	2583.41
706.195	2636.35
706.6	2639.39
707.004	2696.72
707.408	2669.62
707.813	2687.45
708.217	2674.69
708.621	2674.07
709.025	2744.9
709.43	2740.86
709.834	2784.07
710.237	2832.35
710.641	2816.65
711.045	2830.5
711.449	2823.9
711.853	2844.48
712.256	2874.21
712.66	2900.27
713.064	2955.2
713.467	2984.32
713.87	3066.08
714.274	3096.68
714.677	3176.62
715.08	3294.6
715.484	3416.04
715.887	3563.19
716.29	3705.12
716.693	3854.61
717.096	4029.06
717.499	4121.11
717.901	4134.77
718.304	4151.23
718.707	4167.38
719.109	4089.34
719.512	4064.76
719.915	3961.81
720.317	3918.28
720.719	3949.1
721.122	3925.12
721.524	3887.56
721.926	3856.41
722.328	3927.87
722.731	3919.22
723.133	3936.98
723.535	4076.73
723.937	4088.45
724.338	4126.26
724.74	4155.39
725.142	4115.7
725.544	4110.97
725.945	4131.54
726.347	4125.56
726.748	4120.23
727.15	4129.35
727.551	4101.77
727.952	4077.35
728.354	4055.66
728.755	4055.82
729.156	4023.68
729.557	4006.01
729.958	3917.38
730.359	3872.61
730.76	3860
731.161	3815.74
731.562	3796.5
731.962	3799.43
732.363	3753.85
732.763	3705.72
733.164	3729.68
733.564	3680.13
733.965	3608.17
734.365	3582.11
734.766	3600.3
735.166	3570.67
735.566	3529.48
735.966	3510.38
736.366	3504.56
736.766	3458.68
737.166	3481.23
737.566	3451.43
737.966	3431.35
738.365	3459.33
738.765	3457.15
739.165	3404.18
739.564	3382.54
739.964	3414.59
740.363	3378.84
740.763	3376.05
741.162	3367.64
741.561	3342.98
741.96	3307.49
742.36	3321.68
742.759	3325.56
743.158	3350.41
743.557	3359.53
743.955	3388.33
744.354	3354.66
744.753	3396.74
745.152	3368.8
745.55	3408.64
745.949	3404.82
746.348	3408.41
746.746	3418.77
747.144	3391.03
747.543	3374.95
747.941	3410.34
748.339	3358.17
748.737	3355.3
749.136	3347.42
749.534	3392.05
749.932	3370.81
750.33	3386.51
750.727	3424.85
751.125	3409.4
751.523	3397.15
751.921	3428.41
752.318	3404.58
752.716	3448.77
753.113	3455.58
753.511	3473.22
753.908	3473.47
754.305	3461.6
754.703	3506.61
755.1	3551.61
755.497	3592.78
755.894	3727.07
756.291	3854.83
756.688	4089.35
757.085	4399.99
757.482	4842.13
757.878	5323.03
758.275	5757.3
758.672	6352.72
759.068	6840.57
759.465	7532.99
759.861	8430.97
760.258	9470.79
760.654	10004.82
761.05	9924.78
761.447	9473.47
761.843	8820.33
762.239	8147.03
762.635	7843.82
763.031	7556.39
763.427	7134.7
763.822	6691.3
764.218	6251.63
764.614	5680.46
765.01	5301.3
765.405	5055.83
765.801	4871.67
766.196	4631.36
766.592	4500.65
766.987	4273.82
767.382	4122.03
767.778	4057.93
768.173	3966.3
768.568	3917.32
768.963	3831.48
769.358	3843.21
769.753	3809.35
770.148	3749.36
770.542	3749.62
770.937	3727.09
771.332	3793.91
771.726	3807.18
772.121	3763.62
772.515	3802.48
772.91	3791.53
773.304	3842.17
773.699	3794.85
774.093	3833.74
774.487	3872.86
774.881	3903.04
775.275	3898.31
775.669	3867.78
776.063	3898.26
776.457	3921.41
776.851	3868.33
777.245	3861.88
777.638	3886.38
778.032	3968.21
778.425	3944.36
778.819	3975.14
779.212	3946.98
779.606	3917.66
779.999	3930.02
780.392	3916.33
780.786	3974.18
781.179	3988.26
781.572	4017.77
781.965	4024.93
782.358	3984.93
782.751	4021.9
783.143	3984.88
783.536	4036.51
783.929	4068.59
784.322	4151.88
784.714	4176.66
785.107	4173.45
785.499	4225.34
785.891	4208.18
786.284	4196.35
786.676	4296.1
787.068	4280.63
787.46	4317.43
787.852	4329.36
788.245	4389.83
788.636	4408.25
789.028	4455.96
789.42	4490.31
789.812	4495.32
790.204	4566.64
790.595	4633.97
790.987	4495.62
791.378	4515.69
791.77	4608.53
792.161	4703.32
792.553	4743.15
792.944	4667.5
793.335	4615.24
793.726	4662.41
794.117	4729.67
794.508	4825.82
794.899	4805.6
795.29	4904.25
795.681	4939.9
796.072	4838.83
796.463	4713.44
796.853	4721.92
797.244	4830.28
797.634	4854.17
798.025	4851.07
798.415	4854.73
798.806	4917.59
799.196	4975.72
799.586	5014.32
799.976	4990.18
800.366	5150.5
800.756	5313.45
801.146	5280.88
801.536	5299.63
801.926	5350.97
802.316	5369.5
802.706	5415.86
803.095	5328.16
803.485	5400.17
803.874	5423.68
804.264	5606.29
804.653	5590.41
805.043	5696.77
805.432	5775.06
805.821	5778.6
806.21	5795.93
806.599	5875.13
806.988	5908.83
807.377	5983.91
807.766	6072.49
808.155	6274.69
808.544	6084.02
808.933	6090.92
809.321	6073.53
809.71	6278.77
810.098	6387.85
810.487	6710.94
810.875	7050.39
811.264	7064.43
811.652	7268.97
812.04	7373.52
812.428	7486.34
812.816	8030.56
813.204	8318.84
813.592	8704.52
813.98	8938.22
814.368	8870.51
814.756	9204.47
815.144	9147.28
815.531	9478.17
815.919	9415.45
816.306	9627.98
816.694	9404.48
817.081	9430.38
817.469	9677.03
817.856	9676.56
818.243	9863.48
818.63	10131.13
819.017	9832.05
819.404	9873.1
819.791	10135.28
820.178	10563.25
820.565	10732.9
820.952	11388.22
821.339	11042.94
821.725	11170.68
822.112	10650.76
822.498	10625.48
822.885	10716.21
823.271	10646.3
823.657	10938.48
824.044	10942.74
824.43	10995.73
824.816	10975.15
825.202	10667.7
825.588	11380.94
825.974	11385.7
826.36	11743.37
826.746	11762.26
827.132	12019.12
827.517	12010.69
827.903	11465.14
828.289	11492.56
828.674	10952.3
829.06	10880.22
829.445	11160.77
829.83	11407.03
830.216	11753.71
830.601	12011.51
830.986	11732.35
831.371	11638.55
831.756	12032.23
832.141	11738.76
832.526	11733.53
832.911	11927.86
833.295	11842.99
833.68	12179.97
834.065	11755.01
834.449	11112.38
834.834	11061.43
835.218	11062.43
835.603	11307.86
835.987	11157.59
836.371	11738.38
836.755	11664.86
837.139	11945.53
837.524	12120.92
837.908	11989.29
838.291	12026.14
838.675	12070.72
839.059	12218.7
839.443	12210.95
839.827	12039.82
840.21	12381.65
840.594	12278.62
840.977	12425.2
841.361	12418.36
841.744	12684.14
842.127	12578.89
842.511	12753.34
842.894	13178.56
843.277	13444.88
843.66	13818.07
844.043	13885.43
844.426	13314.43
844.809	13089.83
845.191	13111.82
845.574	12782.78
845.957	12529.82
846.339	12450.65
846.722	12083.38
847.104	12125.98
847.487	12003
847.869	12013.44
848.252	12204.1
848.634	12434.32
849.016	12623.88
849.398	12712.26
849.78	13308.06
850.162	13310.32
850.544	13597.14
850.926	14037.9
851.307	13978.27
851.689	14173.4
852.071	14487.32
852.452	14710.48
852.834	14702.45
853.215	14976.35
853.597	15094.18
853.978	15304.44
854.359	15617.51
854.741	14928.82
855.122	14854.17
855.503	14642.79
855.884	14736.93
856.265	14690.38
856.646	14772.58
857.026	14493.7
857.407	14452.46
857.788	14552.19
858.169	14757.2
858.549	14163.47
858.93	14600.59
859.31	14639.47
859.69	14794.87
860.071	14505.49
860.451	14352.7
860.831	13833.77
861.211	14642.59
861.591	15023.43
861.971	15004.7
862.351	15129.38
862.731	15407.64
863.111	15587.44
863.491	15817.64
863.87	16429.05
864.25	16683.16
864.629	16409.8
865.009	16768.32
865.388	17362.15
865.768	18609.96
866.147	18545.89
866.526	17526.66
866.905	17724.71
867.284	18717.83
867.663	17770.07
868.042	17036.56
868.421	16979.5
868.8	17260.17
869.179	17429.8
869.558	16423.33
869.936	15136.23
870.315	15403.7
870.693	15782.13
871.072	17023.76
871.45	16220.22
871.828	16435.65
872.207	17278.52
872.585	17026.43
872.963	17500.8
873.341	16906.41
873.719	16705.35
874.097	16504.13
874.475	16814
874.853	17191.05
875.23	16480.12
875.608	17167.79
875.986	18558.9
876.363	17756.33
876.741	18292.81
877.118	17841.85
877.495	18710.19
877.873	19034.72
878.25	20028.94
878.627	19205.02
879.004	19493.47
879.381	19392.75
879.758	18882.16
880.135	17588.86
880.512	18576.15
880.889	18082.97
881.265	17892.98
881.642	17744.58
882.019	18039.83
882.395	17689.96
882.772	18405.71
883.148	17604.93
883.524	17548.09
883.901	17444.72
884.277	17708.06
884.653	17609.52
885.029	18114.06
885.405	20060.66
885.781	19903.63
886.157	19082.11
886.532	19306.91
886.908	19291.19
887.284	21448.96
887.659	22145.86
888.035	22851.57
888.411	23440.85
888.786	23747.17
889.161	24585.14
889.537	24134.8
889.912	24919.02
890.287	24891.4
890.662	25523.15
891.037	25061.38
891.412	23357.16
891.787	23116.31
892.162	22308.25
892.536	22827.11
892.911	21984.24
893.286	21507.79
893.66	20631.55
894.035	21158.98
894.409	23039.19
894.784	22112.89
895.158	22487.07
895.532	23830.77
895.906	24476.1
896.281	25035.5
896.655	24631.97
897.029	28130.91
897.402	29286.67
897.776	32573.12
898.15	32448.3
898.524	32102.42
898.898	32526.82
899.271	36396.71
899.645	31523.81
900.018	30285.48
900.392	31407.4
900.765	31653.98
901.138	29292.99
901.511	28858.38
901.884	26529.47
902.258	24481.7
902.631	25298.11
903.003	29110.3
903.376	26285.9
903.749	29481.37
904.122	31568.88
904.495	34782.23
904.867	35248.45
905.24	30617.22
905.612	28516.05
905.985	29149.69
906.357	30482.35
906.729	29094.67
907.102	24881.01
907.474	23930.91
907.846	24088.12
908.218	23773.37
908.59	21015.57
908.962	20319.65
909.334	21886.29
909.705	23008.91
910.077	22352.06
910.449	23257.97
910.82	23922.42
911.192	26319.09
911.563	27334.3
911.935	29241.49
912.306	29293.36
912.677	30240.67
913.048	29976.16
913.419	32507.79
913.79	32675.55
914.161	35043.05
914.532	33510
914.903	30802.82
915.274	29270.88
915.645	28864.28
916.015	25409.91
916.386	24215.03
916.756	25768.61
917.127	26575.88
917.497	23749.12
917.868	25863.3
918.238	24569.89
918.608	25284.39
918.978	25795.32
919.348	27307.95
919.718	28206.01
920.088	27175.67
920.458	28256.47
920.828	29762.56
921.198	28215.77
921.567	30159.56
921.937	23344.06
922.306	23578.99
922.676	25436.02
923.045	21227.96
923.415	20168.83
923.784	18378.6
924.153	18899.8
924.522	18886.68
924.891	17755.19
925.26	19012.69
925.629	18546.63
925.998	21324.06
926.367	20810.63
926.736	19819.11
927.104	23579.67
927.473	25349.13
927.842	30594.9
928.21	30296.11
928.578	31825.71
928.947	30067.03
929.315	30245.66
929.683	35498.72
930.051	35789.83
930.42	41577.1
930.788	35512.68
931.156	35274.29
931.523	33064.1
931.891	30556.66
932.259	29345.47
932.627	33999.59
932.994	48162.13
933.362	39827.16
933.729	34618.33
934.097	33122.07
934.464	28026.63
934.831	32344.58
935.199	31904.35
935.566	30933.63
935.933	31346.64
936.3	38018.88
936.667	29648.85
937.034	26787.67
937.401	26513.7
937.767	22866.85
938.134	20386.72
938.501	28752.3
938.867	30690.02
939.234	51898.93
939.6	44337.18
939.967	48950.73
940.333	32780.63
940.699	27911.96
941.065	22367.86
941.431	29265.08
941.798	28231.75
942.163	37061.79
942.529	23140.61
942.895	21285.06
943.261	13766.53
943.627	18059.11
943.992	15827.53
944.358	15844.25
944.723	15893.99
945.089	15499.31
945.454	14357.56
945.82	15342.38
946.185	14714.6
946.55	17060.05
946.915	15318.53
947.28	17970.29
947.645	15820.16
948.01	14592.36
948.375	15215.25
948.74	18239.57
949.104	21274.65
949.469	30667.39
949.834	54139.48
950.198	51430.96
950.562	30880.72
950.927	25714.89
951.291	30963.32
951.655	26366.21
952.02	24724.71
952.384	18674.01
952.748	16245.73
953.112	15840.34
953.476	13787.96
953.839	12745.86
954.203	12615.39
954.567	15743.03
954.931	24762.31
955.294	21178.74
955.658	21304.87
956.021	36263.24
956.385	61550.23
956.748	90822.54
957.111	140750.65
957.474	158123.01
957.837	178187.52
958.2	134764.47
958.563	48533.19
958.926	32865.2
959.289	49850.39
959.652	55741.32
960.015	41829.51
960.377	60027.42
960.74	68537.47
961.102	118248.18
961.465	126927.89
961.827	68074.88
962.189	130552.04
962.552	90542.77
962.914	72592.1
963.276	47142.02
963.638	38964.68
964	38598.01
964.362	26096.6
964.724	25233.96
965.085	18009.8
965.447	14774.05
965.809	16820.95
966.17	16855.85
966.532	18245.6
966.893	16726.65
967.255	15233.47
967.616	17987.3
967.977	14406.85
968.338	15735.33
968.699	12938.29
969.061	12960.07
969.421	13046.38
969.782	14649.59
970.143	12394.38
970.504	12858.11
970.865	14618.88
971.225	14951.63
971.586	14612.33
971.946	20808.36
972.307	18064.81
972.667	23624.49
973.027	24322.27
973.388	29502.12
973.748	20060.16
974.108	21845.1
974.468	29509.51
974.828	22799.06
975.188	17530.03
975.548	16131.03
975.907	13561.27
976.267	15201.29
976.627	12778.03
976.986	13259.09
977.346	12645.84
977.705	12165.38
978.064	11093.68
978.424	9239.2
978.783	9541.93
979.142	10911.03
979.501	10430.11
979.86	11014.34
980.219	10623.38
980.578	13695.28
980.937	15323.59
981.296	13640.41
981.654	14031.58
982.013	21802.84
982.371	28292.71
982.73	26432.82
983.088	29936.78
983.447	31989.29
983.805	45751.75
984.163	95702.34
984.521	106196.17
984.879	155759.48
985.237	-254211.01
985.595	245606.31
985.953	60990.82
986.311	35187.31
986.669	20460.77
987.026	17651.77
987.384	23749.38
987.741	24572.12
988.099	17564.34
988.456	14005.1
988.814	13112.5
989.171	11384.05
989.528	11208.09
989.885	11829.58
990.242	9382.4
990.599	11666.28
990.956	9513.22
991.313	6652.19
991.67	5457.03
992.027	5792.51
992.383	5154.05
992.74	4521.68
993.096	4738
993.453	4917.92
993.809	5107.86
994.165	6796.95
994.522	6254.57
994.878	6906.19
995.234	8677.83
995.59	8574.16
995.946	8113.45
996.302	9249.8
996.658	10672.41
997.013	11776.68
997.369	13962.74
997.725	17842.85
998.08	11577.75
998.436	17799.63
998.791	24582.06
999.147	24585.3
999.502	26833.97
999.857	19497.57
1000.212	31684.99
1000.567	45248.28
1000.922	26137.83
1001.277	16584.63
1001.632	12320.81
1001.987	15840.05
1002.342	11348.11
1002.696	9061.35
1003.051	7233.62
1003.406	8760.52
1003.76	8697.04
1004.114	8586.37
1004.469	7205.19
1004.823	5953.93
1005.177	6444.32
1005.531	5107.02
1005.885	4543.56
1006.239	5132.62
1006.593	6457.91
1006.947	8636.21
1007.301	6469.51
1007.655	7073.92
1008.008	5212.53
1008.362	5870.8
1008.715	8389.4
1009.069	7609.36
1009.422	11493.83
1009.776	23031.07
1010.129	15289.08
1010.482	12773.71
1010.835	10748.89
1011.188	22312.44
1011.541	20918.9
1011.894	-127655.17
1012.247	375379.89
1012.6	25470.08
1012.952	16088.27
1013.305	8282.37
1013.657	5981.73
1014.01	5675.59
1014.362	4655.76
1014.715	4159.4
1015.067	3644.05
1015.419	3573.13
1015.771	3168.28
1016.123	2814.03
1016.475	2901.02
1016.827	3077.2
1017.179	3307.51
1017.531	3342.05
1017.883	3417.96
1018.234	3330.77
1018.586	4201.19
1018.938	4438.88
1019.289	6131.59
1019.64	7011.97
1019.992	6542.55
1020.343	5966.96
1020.694	4748.02
1021.045	4193.45
1021.396	4748.1
1021.747	5087.01
1022.098	6065.22
1022.449	4418.72
1022.8	4131.7
1023.151	2898
1023.501	2576.34
1023.852	2799.32
1024.202	2918.78
1024.553	3203.31
1024.903	3125.06
1025.253	2686.38
1025.604	2416.53
1025.954	3000.17
1026.304	3610.91
1026.654	4179.54
1027.004	6097.23
1027.354	9817.77
1027.703	9232.49
1028.053	12074.01
1028.403	17621.54
1028.753	25393.34
1029.102	34490.02
1029.452	177090.8
1029.801	7658.06
1030.15	4978.64
1030.499	4213.7
897.758	2234.23
901.051	2171.78
904.343	2205.9
907.636	2211.92
910.928	2274.24
914.22	2193.19
917.511	2197.15
920.803	2245.23
924.094	2245.41
927.384	2248.61
930.675	2211.33
933.965	2174.84
937.255	2202.51
940.544	2168.64
943.834	2170.75
947.123	2109.14
950.411	2197.68
953.7	2178.36
956.988	2161.77
960.276	2099.14
963.563	2149.89
966.851	2158.1
970.138	2200.54
973.424	2199.99
976.711	2155.2
979.997	2201.48
983.283	2245.51
986.568	2173.66
989.853	2169.07
993.138	2194.85
996.423	2278.64
999.708	2234.45
1002.992	2265.34
1006.275	2178.23
1009.559	2187.39
1012.842	2284.13
1016.125	2236.07
1019.408	2215.86
1022.69	2275.08
1025.972	2304.14
1029.254	2281.27
1032.536	2238.99
1035.817	2252.92
1039.098	2221.39
1042.379	2276.36
1045.659	2300.4
1048.939	2250.97
1052.219	2258.32
1055.498	2253.77
1058.778	2248.89
1062.057	2225.35
1065.335	2246.37
1068.614	2257.06
1071.892	2250.57
1075.17	2306.46
1078.447	2306.76
1081.724	2300.5
1085.001	2326.94
1088.278	2306.94
1091.554	2311.88
1094.83	2309.29
1098.106	2342.89
1101.382	2374.25
1104.657	2376.3
1107.932	2374.9
1111.206	2350.69
1114.481	2305.7
1117.755	2306.72
1121.029	2298.05
1124.302	2354.61
1127.575	2321.76
1130.848	2314.15
1134.121	2284.49
1137.393	2246.95
1140.665	2304.71
1143.937	2280.98
1147.208	2232.79
1150.48	2287.16
1153.75	2276.16
1157.021	2280.93
1160.291	2256.8
1163.561	2308.28
1166.831	2278.2
1170.101	2305.86
1173.37	2268.31
1176.639	2224.91
1179.907	2269.46
1183.176	2290.95
1186.444	2293.84
1189.711	2318.24
1192.979	2337.46
1196.246	2296.77
1199.513	2310.04
1202.78	2315.26
1206.046	2323.76
1209.312	2348.99
1212.578	2368
1215.843	2335.93
1219.108	2302.62
1222.373	2325.03
1225.638	2298.88
1228.902	2291.46
1232.166	2247.62
1235.43	2235.34
1238.693	2262.34
1241.956	2255.09
1245.219	2301.02
1248.482	2283.97
1251.744	2282.11
1255.006	2408.55
1258.268	2356.34
1261.529	2309.17
1264.79	2311.84
1268.051	2411.11
1271.312	2419.3
1274.572	2387.09
1277.832	2376.48
1281.092	2359.22
1284.351	2348.76
1287.61	2332.92
1290.869	2264.08
1294.128	2260.26
1297.386	2313.07
1300.644	2305.54
1303.902	2314.2
1307.159	2183.63
1310.416	2237
1313.673	2262.28
1316.93	2259.13
1320.186	2292.21
1323.442	2325.79
1326.697	2325.85
1329.953	2301.99
1333.208	2337
1336.463	2309.42
1339.717	2268.83
1342.972	2379.93
1346.226	2351.27
1349.479	2299.91
1352.733	2279.91
1355.986	2287.17
1359.238	2270.03
1362.491	2274.08
1365.743	2273
1368.995	2266.75
1372.247	2282.96
1375.498	2302.77
1378.749	2339.64
1382	2293.65
1385.251	2329.18
1388.501	2282.65
1391.751	2281.2
1395	2248.36
1398.25	2276.16
1401.499	2296.96
1404.748	2242.95
1407.996	2219.91
1411.244	2209.21
1414.492	2193.58
1417.74	2176.58
1420.987	2184.99
1424.234	2245.09
1427.481	2210.51
1430.728	2265.84
1433.974	2240.25
1437.22	2243
1440.465	2238.3
1443.711	2232.91
1446.956	2258.19
1450.201	2233.5
1453.445	2273.7
1456.689	2259.85
1459.933	2271.46
1463.177	2307.79
1466.42	2280.77
1469.663	2262.76
1472.906	2273.99
1476.148	2325.98
1479.391	2305.51
1482.633	2278.18
1485.874	2299.19
1489.115	2303.49
1492.356	2291.72
1495.597	2269.05
1498.838	2264.31
1502.078	2247.15
1505.318	2217.98
1508.557	2250.17
1511.797	2244.83
1515.036	2282.88
1518.274	2259.76
1521.513	2216.08
1524.751	2228.71
1527.989	2249.06
1531.227	2265.08
1534.464	2273.82
1537.701	2272.78
1540.938	2286.33
1544.174	2236.73
1547.41	2226.55
1550.646	2265.78
1553.882	2311.99
1557.117	2367.56
1560.352	2375.86
1563.587	2336.89
1566.821	2304.86
1570.055	2321.13
1573.289	2302.02
1576.523	2359.85
1579.756	2373.89
1582.989	2393.05
1586.222	2353.3
1589.454	2383.54
1592.686	2366.52
1595.918	2393.22
1599.15	2390.26
1602.381	2438.08
1605.612	2419.74
1608.843	2508.07
1612.073	2432.63
1615.303	2419.23
1618.533	2419.08
1621.762	2416.96
1624.992	2393.17
1628.221	2391.93
1631.449	2379.97
1634.678	2412.93
1637.906	2377.08
1641.134	2404.72
1644.361	2369.53
1647.588	2358.15
1650.815	2379.86
1654.042	2348.03
1657.269	2375.74
1660.495	2349.95
1663.72	2342.08
1666.946	2311.05
1670.171	2279
1673.396	2255.52
1676.621	2237.11
1679.845	2239.94
1683.069	2249.66
1686.293	2279.37
1689.517	2265.17
1692.74	2215.11
1695.963	2237.54
1699.185	2271.9
1702.408	2247.72
1705.63	2276.79
1708.852	2294.71
1712.073	2269.43
1715.294	2274.88
1718.515	2319.85
1721.736	2278
1724.956	2261.04
1728.176	2283.16
1731.396	2305.97
1734.616	2294.19
1737.835	2327.92
1741.054	2301.17
1744.272	2292.37
1747.491	2329.69
1750.709	2356.54
1753.927	2299.6
1757.144	2328.88
1760.361	2382.54
1763.578	2360.32
1766.795	2310.3
1770.011	2301.28
1773.227	2327.57
1776.443	2368.84
1779.658	2409.83
1782.874	2351.83
1786.089	2343.43
1789.303	2344.9
1792.518	2343.67
1795.732	2329.59
1798.945	2343.07
1802.159	2386.36
1805.372	2323.72
1808.585	2315.77
1811.797	2316.27
1815.01	2345.58
1818.222	2364.6
1821.434	2327.4
1824.645	2371.57
1827.856	2375.57
1831.067	2408.13
1834.278	2350.81
1837.488	2331.55
1840.698	2457.14
1843.908	2399.82
1847.117	2366.88
1850.326	2285.16
1853.535	2350.08
1856.744	2381.72
1859.952	2308.05
1863.16	2310.14
1866.368	2326.21
1869.575	2435.99
1872.782	2324.04
1875.989	2257.65
1879.196	2310.81
1882.402	2303.63
1885.608	2337.4
1888.814	2274.63
1892.019	2185.2
1895.224	2232.99
1898.429	2202.64
1901.634	2187.57
1904.838	2161.3
1908.042	2216.43
1911.246	2229.71
1914.449	2189.05
1917.652	2175.08
1920.855	2156.59
1924.058	2185.82
1927.26	2228.01
1930.462	2252.52
1933.664	2290.34
1936.865	2229.93
1940.066	2248.3
1943.267	2192.39
1946.467	2202.15
1949.668	2221.73
1952.868	2290.41
1956.067	2279.12
1959.267	2219.15
1962.466	2242.89
1965.665	2225.81
1968.863	2218.09
1972.061	2225.06
1975.259	2218.35
1978.457	2293.53
1981.654	2256.18
1984.852	2258.83
1988.048	2209.65
1991.245	2198.86
1994.441	2285.28
1997.637	2248.52
2000.833	2229.05
2004.028	2266.15
2007.223	2325.34
2010.418	2311.85
2013.613	2265.68
2016.807	2256.74
2020.001	2251.71
2023.194	2273.86
2026.388	2259.3
2029.581	2203.71
2032.774	2262.93
2035.966	2272.87
2039.158	2217.31
2042.35	2236.6
2045.542	2164.24
2048.733	2246.95
2051.924	2244.38
2055.115	2261.62
2058.306	2226.66
2061.496	2281.24
2064.686	2331.59
2067.875	2240.23
2071.065	2247.37
2074.254	2264.98
2077.442	2220.39
2080.631	2304.28
2083.819	2230.73
2087.007	2220.37
2090.195	2205.32
2093.382	2222.16
2096.569	2205.46
2099.756	2167.25
2102.942	2211.69
2106.128	2220.98
2109.314	2213.58
2112.5	2196.53
2115.685	2165.85
2118.87	2173.69
2122.055	2236.51
2125.239	2213.41
2128.424	2199.29
2131.608	2263.71
2134.791	2248.29
2137.974	2288.09
2141.157	2277.15
2144.34	2244.91
2147.523	2238.12
2150.705	2261.49
2153.887	2231.66
2157.068	2199.68
2160.25	2187.13
2163.431	2209.34
2166.611	2177.04
2169.792	2196.74
2172.972	2107.67
2176.152	2162.94
2179.331	2190.37
2182.511	2191.4
2185.69	2211.9
2188.868	2216.36
2192.047	2253.71
2195.225	2263.99
2198.403	2217.27
2201.58	2203.53
2204.758	2193.65
2207.935	2267.36
2211.111	2179.81
2214.288	2168.42
2217.464	2201
2220.64	2163.73
2223.815	2212.21
2226.991	2143.33
2230.166	2160.79
2233.34	2201.07
2236.515	2215.18
2239.689	2278.23
2242.863	2228.02
2246.036	2282.08
2249.209	2266.71
2252.382	2288.17
2255.555	2293.49
2258.727	2242.92
2261.9	2273.55
2265.071	2263.91
2268.243	2259.79
2271.414	2208.97
2274.585	2188.56
2277.756	2250.58
2280.926	2206.22
2284.096	2238.51
2287.266	2166.46
2290.436	2210.84
2293.605	2232.97
2296.774	2268.3
2299.942	2274.55
2303.111	2292.29
2306.279	2342.55
2309.447	2327.09
2312.614	2298.4
2315.781	2322.82
2318.948	2298.78
2322.115	2336.34
2325.281	2239.45
2328.447	2247.55
2331.613	2218.48
2334.779	2208.5
2337.944	2205.33
2341.109	2206.19
2344.274	2196.7
2347.438	2163.98
2350.602	2185.24
2353.766	2194.71
2356.929	2183.14
2360.092	2221.16
2363.255	2189.02
2366.418	2152.28
2369.58	2224.05
2372.742	2090.96
2375.904	2086.66
2379.066	2070.28
2382.227	2098.44
2385.388	2061.22
2388.548	2008.67
2391.709	2051.29
2394.869	2038.35
2398.029	2098.61
2401.188	2098.3
2404.347	2056.41
2407.506	2141.44
2410.665	2178.34
2413.823	2166.69
2416.981	2142.51
2420.139	2158.51
2423.296	2202.66
2426.453	2175.08
2429.61	2195.83
2432.767	2162.38
2435.923	2200.44
2439.079	2151.7
2442.235	2186.01
2445.391	2128
2448.546	2169.51
2451.701	2204.1
2454.855	2199.52
2458.009	2227.98
2461.163	2220.98
2464.317	2191.41
2467.471	2218.36
2470.624	2247.64
2473.777	2235.59
2476.929	2251.24
2480.082	2275.4
2483.234	2245.79
2486.385	2190.63
2489.537	2184.09
2492.688	2172.99
2495.839	2186.24
2498.989	2202.95
2502.14	2187.56
2505.29	2179.34
2508.439	2203.25
2511.589	2142.96
2514.738	2142.61
2517.887	2168.26
2521.035	2241.2
2524.183	2203.5
2527.331	2188.63
2530.479	2182.92
2533.627	2183.93
