Data from C_1_DIV_WI_4N_Splice17_11-48-08-587.txt Node
Date: Sat Mar 14 11:48:08 EDT 2020
User: sa697716
Spectrometer: FLMS03696
Trigger mode: 0
Integration Time (sec): 3.180400E-1
Scans to average: 20
Electric dark correction enabled: true
Nonlinearity correction enabled: true
Boxcar width: 5
XAxis mode: Wavelengths
Number of Pixels in Spectrum: 2048
>>>>>Begin Spectral Data<<<<<
187.83	-279019.39
188.298	1984.27
188.766	1079.35
189.233	907.39
189.701	1270.67
190.169	1778.3
190.636	665.88
191.104	499.38
191.571	75.36
192.039	-13.15
192.506	4.63
192.974	368.91
193.441	-697.08
193.908	-209.99
194.375	-55.22
194.842	-8.03
195.31	47.69
195.777	142.43
196.244	322.29
196.711	454.48
197.177	595.16
197.644	827.51
198.111	1409.21
198.578	2003.48
199.045	1624.85
199.511	2635.73
199.978	3047.32
200.445	2567.69
200.911	2839.67
201.378	3183.64
201.844	2878.23
202.31	4879.44
202.777	5109.44
203.243	2868.77
203.709	2740.55
204.176	3266.98
204.642	2709
205.108	2548.89
205.574	2103.63
206.04	1941.24
206.506	1836.46
206.972	1754.74
207.438	1695.44
207.903	1953.26
208.369	1711.54
208.835	1708.21
209.301	1787.77
209.766	1836.69
210.232	1839.5
210.697	2322.8
211.163	2901.87
211.628	4449.59
212.094	3749.85
212.559	4637.52
213.024	2891.04
213.49	3559.63
213.955	3507.72
214.42	3480.24
214.885	3260.77
215.35	3152.91
215.815	3025.99
216.28	3247.83
216.745	2693.82
217.21	2971.11
217.675	2824.18
218.14	3275.97
218.604	3800.98
219.069	4498.01
219.534	4859.39
219.998	5845.66
220.463	7280.08
220.927	9239.98
221.392	8879.91
221.856	9125.35
222.32	11703.64
222.785	14592.51
223.249	18583.34
223.713	20897.19
224.177	21023.86
224.642	27168.82
225.106	33606.64
225.57	36854.81
226.034	27420.05
226.497	41790.75
226.961	37798.57
227.425	44098.87
227.889	49168.25
228.353	49274.27
228.816	101960.36
229.28	97710.58
229.744	82572.06
230.207	50163.45
230.671	49464.6
231.134	82207.06
231.597	94888.11
232.061	95144.83
232.524	92934.53
232.987	63988.48
233.45	57558.47
233.914	51668.15
234.377	53028.11
234.84	48547.17
235.303	57293.65
235.766	63941.55
236.229	66027.86
236.691	41605.25
237.154	46736.81
237.617	35119.2
238.08	36005.44
238.542	42191.79
239.005	30134.69
239.468	29883.88
239.93	28118.39
240.393	25532.39
240.855	22371.2
241.317	22911.78
241.78	27888.99
242.242	28797.46
242.704	31060.28
243.166	27000.12
243.629	24444.52
244.091	28151.26
244.553	30860.53
245.015	33168.52
245.477	42919.1
245.939	62980.94
246.4	66809.08
246.862	64915.84
247.324	61219.43
247.786	68610.74
248.247	90032.53
248.709	93186.08
249.17	69652.24
249.632	65497.2
250.093	75896.84
250.555	65566.84
251.016	39960.54
251.477	37902.97
251.939	40880.17
252.4	42884.2
252.861	50995.71
253.322	47420.01
253.783	56462.8
254.244	73282.59
254.705	57876.45
255.166	51496.14
255.627	50694.5
256.088	71469.46
256.549	75887.45
257.009	65413.03
257.47	79393.58
257.931	64624.84
258.391	48384.55
258.852	49838.83
259.312	52310.39
259.773	64587.03
260.233	54583.15
260.694	46037.67
261.154	52298.49
261.614	41948.49
262.074	37526.19
262.534	38982.8
262.994	36760.72
263.455	49047.35
263.915	41389.61
264.374	38993.52
264.834	42618.56
265.294	47266.58
265.754	48986.11
266.214	46393.44
266.673	43511.19
267.133	54956.36
267.593	54550.03
268.052	66744.81
268.512	58062.73
268.971	69888.54
269.431	76597.73
269.89	68534.5
270.349	102735.77
270.809	114456.28
271.268	102788.11
271.727	230623.38
272.186	149190.9
272.645	111882.86
273.104	80736.76
273.563	116802.24
274.022	91911.48
274.481	78131.65
274.94	60150.99
275.399	44702.91
275.857	52055.08
276.316	70416.73
276.775	62610.25
277.233	61670.71
277.692	57633.47
278.15	65098.62
278.609	66876.91
279.067	61867.11
279.525	57379.87
279.984	74090.2
280.442	88889.6
280.9	87429.62
281.358	57439.31
281.816	53446.92
282.274	52246.73
282.732	53970.14
283.19	54229.43
283.648	46769.74
284.106	49752.96
284.564	50608.7
285.021	46860.38
285.479	34894.33
285.937	31738.38
286.394	27782.87
286.852	28579.45
287.309	30014.23
287.767	28919.35
288.224	27456.53
288.682	30108.15
289.139	32999.91
289.596	30144.73
290.053	31321.06
290.511	39544.55
290.968	47930.41
291.425	65127.66
291.882	54106.44
292.339	47059.14
292.796	46753.78
293.252	44045.49
293.709	34940.7
294.166	31291.49
294.623	34580.78
295.079	33178.05
295.536	33272.36
295.992	30173.32
296.449	29782.92
296.905	30914.89
297.362	29606.27
297.818	31123.19
298.274	32235.59
298.731	32857.78
299.187	32488.48
299.643	34848.29
300.099	42078.87
300.555	46079.09
301.011	38482.37
301.467	37028.53
301.923	43383.97
302.379	42289.52
302.835	41459.85
303.291	41469.15
303.746	47100.82
304.202	59418.66
304.658	59612.73
305.113	40041.43
305.569	39212.23
306.024	41799.87
306.479	39834.84
306.935	33494.42
307.39	36597.59
307.845	33779.61
308.301	33910.15
308.756	33052.71
309.211	31796.77
309.666	32514.31
310.121	40283.62
310.576	40895.01
311.031	40498.71
311.486	46304.19
311.94	46266.36
312.395	61748.84
312.85	115827.75
313.305	569739.43
313.759	2940058.04
314.214	212964.15
314.668	168624.65
315.123	141606.53
315.577	50685.49
316.032	45051.08
316.486	56375.44
316.94	44388.24
317.394	30870.03
317.849	23982.67
318.303	22697.87
318.757	21397.71
319.211	23635.44
319.665	20682.47
320.119	20932.27
320.572	29996.61
321.026	27988.3
321.48	23294.75
321.934	25419.13
322.387	25478.86
322.841	27492.52
323.295	24641.59
323.748	28413.18
324.202	28791.54
324.655	34530.89
325.108	48120
325.562	33959.68
326.015	40343.31
326.468	30459.14
326.921	34014.61
327.374	31672.25
327.827	32912.36
328.28	37196.24
328.733	24840.75
329.186	21830.35
329.639	20794.95
330.092	17521.12
330.545	16647.02
330.997	16756.56
331.45	18274.95
331.903	21342.51
332.355	36633.56
332.808	35574.35
333.26	29332.08
333.713	31817.48
334.165	32004.46
334.617	42687.37
335.069	34509.16
335.522	62408.41
335.974	69038.41
336.426	63049.84
336.878	43767.54
337.33	22193.36
337.782	21653.48
338.234	27068.24
338.686	32390.99
339.137	38383.76
339.589	36122.81
340.041	28304.1
340.493	24307.74
340.944	24871.14
341.396	26748.57
341.847	22437.58
342.299	26454
342.75	32244.89
343.201	28198.52
343.653	32401.14
344.104	39780.91
344.555	31279.55
345.006	48669.84
345.457	37220.41
345.908	29577.78
346.359	27820.17
346.81	22648.02
347.261	23844.96
347.712	23484.37
348.163	25176.94
348.613	25431.49
349.064	23728.52
349.515	20762.98
349.965	21252.14
350.416	25550.3
350.866	28045.66
351.317	31684.4
351.767	52422.7
352.217	66170.39
352.668	54896.27
353.118	50223.78
353.568	48473.07
354.018	38236.02
354.468	40296.49
354.918	28884.09
355.368	25267.5
355.818	35686.42
356.268	102521.87
356.718	428306.76
357.168	106485.55
357.617	53368.49
358.067	59412.34
358.517	55608.31
358.966	65237.96
359.416	73051.42
359.865	79001.71
360.315	94100.16
360.764	43785.65
361.213	24548.82
361.663	23274.68
362.112	28771.83
362.561	46430.71
363.01	34959.3
363.459	29467.14
363.908	31903.14
364.357	27070.26
364.806	45705.71
365.255	31397.74
365.703	28767.79
366.152	28764.54
366.601	23318.45
367.05	18906.26
367.498	17185.33
367.947	17989.3
368.395	18690.8
368.844	16534.4
369.292	19964.46
369.74	13786.92
370.189	21116.51
370.637	24775.36
371.085	21396.97
371.533	26079.14
371.981	25181.78
372.429	23970.26
372.877	24977.7
373.325	20929.3
373.773	21373.25
374.221	19054.56
374.669	23697.83
375.116	20562.64
375.564	20781.03
376.012	23306.9
376.459	19277.29
376.907	23034.03
377.354	28005.91
377.801	26138.96
378.249	30088.76
378.696	38561.39
379.143	46808.42
379.591	50049.26
380.038	84619.73
380.485	61235.88
380.932	66201.05
381.379	60569.9
381.826	44710.03
382.273	31853.6
382.72	27966.55
383.166	27314.32
383.613	17722.39
384.06	16008.05
384.506	18550.47
384.953	13694.78
385.4	13845.21
385.846	12163.98
386.292	11909.66
386.739	11694.46
387.185	11580.94
387.631	11576.24
388.078	11238.54
388.524	12054.8
388.97	11141.51
389.416	9285.62
389.862	9862.25
390.308	9331.54
390.754	9480.01
391.2	10280.43
391.645	10531.04
392.091	10054.74
392.537	9728.2
392.983	9745.29
393.428	9560.14
393.874	10249.83
394.319	10271.91
394.765	9723
395.21	9984.08
395.655	9342.4
396.101	8747.52
396.546	7870.34
396.991	7939.68
397.436	7378.63
397.881	7122.13
398.326	6750.19
398.771	6360.73
399.216	5564.33
399.661	5007.7
400.106	4979.19
400.551	5083.6
400.995	4541.65
401.44	4481.08
401.885	4201.93
402.329	4226.74
402.774	4046.26
403.218	3893.57
403.663	3746.36
404.107	3833.84
404.551	3848.36
404.995	3521.42
405.44	3390.04
405.884	3434.43
406.328	3321.66
406.772	3305.38
407.216	3004.98
407.66	2894
408.104	2748.63
408.547	2569.98
408.991	2482.65
409.435	2387.23
409.879	2350.51
410.322	2313.43
410.766	2226.63
411.209	2107.24
411.653	2015.36
412.096	1967.05
412.54	1962.2
412.983	1947.18
413.426	1944.05
413.869	1939.77
414.312	1897.23
414.756	1825.31
415.199	1737.16
415.642	1685.93
416.085	1687.51
416.527	1673.9
416.97	1696.52
417.413	1609.66
417.856	1588.17
418.298	1571.72
418.741	1560.37
419.184	1554.77
419.626	1617.36
420.069	1616.86
420.511	1621.74
420.953	1581.55
421.396	1564.93
421.838	1525.6
422.28	1556.85
422.722	1561.3
423.164	1580.8
423.606	1550.1
424.048	1546.95
424.49	1464.6
424.932	1453.95
425.374	1432.21
425.816	1457.22
426.258	1481.99
426.699	1497.38
427.141	1474.85
427.582	1498
428.024	1491.85
428.465	1480.78
428.907	1440.27
429.348	1425.27
429.789	1422.51
430.231	1392.16
430.672	1410.2
431.113	1379.02
431.554	1357.12
431.995	1325.8
432.436	1277.01
432.877	1246.6
433.318	1223.93
433.759	1218.08
434.2	1217.24
434.64	1205.2
435.081	1208.08
435.522	1144.21
435.962	1101.44
436.403	1075.84
436.843	1088.28
437.284	1063.23
437.724	1032.84
438.164	1038.75
438.604	1017.54
439.045	975.99
439.485	934.28
439.925	913.71
440.365	891.26
440.805	878.68
441.245	865.11
441.685	831.82
442.125	827.69
442.564	833.87
443.004	812.8
443.444	810.84
443.883	812.01
444.323	805.84
444.762	808.23
445.202	818.96
445.641	830.68
446.081	826.96
446.52	832.82
446.959	820.6
447.398	797.75
447.837	787.03
448.276	770.85
448.716	777.81
449.154	783.5
449.593	763.01
450.032	758.35
450.471	744.05
450.91	742.9
451.349	739.2
451.787	737.06
452.226	747.43
452.664	745.05
453.103	746.66
453.541	744.68
453.98	742.84
454.418	747.19
454.856	733.95
455.295	732.63
455.733	738.01
456.171	743.58
456.609	743.48
457.047	743.2
457.485	753.65
457.923	754.39
458.361	742.42
458.798	745.07
459.236	743.5
459.674	749.61
460.111	753.42
460.549	745.78
460.987	742.36
461.424	739.61
461.862	735.81
462.299	725.75
462.736	724.46
463.173	728.43
463.611	719.93
464.048	717.83
464.485	723.5
464.922	715.71
465.359	712.01
465.796	700.03
466.233	695.6
466.67	690.07
467.106	688.96
467.543	682.99
467.98	674.17
468.416	657.7
468.853	652.83
469.29	633.57
469.726	627.83
470.162	611.84
470.599	606.18
471.035	600.99
471.471	585.69
471.907	581.95
472.344	576.27
472.78	575.94
473.216	582.47
473.652	574.2
474.088	571.47
474.523	568.1
474.959	572.17
475.395	565.91
475.831	560.75
476.266	563.27
476.702	560.77
477.138	553.97
477.573	552.18
478.008	548.79
478.444	550.73
478.879	554.93
479.314	555.95
479.75	554.85
480.185	556.87
480.62	561.91
481.055	563.56
481.49	567.16
481.925	575.45
482.36	584.8
482.795	600.18
483.229	615.02
483.664	627.35
484.099	630.35
484.534	640.16
484.968	645.72
485.403	646.72
485.837	645.5
486.271	642.68
486.706	643.08
487.14	635.66
487.574	625.72
488.009	619.69
488.443	613.41
488.877	617.71
489.311	617.8
489.745	624.01
490.179	628.75
490.613	639.6
491.046	643.62
491.48	646.6
491.914	645.74
492.348	648.55
492.781	651.5
493.215	652.54
493.648	653.22
494.082	656.97
494.515	655.33
494.948	661.09
495.382	663.23
495.815	666.7
496.248	670.14
496.681	680.31
497.114	688.72
497.547	695.93
497.98	705.4
498.413	709.15
498.846	716.24
499.279	722.88
499.711	723.9
500.144	723.86
500.577	730.44
501.009	737.65
501.442	743.81
501.874	743.16
502.306	742.92
502.739	746.33
503.171	756.86
503.603	757.53
504.036	762.78
504.468	766.21
504.9	774.22
505.332	778.27
505.764	779.69
506.196	783.36
506.627	794.42
507.059	803.61
507.491	809.95
507.923	806.45
508.354	817.29
508.786	824.48
509.217	837.31
509.649	848.01
510.08	862.25
510.512	874.48
510.943	885.78
511.374	892.97
511.805	908.74
512.237	923.07
512.668	948.39
513.099	969.01
513.53	990.93
513.961	1006.63
514.391	1031.73
514.822	1058.58
515.253	1088.27
515.684	1108.62
516.114	1132.23
516.545	1148.78
516.975	1170.63
517.406	1185.1
517.836	1188.03
518.267	1192.39
518.697	1208.48
519.127	1211.85
519.558	1217.11
519.988	1219.75
520.418	1229.14
520.848	1244
521.278	1250.95
521.708	1255.42
522.138	1266.16
522.567	1292.26
522.997	1313.96
523.427	1326.42
523.857	1341.67
524.286	1349.89
524.716	1362.23
525.145	1378.4
525.575	1388.74
526.004	1401.52
526.433	1406.14
526.863	1406.78
527.292	1398.58
527.721	1403.88
528.15	1408.53
528.579	1409.64
529.008	1420.23
529.437	1439.83
529.866	1450.99
530.295	1464.11
530.724	1474.46
531.152	1497.6
531.581	1510.38
532.01	1525.71
532.438	1532.98
532.867	1546.08
533.295	1561.94
533.723	1567.48
534.152	1566.66
534.58	1566.26
535.008	1553.72
535.436	1556.99
535.865	1563.42
536.293	1575.68
536.721	1589.01
537.149	1611.14
537.576	1613.39
538.004	1623.93
538.432	1630.49
538.86	1630.5
539.287	1637.46
539.715	1650.24
540.143	1652.14
540.57	1650.05
540.998	1646.78
541.425	1627.5
541.852	1609.4
542.28	1608.56
542.707	1594.66
543.134	1582.95
543.561	1578.01
543.988	1571.93
544.415	1570.78
544.842	1566.14
545.269	1559.14
545.696	1560.45
546.123	1570.44
546.549	1560.93
546.976	1549.66
547.403	1548.68
547.829	1550.04
548.256	1551.14
548.682	1546.46
549.108	1539
549.535	1537
549.961	1537.77
550.387	1525.45
550.813	1519.4
551.24	1524.74
551.666	1524.86
552.092	1515.65
552.518	1508.41
552.943	1502.57
553.369	1508.21
553.795	1513.01
554.221	1513.38
554.646	1510.48
555.072	1519.39
555.498	1523.21
555.923	1530.11
556.349	1541.17
556.774	1547.22
557.199	1547.83
557.625	1552.58
558.05	1547.12
558.475	1554.64
558.9	1553.25
559.325	1545.4
559.75	1538.39
560.175	1532.5
560.6	1525.92
561.025	1522.59
561.449	1523.03
561.874	1525.86
562.299	1527.91
562.723	1532.64
563.148	1522.65
563.572	1524.54
563.997	1531.18
564.421	1534.69
564.846	1533.56
565.27	1535.95
565.694	1532.46
566.118	1540.8
566.542	1546.8
566.966	1540.42
567.39	1535.35
567.814	1525.83
568.238	1523.28
568.662	1526.78
569.086	1527.8
569.509	1533.11
569.933	1517.57
570.357	1512.16
570.78	1493.36
571.204	1481.9
571.627	1472.7
572.05	1469.54
572.474	1468.67
572.897	1459.21
573.32	1451.86
573.743	1442.43
574.166	1426.77
574.589	1427.1
575.012	1419.1
575.435	1417.9
575.858	1409.01
576.281	1397.55
576.704	1383.97
577.126	1371.68
577.549	1360.94
577.972	1351.59
578.394	1342.18
578.817	1335.06
579.239	1317.87
579.661	1306.3
580.084	1292.08
580.506	1280.26
580.928	1276.58
581.35	1267.42
581.772	1263.14
582.194	1252.08
582.616	1241.87
583.038	1229.15
583.46	1219.76
583.882	1216.49
584.303	1218.67
584.725	1214.47
585.147	1215.06
585.568	1222.31
585.99	1230.76
586.411	1235.17
586.833	1245.52
587.254	1245.67
587.675	1256.89
588.096	1265.64
588.518	1261.16
588.939	1246.78
589.36	1244.76
589.781	1235.58
590.202	1213.3
590.623	1205.26
591.043	1203.23
591.464	1192.6
591.885	1189.76
592.305	1184.69
592.726	1174.43
593.147	1174.84
593.567	1171.15
593.987	1164.98
594.408	1160.5
594.828	1158.61
595.248	1153.62
595.669	1139.08
596.089	1133.05
596.509	1127.66
596.929	1116.75
597.349	1116.65
597.769	1108.37
598.189	1102.76
598.608	1103.42
599.028	1105.1
599.448	1105
599.867	1094.71
600.287	1090.91
600.706	1087.37
601.126	1079.01
601.545	1077.45
601.965	1076.15
602.384	1072.09
602.803	1074.13
603.222	1069.97
603.641	1064.78
604.061	1061.41
604.48	1059.04
604.898	1065.11
605.317	1068.47
605.736	1069.55
606.155	1067.87
606.574	1060.75
606.992	1065.24
607.411	1061.39
607.829	1055.06
608.248	1052.79
608.666	1050.88
609.085	1049.58
609.503	1043.27
609.921	1039.47
610.339	1040.79
610.758	1040.63
611.176	1036.6
611.594	1029.3
612.012	1027.14
612.43	1029.47
612.847	1034.26
613.265	1036.11
613.683	1040.7
614.101	1041.52
614.518	1037.56
614.936	1030.27
615.353	1019.11
615.771	1017.03
616.188	1017.44
616.606	1015.6
617.023	1010.48
617.44	999.38
617.857	993.73
618.274	986.39
618.691	981.64
619.108	975.09
619.525	970.38
619.942	975.23
620.359	977.72
620.776	973.46
621.192	969.47
621.609	968.36
622.026	973.04
622.442	976.93
622.859	979.76
623.275	974.64
623.691	978.49
624.108	987.5
624.524	998.48
624.94	998.36
625.356	1006.65
625.772	1016.71
626.188	1025.69
626.604	1027.4
627.02	1024.59
627.436	1023.16
627.852	1028.56
628.268	1038.46
628.683	1031.92
629.099	1025.57
629.514	1021.84
629.93	1024.03
630.345	1026.99
630.761	1023.27
631.176	1025.32
631.591	1020.76
632.007	1015.64
632.422	1013.35
632.837	1003.41
633.252	1000.2
633.667	991.11
634.082	983.98
634.497	973
634.911	958
635.326	955.02
635.741	942
636.155	932.86
636.57	933.91
636.984	933.37
637.399	934.33
637.813	932.95
638.228	931.46
638.642	933.96
639.056	926.38
639.47	926.58
639.884	919.2
640.298	914.5
640.712	914.97
641.126	905
641.54	897.91
641.954	894.66
642.368	886.37
642.781	882.49
643.195	869.36
643.609	870.79
644.022	866.75
644.436	865.31
644.849	856.7
645.262	848.39
645.676	851.45
646.089	848.92
646.502	838.98
646.915	836.82
647.328	824.12
647.741	823.72
648.154	814.32
648.567	813.59
648.98	804.43
649.393	805.3
649.805	803.42
650.218	797.9
650.631	786.88
651.043	782.75
651.456	778.15
651.868	779.06
652.28	792.62
652.693	804.21
653.105	809.65
653.517	817.83
653.929	819.71
654.341	824.09
654.753	814.66
655.165	820.2
655.577	818.44
655.989	816.31
656.401	811.94
656.813	784.68
657.224	770.55
657.636	749.44
658.047	737.44
658.459	723.21
658.87	718.66
659.282	712.3
659.693	698.56
660.104	689.33
660.515	680.55
660.926	679.74
661.338	680.81
661.749	677.62
662.159	671.98
662.57	669.11
662.981	667.74
663.392	663.68
663.803	667.98
664.213	668.15
664.624	666.68
665.035	671.11
665.445	662.76
665.855	658.44
666.266	653.97
666.676	654.98
667.086	651.18
667.497	653.22
667.907	650.86
668.317	645.33
668.727	645
669.137	647.56
669.547	647.08
669.956	651.65
670.366	653.75
670.776	657.36
671.186	660.61
671.595	664.49
672.005	668.31
672.414	668.21
672.824	668.34
673.233	672.25
673.642	675.02
674.052	678.98
674.461	681.83
674.87	687.54
675.279	685.53
675.688	688.78
676.097	690.26
676.506	688.56
676.915	701.75
677.323	704.35
677.732	703.07
678.141	702.32
678.549	694.13
678.958	693.26
679.366	693.07
679.775	697.58
680.183	706.1
680.592	710.46
681	713.75
681.408	705.56
681.816	709.9
682.224	716.32
682.632	724.61
683.04	747.43
683.448	765.44
683.856	788.6
684.264	815.11
684.671	837.39
685.079	867.24
685.487	898.78
685.894	945.74
686.302	983.8
686.709	1010.59
687.116	1042.07
687.524	1067.07
687.931	1087.31
688.338	1101.95
688.745	1112.74
689.152	1128.2
689.559	1151.13
689.966	1175.72
690.373	1182.63
690.78	1204.57
691.187	1245.54
691.593	1275.61
692	1301.78
692.407	1343.76
692.813	1398.01
693.22	1439.73
693.626	1484.13
694.032	1520.26
694.439	1576.68
694.845	1623.41
695.251	1682
695.657	1734.32
696.063	1813.7
696.469	1873.28
696.875	1931.16
697.281	1963.26
697.687	2005.47
698.093	2042.67
698.498	2109.06
698.904	2162.01
699.31	2237.95
699.715	2294.35
700.12	2375.6
700.526	2397.2
700.931	2460.76
701.337	2511.26
701.742	2549.44
702.147	2628.82
702.552	2664.04
702.957	2724.31
703.362	2749.66
703.767	2781.68
704.172	2825.9
704.577	2795.65
704.981	2844.87
705.386	2870.55
705.791	2873.33
706.195	2946.04
706.6	2961.16
707.004	3039.55
707.408	3021.88
707.813	3055.97
708.217	3058
708.621	3069.15
709.025	3165.28
709.43	3174.48
709.834	3236.08
710.237	3307.54
710.641	3304.8
711.045	3334.77
711.449	3339.79
711.853	3375.94
712.256	3424.07
712.66	3465.47
713.064	3542.98
713.467	3589.66
713.87	3702.92
714.274	3753.4
714.677	3863.27
715.08	4019.08
715.484	4183.33
715.887	4377.67
716.29	4569.46
716.693	4771.01
717.096	5004.49
717.499	5137.07
717.901	5171.01
718.304	5207.34
718.707	5241.76
719.109	5155.3
719.512	5136.79
719.915	5020.3
720.317	4978.17
720.719	5029.74
721.122	5011.4
721.524	4972.11
721.926	4941.3
722.328	5047.31
722.731	5047.79
723.133	5082.16
723.535	5274.17
723.937	5301.31
724.338	5358.34
724.74	5403.12
725.142	5336.61
725.544	5342.11
725.945	5373.59
726.347	5379.52
726.748	5377.02
727.15	5396.61
727.551	5364.63
727.952	5343.77
728.354	5321.82
728.755	5330.15
729.156	5297.1
729.557	5301.92
729.958	5186.9
730.359	5140.77
730.76	5125.49
731.161	5071.23
731.562	5049.95
731.962	5057.29
732.363	4998.76
732.763	4940.16
733.164	4979.51
733.564	4917.86
733.965	4828.34
734.365	4800.13
734.766	4830.76
735.166	4795.39
735.566	4743.8
735.966	4721.14
736.366	4722.1
736.766	4664.63
737.166	4699.9
737.566	4659.35
737.966	4635.23
738.365	4675.63
738.765	4669.66
739.165	4597.2
739.564	4574.89
739.964	4621.74
740.363	4577.37
740.763	4574.38
741.162	4564.7
741.561	4534.46
741.96	4492.83
742.36	4513.64
742.759	4521.38
743.158	4562.11
743.557	4579.21
743.955	4619.85
744.354	4575.46
744.753	4634.2
745.152	4595.29
745.55	4649.34
745.949	4641.93
746.348	4645.41
746.746	4661.91
747.144	4622.85
747.543	4601.28
747.941	4650.53
748.339	4581.1
748.737	4575.68
749.136	4567.22
749.534	4630.66
749.932	4603.59
750.33	4628.36
750.727	4682.64
751.125	4661.05
751.523	4647.04
751.921	4688.67
752.318	4654.42
752.716	4712.64
753.113	4726.19
753.511	4751
753.908	4751.39
754.305	4733.93
754.703	4794.57
755.1	4853.05
755.497	4912.58
755.894	5098.64
756.291	5274.07
756.688	5597.88
757.085	6027.37
757.482	6633.68
757.878	7297.14
758.275	7899.29
758.672	8728.56
759.068	9400.38
759.465	10358.97
759.861	11595.85
760.258	13029.18
760.654	13776.06
761.05	13665.17
761.447	13039.62
761.843	12137.97
762.239	11205.14
762.635	10784.92
763.031	10378.81
763.427	9799.87
763.822	9188.63
764.218	8580.29
764.614	7794.1
765.01	7269.39
765.405	6929.59
765.801	6673.82
766.196	6346.29
766.592	6165.53
766.987	5854.87
767.382	5645.88
767.778	5557.7
768.173	5430.28
768.568	5362.49
768.963	5241.16
769.358	5259.74
769.753	5215
770.148	5134.67
770.542	5134.44
770.937	5101.08
771.332	5189.63
771.726	5209.19
772.121	5147.65
772.515	5202.19
772.91	5187.05
773.304	5256.61
773.699	5190.36
774.093	5241.6
774.487	5290.58
774.881	5331.24
775.275	5328.51
775.669	5289.11
776.063	5332.38
776.457	5367.09
776.851	5294.52
777.245	5285.14
777.638	5318.28
778.032	5430.87
778.425	5397.31
778.819	5439.68
779.212	5396.74
779.606	5354.36
779.999	5372.53
780.392	5353.81
780.786	5434.18
781.179	5453.07
781.572	5494.15
781.965	5505.89
782.358	5446.23
782.751	5499.78
783.143	5455.08
783.536	5531.4
783.929	5575.21
784.322	5688.99
784.714	5718.75
785.107	5714.31
785.499	5784.71
785.891	5763.44
786.284	5746.44
786.676	5889.19
787.068	5868.37
787.46	5921.41
787.852	5937.36
788.245	6020.66
788.636	6046.98
789.028	6113.93
789.42	6152.76
789.812	6161.27
790.204	6257.84
790.595	6351.38
790.987	6156.51
791.378	6177.94
791.77	6300.1
792.161	6432.47
792.553	6484.45
792.944	6374.13
793.335	6309.04
793.726	6379.61
794.117	6464.88
794.508	6593.17
794.899	6566.19
795.29	6707.1
795.681	6762.01
796.072	6624.06
796.463	6438.29
796.853	6447.33
797.244	6599.84
797.634	6633.6
798.025	6628.6
798.415	6640.92
798.806	6730.07
799.196	6812.05
799.586	6858.53
799.976	6823.14
800.366	7044.03
800.756	7282.17
801.146	7240.76
801.536	7268.01
801.926	7333.37
802.316	7357.36
802.706	7423.87
803.095	7302.29
803.485	7399.92
803.874	7441.09
804.264	7689.89
804.653	7667.09
805.043	7805
805.432	7915.92
805.821	7920.74
806.21	7941.27
806.599	8055.82
806.988	8104.38
807.377	8205.76
807.766	8331.56
808.155	8601.15
808.544	8347.9
808.933	8362.26
809.321	8339.26
809.71	8628.53
810.098	8777.37
810.487	9226.26
810.875	9693.71
811.264	9713.08
811.652	9990.93
812.04	10134.32
812.428	10296.34
812.816	11030.47
813.204	11430.82
813.592	11966.7
813.98	12284.18
814.368	12192.91
814.756	12658.66
815.144	12581.93
815.531	13028.79
815.919	12953.64
816.306	13243.68
816.694	12942.23
817.081	12996.97
817.469	13332.11
817.856	13328.8
818.243	13591.08
818.63	13968.62
819.017	13560.63
819.404	13621.18
819.791	13992.81
820.178	14602.12
820.565	14844.49
820.952	15748.38
821.339	15272.72
821.725	15460.48
822.112	14736.8
822.498	14694.49
822.885	14828.87
823.271	14738.25
823.657	15144.01
824.044	15146.73
824.43	15211.9
824.816	15183.96
825.202	14768.33
825.588	15760.29
825.974	15765.8
826.36	16279.33
826.746	16317.63
827.132	16666.96
827.517	16647.58
827.903	15883.42
828.289	15926.31
828.674	15175.86
829.06	15074.31
829.445	15458.03
829.83	15804.41
830.216	16268.47
830.601	16621.62
830.986	16227.58
831.371	16090.53
831.756	16621.61
832.141	16211.02
832.526	16206.2
832.911	16482.79
833.295	16371.36
833.68	16824.26
834.065	16225.11
834.449	15345.53
834.834	15273.86
835.218	15270.86
835.603	15605.01
835.987	15408.74
836.371	16216.66
836.755	16114.57
837.139	16499.7
837.524	16744.62
837.908	16575.94
838.291	16637.64
838.675	16701.57
839.059	16908.15
839.443	16904.02
839.827	16682.76
840.21	17148.52
840.594	17007.31
840.977	17215.24
841.361	17204.63
841.744	17564.14
842.127	17415.6
842.511	17650.79
842.894	18244.33
843.277	18615.07
843.66	19143.81
844.043	19227.39
844.426	18449.47
844.809	18157.44
845.191	18183.55
845.574	17734.37
845.957	17382.88
846.339	17274.8
846.722	16768.42
847.104	16827.05
847.487	16663.38
847.869	16675.71
848.252	16940.96
848.634	17263.25
849.016	17517.59
849.398	17644.05
849.78	18475.19
850.162	18469.95
850.544	18872.55
850.926	19482.48
851.307	19396.83
851.689	19667.23
852.071	20096.25
852.452	20413.78
852.834	20393.78
853.215	20771.34
853.597	20917.6
853.978	21200.58
854.359	21652.47
854.741	20682.45
855.122	20586.68
855.503	20312.5
855.884	20446.3
856.265	20395.71
856.646	20510.72
857.026	20124.61
857.407	20052.01
857.788	20202.92
858.169	20489.27
858.549	19663.71
858.93	20271.9
859.31	20318.86
859.69	20510.65
860.071	20110.36
860.451	19900.12
860.831	19181.14
861.211	20307.86
861.591	20850.17
861.971	20824.98
862.351	20998.49
862.731	21378.21
863.111	21635
863.491	21949.65
863.87	22801.15
864.25	23152.26
864.629	22759.83
865.009	23259.29
865.388	24088.55
865.768	25813.76
866.147	25717.32
866.526	24296.76
866.905	24589.71
867.284	25975.45
867.663	24668.66
868.042	23650.96
868.421	23576.7
868.8	23972.23
869.179	24204.19
869.558	22792.37
869.936	21011.12
870.315	21389.19
870.693	21909.62
871.072	23621.64
871.45	22508.54
871.828	22792.17
872.207	23968.82
872.585	23594.74
872.963	24234.25
873.341	23400.99
873.719	23113.9
874.097	22837.89
874.475	23269.03
874.853	23811.37
875.23	22814.28
875.608	23769.21
875.986	25716.18
876.363	24581.35
876.741	25339.19
877.118	24702.9
877.495	25911.33
877.873	26359.45
878.25	27747.99
878.627	26610.16
879.004	26971.29
879.381	26848.39
879.758	26132.53
880.135	24323.94
880.512	25721.73
880.889	25030.45
881.265	24776.72
881.642	24577.75
882.019	24983.82
882.395	24458.3
882.772	25435.52
883.148	24344.14
883.524	24243.63
883.901	24094.3
884.277	24462.08
884.653	24308.04
885.029	25003.36
885.405	27671.94
885.781	27456.19
886.157	26328.61
886.532	26654.36
886.908	26635.19
887.284	29607.73
887.659	30584.39
888.035	31547.89
888.411	32358.3
888.786	32778.68
889.161	33901.78
889.537	33291.93
889.912	34341.69
890.287	34301.72
890.662	35181.53
891.037	34529.91
891.412	32196.78
891.787	31875.62
892.162	30750.48
892.536	31464.58
892.911	30286.15
893.286	29658.91
893.66	28451.6
894.035	29188.35
894.409	31789.66
894.784	30520.41
895.158	31047.18
895.532	32890.27
895.906	33780.5
896.281	34597.23
896.655	34062.62
897.029	38929.69
897.402	40550.89
897.776	45163.75
898.15	45021.07
898.524	44524.95
898.898	45093.49
899.271	50492.1
899.645	43726.14
900.018	42017.9
900.392	43571.78
900.765	43915.19
901.138	40633.93
901.511	40018.56
901.884	36743.59
902.258	33880.96
902.631	34998.03
903.003	40291.14
903.376	36360.24
903.749	40783.96
904.122	43622.51
904.495	48005.72
904.867	48593.92
905.24	42196.93
905.612	39286.69
905.985	40152.57
906.357	41990.75
906.729	40095.58
907.102	34246.18
907.474	32903.11
907.846	33091.81
908.218	32659.84
908.59	28862.45
908.962	27909.34
909.334	30038.41
909.705	31528.2
910.077	30617.27
910.449	31852.64
910.82	32751.62
911.192	36032.53
911.563	37433.41
911.935	40065.52
912.306	40126.73
912.677	41443.82
913.048	41024.81
913.419	44497.98
913.79	44747.35
914.161	47992.09
914.532	45874.28
914.903	42158.52
915.274	40043.03
915.645	39462.06
916.015	34732.97
916.386	33100.91
916.756	35214.03
917.127	36323.59
917.497	32475.17
917.868	35356.81
918.238	33594.7
918.608	34551.7
918.978	35248.18
919.348	37311.23
919.718	38535.33
920.088	37110.67
920.458	38546.71
920.828	40588.09
921.198	38494.83
921.567	41095.73
921.937	31830.73
922.306	32121.53
922.676	34650.87
923.045	28907.33
923.415	27470.83
923.784	25025.88
924.153	25729.49
924.522	25696.46
924.891	24137.94
925.26	25829.73
925.629	25228.11
925.998	28979.17
926.367	28277.51
926.736	26900.02
927.104	32042.72
927.473	34453
927.842	41594.04
928.21	41192.9
928.578	43329.87
928.947	40991.3
929.315	41255.89
929.683	48362.61
930.051	48755.43
930.42	56629.61
930.788	48444.1
931.156	48066.77
931.523	45037.97
931.891	41636.48
932.259	39988.2
932.627	46312.85
932.994	65500.19
933.362	54121.27
933.729	47043.21
934.097	45069.75
934.464	38136.95
934.831	44011.37
935.199	43403.5
935.566	42108.88
935.933	42738.07
936.3	51724.83
936.667	40287.19
937.034	36346.9
937.401	35967.75
937.767	31018.51
938.134	27589.07
938.501	38921.13
938.867	41466.67
939.234	70088.68
939.6	59777.51
939.967	65782.8
940.333	44131.25
940.699	37589.71
941.065	30179.88
941.431	39566.27
941.798	38128.9
942.163	50081.36
942.529	31286.54
942.895	28805.55
943.261	18639.04
943.627	24452.8
943.992	21402.23
944.358	21411.68
944.723	21483.69
945.089	20926.71
945.454	19357.62
945.82	20667.26
946.185	19869.33
946.55	23040.8
946.915	20697.75
947.28	24274.2
947.645	21385
948.01	19715.82
948.375	20553.86
948.74	24651.78
949.104	28769.1
949.469	41516.47
949.834	73407.05
950.198	69581.31
950.562	41667.76
950.927	34673.58
951.291	41769.65
951.655	35606.25
952.02	33486.43
952.384	25323.7
952.748	22032.1
953.112	21477.29
953.476	18675.73
953.839	17260.23
954.203	17056.23
954.567	21338.83
954.931	33610.82
955.294	28735.5
955.658	28874.6
956.021	49030.09
956.385	83095.63
956.748	122576.88
957.111	190084.26
957.474	213232.8
957.837	240311.54
958.2	181947.82
958.563	65446.39
958.926	44236.5
959.289	67107.77
959.652	74998.07
960.015	56266.03
960.377	80740.63
960.74	92126.14
961.102	158982.87
961.465	170722.65
961.827	91257.99
962.189	175246.4
962.552	121547.71
962.914	97496.45
963.276	63254.81
963.638	52232.79
964	51745.54
964.362	34996.93
964.724	33821.96
965.085	24137.63
965.447	19790.56
965.809	22608.64
966.17	22627.38
966.532	24478.79
966.893	22459.77
967.255	20427.44
967.616	24119.65
967.977	19315.11
968.338	21093.98
968.699	17341.21
969.061	17316.13
969.421	17427.55
969.782	19530.32
970.143	16487.91
970.504	17061.61
970.865	19392.8
971.225	19830.31
971.586	19393.82
971.946	27598.36
972.307	23945.94
972.667	31319.25
973.027	32286.59
973.388	39153.72
973.748	26621.49
974.108	29007.36
974.468	39238.75
974.828	30209.9
975.188	23253.7
975.548	21382.5
975.907	17968.76
976.267	20151.15
976.627	16917.34
976.986	17520.1
977.346	16723.13
977.705	16108.14
978.064	14675.51
978.424	12213.54
978.783	12631.44
979.142	14403.66
979.501	13768.79
979.86	14556.79
980.219	14026.77
980.578	18090.51
980.937	20287.88
981.296	18086.42
981.654	18598.39
982.013	28921.04
982.371	37557.09
982.73	35120.49
983.088	39805.92
983.447	42565.73
983.805	60831.69
984.163	127245.42
984.521	141291.07
984.879	206930.23
985.237	-335984.09
985.595	323521.71
985.953	80452.94
986.311	46449.21
986.669	26978.41
987.026	23269.94
987.384	31242.01
987.741	32283.74
988.099	23027.55
988.456	18361.73
988.814	17198.97
989.171	14956.13
989.528	14775.07
989.885	15583.26
990.242	12333.73
990.599	15340.46
990.956	12552.43
991.313	8785.32
991.67	7214.75
992.027	7638.01
992.383	6783.31
992.74	5935.35
993.096	6221.32
993.453	6451.48
993.809	6686.84
994.165	8899.58
994.522	8143.03
994.878	8972.89
995.234	11248.09
995.59	11117.35
995.946	10539.74
996.302	12016.65
996.658	13921.01
997.013	15357.77
997.369	18214.44
997.725	23305.97
998.08	15092.62
998.436	23324.63
998.791	32221.85
999.147	32181.01
999.502	34968.38
999.857	25428.67
1000.212	41455.54
1000.567	58919.87
1000.922	33997.73
1001.277	21521.26
1001.632	16002.52
1001.987	20641.05
1002.342	14799.91
1002.696	11806.54
1003.051	9430.3
1003.406	11458.1
1003.76	11406.71
1004.114	11258.18
1004.469	9489.39
1004.823	7842.07
1005.177	8494.65
1005.531	6732.31
1005.885	5967.97
1006.239	6733.85
1006.593	8458.92
1006.947	11312.21
1007.301	8484.94
1007.655	9237.36
1008.008	6758.85
1008.362	7580.15
1008.715	10842.21
1009.069	9837.37
1009.422	14791.52
1009.776	29709.4
1010.129	19709.79
1010.482	16467.57
1010.835	13930.03
1011.188	28971.66
1011.541	27316.95
1011.894	-167302.56
1012.247	490881.49
1012.6	33376.68
1012.952	21105.03
1013.305	10881.84
1013.657	7847.02
1014.01	7409.68
1014.362	6120.81
1014.715	5433.21
1015.067	4729.53
1015.419	4619.37
1015.771	4093.54
1016.123	3670.36
1016.475	3766.58
1016.827	3999.79
1017.179	4296.93
1017.531	4328.94
1017.883	4437.27
1018.234	4274.32
1018.586	5406.24
1018.938	5721.03
1019.289	7927.26
1019.64	9099.55
1019.992	8456.18
1020.343	7751.33
1020.694	6113.2
1021.045	5405.86
1021.396	6181.41
1021.747	6637.11
1022.098	7974.08
1022.449	5751.42
1022.8	5325.54
1023.151	3689.27
1023.501	3262.04
1023.852	3543.54
1024.202	3678.84
1024.553	4060.71
1024.903	3971.93
1025.253	3385.64
1025.604	3041.97
1025.954	3775.96
1026.304	4625.58
1026.654	5399.36
1027.004	7934.82
1027.354	12864.33
1027.703	12075.02
1028.053	15827.49
1028.403	22967.42
1028.753	33281.3
1029.102	45290.83
1029.452	232985.32
1029.801	10048.27
1030.15	6476.02
1030.499	5506.46
897.758	1987.45
901.051	1913.97
904.343	1946.77
907.636	1957.89
910.928	2018.18
914.22	1942.77
917.511	1947.15
920.803	1990.14
924.094	1978.31
927.384	1990.32
930.675	1953.61
933.965	1922.21
937.255	1959.7
940.544	1934.05
943.834	1919.46
947.123	1865.55
950.411	1949.78
953.7	1932.93
956.988	1923.54
960.276	1861.43
963.563	1898.5
966.851	1912.62
970.138	1949.93
973.424	1952.62
976.711	1905.14
979.997	1957.53
983.283	1994.48
986.568	1935.99
989.853	1918.05
993.138	1943.29
996.423	2031.98
999.708	1998.09
1002.992	2028.2
1006.275	1938.41
1009.559	1941.17
1012.842	2035.24
1016.125	1992.99
1019.408	1976.86
1022.69	2020.72
1025.972	2060.24
1029.254	2039.07
1032.536	2009
1035.817	2012.36
1039.098	1982.3
1042.379	2031.34
1045.659	2057.13
1048.939	2010.37
1052.219	2015.15
1055.498	2000.86
1058.778	2003.51
1062.057	1974.9
1065.335	1998.47
1068.614	2006.34
1071.892	2010.2
1075.17	2055.25
1078.447	2063.31
1081.724	2059.23
1085.001	2081.37
1088.278	2061.8
1091.554	2067.34
1094.83	2060.14
1098.106	2101.42
1101.382	2124.27
1104.657	2124.55
1107.932	2124.5
1111.206	2108.32
1114.481	2058.15
1117.755	2058.72
1121.029	2055.16
1124.302	2115.85
1127.575	2086.59
1130.848	2087.35
1134.121	2058.28
1137.393	2028.8
1140.665	2080.44
1143.937	2061.6
1147.208	2004.62
1150.48	2071.51
1153.75	2060.87
1157.021	2052.52
1160.291	2032.05
1163.561	2085.32
1166.831	2044.7
1170.101	2071.37
1173.37	2025.02
1176.639	1990.05
1179.907	2026.35
1183.176	2055.91
1186.444	2056.69
1189.711	2078.58
1192.979	2106.81
1196.246	2063.16
1199.513	2074.64
1202.78	2084.86
1206.046	2093.59
1209.312	2122.89
1212.578	2135.79
1215.843	2109.79
1219.108	2076.76
1222.373	2097.55
1225.638	2074.05
1228.902	2069.11
1232.166	2021.73
1235.43	2011.95
1238.693	2038.5
1241.956	2027.65
1245.219	2080
1248.482	2059.83
1251.744	2058.85
1255.006	2167.42
1258.268	2112.08
1261.529	2074.3
1264.79	2072.2
1268.051	2169.08
1271.312	2176.23
1274.572	2147.49
1277.832	2136.13
1281.092	2111.11
1284.351	2109.99
1287.61	2097.4
1290.869	2039.53
1294.128	2046.15
1297.386	2077.23
1300.644	2072.05
1303.902	2079.85
1307.159	1954.34
1310.416	2003.55
1313.673	2033.34
1316.93	2034.46
1320.186	2059.41
1323.442	2088.13
1326.697	2095.4
1329.953	2060.78
1333.208	2102.19
1336.463	2071.76
1339.717	2041.03
1342.972	2136.39
1346.226	2107.08
1349.479	2061.78
1352.733	2046.51
1355.986	2042.81
1359.238	2025.71
1362.491	2031.37
1365.743	2030.67
1368.995	2019.09
1372.247	2034.84
1375.498	2051.24
1378.749	2101.26
1382	2050.25
1385.251	2078.57
1388.501	2028.3
1391.751	2037.51
1395	2001.16
1398.25	2025.4
1401.499	2052.45
1404.748	2010.8
1407.996	1984.47
1411.244	1976.19
1414.492	1963.33
1417.74	1951.27
1420.987	1952.54
1424.234	2012.93
1427.481	1971.19
1430.728	2027.27
1433.974	2000.62
1437.22	1995.19
1440.465	1990.01
1443.711	1999.23
1446.956	2020.64
1450.201	1985.3
1453.445	2026.69
1456.689	2021.12
1459.933	2030.98
1463.177	2071.51
1466.42	2046.88
1469.663	2032.26
1472.906	2054.82
1476.148	2099.07
1479.391	2054.6
1482.633	2032.68
1485.874	2065.42
1489.115	2075.02
1492.356	2053.78
1495.597	2034.71
1498.838	2025.75
1502.078	2014.64
1505.318	1993.5
1508.557	2024.43
1511.797	2023.7
1515.036	2079.93
1518.274	2043.15
1521.513	1990.21
1524.751	1998.95
1527.989	2025.51
1531.227	2045.26
1534.464	2065.98
1537.701	2054.71
1540.938	2065.13
1544.174	2011.3
1547.41	1999.78
1550.646	2038.36
1553.882	2092.8
1557.117	2149.53
1560.352	2155.7
1563.587	2123.14
1566.821	2092.49
1570.055	2100.72
1573.289	2086.59
1576.523	2135.85
1579.756	2155.97
1582.989	2178.52
1586.222	2138.87
1589.454	2161.99
1592.686	2151.79
1595.918	2178.88
1599.15	2178.41
1602.381	2214.7
1605.612	2205.7
1608.843	2293.62
1612.073	2221.85
1615.303	2210.78
1618.533	2211.16
1621.762	2208.31
1624.992	2181.16
1628.221	2188.01
1631.449	2179.03
1634.678	2193.18
1637.906	2164.5
1641.134	2186.95
1644.361	2156.03
1647.588	2146.89
1650.815	2167.72
1654.042	2128.02
1657.269	2154
1660.495	2143.14
1663.72	2116.85
1666.946	2087.2
1670.171	2073.23
1673.396	2046.13
1676.621	2027.03
1679.845	2016.34
1683.069	2018.1
1686.293	2045.77
1689.517	2039.98
1692.74	2000.21
1695.963	2019.56
1699.185	2067.68
1702.408	2042.72
1705.63	2066.13
1708.852	2087.59
1712.073	2056.98
1715.294	2076.45
1718.515	2112.55
1721.736	2076.11
1724.956	2050.23
1728.176	2070.48
1731.396	2090.17
1734.616	2076.51
1737.835	2113.4
1741.054	2082.66
1744.272	2074.07
1747.491	2117.47
1750.709	2130.37
1753.927	2095.53
1757.144	2112.95
1760.361	2178.89
1763.578	2145.61
1766.795	2099.41
1770.011	2081.99
1773.227	2102.04
1776.443	2144.59
1779.658	2186.04
1782.874	2122.31
1786.089	2120.81
1789.303	2123.31
1792.518	2116.17
1795.732	2102.82
1798.945	2120.38
1802.159	2157.77
1805.372	2115.22
1808.585	2110.13
1811.797	2110.63
1815.01	2119.73
1818.222	2152.55
1821.434	2101.02
1824.645	2138.16
1827.856	2153.45
1831.067	2180.18
1834.278	2114.37
1837.488	2098.33
1840.698	2207.38
1843.908	2157.44
1847.117	2127.15
1850.326	2070.16
1853.535	2112.74
1856.744	2158.1
1859.952	2083.66
1863.16	2085.31
1866.368	2096.94
1869.575	2209.61
1872.782	2093.41
1875.989	2026.71
1879.196	2062.27
1882.402	2055.35
1885.608	2081.8
1888.814	2037.8
1892.019	1949.19
1895.224	1998.83
1898.429	1960.36
1901.634	1943.87
1904.838	1918.99
1908.042	1977.64
1911.246	1989.92
1914.449	1963.36
1917.652	1940.59
1920.855	1923.2
1924.058	1936.77
1927.26	1983.6
1930.462	2002.06
1933.664	2043.21
1936.865	1993.49
1940.066	2011.27
1943.267	1953.49
1946.467	1962.17
1949.668	1976.59
1952.868	2046.2
1956.067	2040.73
1959.267	1987.05
1962.466	2007.6
1965.665	1989.72
1968.863	1986.84
1972.061	1982.92
1975.259	1975.82
1978.457	2047.22
1981.654	2010.2
1984.852	2016
1988.048	1975.1
1991.245	1957.56
1994.441	2048.72
1997.637	1996.26
2000.833	1981.54
2004.028	2012.89
2007.223	2074.2
2010.418	2067.31
2013.613	2015.65
2016.807	2016.51
2020.001	2007.33
2023.194	2022.22
2026.388	2009.51
2029.581	1952.84
2032.774	2023.01
2035.966	2034.03
2039.158	1985.82
2042.35	2003.93
2045.542	1931.04
2048.733	2007.4
2051.924	1988.87
2055.115	2000.83
2058.306	1973.52
2061.496	2029.43
2064.686	2070
2067.875	1976.36
2071.065	1972.94
2074.254	1987.85
2077.442	1945.91
2080.631	2023.81
2083.819	1971.86
2087.007	1967.02
2090.195	1956.4
2093.382	1964.8
2096.569	1949.6
2099.756	1918.05
2102.942	1972.02
2106.128	1991.79
2109.314	1979.39
2112.5	1971.13
2115.685	1935.74
2118.87	1943.01
2122.055	2000.63
2125.239	1985.26
2128.424	1979.03
2131.608	2022.1
2134.791	2006.75
2137.974	2036.67
2141.157	2026.95
2144.34	2005.93
2147.523	1987.32
2150.705	2018.88
2153.887	1980.4
2157.068	1964.16
2160.25	1936.83
2163.431	1955.72
2166.611	1933.85
2169.792	1957.8
2172.972	1876.56
2176.152	1914.24
2179.331	1940.02
2182.511	1949.41
2185.69	1968.82
2188.868	1978.01
2192.047	2003.38
2195.225	2029.59
2198.403	1976.14
2201.58	1960.84
2204.758	1943.66
2207.935	2012.91
2211.111	1942.43
2214.288	1930.94
2217.464	1962.92
2220.64	1911.61
2223.815	1956.47
2226.991	1896.03
2230.166	1910.27
2233.34	1957.01
2236.515	1966.14
2239.689	2026.75
2242.863	1980.56
2246.036	2028.49
2249.209	2007.21
2252.382	2021.11
2255.555	2037.74
2258.727	1996.39
2261.9	2017.51
2265.071	2010.75
2268.243	2006.65
2271.414	1962.61
2274.585	1952.74
2277.756	2010.2
2280.926	1968.41
2284.096	1992.51
2287.266	1932.8
2290.436	1977.12
2293.605	1991.1
2296.774	2033.09
2299.942	2031.76
2303.111	2045.49
2306.279	2099.91
2309.447	2082.84
2312.614	2051.33
2315.781	2077.88
2318.948	2057.73
2322.115	2093.47
2325.281	1993.1
2328.447	1995.59
2331.613	1966.46
2334.779	1963.79
2337.944	1955.74
2341.109	1957.31
2344.274	1949.2
2347.438	1919.68
2350.602	1938.43
2353.766	1944.42
2356.929	1934.75
2360.092	1970.13
2363.255	1949.52
2366.418	1926.53
2369.58	1972.84
2372.742	1887.14
2375.904	1870.6
2379.066	1860.48
2382.227	1881.59
2385.388	1846.6
2388.548	1804.82
2391.709	1841.74
2394.869	1835.1
2398.029	1871.55
2401.188	1862.09
2404.347	1838.51
2407.506	1889.57
2410.665	1934.41
2413.823	1913.26
2416.981	1901.39
2420.139	1910.32
2423.296	1948.85
2426.453	1920.94
2429.61	1939.67
2432.767	1925.63
2435.923	1966.94
2439.079	1906.1
2442.235	1934.57
2445.391	1882.39
2448.546	1928.29
2451.701	1956.63
2454.855	1961.19
2458.009	1981
2461.163	1964.12
2464.317	1944.29
2467.471	1966.17
2470.624	1988.96
2473.777	1989.18
2476.929	2005.9
2480.082	2027.45
2483.234	2005.95
2486.385	1943.68
2489.537	1936.72
2492.688	1936.44
2495.839	1954.51
2498.989	1967.48
2502.14	1957.63
2505.29	1954.3
2508.439	1974.06
2511.589	1924.03
2514.738	1918.46
2517.887	1937.62
2521.035	2016.91
2524.183	1968.85
2527.331	1959.89
2530.479	1960.33
2533.627	1960.36
