Data from C_1_DIV_OH_2N_Splice17_11-50-28-519.txt Node
Date: Sat Mar 14 11:50:28 EDT 2020
User: sa697716
Spectrometer: FLMS03696
Trigger mode: 0
Integration Time (sec): 3.180400E-1
Scans to average: 20
Electric dark correction enabled: true
Nonlinearity correction enabled: true
Boxcar width: 5
XAxis mode: Wavelengths
Number of Pixels in Spectrum: 2048
>>>>>Begin Spectral Data<<<<<
187.83	-294889.98
188.298	2222.03
188.766	1186.73
189.233	1008.53
189.701	1353.08
190.169	1913.07
190.636	661.96
191.104	569.24
191.571	80.22
192.039	-54.01
192.506	-85.65
192.974	374.06
193.441	-527.64
193.908	-17.58
194.375	-21.32
194.842	-16.33
195.31	-13.14
195.777	50.24
196.244	312.13
196.711	442.43
197.177	610.83
197.644	906.73
198.111	1616.85
198.578	2306.63
199.045	1864.46
199.511	3075.69
199.978	3639.04
200.445	3107.83
200.911	3479.75
201.378	3892.18
201.844	3542.74
202.31	6039.08
202.777	6318.88
203.243	3504.95
203.709	3351.22
204.176	4014.18
204.642	3329.48
205.108	3133.93
205.574	2593.53
206.04	2375.97
206.506	2241.1
206.972	2128.66
207.438	2060.63
207.903	2338.16
208.369	2060.26
208.835	2041.95
209.301	2145.27
209.766	2203.9
210.232	2171.84
210.697	2694.59
211.163	3370.27
211.628	5124.45
212.094	4327.11
212.559	5333.84
213.024	3351.7
213.49	4120.87
213.955	4085.49
214.42	4014.3
214.885	3753.21
215.35	3638.35
215.815	3475.45
216.28	3723.63
216.745	3070.2
217.21	3384.72
217.675	3204.1
218.14	3698.89
218.604	4265.38
219.069	4992.21
219.534	5348.6
219.998	6402.15
220.463	7936.28
220.927	10070.5
221.392	9629.87
221.856	9881.41
222.32	12636.98
222.785	15733.73
223.249	19992.71
223.713	22460.68
224.177	22599.85
224.642	29220.33
225.106	36104.47
225.57	39629.24
226.034	29486.56
226.497	45015.39
226.961	40691.11
227.425	47456.61
227.889	52876.88
228.353	52990.62
228.816	109652.13
229.28	105024
229.744	88719.81
230.207	53934.3
230.671	53112.14
231.134	88080.78
231.597	101556
232.061	101752.34
232.524	99428.46
232.987	68393.32
233.45	61514.73
233.914	55224.95
234.377	56719.88
234.84	51940.76
235.303	61290.93
235.766	68407.83
236.229	70702.84
236.691	44547.64
237.154	50106.51
237.617	37661.12
238.08	38614.21
238.542	45242.33
239.005	32312.73
239.468	32017.93
239.93	30149.5
240.393	27389.82
240.855	24037.74
241.317	24636.62
241.78	30010.51
242.242	30972.57
242.704	33390.38
243.166	29049.49
243.629	26320.39
244.091	30325.65
244.553	33225.01
245.015	35685.29
245.477	46161.99
245.939	67673.09
246.4	71752.82
246.862	69748.95
247.324	65744.7
247.786	73652.99
248.247	96633.37
248.709	100036.5
249.17	74771.45
249.632	70344.21
250.093	81516.25
250.555	70329.59
251.016	42836.05
251.477	40633.31
251.939	43812.65
252.4	45996.04
252.861	54680.39
253.322	50797.45
253.783	60458.39
254.244	78413.31
254.705	61932.41
255.166	55101.36
255.627	54287.25
256.088	76585.66
256.549	81326.17
257.009	70035.95
257.47	85023.96
257.931	69281.97
258.391	51933.26
258.852	53502.02
259.312	56126.64
259.773	69307.22
260.233	58527.27
260.694	49366.41
261.154	56060.74
261.614	44918.8
262.074	40172.01
262.534	41715.71
262.994	39294.64
263.455	52406.84
263.915	44130.55
264.374	41577.24
264.834	45421.45
265.294	50401.14
265.754	52211.56
266.214	49406.97
266.673	46349.62
267.133	58536.82
267.593	58115.36
268.052	71110.33
268.512	61848.91
268.971	74503.47
269.431	81705.52
269.89	73164.89
270.349	109634.54
270.809	122186.44
271.268	109740.13
271.727	246353.1
272.186	159481.03
272.645	119506.63
273.104	86236.92
273.563	124831.73
274.022	98257.38
274.481	83511.88
274.94	64280.01
275.399	47785.67
275.857	55671.59
276.316	75335.7
276.775	66978.57
277.233	65950.15
277.692	61708.86
278.15	69747.14
278.609	71638.12
279.067	66285.59
279.525	61504.27
279.984	79425.75
280.442	95325.33
280.9	93716.8
281.358	61631.55
281.816	57339.74
282.274	56059.35
282.732	57916.5
283.19	58216.32
283.648	50220.53
284.106	53447.49
284.564	54357.55
285.021	50324.18
285.479	37493.07
285.937	34135.78
286.394	29886.48
286.852	30754.26
287.309	32288.86
287.767	31120.15
288.224	29528.3
288.682	32369.76
289.139	35476.15
289.596	32408.13
290.053	33654.46
290.511	42466.23
290.968	51447.57
291.425	69825.62
291.882	58019.65
292.339	50466.57
292.796	50078.66
293.252	47187.78
293.709	37416.75
294.166	33519.31
294.623	37017.44
295.079	35511.68
295.536	35605.79
295.992	32282.39
296.449	31891.4
296.905	33106.06
297.362	31719.82
297.818	33352.76
298.274	34588.55
298.731	35271.42
299.187	34870.69
299.643	37447.48
300.099	45262.9
300.555	49586.98
301.011	41417.4
301.467	39824.58
301.923	46658.98
302.379	45527.35
302.835	44650.9
303.291	44599.27
303.746	50702.41
304.202	64028.24
304.658	64159.39
305.113	43089.15
305.569	42206.46
306.024	44966.93
306.479	42840.63
306.935	36013.45
307.39	39324.34
307.845	36279.69
308.301	36471.16
308.756	35502.2
309.211	34165.01
309.666	34999.19
310.121	43387.91
310.576	44016.87
311.031	43655.86
311.486	49983.01
311.94	49980.47
312.395	66789.88
312.85	125441.67
313.305	617016
313.759	3186590.3
314.214	230609.4
314.668	182639.3
315.123	153473.57
315.577	54947.68
316.032	48813.41
316.486	61139.61
316.94	48156.75
317.394	33482.15
317.849	25998.69
318.303	24583.03
318.757	23180.09
319.211	25603.1
319.665	22405.1
320.119	22664.81
320.572	32501.19
321.026	30319.45
321.48	25204.97
321.934	27519.17
322.387	27555.72
322.841	29758.36
323.295	26685.07
323.748	30799.67
324.202	31232.38
324.655	37465.29
325.108	52278.87
325.562	36929.36
326.015	43927.23
326.468	33195.38
326.921	37072.9
327.374	34565.2
327.827	35912.95
328.28	40660.64
328.733	27188.71
329.186	23937.49
329.639	22805.4
330.092	19242.18
330.545	18311.27
330.997	18460.25
331.45	20156.95
331.903	23584.14
332.355	40591.08
332.808	39502.48
333.26	32611.14
333.713	35396.1
334.165	35601.39
334.617	47535.59
335.069	38402
335.522	69523.98
335.974	76890.29
336.426	70232.66
336.878	48773.17
337.33	24720.87
337.782	24145.36
338.234	30198.7
338.686	36155.8
339.137	42847.05
339.589	40280.74
340.041	31564.69
340.493	27097.01
340.944	27746.9
341.396	29883.94
341.847	25077.39
342.299	29535.97
342.75	35976.24
343.201	31471.56
343.653	36179.8
344.104	44526.41
344.555	35124.36
345.006	54692.45
345.457	41772.32
345.908	33277.13
346.359	31277.86
346.81	25493.29
347.261	26881.14
347.712	26487.92
348.163	28393.31
348.613	28660.89
349.064	26732.57
349.515	23369.48
349.965	23935.82
350.416	28881.39
350.866	31642.47
351.317	35842.72
351.767	59278.2
352.217	74887.87
352.668	62193.77
353.118	56960.07
353.568	55055.95
354.018	43493.8
354.468	45918.77
354.918	32951.29
355.368	28794.5
355.818	40694
356.268	116966.53
356.718	488915.23
357.168	121844.52
357.617	61128.81
358.067	68028.46
358.517	63804.87
358.966	74771.14
359.416	83633.79
359.865	90389.82
360.315	107783.73
360.764	50291.66
361.213	28163
361.663	26735.98
362.112	32975.82
362.561	53236.89
363.01	40107.26
363.459	33708.81
363.908	36461.18
364.357	30986.81
364.806	52376.17
365.255	35983.58
365.703	32852.04
366.152	32898.52
366.601	26656.79
367.05	21582.36
367.498	19613.37
367.947	20513.32
368.395	21335.58
368.844	18874.48
369.292	22745.51
369.74	15686.19
370.189	24004.24
370.637	28180.98
371.085	24321.01
371.533	29638.97
371.981	28619.14
372.429	27231.52
372.877	28351.74
373.325	23726.82
373.773	24187.61
374.221	21518.68
374.669	26693.56
375.116	23072.42
375.564	23266.41
376.012	25974.87
376.459	21392.88
376.907	25526.17
377.354	30890.88
377.801	28778.52
378.249	33050.06
378.696	42272.94
379.143	51201.83
379.591	54630.03
380.038	92307.28
380.485	66571.68
380.932	71853.81
381.379	65565.57
381.826	48287.74
382.273	34274.89
382.72	29969.21
383.166	29173.77
383.613	18895.95
384.06	17028.31
384.506	19667.7
384.953	14458.9
385.4	14566.2
385.846	12764.49
386.292	12463.97
386.739	12192.32
387.185	12063.65
387.631	12059.77
388.078	11668.51
388.524	12477.43
388.97	11513.77
389.416	9590.45
389.862	10175.54
390.308	9639.64
390.754	9773.37
391.2	10591.6
391.645	10834.74
392.091	10328.4
392.537	9961.43
392.983	9988.75
393.428	9787.1
393.874	10477.73
394.319	10483.27
394.765	9912.79
395.21	10151.58
395.655	9495.36
396.101	8871.28
396.546	7989.08
396.991	8053.47
397.436	7463.81
397.881	7199.28
398.326	6824.35
398.771	6440.62
399.216	5638.61
399.661	5078.05
400.106	5059.18
400.551	5170.03
400.995	4632.38
401.44	4571.22
401.885	4289.83
402.329	4326.53
402.774	4137.43
403.218	3987.97
403.663	3835.06
404.107	3928.51
404.551	3947.39
404.995	3611.97
405.44	3475.42
405.884	3516.82
406.328	3397.81
406.772	3378.3
407.216	3074.64
407.66	2969.02
408.104	2822.51
408.547	2644.34
408.991	2555.05
409.435	2454.9
409.879	2415.31
410.322	2375.7
410.766	2293.7
411.209	2179.21
411.653	2089.28
412.096	2040.54
412.54	2040.67
412.983	2020.31
413.426	2016.83
413.869	2013.92
414.312	1972.53
414.756	1898.44
415.199	1813.33
415.642	1756.08
416.085	1753.39
416.527	1741.4
416.97	1768.12
417.413	1676.89
417.856	1661.93
418.298	1645.48
418.741	1632.18
419.184	1631.64
419.626	1699.98
420.069	1699.26
420.511	1705.18
420.953	1667.84
421.396	1651.24
421.838	1607.88
422.28	1640.83
422.722	1645.94
423.164	1667.66
423.606	1640.67
424.048	1633.95
424.49	1553.83
424.932	1546.19
425.374	1529.51
425.816	1556.24
426.258	1586.68
426.699	1605.12
427.141	1581.73
427.582	1606.51
428.024	1599.62
428.465	1590.63
428.907	1551.13
429.348	1531.69
429.789	1529.92
430.231	1496.78
430.672	1518.02
431.113	1480.8
431.554	1460.03
431.995	1423.24
432.436	1372.48
432.877	1342.88
433.318	1318.91
433.759	1315.44
434.2	1317.39
434.64	1305.21
435.081	1308.49
435.522	1241.77
435.962	1201.06
436.403	1177.68
436.843	1196.71
437.284	1173.92
437.724	1144.39
438.164	1149.48
438.604	1126.21
439.045	1084.16
439.485	1037.39
439.925	1018.17
440.365	993.51
440.805	978.36
441.245	965.81
441.685	932.33
442.125	925.46
442.564	932.62
443.004	912.09
443.444	910.31
443.883	911.17
444.323	909.08
444.762	910.73
445.202	925.87
445.641	945.32
446.081	942.51
446.52	950.54
446.959	943.33
447.398	919.55
447.837	911.34
448.276	898.26
448.716	911.46
449.154	921.17
449.593	902.14
450.032	898.98
450.471	884.76
450.91	883.93
451.349	883.51
451.787	879.71
452.226	894.9
452.664	896.56
453.103	897.54
453.541	895.41
453.98	893.22
454.418	900.66
454.856	887.16
455.295	886.82
455.733	896.85
456.171	901.95
456.609	905
457.047	906.09
457.485	918.73
457.923	921.84
458.361	910.83
458.798	916.17
459.236	914.92
459.674	923.26
460.111	927.35
460.549	918.13
460.987	915.82
461.424	913.09
461.862	908.78
462.299	894.99
462.736	892.86
463.173	896.52
463.611	883.53
464.048	880.82
464.485	887.54
464.922	879.55
465.359	875.19
465.796	858.8
466.233	852.96
466.67	844.35
467.106	842.29
467.543	835.11
467.98	824.16
468.416	806.79
468.853	801.45
469.29	777.31
469.726	768.82
470.162	748.71
470.599	743.72
471.035	737.35
471.471	720.44
471.907	717.11
472.344	712.42
472.78	714.05
473.216	721.63
473.652	712.06
474.088	710.36
474.523	707.6
474.959	713.94
475.395	706.65
475.831	701.94
476.266	705.6
476.702	701.82
477.138	694.36
477.573	691.97
478.008	688.9
478.444	691.49
478.879	696.5
479.314	699.26
479.75	698.51
480.185	702.9
480.62	708.57
481.055	712.15
481.49	718.71
481.925	729.36
482.36	741.85
482.795	763.08
483.229	784.22
483.664	801.46
484.099	806.16
484.534	819.23
484.968	827.91
485.403	831.31
485.837	831.55
486.271	830.8
486.706	832.72
487.14	824.57
487.574	812.57
488.009	806.17
488.443	800.68
488.877	808.75
489.311	812.86
489.745	822.21
490.179	830.55
490.613	846.22
491.046	853.55
491.48	860.71
491.914	862.29
492.348	869.39
492.781	875.97
493.215	879.58
493.648	883.23
494.082	891.37
494.515	893.37
494.948	905.09
495.382	913.02
495.815	921.44
496.248	930.91
496.681	950
497.114	967.48
497.547	983.49
497.98	1002.09
498.413	1012.11
498.846	1027.01
499.279	1042.12
499.711	1051.14
500.144	1057.36
500.577	1073.99
501.009	1090.62
501.442	1105.63
501.874	1110.59
502.306	1115.96
502.739	1127.79
503.171	1151.61
503.603	1159.01
504.036	1174.19
504.468	1184.53
504.9	1202.95
505.332	1215.88
505.764	1225.37
506.196	1238.55
506.627	1261.09
507.059	1282.61
507.491	1299.52
507.923	1297.7
508.354	1320.86
508.786	1338.46
509.217	1365.79
509.649	1388.59
510.08	1416.94
510.512	1441.5
510.943	1464.98
511.374	1482.64
511.805	1511.91
512.237	1540.05
512.668	1588.74
513.099	1629.37
513.53	1669.13
513.961	1699.35
514.391	1744.1
514.822	1789.91
515.253	1841.03
515.684	1876.04
516.114	1918.22
516.545	1948.24
516.975	1985.35
517.406	2009.33
517.836	2011.7
518.267	2019.4
518.697	2043
519.127	2048.32
519.558	2058.46
519.988	2062.3
520.418	2075.81
520.848	2100.03
521.278	2111.83
521.708	2113.82
522.138	2131.75
522.567	2173.79
522.997	2208.47
523.427	2230.58
523.857	2253.95
524.286	2267.17
524.716	2286.38
525.145	2311.98
525.575	2324.97
526.004	2342.75
526.433	2351.93
526.863	2349.78
527.292	2334.68
527.721	2340.42
528.15	2346.33
528.579	2345.58
529.008	2358.6
529.437	2390.46
529.866	2408.35
530.295	2431
530.724	2447.34
531.152	2484.43
531.581	2502.42
532.01	2525.23
532.438	2535.78
532.867	2555.15
533.295	2580.37
533.723	2588.51
534.152	2584.5
534.58	2583.22
535.008	2561.54
535.436	2563.55
535.865	2573.45
536.293	2593.82
536.721	2616.68
537.149	2652.72
537.576	2656.44
538.004	2673.42
538.432	2685.75
538.86	2682.73
539.287	2694.12
539.715	2712.9
540.143	2717.6
540.57	2713.75
540.998	2708.84
541.425	2676.35
541.852	2647.15
542.28	2644.98
542.707	2620.67
543.134	2600.3
543.561	2594.38
543.988	2581.51
544.415	2579.23
544.842	2571.1
545.269	2559.97
545.696	2560.98
546.123	2577.22
546.549	2561.02
546.976	2541.15
547.403	2540.69
547.829	2542.18
548.256	2544.59
548.682	2538.92
549.108	2526.38
549.535	2523.71
549.961	2524.73
550.387	2505.01
550.813	2495.62
551.24	2502.9
551.666	2503.88
552.092	2490.76
552.518	2480.31
552.943	2470.79
553.369	2480.58
553.795	2488.39
554.221	2489.29
554.646	2484.08
555.072	2498.12
555.498	2505.52
555.923	2518.59
556.349	2538.84
556.774	2550.06
557.199	2551.28
557.625	2558.98
558.05	2549.59
558.475	2563.87
558.9	2561.48
559.325	2550.11
559.75	2541.15
560.175	2530.82
560.6	2521.06
561.025	2516.65
561.449	2517.82
561.874	2526.28
562.299	2532.44
562.723	2542.44
563.148	2530.06
563.572	2536.47
563.997	2550.35
564.421	2559.07
564.846	2561.52
565.27	2567.78
565.694	2565.56
566.118	2581.74
566.542	2591.84
566.966	2582.04
567.39	2577.25
567.814	2561.74
568.238	2561.94
568.662	2571.14
569.086	2575.28
569.509	2587.64
569.933	2566.42
570.357	2557.55
570.78	2529.58
571.204	2510.94
571.627	2498.19
572.05	2495.32
572.474	2495.51
572.897	2478.29
573.32	2466.61
573.743	2453.59
574.166	2427.51
574.589	2428.09
575.012	2417.99
575.435	2416.11
575.858	2403.79
576.281	2387.77
576.704	2364.92
577.126	2347.49
577.549	2332.27
577.972	2317.59
578.394	2302.18
578.817	2289.51
579.239	2263.08
579.661	2242.64
580.084	2218.39
580.506	2200.56
580.928	2194.48
581.35	2179.81
581.772	2173.38
582.194	2154.14
582.616	2137.04
583.038	2118.2
583.46	2104.69
583.882	2099.77
584.303	2105.15
584.725	2099.66
585.147	2098.12
585.568	2111.68
585.99	2127.52
586.411	2134.84
586.833	2155.22
587.254	2157.89
587.675	2176.48
588.096	2192.46
588.518	2184.13
588.939	2161.8
589.36	2158.85
589.781	2148.37
590.202	2107.54
590.623	2096.22
591.043	2094.39
591.464	2075.47
591.885	2069.5
592.305	2061.4
592.726	2043.18
593.147	2045.06
593.567	2037.61
593.987	2027.85
594.408	2019.4
594.828	2018.91
595.248	2009.36
595.669	1983.28
596.089	1974.01
596.509	1964.91
596.929	1945.33
597.349	1945.29
597.769	1931.25
598.189	1921.8
598.608	1922.91
599.028	1925.53
599.448	1925.34
599.867	1907.41
600.287	1902.38
600.706	1896.62
601.126	1882.59
601.545	1880.72
601.965	1880.08
602.384	1872.57
602.803	1876.53
603.222	1870.7
603.641	1862.57
604.061	1856.54
604.48	1852.26
604.898	1862.56
605.317	1867.63
605.736	1871.68
606.155	1868.02
606.574	1855.06
606.992	1862.61
607.411	1856.21
607.829	1844.33
608.248	1838.94
608.666	1837.17
609.085	1836.34
609.503	1824.33
609.921	1816.43
610.339	1818.6
610.758	1818.99
611.176	1811.74
611.594	1799.81
612.012	1795.88
612.43	1800.42
612.847	1810
613.265	1810.81
613.683	1817.28
614.101	1819
614.518	1814.3
614.936	1801.45
615.353	1779.12
615.771	1776.05
616.188	1775.48
616.606	1769.89
617.023	1760.32
617.44	1740.63
617.857	1731.54
618.274	1718.76
618.691	1709.58
619.108	1696.12
619.525	1686.49
619.942	1696.65
620.359	1699.04
620.776	1691.85
621.192	1685.69
621.609	1682.02
622.026	1689.83
622.442	1696.94
622.859	1701.79
623.275	1693.01
623.691	1701.92
624.108	1716.74
624.524	1735.22
624.94	1735.71
625.356	1749.75
625.772	1768.47
626.188	1784.5
626.604	1787.55
627.02	1782.06
627.436	1778.04
627.852	1785.68
628.268	1801.38
628.683	1789.93
629.099	1777.66
629.514	1771.75
629.93	1776.22
630.345	1780.26
630.761	1774.75
631.176	1778.67
631.591	1769.48
632.007	1760.8
632.422	1759.46
632.837	1742.9
633.252	1738.83
633.667	1724.68
634.082	1710.24
634.497	1690.56
634.911	1662.08
635.326	1655.76
635.741	1631.14
636.155	1617.73
636.57	1618.42
636.984	1615.55
637.399	1615.99
637.813	1613.52
638.228	1611.11
638.642	1615.56
639.056	1601.9
639.47	1602.72
639.884	1590.29
640.298	1580.71
640.712	1574.74
641.126	1557.14
641.54	1543.56
641.954	1535.41
642.368	1517.46
642.781	1502.69
643.195	1477.48
643.609	1475.96
644.022	1465.4
644.436	1458.02
644.849	1439.63
645.262	1424.03
645.676	1424.44
646.089	1417.39
646.502	1396.58
646.915	1387.67
647.328	1365.69
647.741	1361.28
648.154	1342.79
648.567	1337.03
648.98	1318.92
649.393	1319.39
649.805	1314.42
650.218	1302.89
650.631	1281.57
651.043	1272.45
651.456	1264.15
651.868	1265.44
652.28	1287.78
652.693	1304.63
653.105	1313.01
653.517	1324
653.929	1322.99
654.341	1328.2
654.753	1312.04
655.165	1319.56
655.577	1315.32
655.989	1309
656.401	1297.66
656.813	1250.31
657.224	1224.89
657.636	1188.01
658.047	1164.08
658.459	1138.69
658.87	1127.08
659.282	1111.11
659.693	1083.27
660.104	1064.14
660.515	1045.69
660.926	1040.36
661.338	1034.75
661.749	1023.75
662.159	1009.96
662.57	1003.48
662.981	996.42
663.392	985.08
663.803	988.4
664.213	984.27
664.624	977.65
665.035	979.61
665.445	962.54
665.855	953
666.266	941.74
666.676	938.57
667.086	926.34
667.497	924
667.907	916.67
668.317	904.04
668.727	898.7
669.137	898.34
669.547	894.73
669.956	897.45
670.366	898.27
670.776	900.97
671.186	904.78
671.595	909.05
672.005	913.88
672.414	911.48
672.824	909.52
673.233	915.32
673.642	917.46
674.052	921.02
674.461	923.86
674.87	930.33
675.279	926.44
675.688	929.36
676.097	930.59
676.506	926.55
676.915	945.34
677.323	950.22
677.732	948.72
678.141	949.29
678.549	937.99
678.958	938.22
679.366	938.73
679.775	947.39
680.183	960.06
680.592	969
681	977.94
681.408	970.71
681.816	981.96
682.224	994.45
682.632	1008.6
683.04	1046.51
683.448	1077.84
683.856	1117.68
684.264	1162.14
684.671	1205.18
685.079	1257.37
685.487	1314.53
685.894	1394.39
686.302	1462
686.709	1518.55
687.116	1582.55
687.524	1636.29
687.931	1683.13
688.338	1723.21
688.745	1758.77
689.152	1798.98
689.559	1852.22
689.966	1905.33
690.373	1930.31
690.78	1979.34
691.187	2056.94
691.593	2115.6
692	2166.13
692.407	2244.34
692.813	2339.05
693.22	2413.66
693.626	2492.76
694.032	2553.92
694.439	2646.88
694.845	2721.43
695.251	2814.38
695.657	2896.42
696.063	3022.39
696.469	3116.6
696.875	3201.11
697.281	3244.54
697.687	3302.47
698.093	3348.21
698.498	3441.39
698.904	3514.4
699.31	3623.59
699.715	3697.52
700.12	3811.17
700.526	3831.31
700.931	3916.82
701.337	3980.47
701.742	4024.66
702.147	4129.84
702.552	4165.52
702.957	4242.78
703.362	4267.38
703.767	4302.22
704.172	4355.77
704.577	4292.36
704.981	4349.38
705.386	4367.83
705.791	4355.54
706.195	4450.38
706.6	4459.37
707.004	4561.01
707.408	4520.68
707.813	4552.06
708.217	4534.86
708.621	4533.81
709.025	4659.1
709.43	4658.23
709.834	4734.27
710.237	4819.61
710.641	4795.36
711.045	4821.38
711.449	4810.65
711.853	4839.09
712.256	4890.53
712.66	4936.9
713.064	5031.89
713.467	5081.23
713.87	5223.76
714.274	5280.92
714.677	5421.47
715.08	5626.35
715.484	5838.96
715.887	6095.16
716.29	6351.67
716.693	6615.74
717.096	6917.54
717.499	7081.76
717.901	7112.29
718.304	7142.23
718.707	7169.71
719.109	7036.43
719.512	6991.91
719.915	6818.49
720.317	6746.06
720.719	6800.29
721.122	6760.44
721.524	6694.88
721.926	6634.38
722.328	6759.04
722.731	6746.9
723.133	6779.47
723.535	7022.05
723.937	7046.87
724.338	7110.52
724.74	7159.69
725.142	7043.62
725.544	7037.18
725.945	7060.52
726.347	7059.27
726.748	7048.74
727.15	7063.31
727.551	7012.54
727.952	6973.25
728.354	6932.54
728.755	6930.61
729.156	6873.17
729.557	6887.76
729.958	6733.17
730.359	6668.06
730.76	6644.16
731.161	6566.85
731.562	6536.58
731.962	6542.79
732.363	6463.69
732.763	6386.5
733.164	6430.64
733.564	6346
733.965	6226
734.365	6184.42
734.766	6221.21
735.166	6172.7
735.566	6102.77
735.966	6067.45
736.366	6058.2
736.766	5978.05
737.166	6017.04
737.566	5965.22
737.966	5932.8
738.365	5979.04
738.765	5969.55
739.165	5875.73
739.564	5840.8
739.964	5896.58
740.363	5840.06
740.763	5835.3
741.162	5820.54
741.561	5778.38
741.96	5719.58
742.36	5743.1
742.759	5746.77
743.158	5795.27
743.557	5814.53
743.955	5865
744.354	5808.06
744.753	5878.55
745.152	5824.6
745.55	5893.1
745.949	5885.79
746.348	5886.37
746.746	5908.98
747.144	5859.02
747.543	5830.17
747.941	5887.72
748.339	5800.68
748.737	5790.67
749.136	5778.45
749.534	5861.43
749.932	5825.47
750.33	5852.53
750.727	5924.65
751.125	5892.54
751.523	5874.3
751.921	5924.09
752.318	5880.34
752.716	5950.15
753.113	5965.12
753.511	5996.71
753.908	5996.37
754.305	5973.52
754.703	6049.83
755.1	6121.3
755.497	6195.26
755.894	6429
756.291	6653.93
756.688	7062.57
757.085	7605.19
757.482	8371.54
757.878	9204.14
758.275	9958.25
758.672	10998.04
759.068	11842.39
759.465	13053.37
759.861	14614
760.258	16426.12
760.654	17361.08
761.05	17221.14
761.447	16433.88
761.843	15298.68
762.239	14123.11
762.635	13595.28
763.031	13087.88
763.427	12355.94
763.822	11581.55
764.218	10823.52
764.614	9834.91
765.01	9169.57
765.405	8741.31
765.801	8417.9
766.196	8005.53
766.592	7773.48
766.987	7382.86
767.382	7117.89
767.778	7006.75
768.173	6844.92
768.568	6753.81
768.963	6598.22
769.358	6619.04
769.753	6560.4
770.148	6457.55
770.542	6454.34
770.937	6417.8
771.332	6527.62
771.726	6554.62
772.121	6477.14
772.515	6545.16
772.91	6528.3
773.304	6617.81
773.699	6538.89
774.093	6607.4
774.487	6676.14
774.881	6728.91
775.275	6722.54
775.669	6671.45
776.063	6725.38
776.457	6769.81
776.851	6677.48
777.245	6664.75
777.638	6703.34
778.032	6848.72
778.425	6805.71
778.819	6851.46
779.212	6800.26
779.606	6751.61
779.999	6777.33
780.392	6754.39
780.786	6854.44
781.179	6881.12
781.572	6931.43
781.965	6949.27
782.358	6875.53
782.751	6941.72
783.143	6888.74
783.536	6980.51
783.929	7037.38
784.322	7176.68
784.714	7215.31
785.107	7210.18
785.499	7294.76
785.891	7270.25
786.284	7245.94
786.676	7421.71
787.068	7398.56
787.46	7460.17
787.852	7478.75
788.245	7577.29
788.636	7616.29
789.028	7697.5
789.42	7744.7
789.812	7755.9
790.204	7874.23
790.595	7993.96
790.987	7749.24
791.378	7776.38
791.77	7933.57
792.161	8102
792.553	8174.04
792.944	8037.04
793.335	7953.46
793.726	8044.4
794.117	8157.59
794.508	8329.42
794.899	8292.16
795.29	8464.8
795.681	8533.83
796.072	8356.63
796.463	8122.14
796.853	8129.87
797.244	8320.4
797.634	8360.09
798.025	8358.33
798.415	8372.91
798.806	8475.9
799.196	8577.83
799.586	8637.35
799.976	8589.36
800.366	8873.38
800.756	9174.18
801.146	9124.71
801.536	9160.72
801.926	9250
802.316	9275.22
802.706	9358.48
803.095	9204.6
803.485	9327.75
803.874	9380.35
804.264	9699.7
804.653	9666.45
805.043	9837.17
805.432	9968.75
805.821	9964.92
806.21	9989.02
806.599	10136.44
806.988	10187.3
807.377	10317.54
807.766	10475.91
808.155	10818.31
808.544	10490.45
808.933	10509.1
809.321	10484.85
809.71	10845.53
810.098	11040.29
810.487	11608.95
810.875	12193.38
811.264	12223.22
811.652	12573.35
812.04	12747.02
812.428	12940.78
812.816	13879.56
813.204	14391.55
813.592	15069.76
813.98	15474.86
814.368	15350.14
814.756	15925.88
815.144	15826.55
815.531	16387.77
815.919	16296.87
816.306	16668.03
816.694	16292.59
817.081	16349.55
817.469	16757.46
817.856	16748.16
818.243	17075.15
818.63	17559.1
819.017	17040.68
819.404	17109.29
819.791	17575.14
820.178	18324.77
820.565	18622.35
820.952	19743.79
821.339	19136.64
821.725	19369.58
822.112	18469.49
822.498	18418.92
822.885	18577.55
823.271	18459.38
823.657	18977.28
824.044	18980.41
824.43	19059.66
824.816	19020.88
825.202	18500.37
825.588	19731.09
825.974	19742.32
826.36	20361.9
826.746	20411.36
827.132	20848.67
827.517	20823.82
827.903	19866.16
828.289	19914.85
828.674	18976.83
829.06	18857.57
829.445	19347.36
829.83	19797.44
830.216	20380.35
830.601	20826.95
830.986	20326.55
831.371	20161.64
831.756	20848.67
832.141	20328.84
832.526	20325.48
832.911	20681.6
833.295	20539.44
833.68	21100.48
834.065	20345.89
834.449	19237.21
834.834	19145.77
835.218	19144.39
835.603	19555.32
835.987	19295.05
836.371	20312.89
836.755	20192.03
837.139	20671.14
837.524	20972.28
837.908	20765.82
838.291	20835.26
838.675	20915.55
839.059	21179.25
839.443	21167.85
839.827	20898.32
840.21	21485.86
840.594	21306.84
840.977	21565.4
841.361	21541.07
841.744	22002.6
842.127	21812.77
842.511	22124.66
842.894	22863.18
843.277	23325.62
843.66	23987.83
844.043	24084.19
844.426	23114
844.809	22734.37
845.191	22769.35
845.574	22218.91
845.957	21765.94
846.339	21629.84
846.722	20981.25
847.104	21066.33
847.487	20861.14
847.869	20876.35
848.252	21221.74
848.634	21612.07
849.016	21934.33
849.398	22081.93
849.78	23107.93
850.162	23127.99
850.544	23633.27
850.926	24401.93
851.307	24292.15
851.689	24631.75
852.071	25177.79
852.452	25558.95
852.834	25536
853.215	26017.82
853.597	26204.56
853.978	26562.4
854.359	27108.53
854.741	25900.11
855.122	25774.29
855.503	25426.48
855.884	25593.59
856.265	25517.07
856.646	25657.02
857.026	25177.66
857.407	25092.81
857.788	25277.45
858.169	25633.28
858.549	24595.38
858.93	25351.73
859.31	25403.41
859.69	25643
860.071	25144.05
860.451	24890.26
860.831	23984.02
861.211	25387.12
861.591	26060.17
861.971	26038.42
862.351	26259.22
862.731	26726.18
863.111	27048.25
863.491	27449.42
863.87	28510.98
864.25	28919.95
864.629	28427.2
865.009	29058.8
865.388	30095.48
865.768	32248.84
866.147	32112.36
866.526	30344.35
866.905	30707.89
867.284	32435.67
867.663	30796.68
868.042	29507.59
868.421	29416.84
868.8	29903.08
869.179	30190.15
869.558	28428.53
869.936	26196.33
870.315	26665.23
870.693	27312.79
871.072	29448.36
871.45	28061.13
871.828	28422.45
872.207	29886.32
872.585	29453.88
872.963	30259.86
873.341	29224.43
873.719	28876.27
874.097	28529.66
874.475	29079.97
874.853	29749.88
875.23	28521.76
875.608	29705.24
875.986	32138.75
876.363	30730.6
876.741	31653.89
877.118	30851.75
877.495	32369.16
877.873	32912
878.25	34644.44
878.627	33224.17
879.004	33665.81
879.381	33500.32
879.758	32615.32
880.135	30353.77
880.512	32109.76
880.889	31262.01
881.265	30927.27
881.642	30666.45
882.019	31188.98
882.395	30543.73
882.772	31751.05
883.148	30385.63
883.524	30268.3
883.901	30098.73
884.277	30553.19
884.653	30359.95
885.029	31224.74
885.405	34580.6
885.781	34307.28
886.157	32898.79
886.532	33295.93
886.908	33281.18
887.284	37008.38
887.659	38197.49
888.035	39370.27
888.411	40382.35
888.786	40908.79
889.161	42326.1
889.537	41563.04
889.912	42903.93
890.287	42847.02
890.662	43967.42
891.037	43184.89
891.412	40265.74
891.787	39879.86
892.162	38492.04
892.536	39394.78
892.911	37917.13
893.286	37112.65
893.66	35606.94
894.035	36504.65
894.409	39760
894.784	38157.84
895.158	38765.87
895.532	41061.59
895.906	42160.27
896.281	43156.65
896.655	42479.83
897.029	48540.29
897.402	50567.75
897.776	56288.03
898.15	56088.89
898.524	55479.77
898.898	56195.35
899.271	62927.42
899.645	54494.64
900.018	52352.31
900.392	54306.05
900.765	54734.47
901.138	50655.99
901.511	49878.56
901.884	45789.45
902.258	42239.5
902.631	43638.72
903.003	50232.24
903.376	45333.28
903.749	50838.69
904.122	54428.1
904.495	59917.15
904.867	60667.07
905.24	52674.36
905.612	49040.27
905.985	50166.39
906.357	52463.22
906.729	50065.36
907.102	42765.36
907.474	41127.85
907.846	41403.82
908.218	40836.31
908.59	36066.59
908.962	34884.19
909.334	37561.22
909.705	39451.2
910.077	38306.82
910.449	39870.52
910.82	40982.64
911.192	45077.82
911.563	46832.31
911.935	50098.64
912.306	50193.97
912.677	51829.86
913.048	51314.01
913.419	55669.84
913.79	56003
914.161	60052.81
914.532	57397.92
914.903	52755.24
915.274	50104.06
915.645	49364.79
916.015	43448.06
916.386	41405.32
916.756	44064.85
917.127	45461.89
917.497	40601.02
917.868	44150.07
918.238	41927.59
918.608	43124.33
918.978	44019.4
919.348	46628.87
919.718	48171.92
920.088	46390.29
920.458	48186.88
920.828	50699.56
921.198	48029.09
921.567	51301.46
921.937	39750.52
922.306	40158.43
922.676	43281.06
923.045	36092.36
923.415	34279.22
923.784	31207.56
924.153	32082.76
924.522	32061.74
924.891	30145.23
925.26	32281.48
925.629	31527.75
925.998	36234.25
926.367	35337.26
926.736	33647.64
927.104	40069.02
927.473	43085.06
927.842	52050.9
928.21	51551.19
928.578	54180.42
928.947	51226.47
929.315	51553.24
929.683	60421.69
930.051	60880.23
930.42	70711.13
930.788	60490.98
931.156	60042.13
931.523	56238.98
931.891	51927.33
932.259	49871.3
932.627	57789.09
932.994	81786.43
933.362	67565.19
933.729	58701.11
934.097	56217.31
934.464	47568.46
934.831	54852.9
935.199	54078.35
935.566	52466.76
935.933	53257.98
936.3	64505.44
936.667	50227.12
937.034	45211.66
937.401	44707.47
937.767	38583.85
938.134	34332.92
938.501	48435.04
938.867	51632.55
939.234	87286.31
939.6	74529.28
939.967	82016.28
940.333	54925.72
940.699	46741.37
941.065	37592.88
941.431	49264.12
941.798	47449.31
942.163	62313.23
942.529	38915.61
942.895	35817.04
943.261	23160.74
943.627	30365.41
943.992	26565.95
944.358	26619.07
944.723	26707.19
945.089	26042.8
945.454	24082.63
945.82	25739.92
946.185	24732.96
946.55	28653.51
946.915	25728.14
947.28	30215.66
947.645	26602.16
948.01	24563.83
948.375	25578.94
948.74	30684.43
949.104	35781.85
949.469	51715.28
949.834	91333.17
950.198	86541.57
950.562	51857.09
950.927	43128.02
951.291	51869.64
951.655	44191.11
952.02	41517.53
952.384	31400.3
952.748	27326.62
953.112	26598.75
953.476	23122.7
953.839	21384.43
954.203	21163.68
954.567	26489.23
954.931	41766.29
955.294	35724.34
955.658	35903.38
956.021	61084
956.385	103526.05
956.748	152836.88
957.111	237694.04
957.474	267135.53
957.837	301310.74
958.2	228138.01
958.563	82078.49
958.926	55464.16
959.289	84166.37
959.652	94058.26
960.015	70560.98
960.377	101367.23
960.74	115682.03
961.102	199603.53
961.465	214091.92
961.827	114286.93
962.189	219409.55
962.552	152044.63
962.914	121938.64
963.276	79148.22
963.638	65474.12
964	64829.75
964.362	43811.59
964.724	42380.85
965.085	30232.7
965.447	24807.43
965.809	28354.08
966.17	28372.49
966.532	30702.34
966.893	28177.28
967.255	25634.03
967.616	30246.53
967.977	24189.99
968.338	26416.26
968.699	21675.28
969.061	21673.62
969.421	21816.29
969.782	24455.01
970.143	20644.48
970.504	21351.61
970.865	24256.97
971.225	24777.95
971.586	24225.45
971.946	34563.72
972.307	30011.24
972.667	39287.97
973.027	40467.18
973.388	49098.89
973.748	33391.96
974.108	36400.01
974.468	49305.33
974.828	37994.84
975.188	29285.12
975.548	26934.44
975.907	22617.35
976.267	25375.9
976.627	21300.83
976.986	22085.36
977.346	21028.95
977.705	20240.36
978.064	18406.12
978.424	15308.94
978.783	15846.2
979.142	18077.31
979.501	17281
979.86	18267.81
980.219	17600.34
980.578	22723.88
980.937	25442.87
981.296	22674.72
981.654	23317.23
982.013	36357.51
982.371	47224.51
982.73	44088.33
983.088	49906.09
983.447	53242.77
983.805	76043.79
984.163	158958.04
984.521	176457.79
984.879	258359.2
985.237	-420853.93
985.595	405542.72
985.953	100835.73
986.311	58147.93
986.669	33743.46
987.026	29137.78
987.384	39207.78
987.741	40487.96
988.099	28882.84
988.456	22981.21
988.814	21513.08
989.171	18648.14
989.528	18403.11
989.885	19398.69
990.242	15375.49
990.599	19187.21
990.956	15674.46
991.313	10960.38
991.67	9003.54
992.027	9531.27
992.383	8481.52
992.74	7438.55
993.096	7802.85
993.453	8091.07
993.809	8396.68
994.165	11168.97
994.522	10187.21
994.878	11232.56
995.234	14075.33
995.59	13900.73
995.946	13182.17
996.302	14997.71
996.658	17345.89
997.013	19119.58
997.369	22650.65
997.725	28949.07
998.08	18756.03
998.436	29060.09
998.791	40072.09
999.147	40049.73
999.502	43629.05
999.857	31717.32
1000.212	51779.41
1000.567	73611.16
1000.922	42520.38
1001.277	27001.93
1001.632	20053.03
1001.987	25855.26
1002.342	18531.11
1002.696	14840.8
1003.051	11834.53
1003.406	14326.91
1003.76	14252.38
1004.114	14036.91
1004.469	11796.06
1004.823	9753.86
1005.177	10556.53
1005.531	8371.06
1005.885	7432.18
1006.239	8380.35
1006.593	10496.37
1006.947	14053.62
1007.301	10544.39
1007.655	11505.52
1008.008	8455.99
1008.362	9515.3
1008.715	13597.55
1009.069	12360.51
1009.422	18540.44
1009.776	37148.91
1010.129	24688.02
1010.482	20634.9
1010.835	17468.1
1011.188	36421.96
1011.541	34307.9
1011.894	-209057.98
1012.247	613897.53
1012.6	41683.64
1012.952	26242.37
1013.305	13569.28
1013.657	9800.35
1014.01	9253.97
1014.362	7625.34
1014.715	6763.09
1015.067	5871.81
1015.419	5736.43
1015.771	5088.37
1016.123	4529.03
1016.475	4641.63
1016.827	4940.42
1017.179	5294.38
1017.531	5340.28
1017.883	5449.61
1018.234	5236.7
1018.586	6583.86
1018.938	6939.95
1019.289	9580.36
1019.64	10990.58
1019.992	10266.68
1020.343	9424.38
1020.694	7441.18
1021.045	6590.03
1021.396	7486.42
1021.747	8032.06
1022.098	9688.85
1022.449	7054.15
1022.8	6577.95
1023.151	4577.79
1023.501	4066.86
1023.852	4405.88
1024.202	4552.54
1024.553	5016.51
1024.903	4883.42
1025.253	4184.69
1025.604	3762.48
1025.954	4677.26
1026.304	5698.03
1026.654	6668.4
1027.004	9783.09
1027.354	15811.97
1027.703	14952.73
1028.053	19811.85
1028.403	28855.08
1028.753	41949.38
1029.102	57067.99
1029.452	294488.6
1029.801	12707.1
1030.15	8248.76
1030.499	7003.83
897.758	2073.68
901.051	2003.18
904.343	2035.9
907.636	2043.64
910.928	2105.43
914.22	2029.23
917.511	2032.78
920.803	2080.54
924.094	2072.45
927.384	2080.09
930.675	2044.98
933.965	2010.36
937.255	2046.06
940.544	2018.22
943.834	2010.39
947.123	1951.97
950.411	2037.59
953.7	2019.99
956.988	2007.52
960.276	1946.04
963.563	1988.9
966.851	1999.92
970.138	2038.51
973.424	2039.36
976.711	1992.71
979.997	2042.89
983.283	2084.01
986.568	2020.77
989.853	2007.49
993.138	2032.93
996.423	2118.8
999.708	2082.44
1002.992	2113.56
1006.275	2031
1009.559	2035.54
1012.842	2132.03
1016.125	2088.46
1019.408	2071.78
1022.69	2121.09
1025.972	2158.77
1029.254	2135.08
1032.536	2103.8
1035.817	2108.78
1039.098	2078.26
1042.379	2125.59
1045.659	2151.89
1048.939	2102.39
1052.219	2107.58
1055.498	2096.03
1058.778	2096.04
1062.057	2070.42
1065.335	2095.95
1068.614	2105.69
1071.892	2107.62
1075.17	2155.71
1078.447	2162.54
1081.724	2158.68
1085.001	2183.52
1088.278	2164.15
1091.554	2169.71
1094.83	2164.97
1098.106	2201.96
1101.382	2229.35
1104.657	2231.03
1107.932	2229.1
1111.206	2213.21
1114.481	2162.43
1117.755	2161.67
1121.029	2158.12
1124.302	2220.09
1127.575	2189.77
1130.848	2187.74
1134.121	2163.08
1137.393	2127.44
1140.665	2181.01
1143.937	2162.31
1147.208	2105.98
1150.48	2170.93
1153.75	2162.35
1157.021	2156
1160.291	2135.19
1163.561	2190.38
1166.831	2152.48
1170.101	2176.11
1173.37	2131.81
1176.639	2092.83
1179.907	2134.36
1183.176	2161.17
1186.444	2161.25
1189.711	2182.64
1192.979	2211.67
1196.246	2167.24
1199.513	2179.87
1202.78	2186.66
1206.046	2196.47
1209.312	2226.11
1212.578	2241.83
1215.843	2212.38
1219.108	2178.76
1222.373	2200.13
1225.638	2176.99
1228.902	2169.3
1232.166	2120.51
1235.43	2109.2
1238.693	2137.1
1241.956	2125.68
1245.219	2177.55
1248.482	2159.58
1251.744	2156.61
1255.006	2271.4
1258.268	2219.78
1261.529	2177.2
1264.79	2176.98
1268.051	2276.54
1271.312	2282.04
1274.572	2255.8
1277.832	2242.9
1281.092	2220.09
1284.351	2214.37
1287.61	2201.3
1290.869	2141.22
1294.128	2141.75
1297.386	2182.98
1300.644	2175.48
1303.902	2185.03
1307.159	2056.98
1310.416	2104.91
1313.673	2135.92
1316.93	2137.48
1320.186	2162.31
1323.442	2193.64
1326.697	2199.98
1329.953	2167.71
1333.208	2204.7
1336.463	2175.96
1339.717	2141.91
1342.972	2242.01
1346.226	2212.01
1349.479	2164.15
1352.733	2144.44
1355.986	2148.08
1359.238	2129.43
1362.491	2132.59
1365.743	2131.55
1368.995	2121.14
1372.247	2133.99
1375.498	2152.97
1378.749	2199.69
1382	2148.27
1385.251	2180.85
1388.501	2131.28
1391.751	2136.99
1395	2100.94
1398.25	2124.73
1401.499	2150.66
1404.748	2106.05
1407.996	2082.12
1411.244	2071.21
1414.492	2057.26
1417.74	2045.31
1420.987	2047.39
1424.234	2108.09
1427.481	2066.9
1430.728	2122.79
1433.974	2099.94
1437.22	2095.85
1440.465	2090.23
1443.711	2096.21
1446.956	2116.8
1450.201	2084.24
1453.445	2127.37
1456.689	2120.98
1459.933	2129.84
1463.177	2170.63
1466.42	2145.38
1469.663	2129.13
1472.906	2150.33
1476.148	2196.46
1479.391	2160.6
1482.633	2138.98
1485.874	2170.49
1489.115	2177.12
1492.356	2156.03
1495.597	2139.24
1498.838	2130.62
1502.078	2119.21
1505.318	2095.26
1508.557	2126.25
1511.797	2126.38
1515.036	2179.22
1518.274	2144.54
1521.513	2093.8
1524.751	2103.13
1527.989	2131.66
1531.227	2150.52
1534.464	2170.75
1537.701	2161.34
1540.938	2171.65
1544.174	2119.61
1547.41	2108.49
1550.646	2145.35
1553.882	2202.1
1557.117	2257.86
1560.352	2268.22
1563.587	2229.34
1566.821	2197.38
1570.055	2208.5
1573.289	2193.07
1576.523	2247.3
1579.756	2265.58
1582.989	2286.88
1586.222	2249.29
1589.454	2272.27
1592.686	2261.04
1595.918	2287.95
1599.15	2289.83
1602.381	2328.56
1605.612	2315.4
1608.843	2405.77
1612.073	2331.04
1615.303	2320.63
1618.533	2319.65
1621.762	2315.87
1624.992	2289.44
1628.221	2295.84
1631.449	2283.78
1634.678	2303.02
1637.906	2273.82
1641.134	2298.61
1644.361	2266.92
1647.588	2256.67
1650.815	2277.17
1654.042	2237.6
1657.269	2266.45
1660.495	2252.54
1663.72	2229.35
1666.946	2200.74
1670.171	2180.48
1673.396	2151.73
1676.621	2133.42
1679.845	2123.34
1683.069	2128.49
1686.293	2156.23
1689.517	2153.51
1692.74	2107.56
1695.963	2124.75
1699.185	2172.1
1702.408	2143.14
1705.63	2170.62
1708.852	2193.27
1712.073	2160.76
1715.294	2177.28
1718.515	2216.83
1721.736	2177.95
1724.956	2152.41
1728.176	2173.38
1731.396	2198.57
1734.616	2181.56
1737.835	2219.96
1741.054	2187.15
1744.272	2176.45
1747.491	2220.8
1750.709	2237.78
1753.927	2194.49
1757.144	2215.14
1760.361	2277.73
1763.578	2245.94
1766.795	2196.05
1770.011	2182.89
1773.227	2204.07
1776.443	2247.08
1779.658	2289.79
1782.874	2227.02
1786.089	2224.7
1789.303	2225.93
1792.518	2223.5
1795.732	2206.83
1798.945	2226.43
1802.159	2265.16
1805.372	2215.44
1808.585	2211.61
1811.797	2212.92
1815.01	2226.75
1818.222	2254.02
1821.434	2203.64
1824.645	2244.3
1827.856	2254.76
1831.067	2285.59
1834.278	2218.66
1837.488	2203.75
1840.698	2317.73
1843.908	2263.39
1847.117	2231.65
1850.326	2166.73
1853.535	2216.75
1856.744	2260.5
1859.952	2181.77
1863.16	2184.08
1866.368	2194.86
1869.575	2307.96
1872.782	2188.27
1875.989	2122.11
1879.196	2162.49
1882.402	2155.18
1885.608	2182.93
1888.814	2132.01
1892.019	2041.56
1895.224	2092.24
1898.429	2051.63
1901.634	2035.14
1904.838	2010.16
1908.042	2068.13
1911.246	2080.44
1914.449	2048.74
1917.652	2027.25
1920.855	2008.78
1924.058	2026.84
1927.26	2071.28
1930.462	2092.4
1933.664	2135.93
1936.865	2080.87
1940.066	2097.78
1943.267	2042.83
1946.467	2051.96
1949.668	2069.1
1952.868	2136.39
1956.067	2129.68
1959.267	2076.48
1962.466	2098.15
1965.665	2078.97
1968.863	2073.58
1972.061	2075.33
1975.259	2066.39
1978.457	2138.83
1981.654	2099.83
1984.852	2104.5
1988.048	2061.94
1991.245	2048.79
1994.441	2136.25
1997.637	2088.54
2000.833	2072.24
2004.028	2106.16
2007.223	2167.49
2010.418	2160.04
2013.613	2107.64
2016.807	2106.73
2020.001	2098.62
2023.194	2117.8
2026.388	2103.69
2029.581	2046.67
2032.774	2114.51
2035.966	2125.34
2039.158	2073.48
2042.35	2092.6
2045.542	2020.7
2048.733	2097.05
2051.924	2084
2055.115	2097.38
2058.306	2065.98
2061.496	2118.96
2064.686	2166.44
2067.875	2073.16
2071.065	2072.26
2074.254	2089.65
2077.442	2046
2080.631	2123.64
2083.819	2066.55
2087.007	2058.91
2090.195	2046.78
2093.382	2058.93
2096.569	2043.92
2099.756	2009.08
2102.942	2058.79
2106.128	2077.11
2109.314	2064.29
2112.5	2052.39
2115.685	2019.6
2118.87	2027.67
2122.055	2087.08
2125.239	2070.44
2128.424	2060.54
2131.608	2110.39
2134.791	2092.17
2137.974	2125.74
2141.157	2115.13
2144.34	2091.55
2147.523	2077.28
2150.705	2106.18
2153.887	2069.98
2157.068	2048.17
2160.25	2021.99
2163.431	2044.94
2166.611	2019.26
2169.792	2044.1
2172.972	1959.44
2176.152	2002.72
2179.331	2028.27
2182.511	2034.91
2185.69	2055.16
2188.868	2063.77
2192.047	2092.22
2195.225	2115.78
2198.403	2061.3
2201.58	2048.4
2204.758	2029.59
2207.935	2101.65
2211.111	2024.44
2214.288	2014.3
2217.464	2047.96
2220.64	1998.74
2223.815	2046.26
2226.991	1980.62
2230.166	1995.99
2233.34	2040.91
2236.515	2051.59
2239.689	2115.3
2242.863	2066
2246.036	2117.67
2249.209	2097.32
2252.382	2112.02
2255.555	2125.35
2258.727	2078.27
2261.9	2107.12
2265.071	2099.56
2268.243	2093.84
2271.414	2047.29
2274.585	2033.49
2277.756	2094.13
2280.926	2050.39
2284.096	2076.03
2287.266	2011.53
2290.436	2056.91
2293.605	2073.64
2296.774	2111.03
2299.942	2112.31
2303.111	2129.87
2306.279	2178.14
2309.447	2164.88
2312.614	2133.36
2315.781	2160.71
2318.948	2138.99
2322.115	2174.18
2325.281	2075.48
2328.447	2081.09
2331.613	2050.75
2334.779	2045.76
2337.944	2038.26
2341.109	2042.7
2344.274	2031.65
2347.438	2001.06
2350.602	2019.54
2353.766	2027.14
2356.929	2018.3
2360.092	2052.82
2363.255	2027.43
2366.418	2001.28
2369.58	2056.23
2372.742	1954.72
2375.904	1941.97
2379.066	1929.35
2382.227	1952.71
2385.388	1914.34
2388.548	1871.2
2391.709	1909.42
2394.869	1902.6
2398.029	1947.08
2401.188	1939.82
2404.347	1910.44
2407.506	1972.84
2410.665	2015.9
2413.823	1996.42
2416.981	1980.82
2420.139	1994.98
2423.296	2032.44
2426.453	2005.36
2429.61	2024.33
2432.767	2003.71
2435.923	2044.23
2439.079	1986.94
2442.235	2016.58
2445.391	1960.98
2448.546	2006.19
2451.701	2036.93
2454.855	2037.58
2458.009	2060.1
2461.163	2045.8
2464.317	2022.6
2467.471	2046.38
2470.624	2071.56
2473.777	2066.21
2476.929	2084.55
2480.082	2108.58
2483.234	2084.24
2486.385	2023.42
2489.537	2017.61
2492.688	2013.92
2495.839	2029.34
2498.989	2043.07
2502.14	2031.61
2505.29	2025.96
2508.439	2047.2
2511.589	1991.44
2514.738	1988.25
2517.887	2010.21
2521.035	2085.3
2524.183	2041.33
2527.331	2030.44
2530.479	2029.59
2533.627	2029.98
