Data from C_1_DIV_OH_2N_Splice17_11-50-11-043.txt Node
Date: Sat Mar 14 11:50:11 EDT 2020
User: sa697716
Spectrometer: FLMS03696
Trigger mode: 0
Integration Time (sec): 3.180400E-1
Scans to average: 20
Electric dark correction enabled: true
Nonlinearity correction enabled: true
Boxcar width: 5
XAxis mode: Wavelengths
Number of Pixels in Spectrum: 2048
>>>>>Begin Spectral Data<<<<<
187.83	-316507.25
188.298	2270.51
188.766	1180.6
189.233	1029.1
189.701	1467.73
190.169	1972.88
190.636	705.47
191.104	526.98
191.571	77.17
192.039	-63.63
192.506	-97.43
192.974	290.25
193.441	-545.74
193.908	-122.7
194.375	-57.46
194.842	-15.99
195.31	12.23
195.777	91.43
196.244	283.81
196.711	473.72
197.177	650.15
197.644	999.87
198.111	1724.92
198.578	2460.99
199.045	1972.91
199.511	3237.13
199.978	3824.98
200.445	3238.46
200.911	3615.24
201.378	4092.51
201.844	3682.16
202.31	6274.79
202.777	6508.87
203.243	3621.78
203.709	3445.2
204.176	4137.95
204.642	3420.03
205.108	3210.76
205.574	2638.81
206.04	2424.92
206.506	2287.68
206.972	2182.17
207.438	2121.66
207.903	2407.54
208.369	2126.38
208.835	2118.07
209.301	2210.72
209.766	2293.32
210.232	2253.46
210.697	2820.91
211.163	3527.54
211.628	5369.88
212.094	4546.68
212.559	5600.23
213.024	3528.27
213.49	4321.32
213.955	4272.91
214.42	4265.79
214.885	3980.12
215.35	3869.34
215.815	3686.12
216.28	3943.41
216.745	3270.2
217.21	3596.47
217.675	3425.39
218.14	3957.02
218.604	4594.17
219.069	5412.96
219.534	5812.47
219.998	6974.95
220.463	8692.49
220.927	11081.31
221.392	10647.81
221.856	10927.55
222.32	14024.92
222.785	17476.83
223.249	22242.79
223.713	25017.89
224.177	25198.16
224.642	32574.47
225.106	40273.79
225.57	44171.24
226.034	32854.87
226.497	50114.29
226.961	45295.56
227.425	52789.48
227.889	58794.4
228.353	58931.69
228.816	121865.56
229.28	116573.62
229.744	98520.22
230.207	59845.45
230.671	58934.13
231.134	97778.57
231.597	112761.08
232.061	113043.63
232.524	110453.93
232.987	76100.99
233.45	68457.79
233.914	61453.94
234.377	63074.75
234.84	57720.49
235.303	68162.82
235.766	76103.33
236.229	78651.43
236.691	49600.96
237.154	55714.22
237.617	41861.14
238.08	42857.41
238.542	50204.72
239.005	35882.61
239.468	35601.09
239.93	33540.51
240.393	30470.93
240.855	26736.89
241.317	27381.78
241.78	33327.34
242.242	34432.25
242.704	37114.64
243.166	32272.86
243.629	29218.67
244.091	33611.39
244.553	36830.51
245.015	39536.08
245.477	51166.87
245.939	75039.08
246.4	79551.21
246.862	77307.6
247.324	72872.82
247.786	81627.05
248.247	107134.48
248.709	110888.94
249.17	82947.65
249.632	78041.27
250.093	90430.71
250.555	78054.26
251.016	47520.93
251.477	45063.54
251.939	48552.94
252.4	50894.64
252.861	60524.88
253.322	56226.44
253.783	66908.38
254.244	86858.37
254.705	68543.72
255.166	60994.37
255.627	59985.04
256.088	84542.19
256.549	89831.89
257.009	77389.36
257.47	93966.8
257.931	76531
258.391	57379.09
258.852	59144.39
259.312	61970.86
259.773	76575.9
260.233	64641.6
260.694	54545.92
261.154	61907.41
261.614	49624.57
262.074	44405.51
262.534	46132.92
262.994	43479.98
263.455	57930.62
263.915	48774.09
264.374	45968.21
264.834	50142.66
265.294	55645.91
265.754	57643.38
266.214	54571.14
266.673	51180.81
267.133	64609.14
267.593	64153.01
268.052	78500.5
268.512	68321.84
268.971	82302.51
269.431	90138.09
269.89	80761.99
270.349	120994.61
270.809	134838.79
271.268	121217.15
271.727	271830.67
272.186	176041.14
272.645	131922.68
273.104	95250.09
273.563	137852.17
274.022	108555.56
274.481	92341.44
274.94	71073.36
275.399	52872.11
275.857	61600.74
276.316	83378.84
276.775	74157.58
277.233	72943.6
277.692	68181.17
278.15	77044.47
278.609	79157.7
279.067	73233.92
279.525	67966.81
279.984	87869.26
280.442	105417.65
280.9	103719.05
281.358	68143.88
281.816	63516.04
282.274	62223.99
282.732	64363.91
283.19	64623.71
283.648	55762.81
284.106	59378.7
284.564	60410.45
285.021	55903.65
285.479	41657.57
285.937	37920.04
286.394	33219.51
286.852	34167.84
287.309	35858.58
287.767	34572.17
288.224	32834.36
288.682	35983.76
289.139	39429.84
289.596	36005.76
290.053	37419.31
290.511	47210.32
290.968	57208.52
291.425	77675.92
291.882	64515.29
292.339	56093.94
292.796	55665.47
293.252	52493.67
293.709	41616.75
294.166	37273.53
294.623	41205.25
295.079	39570.87
295.536	39689.33
295.992	35998.66
296.449	35562.09
296.905	36926.47
297.362	35377.39
297.818	37209.35
298.274	38535.79
298.731	39330.41
299.187	38936.33
299.643	41787.33
300.099	50438.01
300.555	55336.92
301.011	46233.09
301.467	44464.81
301.923	52114.25
302.379	50869.97
302.835	49940.23
303.291	49998.41
303.746	56874.58
304.202	71799.78
304.658	72063.93
305.113	48453.53
305.569	47427.22
306.024	50531.7
306.479	48172.59
306.935	40537.99
307.39	44264.31
307.845	40860.95
308.301	41026.41
308.756	39963.46
309.211	38453.08
309.666	39360.72
310.121	48762.13
310.576	49479.96
311.031	49049.03
311.486	56163.56
311.94	56076.33
312.395	74914.35
312.85	140673.86
313.305	691604.57
313.759	3570607.42
314.214	258491.07
314.668	204667.54
315.123	171912.57
315.577	61541.59
316.032	54684.23
316.486	68431.94
316.94	53883.68
317.394	37512.06
317.849	29109.68
318.303	27549.45
318.757	25947.75
319.211	28657.82
319.665	25095.69
320.119	25398.14
320.572	36460.89
321.026	34015.8
321.48	28310.67
321.934	30938.58
322.387	30995.41
322.841	33466.79
323.295	30018.06
323.748	34691.79
324.202	35165.18
324.655	42182.08
325.108	58837.98
325.562	41498.74
326.015	49346.47
326.468	37279.34
326.921	41665.41
327.374	38786.24
327.827	40324.97
328.28	45676.22
328.733	30521.02
329.186	26861
329.639	25584.49
330.092	21567.36
330.545	20534.03
330.997	20703.1
331.45	22595.05
331.903	26426.66
332.355	45566.26
332.808	44316.95
333.26	36598.42
333.713	39712.56
334.165	39999.85
334.617	53478.15
335.069	43296.7
335.522	78339.37
335.974	86741.71
336.426	79326.17
336.878	55044.09
337.33	27841.05
337.782	27162.69
338.234	33930.01
338.686	40640.46
339.137	48052.19
339.589	45230.03
340.041	35418.83
340.493	30407.65
340.944	31111.66
341.396	33477.12
341.847	28137.89
342.299	33184.75
342.75	40444.21
343.201	35410.31
343.653	40697.87
344.104	50079.92
344.555	39400.53
345.006	61442.24
345.457	46953.34
345.908	37324.18
346.359	35078.01
346.81	28565.64
347.261	30120.05
347.712	29699.73
348.163	31852.06
348.613	32189.95
349.064	30054.92
349.515	26291.13
349.965	26908.68
350.416	32448.18
350.866	35656.4
351.317	40340.39
351.767	66718.99
352.217	84272.92
352.668	69904.29
353.118	63977.98
353.568	61801.55
354.018	48813.27
354.468	51468.49
354.918	36901.08
355.368	32319.94
355.818	45651.65
356.268	131484.35
356.718	549838.51
357.168	136708.64
357.617	68664.58
358.067	76396.72
358.517	71497.18
358.966	83817.35
359.416	93869.45
359.865	101563.85
360.315	120927.06
360.764	56401.33
361.213	31560.98
361.663	29935.79
362.112	36989.28
362.561	59759.29
363.01	45040.38
363.459	37939.58
363.908	41099.95
364.357	34878.24
364.806	58948.47
365.255	40507.65
365.703	37049.16
366.152	37089.91
366.601	30032.81
367.05	24351.09
367.498	22091.03
367.947	23103.02
368.395	24034.96
368.844	21250.01
369.292	25698.75
369.74	17713.25
370.189	27119.75
370.637	31828.4
371.085	27443.95
371.533	33456.93
371.981	32292.38
372.429	30766.03
372.877	32065.25
373.325	26832.31
373.773	27371.47
374.221	24355.09
374.669	30202.49
375.116	26092.97
375.564	26246.43
376.012	29361.1
376.459	24179.96
376.907	28890.13
377.354	34941.03
377.801	32507.71
378.249	37319.61
378.696	47628.84
379.143	57619.64
379.591	61474.28
380.038	103843.69
380.485	75059.21
380.932	81050.8
381.379	73952.62
381.826	54344.28
382.273	38627.69
382.72	33796.18
383.166	32886.14
383.613	21316.46
384.06	19207.75
384.506	22190.87
384.953	16312.92
385.4	16428.96
385.846	14397.61
386.292	14061.31
386.739	13770.17
387.185	13629.13
387.631	13618.55
388.078	13187.29
388.524	14115.58
388.97	13023.9
389.416	10850.91
389.862	11513.13
390.308	10912.55
390.754	11061.99
391.2	12000.41
391.645	12268.8
392.091	11673
392.537	11269.15
392.983	11295.24
393.428	11056.88
393.874	11842.52
394.319	11866.05
394.765	11235.33
395.21	11524.6
395.655	10796.26
396.101	10083.77
396.546	9085.41
396.991	9180.8
397.436	8508.5
397.881	8204.5
398.326	7785.49
398.771	7340.54
399.216	6413.77
399.661	5772.66
400.106	5737.18
400.551	5860.07
400.995	5253.6
401.44	5183.45
401.885	4861.78
402.329	4903.83
402.774	4694.63
403.218	4521.15
403.663	4350.63
404.107	4456.97
404.551	4479.2
404.995	4096.74
405.44	3943.86
405.884	3998.27
406.328	3867.93
406.772	3850.74
407.216	3503.9
407.66	3384.7
408.104	3217.02
408.547	3009.91
408.991	2909.44
409.435	2792.91
409.879	2752.12
410.322	2708.17
410.766	2606.89
411.209	2472.69
411.653	2365.3
412.096	2312.64
412.54	2313.12
412.983	2290.41
413.426	2290.52
413.869	2290.77
414.312	2245.31
414.756	2160.36
415.199	2058.77
415.642	1996.34
416.085	1996.23
416.527	1985.41
416.97	2011.99
417.413	1904.65
417.856	1886.11
418.298	1865.16
418.741	1852.35
419.184	1848.61
419.626	1930.74
420.069	1931.41
420.511	1942.01
420.953	1898.48
421.396	1878.89
421.838	1835.09
422.28	1876.34
422.722	1884.51
423.164	1910.78
423.606	1875.23
424.048	1872.54
424.49	1774.88
424.932	1766.3
425.374	1743.62
425.816	1776.91
426.258	1812.83
426.699	1833.56
427.141	1805.28
427.582	1836.46
428.024	1831.7
428.465	1824
428.907	1783.98
429.348	1765.68
429.789	1765.64
430.231	1726.22
430.672	1749.19
431.113	1707.84
431.554	1684.27
431.995	1646.25
432.436	1585.51
432.877	1548.56
433.318	1521.82
433.759	1514.3
434.2	1515.22
434.64	1502.08
435.081	1510.08
435.522	1432.02
435.962	1382.74
436.403	1351.51
436.843	1374.16
437.284	1350.71
437.724	1319.04
438.164	1326.05
438.604	1298.69
439.045	1249.23
439.485	1198.37
439.925	1174.29
440.365	1147.89
440.805	1133.21
441.245	1119.98
441.685	1077.37
442.125	1070.13
442.564	1080.48
443.004	1056.89
443.444	1055.23
443.883	1059.24
444.323	1054.68
444.762	1060.7
445.202	1078.11
445.641	1098.87
446.081	1095.56
446.52	1106.41
446.959	1095.93
447.398	1069.23
447.837	1059.21
448.276	1043.51
448.716	1056.53
449.154	1068.37
449.593	1045.77
450.032	1042.75
450.471	1026.55
450.91	1032.75
451.349	1032.45
451.787	1031.3
452.226	1049.39
452.664	1050.39
453.103	1054.47
453.541	1053.77
453.98	1051.67
454.418	1059.06
454.856	1042.34
455.295	1042.56
455.733	1049.76
456.171	1057.75
456.609	1060.96
457.047	1061.15
457.485	1077.84
457.923	1078.56
458.361	1066.02
458.798	1071.43
459.236	1069.95
459.674	1081.23
460.111	1086.29
460.549	1075.04
460.987	1072.76
461.424	1069.31
461.862	1065.42
462.299	1050.66
462.736	1051.3
463.173	1054.85
463.611	1041.09
464.048	1037.8
464.485	1045.45
464.922	1037.08
465.359	1032.48
465.796	1011.63
466.233	1003.13
466.67	992.28
467.106	987.24
467.543	978.38
467.98	967.02
468.416	944.34
468.853	939.15
469.29	911.09
469.726	901.78
470.162	879.24
470.599	874.49
471.035	868.36
471.471	848.82
471.907	846.12
472.344	840.77
472.78	842.06
473.216	852.93
473.652	842.03
474.088	840.17
474.523	836.33
474.959	844.46
475.395	836.1
475.831	830.88
476.266	834.46
476.702	832.27
477.138	822.63
477.573	819.74
478.008	815.39
478.444	817.05
478.879	823.82
479.314	826.95
479.75	825.58
480.185	829.57
480.62	836.34
481.055	841.19
481.49	847.3
481.925	860.38
482.36	874.4
482.795	900.16
483.229	926.29
483.664	945.96
484.099	950.9
484.534	966.36
484.968	976.45
485.403	980.92
485.837	980.64
486.271	979.86
486.706	982.74
487.14	974.01
487.574	959.87
488.009	952.22
488.443	946.44
488.877	957.17
489.311	962.18
489.745	974.83
490.179	984.2
490.613	1002.63
491.046	1012.1
491.48	1019.08
491.914	1021.22
492.348	1030.09
492.781	1037.8
493.215	1040.72
493.648	1043.8
494.082	1051.93
494.515	1053.65
494.948	1066.3
495.382	1076.64
495.815	1085.21
496.248	1095.14
496.681	1117.35
497.114	1136.5
497.547	1154.47
497.98	1174.94
498.413	1185.56
498.846	1203.12
499.279	1218.77
499.711	1228.8
500.144	1233.61
500.577	1250.91
501.009	1271.8
501.442	1286.78
501.874	1290.96
502.306	1295.64
502.739	1308.07
503.171	1333.33
503.603	1341.39
504.036	1357.96
504.468	1369.43
504.9	1389.55
505.332	1403.31
505.764	1410.1
506.196	1423.71
506.627	1446.58
507.059	1469.17
507.491	1487.14
507.923	1484.64
508.354	1508.02
508.786	1525.35
509.217	1552.49
509.649	1575.46
510.08	1604.73
510.512	1631.25
510.943	1654.69
511.374	1673.28
511.805	1703.39
512.237	1733.04
512.668	1783.46
513.099	1826.18
513.53	1867.65
513.961	1899.13
514.391	1948.22
514.822	1996.95
515.253	2049.92
515.684	2087.44
516.114	2131.7
516.545	2162.18
516.975	2198.7
517.406	2223.59
517.836	2223.48
518.267	2229.66
518.697	2253.82
519.127	2256.7
519.558	2265.19
519.988	2268.9
520.418	2281.08
520.848	2303.97
521.278	2314.75
521.708	2312.77
522.138	2328.36
522.567	2373.28
522.997	2408.69
523.427	2429.64
523.857	2452.49
524.286	2465.44
524.716	2483.79
525.145	2509.73
525.575	2522.37
526.004	2540.67
526.433	2553.42
526.863	2550.76
527.292	2529.55
527.721	2534.2
528.15	2538.25
528.579	2534.85
529.008	2547.09
529.437	2578.91
529.866	2596.45
530.295	2620.35
530.724	2636.64
531.152	2674.11
531.581	2692.85
532.01	2718.31
532.438	2730.04
532.867	2751.29
533.295	2777.88
533.723	2785.22
534.152	2779.89
534.58	2776.65
535.008	2751.13
535.436	2751.24
535.865	2761.64
536.293	2783.41
536.721	2806.54
537.149	2844.05
537.576	2846.42
538.004	2863.78
538.432	2876.25
538.86	2873.29
539.287	2884.89
539.715	2905.79
540.143	2910.12
540.57	2904.7
540.998	2897.41
541.425	2861.13
541.852	2828.88
542.28	2825.62
542.707	2801.03
543.134	2778.24
543.561	2772.15
543.988	2759.26
544.415	2757.23
544.842	2748.02
545.269	2734.04
545.696	2735.72
546.123	2753.94
546.549	2735.29
546.976	2715.85
547.403	2712.52
547.829	2714.52
548.256	2716.06
548.682	2709.81
549.108	2696.07
549.535	2694.36
549.961	2697.82
550.387	2676.95
550.813	2667.97
551.24	2677.25
551.666	2677.41
552.092	2662.47
552.518	2650.47
552.943	2639.04
553.369	2649.6
553.795	2656.15
554.221	2656.94
554.646	2650.64
555.072	2665.44
555.498	2674.2
555.923	2687.08
556.349	2708.29
556.774	2721.63
557.199	2726.09
557.625	2735.42
558.05	2725.21
558.475	2741.81
558.9	2739.96
559.325	2727.31
559.75	2717.69
560.175	2705.85
560.6	2696.03
561.025	2693.47
561.449	2695.64
561.874	2703.63
562.299	2711
562.723	2723.62
563.148	2710.46
563.572	2718.61
563.997	2733.66
564.421	2744.85
564.846	2748
565.27	2757.28
565.694	2756.08
566.118	2775.36
566.542	2787.89
566.966	2780.64
567.39	2776.09
567.814	2761.71
568.238	2762.09
568.662	2775.26
569.086	2780.43
569.509	2795.24
569.933	2772.49
570.357	2764.48
570.78	2735.56
571.204	2717.59
571.627	2705.64
572.05	2704.52
572.474	2705.48
572.897	2690.55
573.32	2679.55
573.743	2667.62
574.166	2639.7
574.589	2642.33
575.012	2631.35
575.435	2631.17
575.858	2619.17
576.281	2600.97
576.704	2579
577.126	2562.13
577.549	2545.49
577.972	2530.44
578.394	2512.94
578.817	2501.31
579.239	2473.24
579.661	2451.07
580.084	2425.71
580.506	2404.89
580.928	2400.79
581.35	2382.61
581.772	2375.91
582.194	2354.28
582.616	2335.29
583.038	2315.11
583.46	2301.13
583.882	2295.16
584.303	2304.11
584.725	2298.94
585.147	2298.51
585.568	2313.59
585.99	2333.3
586.411	2343.11
586.833	2366.99
587.254	2370.22
587.675	2393.9
588.096	2412.38
588.518	2404.47
588.939	2378.88
589.36	2375.04
589.781	2364.87
590.202	2319.86
590.623	2306.77
591.043	2304.04
591.464	2284.87
591.885	2279.31
592.305	2269.14
592.726	2248.44
593.147	2251.23
593.567	2243.78
593.987	2233
594.408	2225.27
594.828	2224.25
595.248	2213.39
595.669	2184.31
596.089	2173.03
596.509	2164.05
596.929	2144.55
597.349	2145.05
597.769	2130.53
598.189	2120.26
598.608	2122.63
599.028	2125.54
599.448	2126.57
599.867	2110.07
600.287	2104.45
600.706	2097.15
601.126	2082.85
601.545	2080.9
601.965	2080.44
602.384	2072.89
602.803	2077.48
603.222	2070.18
603.641	2060.9
604.061	2054.81
604.48	2049.06
604.898	2062.42
605.317	2070.95
605.736	2072.8
606.155	2068.46
606.574	2055.51
606.992	2065.15
607.411	2059.22
607.829	2047.76
608.248	2043.38
608.666	2042.46
609.085	2042.05
609.503	2028.6
609.921	2020.38
610.339	2025.59
610.758	2026.22
611.176	2020.04
611.594	2006.75
612.012	2003.52
612.43	2008.98
612.847	2019.14
613.265	2019.1
613.683	2025.73
614.101	2030.55
614.518	2026.27
614.936	2011.97
615.353	1989.94
615.771	1985.28
616.188	1985.89
616.606	1979.55
617.023	1969.76
617.44	1948.7
617.857	1940.73
618.274	1927.83
618.691	1916.92
619.108	1901.97
619.525	1892.36
619.942	1901.21
620.359	1905.06
620.776	1896.62
621.192	1889.93
621.609	1886.07
622.026	1895.42
622.442	1902.35
622.859	1908.63
623.275	1898.45
623.691	1908.02
624.108	1924.87
624.524	1948.92
624.94	1949.58
625.356	1965.7
625.772	1987.58
626.188	2007.48
626.604	2011.12
627.02	2004.93
627.436	2001.51
627.852	2011.34
628.268	2029.31
628.683	2016.72
629.099	2002.21
629.514	1997.59
629.93	2002.99
630.345	2008.68
630.761	2002.21
631.176	2007.3
631.591	1996.98
632.007	1986.11
632.422	1984.87
632.837	1967.57
633.252	1962.75
633.667	1946.35
634.082	1930.1
634.497	1909.95
634.911	1878.51
635.326	1871.55
635.741	1843.86
636.155	1829.66
636.57	1830.82
636.984	1828.96
637.399	1829.21
637.813	1828.31
638.228	1826.33
638.642	1831.63
639.056	1815.05
639.47	1815.9
639.884	1802.32
640.298	1792.18
640.712	1788.71
641.126	1769.43
641.54	1755.73
641.954	1748.93
642.368	1729.19
642.781	1715.91
643.195	1688.23
643.609	1687.16
644.022	1676.6
644.436	1670.7
644.849	1653.58
645.262	1636.49
645.676	1640.4
646.089	1631.43
646.502	1607.12
646.915	1600.22
647.328	1575.57
647.741	1572.96
648.154	1554.89
648.567	1549.57
648.98	1529.07
649.393	1528.98
649.805	1522.63
650.218	1510.03
650.631	1487.78
651.043	1478.98
651.456	1468.1
651.868	1468.28
652.28	1493.26
652.693	1513.49
653.105	1523.65
653.517	1538.46
653.929	1537.59
654.341	1544.55
654.753	1525.87
655.165	1533.76
655.577	1529.64
655.989	1522.59
656.401	1511.02
656.813	1455.63
657.224	1424.87
657.636	1383.6
658.047	1354.87
658.459	1326.56
658.87	1314.81
659.282	1297.35
659.693	1265.19
660.104	1243.2
660.515	1223.11
660.926	1219.34
661.338	1215.74
661.749	1206.15
662.159	1189.96
662.57	1183.87
662.981	1175.07
663.392	1162.5
663.803	1165.4
664.213	1160.79
664.624	1152.83
665.035	1155.32
665.445	1133.98
665.855	1120.74
666.266	1105.85
666.676	1102.64
667.086	1086.93
667.497	1084.21
667.907	1074.55
668.317	1061.88
668.727	1054.19
669.137	1053.49
669.547	1048.76
669.956	1053.01
670.366	1055.08
670.776	1058.33
671.186	1062.57
671.595	1067.71
672.005	1073.14
672.414	1070.61
672.824	1066.32
673.233	1074.12
673.642	1075.97
674.052	1079.92
674.461	1080.02
674.87	1085.9
675.279	1079.88
675.688	1080.76
676.097	1080.7
676.506	1074.63
676.915	1094.12
677.323	1098.31
677.732	1095.57
678.141	1096.78
678.549	1082.78
678.958	1082.78
679.366	1082.47
679.775	1091.17
680.183	1105.32
680.592	1115.26
681	1125.6
681.408	1118.12
681.816	1130.47
682.224	1143.91
682.632	1158.33
683.04	1202.44
683.448	1239.03
683.856	1283.82
684.264	1335.72
684.671	1385.04
685.079	1444.68
685.487	1508.05
685.894	1598.51
686.302	1673.76
686.709	1736.31
687.116	1809.86
687.524	1866.85
687.931	1918.17
688.338	1961.76
688.745	1999.2
689.152	2041.9
689.559	2098.53
689.966	2154.51
690.373	2181.43
690.78	2230.82
691.187	2314.51
691.593	2374.22
692	2424.7
692.407	2503.24
692.813	2599.15
693.22	2676.56
693.626	2755.31
694.032	2816.53
694.439	2916.07
694.845	2984.07
695.251	3083.28
695.657	3165.58
696.063	3296.04
696.469	3391.35
696.875	3476.03
697.281	3523.26
697.687	3576.78
698.093	3621.03
698.498	3717.01
698.904	3787.56
699.31	3902.43
699.715	3974.92
700.12	4093.1
700.526	4107.86
700.931	4192.62
701.337	4256.5
701.742	4291.87
702.147	4399.2
702.552	4432.54
702.957	4505.51
703.362	4523.19
703.767	4555.28
704.172	4604.52
704.577	4530.67
704.981	4588.19
705.386	4604.21
705.791	4584.35
706.195	4680.08
706.6	4684.77
707.004	4785.17
707.408	4734.14
707.813	4764.9
708.217	4739.78
708.621	4734.57
709.025	4861.58
709.43	4855.23
709.834	4928.95
710.237	5017.86
710.641	4991.03
711.045	5015.61
711.449	5001.98
711.853	5033.88
712.256	5085.05
712.66	5133.82
713.064	5228.95
713.467	5278.65
713.87	5423.7
714.274	5480.64
714.677	5622.11
715.08	5830.36
715.484	6048.26
715.887	6309.13
716.29	6572.34
716.693	6839.64
717.096	7148.11
717.499	7317.47
717.901	7344.46
718.304	7374.33
718.707	7399.75
719.109	7258.59
719.512	7212.64
719.915	7027.36
720.317	6950.4
720.719	7001.62
721.122	6958.75
721.524	6887.43
721.926	6825.58
722.328	6949.8
722.731	6934.37
723.133	6967.11
723.535	7214.82
723.937	7236.74
724.338	7297.64
724.74	7345.86
725.142	7225.55
725.544	7219.57
725.945	7243.01
726.347	7236.19
726.748	7223.26
727.15	7233.98
727.551	7181.14
727.952	7142.49
728.354	7101.32
728.755	7100.09
729.156	7044.99
729.557	7057.23
729.958	6897.2
730.359	6831
730.76	6803.84
731.161	6726.55
731.562	6694.86
731.962	6699.09
732.363	6615.57
732.763	6531.88
733.164	6581.13
733.564	6494.21
733.965	6370.01
734.365	6324.26
734.766	6359.49
735.166	6309.53
735.566	6236.44
735.966	6200.9
736.366	6192.3
736.766	6111.2
737.166	6152.31
737.566	6095.82
737.966	6059.39
738.365	6108.58
738.765	6100.01
739.165	6004.42
739.564	5970.14
739.964	6025.75
740.363	5964.82
740.763	5959.81
741.162	5942.2
741.561	5899.51
741.96	5839.22
742.36	5864.88
742.759	5871.14
743.158	5919.59
743.557	5936.9
743.955	5985.98
744.354	5929.88
744.753	6004.16
745.152	5949.52
745.55	6020.28
745.949	6008.75
746.348	6008.24
746.746	6028.82
747.144	5976.49
747.543	5948.01
747.941	6009.25
748.339	5918.62
748.737	5908.94
749.136	5895.58
749.534	5978.57
749.932	5939.76
750.33	5971.35
750.727	6044.44
751.125	6012.65
751.523	5994.54
751.921	6046.97
752.318	6000.95
752.716	6076.56
753.113	6093.07
753.511	6125.12
753.908	6123.12
754.305	6098.83
754.703	6176.53
755.1	6251.67
755.497	6328.43
755.894	6566.39
756.291	6792.74
756.688	7207.95
757.085	7761.28
757.482	8539.63
757.878	9388.6
758.275	10163.19
758.672	11231.08
759.068	12092.98
759.465	13325.37
759.861	14915.39
760.258	16760.32
760.654	17713.84
761.05	17576.43
761.447	16772.13
761.843	15614.33
762.239	14418.65
762.635	13877.51
763.031	13359.73
763.427	12610.55
763.822	11824.18
764.218	11045.66
764.614	10034.43
765.01	9358.4
765.405	8922.33
765.801	8588.84
766.196	8165.98
766.592	7931.3
766.987	7535.33
767.382	7264.41
767.778	7153.04
768.173	6988.32
768.568	6896.78
768.963	6738.72
769.358	6762.76
769.753	6703.16
770.148	6599.54
770.542	6597.65
770.937	6559.11
771.332	6671.34
771.726	6696.62
772.121	6614.24
772.515	6681.01
772.91	6662.97
773.304	6752.51
773.699	6671.52
774.093	6739.52
774.487	6811.73
774.881	6867.46
775.275	6859.64
775.669	6803.91
776.063	6858.81
776.457	6906.53
776.851	6816.74
777.245	6806.87
777.638	6851.94
778.032	6994.76
778.425	6947.3
778.819	6995.92
779.212	6941.17
779.606	6887.66
779.999	6915.54
780.392	6893.73
780.786	7000.14
781.179	7023.82
781.572	7075.47
781.965	7088.12
782.358	7012.84
782.751	7083.25
783.143	7023.2
783.536	7116.06
783.929	7174.45
784.322	7321.46
784.714	7361.86
785.107	7355.14
785.499	7447.17
785.891	7419.53
786.284	7396.67
786.676	7579.45
787.068	7555.7
787.46	7622.61
787.852	7646.57
788.245	7754.31
788.636	7786.41
789.028	7866.53
789.42	7915.59
789.812	7922.55
790.204	8046.05
790.595	8168.71
790.987	7919.72
791.378	7950.47
791.77	8113.94
792.161	8279.99
792.553	8346.88
792.944	8212.06
793.335	8128.44
793.726	8217.05
794.117	8331.25
794.508	8500.05
794.899	8464.16
795.29	8641.07
795.681	8711.35
796.072	8530.97
796.463	8291.27
796.853	8307.37
797.244	8501.33
797.634	8546.95
798.025	8544.61
798.415	8561.66
798.806	8671.24
799.196	8774.3
799.586	8834.15
799.976	8787.13
800.366	9078.45
800.756	9392.12
801.146	9339.48
801.536	9375
801.926	9466.55
802.316	9501.33
802.706	9592.7
803.095	9437.61
803.485	9567.94
803.874	9623.55
804.264	9948.38
804.653	9913.5
805.043	10094.02
805.432	10228.35
805.821	10231.91
806.21	10253.72
806.599	10403.42
806.988	10451.05
807.377	10588.31
807.766	10748.69
808.155	11098.52
808.544	10767.96
808.933	10779.54
809.321	10745.69
809.71	11109.98
810.098	11302.12
810.487	11877.87
810.875	12468.51
811.264	12492.51
811.652	12842
812.04	13017.65
812.428	13215.17
812.816	14162.9
813.204	14689.59
813.592	15381.61
813.98	15805.64
814.368	15688.35
814.756	16280.18
815.144	16172.18
815.531	16752.83
815.919	16664.15
816.306	17050.22
816.694	16670.65
817.081	16731.68
817.469	17160.04
817.856	17157.53
818.243	17486.92
818.63	17962.83
819.017	17440.19
819.404	17527.28
819.791	18002.94
820.178	18772.66
820.565	19071.85
820.952	20221.61
821.339	19614.25
821.725	19837.24
822.112	18905.05
822.498	18858.22
822.885	19023.62
823.271	18901.28
823.657	19418.04
824.044	19428.72
824.43	19514.97
824.816	19478.49
825.202	18940.98
825.588	20203.84
825.974	20224.64
826.36	20872.12
826.746	20908.98
827.132	21357.7
827.517	21328.44
827.903	20347.21
828.289	20394.2
828.674	19430.39
829.06	19304.19
829.445	19801.32
829.83	20242.2
830.216	20840.97
830.601	21303.1
830.986	20797.11
831.371	20630.24
831.756	21323.63
832.141	20796.72
832.526	20794.88
832.911	21154.17
833.295	21023.11
833.68	21603.92
834.065	20839.32
834.449	19699.5
834.834	19611.74
835.218	19608.17
835.603	20036.96
835.987	19782.9
836.371	20824.16
836.755	20692.8
837.139	21193.17
837.524	21498.07
837.908	21285.53
838.291	21351.96
838.675	21441.08
839.059	21690.02
839.443	21687.87
839.827	21396.41
840.21	22002.26
840.594	21818.08
840.977	22078.93
841.361	22049.74
841.744	22509.9
842.127	22317.68
842.511	22640.31
842.894	23385.64
843.277	23869.93
843.66	24545.61
844.043	24658.12
844.426	23648.12
844.809	23262.51
845.191	23295.72
845.574	22733.99
845.957	22280.78
846.339	22140.32
846.722	21486.95
847.104	21574.59
847.487	21349.27
847.869	21358.67
848.252	21703.21
848.634	22109.3
849.016	22440.54
849.398	22601.36
849.78	23641.25
850.162	23644.02
850.544	24164.46
850.926	24941.49
851.307	24826.46
851.689	25182.09
852.071	25754.99
852.452	26153.01
852.834	26126.84
853.215	26616.93
853.597	26801.54
853.978	27179.55
854.359	27745.71
854.741	26503.49
855.122	26371.41
855.503	26016.66
855.884	26185.22
856.265	26097.1
856.646	26236.52
857.026	25752.51
857.407	25660.69
857.788	25864.48
858.169	26214.55
858.549	25153.32
858.93	25926.91
859.31	25984.13
859.69	26226.99
860.071	25712.57
860.451	25452.36
860.831	24530.95
861.211	25973.88
861.591	26668.23
861.971	26624.59
862.351	26861.7
862.731	27345.23
863.111	27682.95
863.491	28093.34
863.87	29190
864.25	29631.06
864.629	29113.16
865.009	29753.38
865.388	30803.01
865.768	33014.43
866.147	32899.05
866.526	31080.59
866.905	31458.19
867.284	33211.16
867.663	31530.15
868.042	30217.19
868.421	30118.6
868.8	30621.95
869.179	30922.02
869.558	29120.27
869.936	26827.09
870.315	27290.08
870.693	27949.73
871.072	30128.36
871.45	28705.55
871.828	29076.75
872.207	30564.5
872.585	30100.97
872.963	30938.46
873.341	29870.77
873.719	29501.01
874.097	29147.36
874.475	29715.05
874.853	30407.71
875.23	29139.06
875.608	30360.2
875.986	32830.05
876.363	31407.99
876.741	32361.31
877.118	31541.59
877.495	33107.59
877.873	33669.39
878.25	35440.91
878.627	33989.28
879.004	34454.87
879.381	34302.5
879.758	33381.35
880.135	31086.64
880.512	32855.86
880.889	31983.63
881.265	31655.16
881.642	31377.07
882.019	31920.76
882.395	31258.47
882.772	32502.72
883.148	31085.56
883.524	30955.94
883.901	30769.2
884.277	31233.33
884.653	31037.5
885.029	31925.83
885.405	35330.43
885.781	35065.33
886.157	33610.94
886.532	34024.28
886.908	33993.47
887.284	37797.72
887.659	39020.21
888.035	40242.52
888.411	41262.38
888.786	41796.06
889.161	43262.11
889.537	42485.9
889.912	43828.15
890.287	43781.61
890.662	44910.55
891.037	44106.22
891.412	41120.98
891.787	40707.41
892.162	39290.82
892.536	40215.33
892.911	38709.31
893.286	37882.76
893.66	36337.41
894.035	37266.85
894.409	40589.4
894.784	38951.34
895.158	39607.02
895.532	41968.2
895.906	43117.82
896.281	44142.26
896.655	43442.5
897.029	49652.16
897.402	51715.21
897.776	57598.89
898.15	57414.27
898.524	56802.01
898.898	57565.14
899.271	64413.29
899.645	55782.71
900.018	53599.57
900.392	55565.38
900.765	55994.41
901.138	51817.23
901.511	51027.63
901.884	46839.04
902.258	43198.24
902.631	44615.05
903.003	51321.95
903.376	46320.07
903.749	51953.36
904.122	55620.31
904.495	61232.19
904.867	62021.78
905.24	53842.24
905.612	50109.25
905.985	51238.69
906.357	53544.51
906.729	51113.85
907.102	43670.95
907.474	41984.85
907.846	42246.58
908.218	41661.83
908.59	36801.34
908.962	35588.25
909.334	38333
909.705	40266.95
910.077	39095.5
910.449	40707.37
910.82	41843.46
911.192	46044.72
911.563	47837.69
911.935	51181.56
912.306	51255.42
912.677	52942.45
913.048	52399.02
913.419	56825.87
913.79	57166.69
914.161	61305.89
914.532	58567.58
914.903	53792
915.274	51064.96
915.645	50340.26
916.015	44282.81
916.386	42246.62
916.756	44970.71
917.127	46392.03
917.497	41436.07
917.868	45057.67
918.238	42797.76
918.608	44048.67
918.978	44953.58
919.348	47605.12
919.718	49147.15
920.088	47354.55
920.458	49136.92
920.828	51711.93
921.198	49014.54
921.567	52357.96
921.937	40546.3
922.306	40934.7
922.676	44124.8
923.045	36793.26
923.415	34952.04
923.784	31826.66
924.153	32721.89
924.522	32690.71
924.891	30705.47
925.26	32879.27
925.629	32095.35
925.998	36892.79
926.367	35988.22
926.736	34223.48
927.104	40782.87
927.473	43831.93
927.842	52958.97
928.21	52406.29
928.578	55095.45
928.947	52123.56
929.315	52432.02
929.683	61466.07
930.051	61948.79
930.42	71951.69
930.788	61591.43
931.156	61119.34
931.523	57255.95
931.891	52874.21
932.259	50794.55
932.627	58804.44
932.994	83149.49
933.362	68695.07
933.729	59676.62
934.097	57135.3
934.464	48335.85
934.831	55763.86
935.199	54968.9
935.566	53342.33
935.933	54077.05
936.3	65478.67
936.667	51016.9
937.034	45974.06
937.401	45494.73
937.767	39231.38
938.134	34901
938.501	49211.69
938.867	52411.48
939.234	88595.38
939.6	75546.63
939.967	83135.41
940.333	55655.69
940.699	47370.82
941.065	38075.99
941.431	49857.12
941.798	48057.12
942.163	63076.42
942.529	39425.63
942.895	36303.55
943.261	23480.6
943.627	30813.38
943.992	26994.45
944.358	27055.4
944.723	27165.46
945.089	26467.05
945.454	24494.02
945.82	26157.67
946.185	25178.93
946.55	29152.85
946.915	26136.72
947.28	30641.9
947.645	26957.9
948.01	24868.73
948.375	25928.66
948.74	31090.69
949.104	36280.12
949.469	52394.11
949.834	92624.42
950.198	87739.19
950.562	52579.01
950.927	43829.37
951.291	52810.86
951.655	45079.07
952.02	42390.92
952.384	32044.49
952.748	27860.3
953.112	27142.53
953.476	23606.73
953.839	21840.21
954.203	21606.89
954.567	27030.47
954.931	42585.42
955.294	36391.97
955.658	36561.87
956.021	62149.96
956.385	105426.97
956.748	155712.66
957.111	241543.64
957.474	271108.98
957.837	305160.93
958.2	230992.01
958.563	83106.74
958.926	56216.61
959.289	85392.05
959.652	95459.92
960.015	71600.36
960.377	102677.1
960.74	117119.77
961.102	202326.6
961.465	217053.89
961.827	115926.61
962.189	222738
962.552	154477.82
962.914	123779.42
963.276	80252.99
963.638	66334.68
964	65723.26
964.362	44443.87
964.724	42979.29
965.085	30661.4
965.447	25151.05
965.809	28766.16
966.17	28793
966.532	31153.01
966.893	28578.9
967.255	26025.1
967.616	30725.29
967.977	24573.4
968.338	26842.01
968.699	22042.25
969.061	22022.31
969.421	22176.09
969.782	24881.38
970.143	21000.12
970.504	21730.03
970.865	24670.33
971.225	25201.23
971.586	24627.4
971.946	35128.39
972.307	30503.11
972.667	39914.64
973.027	41146.57
973.388	49899.62
973.748	33875.59
974.108	36902.58
974.468	49954.1
974.828	38519.93
975.188	29639.21
975.548	27256.93
975.907	22878.28
976.267	25654.94
976.627	21528.49
976.986	22304.91
977.346	21265.36
977.705	20494.05
978.064	18650.31
978.424	15524.66
978.783	16074.96
979.142	18355.04
979.501	17540.67
979.86	18536.26
980.219	17843.8
980.578	23038.6
980.937	25812.44
981.296	22992.37
981.654	23646.32
982.013	36803.96
982.371	47703.51
982.73	44503.8
983.088	50383.92
983.447	53812.47
983.805	76914.62
984.163	160739.4
984.521	178126.71
984.879	260894.2
985.237	-424134.34
985.595	408481
985.953	101475.85
986.311	58609.23
986.669	34077.26
987.026	29435.29
987.384	39601.05
987.741	40987.16
988.099	29274.71
988.456	23336.47
988.814	21832.47
989.171	18976.52
989.528	18739.7
989.885	19804.74
990.242	15689.91
990.599	19539.1
990.956	15966.81
991.313	11165.55
991.67	9150.05
992.027	9674.97
992.383	8593.99
992.74	7534.3
993.096	7896.8
993.453	8179.59
993.809	8483.41
994.165	11297.23
994.522	10297.02
994.878	11353.27
995.234	14241.29
995.59	14051.87
995.946	13355.01
996.302	15250.65
996.658	17668.33
997.013	19501.75
997.369	23148.66
997.725	29577.17
998.08	19137.49
998.436	29725.46
998.791	40986.18
999.147	40878.35
999.502	44645.03
999.857	32484.06
1000.212	52973.93
1000.567	75364.34
1000.922	43459.64
1001.277	27577.64
1001.632	20495.48
1001.987	26436.71
1002.342	18911.02
1002.696	15126.4
1003.051	12066.2
1003.406	14596.54
1003.76	14519.69
1004.114	14307.14
1004.469	12001.16
1004.823	9928.22
1005.177	10735.76
1005.531	8507.89
1005.885	7560.78
1006.239	8519.68
1006.593	10672.12
1006.947	14262.23
1007.301	10704.56
1007.655	11636.13
1008.008	8532.73
1008.362	9586.63
1008.715	13721.55
1009.069	12454.2
1009.422	18652.05
1009.776	37313.73
1010.129	24773.23
1010.482	20746.13
1010.835	17596.85
1011.188	36663.68
1011.541	34640.98
1011.894	-212000.18
1012.247	623079.08
1012.6	42180.43
1012.952	26572.52
1013.305	13770.82
1013.657	9918.9
1014.01	9387.66
1014.362	7733
1014.715	6855.36
1015.067	5959.45
1015.419	5820.47
1015.771	5160.18
1016.123	4602.4
1016.475	4737.1
1016.827	5039.86
1017.179	5404.49
1017.531	5470.6
1017.883	5608.39
1018.234	5385.37
1018.586	6809.46
1018.938	7185.82
1019.289	9894.24
1019.64	11336.37
1019.992	10570.04
1020.343	9705.25
1020.694	7682.56
1021.045	6781.87
1021.396	7700.79
1021.747	8227.16
1022.098	9925.16
1022.449	7176.58
1022.8	6672.98
1023.151	4654.66
1023.501	4119.46
1023.852	4491.98
1024.202	4649.67
1024.553	5110.51
1024.903	4980.56
1025.253	4252.85
1025.604	3830.75
1025.954	4749.21
1026.304	5813.27
1026.654	6783.16
1027.004	9929.63
1027.354	16083.24
1027.703	14969.1
1028.053	19813.13
1028.403	28926.64
1028.753	42415.15
1029.102	58118.37
1029.452	299959.69
1029.801	12981.87
1030.15	8386.58
1030.499	7144.51
897.758	2066.51
901.051	1998.41
904.343	2032.36
907.636	2038.74
910.928	2100.62
914.22	2022.52
917.511	2028.72
920.803	2075.73
924.094	2067.27
927.384	2072.9
930.675	2040.28
933.965	2006.17
937.255	2038.93
940.544	2011.03
943.834	2003.14
947.123	1945.53
950.411	2033.51
953.7	2015.13
956.988	2002.99
960.276	1939.57
963.563	1983.63
966.851	1992.55
970.138	2032
973.424	2035.44
976.711	1987.32
979.997	2037.85
983.283	2076.94
986.568	2013.75
989.853	1999.93
993.138	2025.55
996.423	2113.72
999.708	2075.69
1002.992	2106.72
1006.275	2024.09
1009.559	2027.87
1012.842	2123.98
1016.125	2081.74
1019.408	2065.49
1022.69	2116.15
1025.972	2152.2
1029.254	2128.06
1032.536	2095.73
1035.817	2101.13
1039.098	2071.91
1042.379	2118.27
1045.659	2144.08
1048.939	2096.19
1052.219	2102.68
1055.498	2090.34
1058.778	2087.86
1062.057	2065.91
1065.335	2090.12
1068.614	2100.21
1071.892	2100.66
1075.17	2149
1078.447	2156.7
1081.724	2151.75
1085.001	2174.69
1088.278	2153.23
1091.554	2159.84
1094.83	2156.32
1098.106	2191.87
1101.382	2218.18
1104.657	2219.47
1107.932	2219.77
1111.206	2201.24
1114.481	2150.93
1117.755	2151.23
1121.029	2147.8
1124.302	2208.51
1127.575	2177.83
1130.848	2173.89
1134.121	2149.96
1137.393	2115.78
1140.665	2168.84
1143.937	2150.59
1147.208	2094.28
1150.48	2156.93
1153.75	2149.38
1157.021	2144.89
1160.291	2123.08
1163.561	2179.23
1166.831	2143.69
1170.101	2165.96
1173.37	2122.28
1176.639	2083.8
1179.907	2124.79
1183.176	2153.47
1186.444	2152.39
1189.711	2174.19
1192.979	2202.46
1196.246	2160.32
1199.513	2170.33
1202.78	2176.58
1206.046	2187.02
1209.312	2215.29
1212.578	2232.31
1215.843	2199.03
1219.108	2166.6
1222.373	2189.64
1225.638	2164.67
1228.902	2157.83
1232.166	2109.72
1235.43	2098.05
1238.693	2124.32
1241.956	2113.53
1245.219	2164.93
1248.482	2145
1251.744	2145.29
1255.006	2260.32
1258.268	2206.62
1261.529	2165.71
1264.79	2165.66
1268.051	2262.11
1271.312	2270.42
1274.572	2244.94
1277.832	2233.25
1281.092	2209.71
1284.351	2204.95
1287.61	2192
1290.869	2130.23
1294.128	2132.54
1297.386	2171.29
1300.644	2162.69
1303.902	2173.59
1307.159	2046.37
1310.416	2094.46
1313.673	2123.07
1316.93	2124.78
1320.186	2150.41
1323.442	2180.19
1326.697	2186.53
1329.953	2156.83
1333.208	2194.57
1336.463	2165.35
1339.717	2131.88
1342.972	2231.8
1346.226	2200.64
1349.479	2152.94
1352.733	2134.62
1355.986	2137.86
1359.238	2120.72
1362.491	2123.82
1365.743	2121.83
1368.995	2113.6
1372.247	2126.95
1375.498	2144.42
1378.749	2191.78
1382	2142.12
1385.251	2172.98
1388.501	2125.56
1391.751	2130.86
1395	2095.1
1398.25	2118.9
1401.499	2145.33
1404.748	2098.89
1407.996	2076.35
1411.244	2067.28
1414.492	2053.16
1417.74	2038.69
1420.987	2042.93
1424.234	2101.54
1427.481	2060.71
1430.728	2117.87
1433.974	2093.62
1437.22	2089.7
1440.465	2083.8
1443.711	2088.68
1446.956	2110.13
1450.201	2077.99
1453.445	2120.45
1456.689	2115.73
1459.933	2126.22
1463.177	2167.09
1466.42	2140.39
1469.663	2125.84
1472.906	2146.23
1476.148	2194.2
1479.391	2155.94
1482.633	2132.49
1485.874	2162.78
1489.115	2172.71
1492.356	2150.72
1495.597	2132.65
1498.838	2123.82
1502.078	2112.34
1505.318	2087.75
1508.557	2118.26
1511.797	2116.23
1515.036	2169.35
1518.274	2138.21
1521.513	2086.6
1524.751	2095.37
1527.989	2120.84
1531.227	2139.76
1534.464	2159.32
1537.701	2150.3
1540.938	2161.22
1544.174	2108.52
1547.41	2097.85
1550.646	2135.05
1553.882	2187.5
1557.117	2245.9
1560.352	2254.64
1563.587	2219.34
1566.821	2185.94
1570.055	2198.23
1573.289	2181.86
1576.523	2234.81
1579.756	2254.04
1582.989	2275.09
1586.222	2237.08
1589.454	2261.65
1592.686	2247.99
1595.918	2276.35
1599.15	2275.18
1602.381	2315.63
1605.612	2300.76
1608.843	2392.55
1612.073	2318.34
1615.303	2307.42
1618.533	2308.51
1621.762	2303.45
1624.992	2278.12
1628.221	2284.12
1631.449	2271.48
1634.678	2293.19
1637.906	2261.64
1641.134	2288.27
1644.361	2253.55
1647.588	2244.32
1650.815	2264.75
1654.042	2225.53
1657.269	2255.23
1660.495	2239.4
1663.72	2218.06
1666.946	2188.73
1670.171	2167.85
1673.396	2140.1
1676.621	2120.1
1679.845	2113.19
1683.069	2117.04
1686.293	2145.45
1689.517	2138.84
1692.74	2093.44
1695.963	2114.21
1699.185	2158.33
1702.408	2131.41
1705.63	2158.24
1708.852	2179.8
1712.073	2149.39
1715.294	2164.9
1718.515	2204.47
1721.736	2165.73
1724.956	2143.21
1728.176	2164.67
1731.396	2186.25
1734.616	2171.24
1737.835	2209.02
1741.054	2177.35
1744.272	2168.04
1747.491	2210.43
1750.709	2227.77
1753.927	2185.87
1757.144	2205.04
1760.361	2267.43
1763.578	2237.87
1766.795	2187.28
1770.011	2174.6
1773.227	2195.61
1776.443	2237.02
1779.658	2280.84
1782.874	2217.13
1786.089	2214.05
1789.303	2214.21
1792.518	2211.06
1795.732	2195.5
1798.945	2213.2
1802.159	2253.38
1805.372	2202.39
1808.585	2195.95
1811.797	2198.56
1815.01	2212.2
1818.222	2241
1821.434	2193.02
1824.645	2233.89
1827.856	2245
1831.067	2275.62
1834.278	2209.01
1837.488	2193.08
1840.698	2306.96
1843.908	2255.32
1847.117	2223.02
1850.326	2158.98
1853.535	2209.68
1856.744	2250.01
1859.952	2174.98
1863.16	2176.39
1866.368	2186.63
1869.575	2297.74
1872.782	2179.66
1875.989	2117.41
1879.196	2155.91
1882.402	2148.22
1885.608	2177.29
1888.814	2126.12
1892.019	2036.84
1895.224	2085.98
1898.429	2046.98
1901.634	2032.33
1904.838	2007.86
1908.042	2066.28
1911.246	2076.15
1914.449	2046.91
1917.652	2026.35
1920.855	2006.75
1924.058	2024.84
1927.26	2070.07
1930.462	2090.52
1933.664	2133.81
1936.865	2078.77
1940.066	2096.56
1943.267	2040.14
1946.467	2049.94
1949.668	2067.02
1952.868	2134.17
1956.067	2127.82
1959.267	2073.93
1962.466	2095.4
1965.665	2076.21
1968.863	2071.92
1972.061	2072.63
1975.259	2065.36
1978.457	2137.72
1981.654	2098.19
1984.852	2102.45
1988.048	2060.3
1991.245	2046.45
1994.441	2133.7
1997.637	2086.45
2000.833	2070.28
2004.028	2105.31
2007.223	2163.87
2010.418	2155.11
2013.613	2105.1
2016.807	2103.23
2020.001	2095.76
2023.194	2115.1
2026.388	2101.78
2029.581	2044.14
2032.774	2110.23
2035.966	2121.13
2039.158	2067.79
2042.35	2089.17
2045.542	2015.94
2048.733	2092.19
2051.924	2080.25
2055.115	2093.79
2058.306	2061.7
2061.496	2113.7
2064.686	2162.85
2067.875	2071.25
2071.065	2069.12
2074.254	2087.94
2077.442	2043.67
2080.631	2123.43
2083.819	2065.34
2087.007	2057.93
2090.195	2046.23
2093.382	2058.05
2096.569	2043.63
2099.756	2006.6
2102.942	2056.46
2106.128	2074.19
2109.314	2060.96
2112.5	2049.22
2115.685	2015.78
2118.87	2023.3
2122.055	2081.92
2125.239	2063.51
2128.424	2054.8
2131.608	2104.88
2134.791	2090.53
2137.974	2121.79
2141.157	2112.36
2144.34	2088.32
2147.523	2074.72
2150.705	2102.56
2153.887	2068.88
2157.068	2046.7
2160.25	2021.12
2163.431	2042.59
2166.611	2016.8
2169.792	2038.69
2172.972	1957.13
2176.152	1997.89
2179.331	2023.92
2182.511	2030.8
2185.69	2050.97
2188.868	2057.1
2192.047	2086.34
2195.225	2109.31
2198.403	2055.16
2201.58	2041.36
2204.758	2022.73
2207.935	2095.16
2211.111	2021.55
2214.288	2009.74
2217.464	2041.73
2220.64	1995.16
2223.815	2041.18
2226.991	1978.53
2230.166	1993.53
2233.34	2039.46
2236.515	2051.04
2239.689	2114.73
2242.863	2063.24
2246.036	2113.91
2249.209	2094.75
2252.382	2110.17
2255.555	2122.94
2258.727	2077.54
2261.9	2103.84
2265.071	2095.91
2268.243	2090.53
2271.414	2044.46
2274.585	2032.98
2277.756	2092.43
2280.926	2048.87
2284.096	2074.21
2287.266	2009.17
2290.436	2053.06
2293.605	2068.96
2296.774	2107.74
2299.942	2108.99
2303.111	2126.62
2306.279	2175.17
2309.447	2158.98
2312.614	2129.78
2315.781	2156.49
2318.948	2136.05
2322.115	2172.65
2325.281	2072.53
2328.447	2079.65
2331.613	2047.97
2334.779	2043.85
2337.944	2035.98
2341.109	2039.48
2344.274	2030.2
2347.438	1998.86
2350.602	2018.07
2353.766	2024.52
2356.929	2014.67
2360.092	2052.43
2363.255	2028.08
2366.418	2001.66
2369.58	2056.07
2372.742	1954.38
2375.904	1942.51
2379.066	1929.63
2382.227	1951.63
2385.388	1912.83
2388.548	1871
2391.709	1909.98
2394.869	1899.84
2398.029	1943.92
2401.188	1935.07
2404.347	1906.54
2407.506	1968.17
2410.665	2010.36
2413.823	1992.24
2416.981	1977.89
2420.139	1993.15
2423.296	2028.43
2426.453	2003.73
2429.61	2022.96
2432.767	2001.72
2435.923	2043.63
2439.079	1985.12
2442.235	2015.54
2445.391	1959.78
2448.546	2004.22
2451.701	2033.46
2454.855	2033.67
2458.009	2057.55
2461.163	2040.04
2464.317	2016.52
2467.471	2039.67
2470.624	2065.15
2473.777	2062.11
2476.929	2078.82
2480.082	2103.09
2483.234	2079.89
2486.385	2018.83
2489.537	2013.39
2492.688	2009.22
2495.839	2027.07
2498.989	2040.6
2502.14	2028.63
2505.29	2024.7
2508.439	2044.12
2511.589	1989.91
2514.738	1987.21
2517.887	2006.86
2521.035	2084.67
2524.183	2041.03
2527.331	2031.21
2530.479	2028.3
2533.627	2031.18
