Data from C_1_DIV_PA_2N_Splice17_12-01-30-745.txt Node
Date: Sat Mar 14 12:01:30 EDT 2020
User: sa697716
Spectrometer: FLMS03696
Trigger mode: 0
Integration Time (sec): 3.180400E-1
Scans to average: 20
Electric dark correction enabled: true
Nonlinearity correction enabled: true
Boxcar width: 5
XAxis mode: Wavelengths
Number of Pixels in Spectrum: 2048
>>>>>Begin Spectral Data<<<<<
187.83	-315410.32
188.298	1992.51
188.766	1081.44
189.233	953.36
189.701	1320.28
190.169	1877.07
190.636	694.73
191.104	544.65
191.571	98.06
192.039	-31.98
192.506	-60.12
192.974	405.32
193.441	-1058.82
193.908	-406.97
194.375	-164.02
194.842	-96.7
195.31	-35.05
195.777	101.75
196.244	312.05
196.711	447.07
197.177	610.7
197.644	878.4
198.111	1529.98
198.578	2146.34
199.045	1738.75
199.511	2852.65
199.978	3317.84
200.445	2818.04
200.911	3133.29
201.378	3515.57
201.844	3185.5
202.31	5420.04
202.777	5707.59
203.243	3176.3
203.709	3053.38
204.176	3636.73
204.642	3020.6
205.108	2847.86
205.574	2315.92
206.04	2112.11
206.506	1974.09
206.972	1873.34
207.438	1801.33
207.903	2035.01
208.369	1782.97
208.835	1769.17
209.301	1841.73
209.766	1876.31
210.232	1839.72
210.697	2297.02
211.163	2852.46
211.628	4322.78
212.094	3616.02
212.559	4442.96
213.024	2752.27
213.49	3336.97
213.955	3248.39
214.42	3204.93
214.885	2986.3
215.35	2865.77
215.815	2732.02
216.28	2882.8
216.745	2356.5
217.21	2535.68
217.675	2317.04
218.14	2597.06
218.604	2898.44
219.069	3291.1
219.534	3427.69
219.998	3974.57
220.463	4802.07
220.927	5916.05
221.392	5560.88
221.856	5598.92
222.32	7081.85
222.785	8781.2
223.249	11064.18
223.713	12376.71
224.177	12413.36
224.642	15965.62
225.106	19689.15
225.57	21611.92
226.034	16108.06
226.497	24584.7
226.961	22287.72
227.425	26029.26
227.889	28971.36
228.353	29052.1
228.816	60196.51
229.28	57775.14
229.744	48938.43
230.207	29842.49
230.671	29436.42
231.134	48864.77
231.597	56479.44
232.061	56645.87
232.524	55448.41
232.987	38330.96
233.45	34597.81
233.914	31165.38
234.377	32030.23
234.84	29372.86
235.303	34751.26
235.766	38903.06
236.229	40335.46
236.691	25506.26
237.154	28773.04
237.617	21681.54
238.08	22248.32
238.542	26172.05
239.005	18730.03
239.468	18647.9
239.93	17620.92
240.393	16052.22
240.855	14112.38
241.317	14484.71
241.78	17667.57
242.242	18287.37
242.704	19772.52
243.166	17243.25
243.629	15662.49
244.091	18087.5
244.553	19837.5
245.015	21330.96
245.477	27641.01
245.939	40612.77
246.4	43164.48
246.862	41967.18
247.324	39636.58
247.786	44408.62
248.247	58264.8
248.709	60239.33
249.17	45094.22
249.632	42524.26
250.093	49374.17
250.555	42644.97
251.016	26018.33
251.477	24688.68
251.939	26666.14
252.4	27985.51
252.861	33351.61
253.322	31054.87
253.783	37024.97
254.244	48037.99
254.705	37941.67
255.166	33808.67
255.627	33371.13
256.088	47110.51
256.549	50149.77
257.009	43259.69
257.47	52545.32
257.931	42839.33
258.391	32144.65
258.852	33140.29
259.312	34809.42
259.773	42964.6
260.233	36304.41
260.694	30622.23
261.154	34762.63
261.614	27890.43
262.074	24940.24
262.534	25934.78
262.994	24439.08
263.455	32598.93
263.915	27483.33
264.374	25894.07
264.834	28305.11
265.294	31397.97
265.754	32509.76
266.214	30799.85
266.673	28882.53
267.133	36493.15
267.593	36222.05
268.052	44318.65
268.512	38552.52
268.971	46459.35
269.431	50956.31
269.89	45675.19
270.349	68386.21
270.809	76296.08
271.268	68568.68
271.727	153831.76
272.186	99680.3
272.645	74741.8
273.104	53983.24
273.563	78091.94
274.022	61475.28
274.481	52323.73
274.94	40325.18
275.399	30035.94
275.857	35004.97
276.316	47378.7
276.775	42186.73
277.233	41550.75
277.692	38910.3
278.15	44024.61
278.609	45293.73
279.067	41929.63
279.525	38925.16
279.984	50297.68
280.442	60416.11
280.9	59533.1
281.358	39221
281.816	36569.17
282.274	35817.52
282.732	37088.1
283.19	37288.28
283.648	32261.91
284.106	34431.45
284.564	35068.53
285.021	32552.84
285.479	24292.77
285.937	22148.69
286.394	19430.7
286.852	20008.18
287.309	21047.12
287.767	20332.59
288.224	19360.63
288.682	21269.35
289.139	23366.19
289.596	21392.2
290.053	22251.47
290.511	28127.27
290.968	34112.85
291.425	46366.78
291.882	38622.68
292.339	33659.26
292.796	33456.77
293.252	31582.28
293.709	25089.48
294.166	22511.16
294.623	24926.63
295.079	23962.63
295.536	24100.58
295.992	21920.57
296.449	21693.81
296.905	22581.75
297.362	21680.04
297.818	22836.7
298.274	23730.31
298.731	24244.52
299.187	24032.37
299.643	25835.94
300.099	31284.89
300.555	34350.01
301.011	28755.67
301.467	27736.28
301.923	32538.3
302.379	31837.64
302.835	31271.2
303.291	31303.16
303.746	35661.88
304.202	45042.19
304.658	45299.82
305.113	30477.04
305.569	29893.13
306.024	31888.53
306.479	30432.77
306.935	25653.92
307.39	28055.06
307.845	25953.8
308.301	26141.84
308.756	25490.37
309.211	24610.16
309.666	25229.96
310.121	31362
310.576	31889.1
311.031	31665.29
311.486	36301.14
311.94	36347.2
312.395	48613.79
312.85	91414.45
313.305	450141.93
313.759	2331059.24
314.214	168908.08
314.668	133962.92
315.123	112566.94
315.577	40358.66
316.032	35932.31
316.486	45053.77
316.94	35495.59
317.394	24709.19
317.849	19220.19
318.303	18205.16
318.757	17188.13
319.211	19020.4
319.665	16663.75
320.119	16883
320.572	24232.48
321.026	22621.59
321.48	18836.31
321.934	20593.38
322.387	20659.36
322.841	22312.35
323.295	20032.3
323.748	23096.43
324.202	23454.3
324.655	28152.56
325.108	39340.53
325.562	27846.84
326.015	33161.28
326.468	25043.02
326.921	28013.67
327.374	26139.88
327.827	27234.86
328.28	30834.04
328.733	20644.44
329.186	18148.59
329.639	17310.63
330.092	14602.28
330.545	13904.14
330.997	14012.71
331.45	15330.12
331.903	17947.48
332.355	30886.01
332.808	30070.32
333.26	24855.03
333.713	27024.43
334.165	27259.68
334.617	36437.1
335.069	29479.03
335.522	53291.75
335.974	59070.6
336.426	54009.88
336.878	37475.02
337.33	19022.83
337.782	18579.89
338.234	23268.87
338.686	27888.92
339.137	33007.31
339.589	31111.13
340.041	24394.81
340.493	20980.02
340.944	21494.42
341.396	23164.72
341.847	19478.67
342.299	22937.05
342.75	27946.16
343.201	24469.07
343.653	28141.39
344.104	34651.28
344.555	27252.13
345.006	42479.03
345.457	32433.69
345.908	25807.31
346.359	24287.34
346.81	19800.91
347.261	20919.77
347.712	20652.28
348.163	22143.3
348.613	22379.08
349.064	20890.19
349.515	18301.11
349.965	18747.16
350.416	22666.83
350.866	24866.12
351.317	28144.47
351.767	46638.34
352.217	58943.49
352.668	48895.47
353.118	44842.57
353.568	43346.87
354.018	34292.12
354.468	36202.1
354.918	26023.6
355.368	22765.7
355.818	32158.61
356.268	92600.59
356.718	387387.99
357.168	96395.41
357.617	48433.66
358.067	53890.12
358.517	50529.3
358.966	59211.19
359.416	66359.55
359.865	71744.48
360.315	85449.6
360.764	40025.95
361.213	22454.15
361.663	21330.2
362.112	26392.45
362.561	42667.86
363.01	32201.7
363.459	27159.59
363.908	29459.58
364.357	25057.25
364.806	42419.93
365.255	29279
365.703	26807.7
366.152	26890.68
366.601	21798.35
367.05	17727.94
367.498	16134.95
367.947	16920.64
368.395	17642.59
368.844	15644.69
369.292	18918.49
369.74	13077.93
370.189	20043.16
370.637	23580.55
371.085	20366.16
371.533	24877.73
371.981	24049.66
372.429	22988.44
372.877	23996.29
373.325	20096.42
373.773	20561.68
374.221	18390.59
374.669	22885.39
375.116	19849.85
375.564	20055.07
376.012	22509.69
376.459	18619.64
376.907	22327.11
377.354	27086.14
377.801	25289.73
378.249	29160.12
378.696	37399.64
379.143	45362.95
379.591	48538.3
380.038	82332.98
380.485	59667.64
380.932	64600.91
381.379	59111.41
381.826	43569.43
382.273	31070.15
382.72	27258.97
383.166	26669.21
383.613	17341.1
384.06	15667.15
384.506	18161.37
384.953	13373.18
385.4	13507.64
385.846	11873.18
386.292	11641.63
386.739	11438
387.185	11348.56
387.631	11390
388.078	11036.49
388.524	11816.81
388.97	10932.75
389.416	9140.32
389.862	9731.22
390.308	9228.9
390.754	9383.95
391.2	10188.01
391.645	10436.29
392.091	9967.19
392.537	9635.2
392.983	9688.51
393.428	9526.25
393.874	10219.79
394.319	10249.37
394.765	9714.55
395.21	10008.61
395.655	9384.58
396.101	8788.21
396.546	7932.26
396.991	8025.5
397.436	7463.72
397.881	7209.13
398.326	6857.26
398.771	6491.24
399.216	5692.32
399.661	5137.93
400.106	5122.83
400.551	5251.27
400.995	4721.15
401.44	4678.06
401.885	4400.05
402.329	4454.54
402.774	4282.81
403.218	4136.34
403.663	3994.29
404.107	4113.87
404.551	4147.91
404.995	3813.74
405.44	3687.11
405.884	3752.71
406.328	3645.5
406.772	3644.34
407.216	3329.33
407.66	3227.64
408.104	3080.62
408.547	2889.91
408.991	2803.69
409.435	2703.2
409.879	2670.06
410.322	2640.21
410.766	2554.37
411.209	2432.13
411.653	2339.35
412.096	2292.38
412.54	2297.9
412.983	2284.43
413.426	2296.9
413.869	2297.84
414.312	2261.86
414.756	2182.32
415.199	2084.11
415.642	2025.93
416.085	2029.68
416.527	2017.39
416.97	2050.4
417.413	1948.03
417.856	1934.58
418.298	1918.45
418.741	1911.69
419.184	1910.97
419.626	1995.94
420.069	2000.99
420.511	2013.74
420.953	1971.54
421.396	1956.78
421.838	1909.89
422.28	1954.25
422.722	1965.04
423.164	1997.08
423.606	1963.06
424.048	1964.8
424.49	1870.04
424.932	1862.12
425.374	1842.01
425.816	1877.13
426.258	1916.91
426.699	1945.1
427.141	1919.24
427.582	1954.46
428.024	1946.99
428.465	1939.34
428.907	1891.17
429.348	1867.45
429.789	1866.57
430.231	1826.49
430.672	1854.41
431.113	1808.93
431.554	1783.18
431.995	1740.08
432.436	1672.67
432.877	1633.64
433.318	1602.41
433.759	1595.38
434.2	1597.35
434.64	1581.38
435.081	1584.83
435.522	1502.67
435.962	1451
436.403	1414.83
436.843	1436.28
437.284	1407.98
437.724	1369.76
438.164	1375.84
438.604	1347.7
439.045	1293.34
439.485	1236.77
439.925	1210.73
440.365	1179.34
440.805	1161.45
441.245	1146.19
441.685	1101.96
442.125	1093.51
442.564	1101.59
443.004	1076.8
443.444	1070.48
443.883	1070.75
444.323	1063.69
444.762	1066.95
445.202	1077.99
445.641	1094.34
446.081	1087.68
446.52	1093.44
446.959	1078.31
447.398	1046.1
447.837	1027.68
448.276	1006.7
448.716	1014.47
449.154	1021.5
449.593	990.97
450.032	985.47
450.471	964.56
450.91	962.81
451.349	957.15
451.787	954.23
452.226	968.23
452.664	967.05
453.103	968.33
453.541	964.51
453.98	960.21
454.418	965.96
454.856	949.15
455.295	946.79
455.733	953.48
456.171	958.93
456.609	957.67
457.047	956.59
457.485	968.95
457.923	968.34
458.361	954.67
458.798	958.2
459.236	956.8
459.674	964.66
460.111	970.3
460.549	960.28
460.987	957.82
461.424	954.68
461.862	949.66
462.299	936.14
462.736	935.69
463.173	940.4
463.611	929.01
464.048	925.68
464.485	932.71
464.922	924.05
465.359	919.53
465.796	902.94
466.233	895.61
466.67	885.32
467.106	881.76
467.543	874.21
467.98	862.71
468.416	841.05
468.853	835.54
469.29	810.58
469.726	800.76
470.162	779.52
470.599	771.96
471.035	765.04
471.471	747.42
471.907	743.21
472.344	737.51
472.78	738.13
473.216	746.81
473.652	736.46
474.088	734
474.523	730.73
474.959	736.78
475.395	729.45
475.831	722.74
476.266	726.06
476.702	723.04
477.138	713.77
477.573	710.13
478.008	705.47
478.444	707.08
478.879	711.01
479.314	713.03
479.75	710.74
480.185	712.88
480.62	719.12
481.055	720.7
481.49	724.61
481.925	734.12
482.36	745.59
482.795	766.41
483.229	786.52
483.664	802.91
484.099	805.38
484.534	816.64
484.968	822.85
485.403	823.69
485.837	822.15
486.271	819.45
486.706	818.96
487.14	807.58
487.574	792.41
488.009	783.52
488.443	774.3
488.877	778.92
489.311	779.38
489.745	785.24
490.179	789.69
490.613	801.09
491.046	803.45
491.48	805.6
491.914	802.79
492.348	804.5
492.781	804.16
493.215	800.79
493.648	798.23
494.082	799.38
494.515	795.69
494.948	799.6
495.382	799.1
495.815	799.24
496.248	799.2
496.681	806.89
497.114	812.84
497.547	817.27
497.98	824.67
498.413	823.28
498.846	825.64
499.279	826.26
499.711	821.37
500.144	815.16
500.577	816.8
501.009	818.74
501.442	819.18
501.874	810.86
502.306	803.74
502.739	801.52
503.171	806.02
503.603	799.04
504.036	797.28
504.468	792.46
504.9	792.33
505.332	787.92
505.764	780.91
506.196	776.47
506.627	778.07
507.059	777.86
507.491	773.22
507.923	760.24
508.354	760.38
508.786	757.61
509.217	759.82
509.649	759.83
510.08	762.76
510.512	764.25
510.943	764.24
511.374	761.18
511.805	764.74
512.237	767.14
512.668	777.61
513.099	784.98
513.53	791.71
513.961	795.06
514.391	804.89
514.822	815.11
515.253	826.93
515.684	832.34
516.114	840.25
516.545	843.38
516.975	848.57
517.406	850.17
517.836	843.31
518.267	838.85
518.697	840.79
519.127	835.28
519.558	832.37
519.988	827.09
520.418	826.16
520.848	829.56
521.278	827.46
521.708	848.25
522.138	851.39
522.567	862.12
522.997	871.57
523.427	875.27
523.857	880.62
524.286	881.92
524.716	886.5
525.145	894.1
525.575	898.11
526.004	903.86
526.433	881.41
526.863	878.92
527.292	873.11
527.721	874.83
528.15	877.06
528.579	875.38
529.008	880.22
529.437	891.28
529.866	896.79
530.295	903.73
530.724	908.89
531.152	922.41
531.581	927.75
532.01	936.36
532.438	938.87
532.867	944.99
533.295	955.08
533.723	957.29
534.152	955.97
534.58	955.36
535.008	946.84
535.436	948.63
535.865	951.84
536.293	959.39
536.721	966.51
537.149	979.62
537.576	981.47
538.004	987.2
538.432	991.31
538.86	989.9
539.287	993.11
539.715	1000.26
540.143	1000.55
540.57	997.89
540.998	995.9
541.425	986.47
541.852	975.84
542.28	974.77
542.707	966.68
543.134	958.31
543.561	955.92
543.988	952.59
544.415	950.87
544.842	947.6
545.269	944.84
545.696	945.95
546.123	949.92
546.549	943.84
546.976	936.41
547.403	936.03
547.829	937.42
548.256	938.36
548.682	935.34
549.108	932.04
549.535	931.44
549.961	931.18
550.387	923.1
550.813	920.98
551.24	924.17
551.666	925
552.092	919.33
552.518	915.18
552.943	911.72
553.369	914.68
553.795	917.77
554.221	918.23
554.646	916.25
555.072	922.34
555.498	923.5
555.923	926.82
556.349	933.49
556.774	937.19
557.199	937.79
557.625	939.47
558.05	937.25
558.475	940.52
558.9	939.11
559.325	935
559.75	930.82
560.175	927.15
560.6	923.81
561.025	922.05
561.449	922.67
561.874	925.05
562.299	927.7
562.723	929.75
563.148	925.57
563.572	926.78
563.997	930.56
564.421	932.43
564.846	932.28
565.27	933.93
565.694	932.4
566.118	937.24
566.542	941.3
566.966	937.45
567.39	935.75
567.814	930.97
568.238	931.16
568.662	934.09
569.086	936.3
569.509	940
569.933	933.84
570.357	931.36
570.78	922.43
571.204	917.44
571.627	913.08
572.05	913.18
572.474	913.77
572.897	908.56
573.32	907.02
573.743	903
574.166	895.45
574.589	895.7
575.012	892.57
575.435	893.03
575.858	888.61
576.281	884.74
576.704	877.52
577.126	871.17
577.549	867.48
577.972	862.73
578.394	858.62
578.817	857.04
579.239	848.32
579.661	842.59
580.084	836.67
580.506	831.37
580.928	829.94
581.35	826.13
581.772	825.75
582.194	819.6
582.616	813.67
583.038	807.44
583.46	802.72
583.882	803.2
584.303	806.29
584.725	803.4
585.147	806.84
585.568	814.95
585.99	822.65
586.411	827.62
586.833	836.81
587.254	838.66
587.675	846.61
588.096	853.52
588.518	851.89
588.939	844.15
589.36	844.44
589.781	837.88
590.202	823.61
590.623	819.07
591.043	817.67
591.464	811.78
591.885	811.55
592.305	809.34
592.726	802.85
593.147	803.68
593.567	801.54
593.987	798.52
594.408	796.38
594.828	794.57
595.248	792.14
595.669	783.88
596.089	779.59
596.509	776.18
596.929	768.74
597.349	770.05
597.769	765.59
598.189	763.16
598.608	764.22
599.028	765.37
599.448	765.05
599.867	758.25
600.287	756.48
600.706	755.29
601.126	750.08
601.545	751.58
601.965	750.99
602.384	748.14
602.803	749.51
603.222	747.89
603.641	744.74
604.061	744.73
604.48	743.84
604.898	749.45
605.317	753.32
605.736	756.69
606.155	756.66
606.574	753.4
606.992	758.49
607.411	758.42
607.829	755.4
608.248	756.64
608.666	757.25
609.085	759.82
609.503	756.91
609.921	756.12
610.339	758.85
610.758	759.64
611.176	759.33
611.594	757.04
612.012	757.27
612.43	762.18
612.847	768.23
613.265	771.85
613.683	776.41
614.101	779.81
614.518	780.47
614.936	777.78
615.353	772.95
615.771	773.78
616.188	775.69
616.606	776.39
617.023	774.69
617.44	768.51
617.857	765.91
618.274	762.87
618.691	761.09
619.108	757.04
619.525	755.58
619.942	761.74
620.359	764.85
620.776	763.6
621.192	762.89
621.609	762.93
622.026	768.68
622.442	773.62
622.859	776.64
623.275	773.26
623.691	777.33
624.108	784.9
624.524	794.53
624.94	795.31
625.356	802.49
625.772	810.62
626.188	818.61
626.604	819.52
627.02	817.4
627.436	816.46
627.852	822.28
628.268	830.95
628.683	825.88
629.099	820.41
629.514	818.06
629.93	821.11
630.345	824.49
630.761	822.03
631.176	824.6
631.591	822.54
632.007	820.2
632.422	819.16
632.837	813.28
633.252	813.87
633.667	808.99
634.082	805.52
634.497	798.61
634.911	789.01
635.326	788.06
635.741	781.13
636.155	777.22
636.57	781.77
636.984	784.61
637.399	788.58
637.813	791.05
638.228	794.83
638.642	802.71
639.056	801.2
639.47	807.04
639.884	809.37
640.298	811
640.712	816.98
641.126	814.15
641.54	815.36
641.954	817.73
642.368	817.1
642.781	818.57
643.195	812.28
643.609	819.89
644.022	823.06
644.436	826.02
644.849	823.55
645.262	821.64
645.676	830.53
646.089	834.26
646.502	830.8
646.915	832.65
647.328	825.24
647.741	829.7
648.154	825.1
648.567	828.34
648.98	822.79
649.393	827.65
649.805	829.43
650.218	826.5
650.631	816.83
651.043	815.9
651.456	815.52
651.868	819.74
652.28	838.05
652.693	853.16
653.105	861.24
653.517	873.04
653.929	877.31
654.341	885.59
654.753	881.3
655.165	891.24
655.577	893.82
655.989	894.36
656.401	892.96
656.813	867.56
657.224	855.25
657.636	836.36
658.047	827.68
658.459	817.1
658.87	815.54
659.282	811.46
659.693	800.41
660.104	793.77
660.515	789.09
660.926	795.55
661.338	799.87
661.749	802.52
662.159	801.58
662.57	804.85
662.981	808.07
663.392	809.25
663.803	820.86
664.213	826.3
664.624	830.88
665.035	841.36
665.445	834.91
665.855	833.79
666.266	832.43
666.676	836.31
667.086	832.92
667.497	839.49
667.907	838.07
668.317	833.38
668.727	833.1
669.137	838.3
669.547	839.31
669.956	845.71
670.366	851.32
670.776	855.25
671.186	862.46
671.595	868.93
672.005	874.89
672.414	876.27
672.824	876.44
673.233	884.19
673.642	887.35
674.052	891.08
674.461	894.2
674.87	900.7
675.279	898.75
675.688	902.06
676.097	903.41
676.506	898.85
676.915	914.31
677.323	916.59
677.732	913.78
678.141	911.46
678.549	899.36
678.958	896.57
679.366	894.37
679.775	897.36
680.183	904.82
680.592	907.54
681	910.01
681.408	898.64
681.816	901.97
682.224	905.6
682.632	908.41
683.04	932.1
683.448	948.6
683.856	968.32
684.264	991.54
684.671	1009.57
685.079	1033.27
685.487	1057.33
685.894	1094.25
686.302	1117.23
686.709	1130.09
687.116	1147.75
687.524	1152.17
687.931	1150.38
688.338	1141.87
688.745	1128.83
689.152	1118.04
689.559	1115.11
689.966	1111
690.373	1091.11
690.78	1086.3
691.187	1094.71
691.593	1093.56
692	1089.55
692.407	1097.74
692.813	1117.82
693.22	1127.54
693.626	1139.08
694.032	1143.78
694.439	1166.58
694.845	1181.68
695.251	1204.74
695.657	1225.49
696.063	1264.92
696.469	1292.5
696.875	1320.44
697.281	1331.9
697.687	1351.28
698.093	1369.16
698.498	1409.97
698.904	1439.92
699.31	1489.46
699.715	1528.86
700.12	1584.6
700.526	1603.86
700.931	1650.56
701.337	1690.44
701.742	1721.59
702.147	1782.16
702.552	1814.13
702.957	1863.43
703.362	1892.45
703.767	1925.89
704.172	1966.78
704.577	1957.81
704.981	2004.44
705.386	2035.36
705.791	2052.05
706.195	2119.92
706.6	2148.97
707.004	2220.72
707.408	2225.19
707.813	2267.77
708.217	2285.86
708.621	2313.16
709.025	2404.66
709.43	2431.91
709.834	2500.19
710.237	2574.69
710.641	2592.71
711.045	2635.26
711.449	2662.05
711.853	2710.77
712.256	2769.25
712.66	2825.24
713.064	2907.29
713.467	2968.66
713.87	3083.49
714.274	3148.57
714.677	3266.88
715.08	3426.8
715.484	3594.79
715.887	3790.85
716.29	3987.45
716.693	4194.24
717.096	4433.44
717.499	4587.74
717.901	4647.84
718.304	4715.48
718.707	4781.72
719.109	4733.16
719.512	4744.58
719.915	4667.85
720.317	4657.68
720.719	4736.77
721.122	4751.26
721.524	4744.06
721.926	4744.77
722.328	4878.95
722.731	4905.83
723.133	4968.47
723.535	5186.68
723.937	5246.28
724.338	5332.02
724.74	5409.09
725.142	5381.59
725.544	5413.98
725.945	5473.17
726.347	5502.79
726.748	5527.42
727.15	5576.83
727.551	5571.26
727.952	5576.83
728.354	5576.89
728.755	5609.84
729.156	5593.86
729.557	5614.68
729.958	5516.55
730.359	5487.48
730.76	5493.57
731.161	5455.69
731.562	5450.65
731.962	5478.08
732.363	5430.67
732.763	5384.73
733.164	5441.43
733.564	5391.55
733.965	5310.05
734.365	5291.31
734.766	5337.75
735.166	5313.91
735.566	5270.65
735.966	5260.72
736.366	5270.35
736.766	5218.37
737.166	5266.05
737.566	5237.77
737.966	5223.26
738.365	5278.25
738.765	5286.13
739.165	5216.09
739.564	5197.73
739.964	5260.39
740.363	5219.37
740.763	5227.97
741.162	5225.66
741.561	5200.72
741.96	5157.06
742.36	5189.7
742.759	5205.78
743.158	5259.29
743.557	5285.74
743.955	5341.06
744.354	5297.77
744.753	5371.06
745.152	5331.75
745.55	5404.16
745.949	5405.32
746.348	5414.8
746.746	5441.18
747.144	5400.03
747.543	5380.75
747.941	5443.55
748.339	5368.2
748.737	5365.01
749.136	5361.15
749.534	5439.22
749.932	5409.68
750.33	5440.21
750.727	5508.11
751.125	5483.31
751.523	5470.4
751.921	5520.53
752.318	5486.26
752.716	5557.54
753.113	5575.49
753.511	5606.4
753.908	5609.97
754.305	5592.22
754.703	5666.09
755.1	5739.48
755.497	5812.58
755.894	6037.71
756.291	6251.66
756.688	6634.89
757.085	7151.5
757.482	7874.96
757.878	8659.91
758.275	9376.63
758.672	10358.44
759.068	11164.7
759.465	12310.82
759.861	13782.42
760.258	15489.59
760.654	16369.5
761.05	16238.25
761.447	15493.52
761.843	14426.79
762.239	13328.9
762.635	12831.16
763.031	12361.68
763.427	11670.41
763.822	10945.48
764.218	10230.39
764.614	9299.25
765.01	8676.82
765.405	8280.02
765.801	7975.52
766.196	7588.83
766.592	7371.15
766.987	7002.48
767.382	6750.97
767.778	6646.55
768.173	6491.63
768.568	6408.78
768.963	6263.6
769.358	6285.85
769.753	6229.87
770.148	6132.46
770.542	6129.16
770.937	6095.33
771.332	6203.72
771.726	6228.43
772.121	6153.8
772.515	6220.29
772.91	6205.39
773.304	6289.9
773.699	6213.7
774.093	6276.12
774.487	6341.19
774.881	6394.22
775.275	6390
775.669	6341.56
776.063	6392.45
776.457	6435.24
776.851	6348.93
777.245	6339.45
777.638	6379.33
778.032	6514.1
778.425	6472.72
778.819	6523.52
779.212	6469.28
779.606	6419.62
779.999	6441.13
780.392	6423.04
780.786	6523.4
781.179	6547.24
781.572	6596.58
781.965	6609.01
782.358	6541.33
782.751	6607.28
783.143	6549.05
783.536	6638.12
783.929	6691.05
784.322	6825.19
784.714	6857.81
785.107	6851.36
785.499	6934.44
785.891	6906.1
786.284	6882.95
786.676	7049.46
787.068	7026.58
787.46	7091.11
787.852	7111.64
788.245	7212.28
788.636	7247.47
789.028	7328.34
789.42	7371.24
789.812	7380.71
790.204	7496.98
790.595	7614.81
790.987	7385.69
791.378	7413.27
791.77	7566.04
792.161	7730.19
792.553	7798.27
792.944	7668.66
793.335	7590.53
793.726	7677.23
794.117	7781.55
794.508	7940.63
794.899	7907.33
795.29	8073.48
795.681	8140.47
796.072	7969.53
796.463	7743.26
796.853	7749.49
797.244	7935.56
797.634	7977.03
798.025	7973.82
798.415	7991.21
798.806	8094.88
799.196	8197.25
799.586	8256.35
799.976	8211.24
800.366	8481.11
800.756	8775.57
801.146	8733.31
801.536	8765.8
801.926	8851.13
802.316	8888.11
802.706	8969.66
803.095	8825.42
803.485	8942.33
803.874	8988.31
804.264	9294.39
804.653	9266.93
805.043	9433
805.432	9555.1
805.821	9557.27
806.21	9581.05
806.599	9723.18
806.988	9779.32
807.377	9903.58
807.766	10057.37
808.155	10388.47
808.544	10079.5
808.933	10096.36
809.321	10069.34
809.71	10418.7
810.098	10597.92
810.487	11138.56
810.875	11693.09
811.264	11714.08
811.652	12047.03
812.04	12212.33
812.428	12403.67
812.816	13297.09
813.204	13779.39
813.592	14422.83
813.98	14813.09
814.368	14707.93
814.756	15261.61
815.144	15162.88
815.531	15702.22
815.919	15626.23
816.306	15978.19
816.694	15616.55
817.081	15677.52
817.469	16074.92
817.856	16073.53
818.243	16387.76
818.63	16846.48
819.017	16364.12
819.404	16439.79
819.791	16885.09
820.178	17595.7
820.565	17890.75
820.952	18968.02
821.339	18383.05
821.725	18610.28
822.112	17741.61
822.498	17696.94
822.885	17852.01
823.271	17741.23
823.657	18226.8
824.044	18232.24
824.43	18317.33
824.816	18270.6
825.202	17773.19
825.588	18969.74
825.974	18985.07
826.36	19593.05
826.746	19633.19
827.132	20046.34
827.517	20017.5
827.903	19109.24
828.289	19162.85
828.674	18262.92
829.06	18157.57
829.445	18619.3
829.83	19035.93
830.216	19587.11
830.601	20012.71
830.986	19526.79
831.371	19368.14
831.756	20013.14
832.141	19509.41
832.526	19507.29
832.911	19840.21
833.295	19707.41
833.68	20259.18
834.065	19541.01
834.449	18485.53
834.834	18400.08
835.218	18410.61
835.603	18815.16
835.987	18568.33
836.371	19551.88
836.755	19428.26
837.139	19904.77
837.524	20191.8
837.908	19989.77
838.291	20059.03
838.675	20140.87
839.059	20382.42
839.443	20368.23
839.827	20099.33
840.21	20680.13
840.594	20511.34
840.977	20760.44
841.361	20728.95
841.744	21172.17
842.127	20993.47
842.511	21281.79
842.894	21990.66
843.277	22445
843.66	23086.56
844.043	23190.38
844.426	22239.11
844.809	21867.07
845.191	21911.27
845.574	21378.2
845.957	20952.21
846.339	20825.74
846.722	20211.35
847.104	20290.1
847.487	20094.6
847.869	20106.42
848.252	20425.64
848.634	20820.03
849.016	21134.25
849.398	21272.63
849.78	22266.65
850.162	22262.75
850.544	22750.9
850.926	23487.53
851.307	23382.6
851.689	23701.85
852.071	24235.67
852.452	24614.84
852.834	24572.87
853.215	25031.7
853.597	25209.93
853.978	25562.43
854.359	26098.56
854.741	24931.16
855.122	24812.75
855.503	24470.81
855.884	24634.48
856.265	24556.18
856.646	24698.51
857.026	24247.21
857.407	24171.77
857.788	24351.45
858.169	24680.54
858.549	23681.57
858.93	24413.25
859.31	24473.2
859.69	24715.52
860.071	24238.09
860.451	23991.9
860.831	23116.46
861.211	24477.56
861.591	25131.42
861.971	25111.14
862.351	25344.55
862.731	25801.58
863.111	26114.35
863.491	26503.91
863.87	27540.69
864.25	27959.22
864.629	27484.43
865.009	28094.87
865.388	29085.03
865.768	31161.49
866.147	31043.21
866.526	29325.64
866.905	29680.98
867.284	31349.26
867.663	29768.07
868.042	28533.81
868.421	28449.17
868.8	28917.57
869.179	29196.46
869.558	27498.91
869.936	25335.5
870.315	25781.08
870.693	26399.63
871.072	28475.38
871.45	27130.69
871.828	27471.27
872.207	28873.29
872.585	28426.22
872.963	29211.42
873.341	28214.37
873.719	27883.03
874.097	27573.5
874.475	28112.22
874.853	28762.74
875.23	27563.39
875.608	28708.4
875.986	31061.02
876.363	29706.32
876.741	30611
877.118	29837.78
877.495	31313.64
877.873	31838.93
878.25	33507.45
878.627	32141.76
879.004	32600.65
879.381	32447.55
879.758	31587.08
880.135	29412.12
880.512	31096.79
880.889	30265.83
881.265	29957.39
881.642	29705.5
882.019	30200.65
882.395	29574.91
882.772	30740.38
883.148	29392.35
883.524	29276.96
883.901	29125.9
884.277	29569.7
884.653	29383.04
885.029	30227.82
885.405	33461.49
885.781	33192.6
886.157	31831.7
886.532	32214.62
886.908	32190.12
887.284	35794.77
887.659	36958
888.035	38083.19
888.411	39064.49
888.786	39585.78
889.161	40952.88
889.537	40207.89
889.912	41501.43
890.287	41454.15
890.662	42534.02
891.037	41787.57
891.412	38983.49
891.787	38592.66
892.162	37252.36
892.536	38101.23
892.911	36676.35
893.286	35917.48
893.66	34457.59
894.035	35334.13
894.409	38481.3
894.784	36929.32
895.158	37528.6
895.532	39726.9
895.906	40807.01
896.281	41771.11
896.655	41119.5
897.029	46981.94
897.402	48931.36
897.776	54505.75
898.15	54315.55
898.524	53732.63
898.898	54448.53
899.271	60957.04
899.645	52819.12
900.018	50751.47
900.392	52626.72
900.765	53059.6
901.138	49105.74
901.511	48356.42
901.884	44381.98
902.258	40947.79
902.631	42316.84
903.003	48692.14
903.376	43950.72
903.749	49282.74
904.122	52742.82
904.495	58092.95
904.867	58827.2
905.24	51077.33
905.612	47554.98
905.985	48630.78
906.357	50835.56
906.729	48526.28
907.102	41448.4
907.474	39835.26
907.846	40082.05
908.218	39553.45
908.59	34933.68
908.962	33792.01
909.334	36377.67
909.705	38197.97
910.077	37088.93
910.449	38614.41
910.82	39691.96
911.192	43679.58
911.563	45411.12
911.935	48595.27
912.306	48666.3
912.677	50257.05
913.048	49748.96
913.419	53979.57
913.79	54322.08
914.161	58286.23
914.532	55677.92
914.903	51165.33
915.274	48593.32
915.645	47865.74
916.015	42117.01
916.386	40140.28
916.756	42717.95
917.127	44042.84
917.497	39324.94
917.868	42769.69
918.238	40616.66
918.608	41798.38
918.978	42643.62
919.348	45150.05
919.718	46649.72
920.088	44975.67
920.458	46733.49
920.828	49194.01
921.198	46634.05
921.567	49876.59
921.937	38635.47
922.306	39000.9
922.676	42054.12
923.045	35100.34
923.415	33328.71
923.784	30354.68
924.153	31182.04
924.522	31148.39
924.891	29298.85
925.26	31404.02
925.629	30632.81
925.998	35211.93
926.367	34368.83
926.736	32732.79
927.104	38984.58
927.473	41943.31
927.842	50651.32
928.21	50195.63
928.578	52768.67
928.947	49846.42
929.315	50106.71
929.683	58769.53
930.051	59217.25
930.42	68764.12
930.788	58777.13
931.156	58285.04
931.523	54594.48
931.891	50445.18
932.259	48421.65
932.627	56058.15
932.994	79348.55
933.362	65575.09
933.729	56963.39
934.097	54526.94
934.464	46120.96
934.831	53185.86
935.199	52481.18
935.566	50922.25
935.933	51560.29
936.3	62446.51
936.667	48647.3
937.034	43830.92
937.401	43365.9
937.767	37384.19
938.134	33273.49
938.501	46956.72
938.867	50045.56
939.234	84557.17
939.6	72151.04
939.967	79557
940.333	53228.46
940.699	45375.03
941.065	36469.32
941.431	47836.16
941.798	46137.04
942.163	60608.3
942.529	37805.24
942.895	34850.27
943.261	22542.49
943.627	29540.25
943.992	25877.82
944.358	25940.14
944.723	25989.68
945.089	25317.3
945.454	23375.16
945.82	24977.84
946.185	24010.78
946.55	27862.97
946.915	24990.91
947.28	29323.04
947.645	25824.15
948.01	23808.13
948.375	24837.5
948.74	29795.37
949.104	34769.83
949.469	50247.5
949.834	88730
950.198	84005.21
950.562	50322.92
950.927	41888.48
951.291	50366.75
951.655	42899.6
952.02	40333.23
952.384	30478.96
952.748	26534.69
953.112	25832.35
953.476	22470.54
953.839	20792.5
954.203	20574.13
954.567	25739.04
954.931	40534.99
955.294	34658.32
955.658	34861.13
956.021	59250.32
956.385	100479.27
956.748	148291.03
957.111	230232.38
957.474	258408.08
957.837	290816.12
958.2	220202.38
958.563	79199.59
958.926	53531.18
959.289	81357.34
959.652	90857.32
960.015	68150.04
960.377	97744.2
960.74	111396.81
961.102	192173.35
961.465	206169.6
961.827	110354.1
962.189	211718.16
962.552	146699.69
962.914	117668.07
963.276	76306.85
963.638	63095.87
964	62499.9
964.362	42250.25
964.724	40897
965.085	29191.3
965.447	23948.45
965.809	27329.78
966.17	27383.4
966.532	29665.45
966.893	27213.81
967.255	24735.72
967.616	29198.3
967.977	23376.25
968.338	25539.58
968.699	20953.64
969.061	20946.33
969.421	21067.58
969.782	23618.94
970.143	19923.95
970.504	20609.15
970.865	23409.55
971.225	23936.18
971.586	23429.73
971.946	33402.09
972.307	29006.43
972.667	37966.33
973.027	39095.84
973.388	47434.29
973.748	32254.61
974.108	35213.77
974.468	47662.28
974.828	36758.07
975.188	28313.94
975.548	25992.86
975.907	21824.87
976.267	24462.2
976.627	20558.05
976.986	21328.12
977.346	20335.14
977.705	19583.82
978.064	17816.03
978.424	14829.99
978.783	15347.73
979.142	17505.61
979.501	16725.37
979.86	17665.26
980.219	17022.95
980.578	21945.56
980.937	24544.06
981.296	21871.22
981.654	22466.26
982.013	34934.38
982.371	45297.04
982.73	42258.07
983.088	47852.42
983.447	51176.77
983.805	73218.37
984.163	152904.74
984.521	169703.74
984.879	248930.54
985.237	-404562.08
985.595	390453.22
985.953	97070.94
986.311	56095.77
986.669	32585.62
987.026	28144.26
987.384	37823.79
987.741	39090.04
988.099	27883.87
988.456	22207.3
988.814	20783.89
989.171	18081.2
989.528	17855.37
989.885	18836.84
990.242	14914.32
990.599	18565.56
990.956	15167.05
991.313	10609.6
991.67	8699.99
992.027	9224.91
992.383	8200.84
992.74	7180.16
993.096	7518.33
993.453	7777.9
993.809	8069.49
994.165	10740.77
994.522	9820.25
994.878	10832.18
995.234	13605.94
995.59	13425.88
995.946	12736.79
996.302	14514.23
996.658	16819.26
997.013	18536.36
997.369	22003.74
997.725	28121.34
998.08	18237.57
998.436	28174.91
998.791	38869.6
999.147	38779.34
999.502	42282.95
999.857	30754.61
1000.212	50190.44
1000.567	71293.77
1000.922	41240.04
1001.277	26246.04
1001.632	19470
1001.987	25046.67
1002.342	17984.43
1002.696	14377.97
1003.051	11486.36
1003.406	13906.28
1003.76	13828.48
1004.114	13637.54
1004.469	11485.66
1004.823	9488.53
1005.177	10231.42
1005.531	8117.13
1005.885	7194.22
1006.239	8121.29
1006.593	10185.68
1006.947	13608.51
1007.301	10231.6
1007.655	11166.93
1008.008	8183.94
1008.362	9196.06
1008.715	13152.06
1009.069	11925.92
1009.422	17916.73
1009.776	35950.39
1010.129	23798.97
1010.482	19904.06
1010.835	16849.93
1011.188	35052.93
1011.541	33012.17
1011.894	-202201.6
1012.247	596371.39
1012.6	40498.23
1012.952	25506.66
1013.305	13195.62
1013.657	9491.34
1014.01	8993.76
1014.362	7415.48
1014.715	6555.1
1015.067	5709.1
1015.419	5583.77
1015.771	4943.5
1016.123	4384.52
1016.475	4496.45
1016.827	4789.6
1017.179	5134.14
1017.531	5201.14
1017.883	5344.68
1018.234	5123.28
1018.586	6487.39
1018.938	6867.61
1019.289	9437.42
1019.64	10789.45
1019.992	10018.16
1020.343	9186.78
1020.694	7269.81
1021.045	6435.58
1021.396	7345.61
1021.747	7834.41
1022.098	9471.76
1022.449	6879.42
1022.8	6392.31
1023.151	4450.83
1023.501	3946.41
1023.852	4314.06
1024.202	4459.83
1024.553	4919.43
1024.903	4776.69
1025.253	4069.91
1025.604	3661.71
1025.954	4546.48
1026.304	5532.58
1026.654	6436.75
1027.004	9436.69
1027.354	15248.12
1027.703	14288.81
1028.053	18866.54
1028.403	27427.79
1028.753	39824.83
1029.102	54260.84
1029.452	278908.06
1029.801	11987.5
1030.15	7741.6
1030.499	6548.05
897.758	2222.99
901.051	2155.04
904.343	2189.34
907.636	2196.83
910.928	2261.96
914.22	2179.54
917.511	2185.07
920.803	2232.51
924.094	2231.96
927.384	2235.2
930.675	2198.95
933.965	2160.7
937.255	2190.87
940.544	2159.18
943.834	2158.97
947.123	2097.04
950.411	2187.34
953.7	2169.31
956.988	2150.48
960.276	2085.89
963.563	2136.35
966.851	2147.15
970.138	2192.07
973.424	2193.32
976.711	2147.59
979.997	2195.06
983.283	2240.27
986.568	2170.44
989.853	2161.28
993.138	2190.07
996.423	2277.75
999.708	2236.06
1002.992	2267.26
1006.275	2177.4
1009.559	2183.98
1012.842	2283.92
1016.125	2237.94
1019.408	2216.24
1022.69	2275.18
1025.972	2311.85
1029.254	2287.4
1032.536	2247.38
1035.817	2256.97
1039.098	2228.31
1042.379	2283.14
1045.659	2312.01
1048.939	2258.2
1052.219	2265.59
1055.498	2260.72
1058.778	2257.19
1062.057	2230.68
1065.335	2255.87
1068.614	2268.55
1071.892	2263.86
1075.17	2316.18
1078.447	2318.93
1081.724	2314.72
1085.001	2341.84
1088.278	2321.39
1091.554	2326.22
1094.83	2320.2
1098.106	2358.89
1101.382	2390.21
1104.657	2389.34
1107.932	2392.59
1111.206	2371.51
1114.481	2323.06
1117.755	2322.53
1121.029	2316.78
1124.302	2377.11
1127.575	2344.07
1130.848	2340.95
1134.121	2308.5
1137.393	2271.12
1140.665	2329.63
1143.937	2306.42
1147.208	2252.66
1150.48	2312.68
1153.75	2302.1
1157.021	2303.26
1160.291	2279.29
1163.561	2333.73
1166.831	2299.75
1170.101	2328.79
1173.37	2286.76
1176.639	2244.35
1179.907	2289.87
1183.176	2314.75
1186.444	2315.25
1189.711	2339.85
1192.979	2363.35
1196.246	2318.56
1199.513	2329.81
1202.78	2336.91
1206.046	2346.3
1209.312	2373.06
1212.578	2392.27
1215.843	2356.3
1219.108	2322.94
1222.373	2348.07
1225.638	2318.14
1228.902	2312.25
1232.166	2264.88
1235.43	2252.34
1238.693	2278.46
1241.956	2269.45
1245.219	2319.88
1248.482	2298.68
1251.744	2297.66
1255.006	2423.21
1258.268	2371.06
1261.529	2327.83
1264.79	2327.59
1268.051	2430.33
1271.312	2440.66
1274.572	2410.31
1277.832	2398.95
1281.092	2378.58
1284.351	2371.38
1287.61	2356.34
1290.869	2288.11
1294.128	2283.12
1297.386	2332.59
1300.644	2325.55
1303.902	2337.44
1307.159	2202.07
1310.416	2254.73
1313.673	2280.62
1316.93	2277.8
1320.186	2309.74
1323.442	2342.99
1326.697	2344.87
1329.953	2318.34
1333.208	2354.22
1336.463	2323.01
1339.717	2281.53
1342.972	2389.31
1346.226	2360.28
1349.479	2308.25
1352.733	2288.23
1355.986	2291.47
1359.238	2272.26
1362.491	2275.74
1365.743	2274.84
1368.995	2265.2
1372.247	2276.37
1375.498	2296.47
1378.749	2338.16
1382	2285.97
1385.251	2322.21
1388.501	2273.23
1391.751	2273.72
1395	2238.04
1398.25	2264.08
1401.499	2283.47
1404.748	2232.17
1407.996	2211.47
1411.244	2198.28
1414.492	2183.69
1417.74	2168.2
1420.987	2173.9
1424.234	2233.98
1427.481	2195.14
1430.728	2253.36
1433.974	2228.92
1437.22	2227.28
1440.465	2223.73
1443.711	2221.64
1446.956	2246.59
1450.201	2218.08
1453.445	2260.77
1456.689	2248.83
1459.933	2258.31
1463.177	2298.29
1466.42	2270.22
1469.663	2252.68
1472.906	2269.21
1476.148	2318.42
1479.391	2292.05
1482.633	2266.34
1485.874	2290.82
1489.115	2296.87
1492.356	2279.26
1495.597	2259.08
1498.838	2254.52
1502.078	2238.47
1505.318	2209.26
1508.557	2241.91
1511.797	2240.18
1515.036	2283.45
1518.274	2257.01
1521.513	2210.54
1524.751	2221.14
1527.989	2249.3
1531.227	2266.61
1534.464	2280.66
1537.701	2274.24
1540.938	2287.27
1544.174	2237.62
1547.41	2226.97
1550.646	2267.01
1553.882	2316.82
1557.117	2376.75
1560.352	2383.29
1563.587	2344.98
1566.821	2312.9
1570.055	2326.87
1573.289	2311.22
1576.523	2369.97
1579.756	2383.47
1582.989	2406.97
1586.222	2368.25
1589.454	2395.8
1592.686	2376.72
1595.918	2408.23
1599.15	2404.65
1602.381	2450.31
1605.612	2433.31
1608.843	2524.67
1612.073	2448.46
1615.303	2436.57
1618.533	2431.2
1621.762	2430.3
1624.992	2408.56
1628.221	2411.42
1631.449	2397.98
1634.678	2427
1637.906	2396.09
1641.134	2424.23
1644.361	2390.89
1647.588	2379.69
1650.815	2402.86
1654.042	2368.93
1657.269	2396.11
1660.495	2375.02
1663.72	2360.34
1666.946	2330.73
1670.171	2302.12
1673.396	2276.84
1676.621	2257.68
1679.845	2254.86
1683.069	2261.47
1686.293	2290.53
1689.517	2280.86
1692.74	2230.71
1695.963	2252.08
1699.185	2291.75
1702.408	2264.74
1705.63	2295.05
1708.852	2311.95
1712.073	2282.79
1715.294	2292.81
1718.515	2335.95
1721.736	2294.6
1724.956	2274.15
1728.176	2296.4
1731.396	2319.17
1734.616	2305.35
1737.835	2340.03
1741.054	2309.66
1744.272	2299.58
1747.491	2340.36
1750.709	2363.85
1753.927	2310.12
1757.144	2337.27
1760.361	2393.27
1763.578	2366.04
1766.795	2315.38
1770.011	2304.29
1773.227	2331.56
1776.443	2373.42
1779.658	2415.58
1782.874	2355.81
1786.089	2348.97
1789.303	2353.35
1792.518	2349.55
1795.732	2335.75
1798.945	2353.71
1802.159	2393.01
1805.372	2334.93
1808.585	2328.38
1811.797	2331.1
1815.01	2353.23
1818.222	2374.08
1821.434	2331.64
1824.645	2376.17
1827.856	2383.71
1831.067	2414.65
1834.278	2354.74
1837.488	2337.64
1840.698	2461.08
1843.908	2401.01
1847.117	2368.17
1850.326	2294.47
1853.535	2354.34
1856.744	2387.93
1859.952	2307.26
1863.16	2311.54
1866.368	2325.09
1869.575	2435.86
1872.782	2318.47
1875.989	2251.51
1879.196	2303.56
1882.402	2292.63
1885.608	2326.01
1888.814	2266.33
1892.019	2175.1
1895.224	2226.16
1898.429	2192.57
1901.634	2176.39
1904.838	2147.26
1908.042	2205.53
1911.246	2217.21
1914.449	2177.37
1917.652	2159.54
1920.855	2141.09
1924.058	2165.5
1927.26	2211.76
1930.462	2233.63
1933.664	2272.3
1936.865	2213.52
1940.066	2233.56
1943.267	2177.5
1946.467	2187.47
1949.668	2205.66
1952.868	2278.69
1956.067	2265.82
1959.267	2207.27
1962.466	2230.38
1965.665	2213.62
1968.863	2203.22
1972.061	2207.85
1975.259	2200.11
1978.457	2275.5
1981.654	2237.89
1984.852	2241.74
1988.048	2191.72
1991.245	2181.76
1994.441	2270.91
1997.637	2230.71
2000.833	2211.4
2004.028	2249.8
2007.223	2312.46
2010.418	2301.62
2013.613	2251.37
2016.807	2243.54
2020.001	2236.07
2023.194	2259.47
2026.388	2243.93
2029.581	2185.82
2032.774	2247.97
2035.966	2261.38
2039.158	2206.2
2042.35	2223.95
2045.542	2149.06
2048.733	2232.34
2051.924	2227.25
2055.115	2245.08
2058.306	2208.79
2061.496	2264.61
2064.686	2316.18
2067.875	2219.84
2071.065	2223.85
2074.254	2241.99
2077.442	2197.3
2080.631	2281.48
2083.819	2211.09
2087.007	2201.91
2090.195	2185.68
2093.382	2203.2
2096.569	2185.61
2099.756	2147.24
2102.942	2195.89
2106.128	2206.88
2109.314	2196.84
2112.5	2181.22
2115.685	2148.57
2118.87	2156.84
2122.055	2218.15
2125.239	2199.87
2128.424	2184.96
2131.608	2246.7
2134.791	2231.4
2137.974	2268.61
2141.157	2259.05
2144.34	2229.44
2147.523	2219.7
2150.705	2245.97
2153.887	2215.15
2157.068	2186.25
2160.25	2168.11
2163.431	2191.65
2166.611	2159.6
2169.792	2181.12
2172.972	2092.78
2176.152	2143.16
2179.331	2170.96
2182.511	2174.83
2185.69	2197.46
2188.868	2201.61
2192.047	2235.24
2195.225	2248.07
2198.403	2198.73
2201.58	2186.32
2204.758	2172.47
2207.935	2249.05
2211.111	2162.99
2214.288	2152.01
2217.464	2184.84
2220.64	2142.61
2223.815	2191.11
2226.991	2125.48
2230.166	2142.33
2233.34	2185.4
2236.515	2201.34
2239.689	2263.98
2242.863	2215.5
2246.036	2269.8
2249.209	2251.4
2252.382	2270.68
2255.555	2278.17
2258.727	2228.47
2261.9	2258.23
2265.071	2249.22
2268.243	2244.48
2271.414	2189.28
2274.585	2174.67
2277.756	2233.21
2280.926	2189.86
2284.096	2221.17
2287.266	2149.94
2290.436	2195.97
2293.605	2215.59
2296.774	2253.49
2299.942	2258.55
2303.111	2273.86
2306.279	2327.45
2309.447	2312.59
2312.614	2283.39
2315.781	2307.46
2318.948	2286.12
2322.115	2323.68
2325.281	2223.26
2328.447	2232.88
2331.613	2201.83
2334.779	2193.74
2337.944	2191.1
2341.109	2193.61
2344.274	2181.3
2347.438	2148.23
2350.602	2170.57
2353.766	2178.73
2356.929	2167.92
2360.092	2207.01
2363.255	2175.49
2366.418	2140.58
2369.58	2209.29
2372.742	2079.43
2375.904	2073.59
2379.066	2058.47
2382.227	2088.01
2385.388	2047.77
2388.548	1996.23
2391.709	2039.25
2394.869	2027.21
2398.029	2083.3
2401.188	2081.17
2404.347	2042.49
2407.506	2125.97
2410.665	2162.91
2413.823	2150.28
2416.981	2125.92
2420.139	2144.42
2423.296	2187.62
2426.453	2159.82
2429.61	2179.82
2432.767	2150.83
2435.923	2191.23
2439.079	2136.81
2442.235	2171.02
2445.391	2112.72
2448.546	2152.71
2451.701	2189.51
2454.855	2184.11
2458.009	2212.51
2461.163	2202.86
2464.317	2175.36
2467.471	2200.56
2470.624	2227.72
2473.777	2218.36
2476.929	2235.69
2480.082	2259.33
2483.234	2234.13
2486.385	2171.81
2489.537	2167.21
2492.688	2154.87
2495.839	2173.34
2498.989	2188.61
2502.14	2175.55
2505.29	2167.53
2508.439	2192.34
2511.589	2131.18
2514.738	2128.9
2517.887	2153.14
2521.035	2229.6
2524.183	2190.48
2527.331	2179.21
2530.479	2170.21
2533.627	2171.91
