Data from C_1_DIV_PA_2N_Splice17_12-01-15-904.txt Node
Date: Sat Mar 14 12:01:15 EDT 2020
User: sa697716
Spectrometer: FLMS03696
Trigger mode: 0
Integration Time (sec): 3.180400E-1
Scans to average: 20
Electric dark correction enabled: true
Nonlinearity correction enabled: true
Boxcar width: 5
XAxis mode: Wavelengths
Number of Pixels in Spectrum: 2048
>>>>>Begin Spectral Data<<<<<
187.83	-304995.66
188.298	2310.33
188.766	1178.61
189.233	1090.67
189.701	1519.66
190.169	1963.03
190.636	711.65
191.104	510.52
191.571	42.88
192.039	-110.71
192.506	-152.21
192.974	236.97
193.441	-340.71
193.908	-69.24
194.375	-25.57
194.842	41.72
195.31	97.6
195.777	132.81
196.244	342.31
196.711	477.1
197.177	632.34
197.644	915.35
198.111	1585.79
198.578	2264.62
199.045	1820.61
199.511	3009.78
199.978	3533.78
200.445	2967.48
200.911	3302.57
201.378	3708.21
201.844	3360.58
202.31	5738.74
202.777	5955.68
203.243	3322.34
203.709	3142.42
204.176	3732.17
204.642	3096.11
205.108	2888.61
205.574	2356.22
206.04	2147.56
206.506	1993.53
206.972	1880.45
207.438	1824.06
207.903	2075.1
208.369	1814.64
208.835	1814.89
209.301	1900.92
209.766	1928.07
210.232	1895.3
210.697	2357.67
211.163	2937.35
211.628	4458.44
212.094	3731.77
212.559	4502.24
213.024	2823.27
213.49	3431.99
213.955	3331.83
214.42	3264.74
214.885	3046.11
215.35	2929.63
215.815	2795.28
216.28	2933.6
216.745	2397.07
217.21	2589.11
217.675	2383.55
218.14	2656.22
218.604	2964.29
219.069	3382.94
219.534	3547.64
219.998	4104.26
220.463	4951.6
220.927	6104.01
221.392	5760.35
221.856	5826.85
222.32	7350.86
222.785	9097.51
223.249	11477.16
223.713	12838.58
224.177	12860.77
224.642	16501.4
225.106	20391.54
225.57	22398.67
226.034	16673.94
226.497	25446.86
226.961	23029.7
227.425	26876.77
227.889	29950.67
228.353	30050.16
228.816	62248.86
229.28	59751.78
229.744	50575.42
230.207	30808.95
230.671	30360.89
231.134	50496.64
231.597	58408.43
232.061	58537.75
232.524	57287.34
232.987	39562.43
233.45	35680.07
233.914	32086.63
234.377	32975.09
234.84	30266.86
235.303	35841.32
235.766	40148.53
236.229	41554.72
236.691	26263.54
237.154	29637.68
237.617	22347.08
238.08	22947.98
238.542	26965.89
239.005	19317.16
239.468	19237.61
239.93	18174.31
240.393	16544.31
240.855	14541.66
241.317	14921.63
241.78	18190.32
242.242	18838.93
242.704	20365.51
243.166	17753.9
243.629	16113.02
244.091	18627.4
244.553	20430.26
245.015	22012.16
245.477	28531.19
245.939	41920.42
246.4	44579.74
246.862	43386.27
247.324	40952.96
247.786	45953.59
248.247	60363.89
248.709	62534.88
249.17	46829.57
249.632	44164.84
250.093	51213.68
250.555	44314.5
251.016	27058.26
251.477	25697.26
251.939	27787.88
252.4	29194.95
252.861	34761.42
253.322	32367.43
253.783	38585.36
254.244	50074.82
254.705	39564.44
255.166	35274.54
255.627	34757.19
256.088	49084.33
256.549	52223.59
257.009	44998.78
257.47	54659.32
257.931	44571.55
258.391	33423.68
258.852	34491.51
259.312	36196.87
259.773	44729.8
260.233	37784.24
260.694	31869.59
261.154	36180.05
261.614	29015.2
262.074	25973.47
262.534	26988.64
262.994	25449.96
263.455	33928.23
263.915	28596.91
264.374	26936.22
264.834	29457.81
265.294	32660.74
265.754	33852.3
266.214	32040.26
266.673	30084.52
267.133	37969.02
267.593	37709.73
268.052	46154.44
268.512	40142.57
268.971	48368.44
269.431	53069.31
269.89	47492.7
270.349	71306.81
270.809	79534.05
271.268	71543.27
271.727	160420.1
272.186	103942.55
272.645	77880.54
273.104	56224.42
273.563	81457.24
274.022	64133.45
274.481	54530.61
274.94	42009.25
275.399	31235.72
275.857	36387.96
276.316	49280.61
276.775	43879.43
277.233	43226.63
277.692	40526.83
278.15	45846.98
278.609	47179.27
279.067	43671.29
279.525	40626.39
279.984	52557.46
280.442	63136.24
280.9	62242.88
281.358	40935.51
281.816	38168.51
282.274	37433.74
282.732	38715.3
283.19	38940.69
283.648	33647.44
284.106	35919.6
284.564	36562.25
285.021	33900.58
285.479	25297.31
285.937	23056.84
286.394	20246.88
286.852	20859.89
287.309	21905.73
287.767	21165.29
288.224	20132.32
288.682	22132.27
289.139	24303.8
289.596	22262.74
290.053	23207.41
290.511	29309.05
290.968	35563.48
291.425	48331.78
291.882	40223.89
292.339	35108.93
292.796	34913.08
293.252	32960.85
293.709	26196.27
294.166	23495.46
294.623	26017.01
295.079	24975.35
295.536	25153.34
295.992	22855.84
296.449	22641.08
296.905	23588.71
297.362	22621.57
297.818	23828.21
298.274	24742.86
298.731	25255.3
299.187	25029.03
299.643	26882.68
300.099	32548.86
300.555	35695.6
301.011	29898.71
301.467	28812.97
301.923	33772.12
302.379	33013.44
302.835	32492.09
303.291	32593.72
303.746	37147.14
304.202	46983.29
304.658	47273.16
305.113	31842.77
305.569	31256.11
306.024	33395.55
306.479	31870.84
306.935	26896.33
307.39	29452.54
307.845	27214.08
308.301	27429.44
308.756	26746.86
309.211	25806.04
309.666	26451.14
310.121	32844.99
310.576	33385.74
311.031	33159.61
311.486	38069.1
311.94	38108
312.395	50985.25
312.85	95852.91
313.305	471298.07
313.759	2439533.94
314.214	176923.84
314.668	140505.71
315.123	118193.63
315.577	42397.34
316.032	37681.78
316.486	47242.81
316.94	37238.4
317.394	25920.36
317.849	20160.18
318.303	19093.46
318.757	18027.52
319.211	19941.63
319.665	17446.9
320.119	17675.61
320.572	25374.27
321.026	23720.15
321.48	19746.23
321.934	21605.6
322.387	21686.7
322.841	23428.49
323.295	21039.93
323.748	24286.28
324.202	24629.21
324.655	29573.13
325.108	41325.96
325.562	29206.99
326.015	34722.08
326.468	26256.88
326.921	29318.88
327.374	27339.35
327.827	28476.91
328.28	32258.76
328.733	21609.34
329.186	19018.55
329.639	18147.82
330.092	15318.67
330.545	14589.73
330.997	14737.83
331.45	16092.41
331.903	18861.96
332.355	32509.99
332.808	31639.29
333.26	26159
333.713	28376.97
334.165	28623.54
334.617	38242.36
335.069	30951.43
335.522	55997.82
335.974	62005.01
336.426	56768.48
336.878	39404.07
337.33	19980.39
337.782	19497.42
338.234	24394.12
338.686	29235.18
339.137	34672.23
339.589	32651.37
340.041	25575.21
340.493	21998.17
340.944	22530.85
341.396	24290.37
341.847	20414.33
342.299	24064.68
342.75	29414.11
343.201	25749.24
343.653	29660.25
344.104	36470.49
344.555	28738.1
345.006	44767.84
345.457	34255.32
345.908	27275.68
346.359	25650.97
346.81	20924.03
347.261	22096.86
347.712	21769.31
348.163	23349.93
348.613	23608.08
349.064	22042.68
349.515	19319.29
349.965	19832.84
350.416	23918.26
350.866	26198.01
351.317	29653.71
351.767	49094.44
352.217	62028.34
352.668	51601.8
353.118	47290.15
353.568	45691.53
354.018	36140.06
354.468	38134
354.918	27368.77
355.368	23977.28
355.818	33991.83
356.268	98021.18
356.718	410582.31
357.168	102283.64
357.617	51297.07
358.067	57201.55
358.517	53598.18
358.966	62901.86
359.416	70578.03
359.865	76390.05
360.315	91064.11
360.764	42536.98
361.213	23824.42
361.663	22599.66
362.112	27939.2
362.561	45127.84
363.01	34024.24
363.459	28728.58
363.908	31146.18
364.357	26492.29
364.806	44805.65
365.255	30860.32
365.703	28274.53
366.152	28311.03
366.601	23017.37
367.05	18696.97
367.498	17053.26
367.947	17862.7
368.395	18605.95
368.844	16492.43
369.292	19918.87
369.74	13773.72
370.189	21103.25
370.637	24785.43
371.085	21466.68
371.533	26158.51
371.981	25301.84
372.429	24091.37
372.877	25160.96
373.325	21122.56
373.773	21597.57
374.221	19276.32
374.669	23997.68
375.116	20825.74
375.564	21045.56
376.012	23597.92
376.459	19534.11
376.907	23413.64
377.354	28451.73
377.801	26558.17
378.249	30556.22
378.696	39139.78
379.143	47613.25
379.591	50908.76
380.038	86348.79
380.485	62492.93
380.932	67621.51
381.379	61802.42
381.826	45512.93
382.273	32402.49
382.72	28466.56
383.166	27786.94
383.613	18075.3
384.06	16305.77
384.506	18882.01
384.953	13898.06
385.4	14060.75
385.846	12351.6
386.292	12097.42
386.739	11882.35
387.185	11806.01
387.631	11826.2
388.078	11495.22
388.524	12317.62
388.97	11398.9
389.416	9524.07
389.862	10132.75
390.308	9602.2
390.754	9747.88
391.2	10590.88
391.645	10858.67
392.091	10352.35
392.537	9996.32
392.983	10038.87
393.428	9849.85
393.874	10568.88
394.319	10610.81
394.765	10072.45
395.21	10370.7
395.655	9751.38
396.101	9134.71
396.546	8241.12
396.991	8335.92
397.436	7761.1
397.881	7498.97
398.326	7127.31
398.771	6736.51
399.216	5900.61
399.661	5323.55
400.106	5303.37
400.551	5424.44
400.995	4874.2
401.44	4829.54
401.885	4547.14
402.329	4602.72
402.774	4425.75
403.218	4284.96
403.663	4140.73
404.107	4258.48
404.551	4294.94
404.995	3952.98
405.44	3821.81
405.884	3890.4
406.328	3773.85
406.772	3775.58
407.216	3443.46
407.66	3331.96
408.104	3180.83
408.547	2985.29
408.991	2896.69
409.435	2796.52
409.879	2760.83
410.322	2727.35
410.766	2635.74
411.209	2513.23
411.653	2417.15
412.096	2368.89
412.54	2377.39
412.983	2363.61
413.426	2370.85
413.869	2379.73
414.312	2335.99
414.756	2255.63
415.199	2157.09
415.642	2097.72
416.085	2101.06
416.527	2089.01
416.97	2127.57
417.413	2020.32
417.856	2004.26
418.298	1988.38
418.741	1973.76
419.184	1976.18
419.626	2067.06
420.069	2072
420.511	2085.11
420.953	2042.87
421.396	2026.41
421.838	1978.91
422.28	2027
422.722	2039.44
423.164	2074.03
423.606	2044.69
424.048	2045.72
424.49	1941.02
424.932	1936.21
425.374	1916.2
425.816	1953.04
426.258	1992.4
426.699	2017.49
427.141	1988.43
427.582	2024.59
428.024	2017.17
428.465	2006.96
428.907	1955.78
429.348	1935.03
429.789	1931.23
430.231	1888.22
430.672	1914.45
431.113	1869.94
431.554	1844.33
431.995	1803.07
432.436	1734.68
432.877	1692.52
433.318	1660.81
433.759	1655.95
434.2	1658.36
434.64	1644.05
435.081	1648.39
435.522	1561.5
435.962	1506.97
436.403	1473.55
436.843	1492.24
437.284	1461.57
437.724	1423.68
438.164	1430.33
438.604	1396.33
439.045	1342.21
439.485	1283.35
439.925	1256.46
440.365	1225.23
440.805	1208.16
441.245	1188.94
441.685	1144.01
442.125	1134.12
442.564	1142.23
443.004	1112.67
443.444	1110.63
443.883	1108.79
444.323	1101.79
444.762	1105.44
445.202	1119.31
445.641	1134.84
446.081	1130.39
446.52	1137.46
446.959	1122.12
447.398	1091.34
447.837	1075.78
448.276	1053.28
448.716	1060.78
449.154	1066.79
449.593	1036.63
450.032	1027.6
450.471	1007.34
450.91	1004.97
451.349	999.13
451.787	993.93
452.226	1006.04
452.664	1006.26
453.103	1004.98
453.541	1001.46
453.98	996.82
454.418	1003.65
454.856	988.02
455.295	984.87
455.733	988.97
456.171	995.03
456.609	995.14
457.047	994.82
457.485	1006.71
457.923	1008.02
458.361	994.13
458.798	996.66
459.236	993.5
459.674	1001.57
460.111	1005.82
460.549	998.17
460.987	994.58
461.424	993.01
461.862	987.23
462.299	972.65
462.736	971.21
463.173	975.84
463.611	964.14
464.048	961.49
464.485	968.23
464.922	959.58
465.359	954.59
465.796	936.94
466.233	928.43
466.67	919.02
467.106	915.05
467.543	907.38
467.98	895.41
468.416	874.27
468.853	867.87
469.29	842.2
469.726	832.53
470.162	810.83
470.599	803.54
471.035	794.99
471.471	777.01
471.907	773.67
472.344	768.05
472.78	768.65
473.216	777.65
473.652	767.6
474.088	765.04
474.523	761.16
474.959	766.08
475.395	758.46
475.831	753.21
476.266	756.09
476.702	752.83
477.138	742.75
477.573	737.78
478.008	732.56
478.444	733
478.879	736.97
479.314	739.04
479.75	738.01
480.185	740.76
480.62	747.3
481.055	748.55
481.49	752.03
481.925	761.72
482.36	774.46
482.795	795.79
483.229	816.66
483.664	833.23
484.099	835.7
484.534	846.91
484.968	853.22
485.403	852.79
485.837	851.79
486.271	850.39
486.706	850.43
487.14	839.98
487.574	824.4
488.009	814.92
488.443	805.36
488.877	810.83
489.311	811.34
489.745	817.6
490.179	821.81
490.613	832.95
491.046	834.83
491.48	836.78
491.914	833.41
492.348	835.74
492.781	836.58
493.215	834.23
493.648	831.37
494.082	832.4
494.515	826.51
494.948	830.77
495.382	830.76
495.815	830.48
496.248	830.15
496.681	838.54
497.114	844.91
497.547	849.48
497.98	856.11
498.413	855.06
498.846	856.94
499.279	859.23
499.711	855.04
500.144	848.61
500.577	850.43
501.009	852.22
501.442	852.19
501.874	842.29
502.306	833.59
502.739	831.54
503.171	835.5
503.603	828.11
504.036	826.55
504.468	821.63
504.9	821.43
505.332	816.53
505.764	810.27
506.196	805.12
506.627	806.83
507.059	807
507.491	802.53
507.923	788.97
508.354	790.79
508.786	787.54
509.217	790.56
509.649	790.59
510.08	793.88
510.512	795.41
510.943	795.13
511.374	791.9
511.805	795.48
512.237	797.01
512.668	808.27
513.099	814.84
513.53	822.5
513.961	824.88
514.391	835.61
514.822	847.35
515.253	859.5
515.684	865.37
516.114	874.06
516.545	876.91
516.975	883.35
517.406	884.96
517.836	877.2
518.267	871.88
518.697	874.47
519.127	868.59
519.558	863.34
519.988	857.02
520.418	855.8
520.848	858.92
521.278	858.18
521.708	878.72
522.138	881.24
522.567	893.35
522.997	902.65
523.427	906.33
523.857	911.03
524.286	913.71
524.716	918.41
525.145	925.6
525.575	929.56
526.004	933.44
526.433	910.73
526.863	907.08
527.292	900.36
527.721	901.74
528.15	902.14
528.579	900.89
529.008	904.98
529.437	916.01
529.866	921.55
530.295	928.43
530.724	935.43
531.152	948.64
531.581	956.88
532.01	964.44
532.438	967.29
532.867	974.82
533.295	983.94
533.723	986.54
534.152	984.62
534.58	984.55
535.008	975.41
535.436	975.72
535.865	978.24
536.293	984.23
536.721	992.96
537.149	1006.4
537.576	1008.05
538.004	1014.84
538.432	1017.6
538.86	1017.15
539.287	1020.27
539.715	1028.32
540.143	1029.06
540.57	1027.38
540.998	1024.27
541.425	1012.41
541.852	1000.84
542.28	999.18
542.707	990.17
543.134	983.32
543.561	980.74
543.988	976.54
544.415	975.1
544.842	971.91
545.269	967.31
545.696	969.41
546.123	975.99
546.549	970.91
546.976	963.49
547.403	962.97
547.829	962.94
548.256	962.85
548.682	960.53
549.108	957.34
549.535	957.03
549.961	958.43
550.387	950.69
550.813	947.18
551.24	949.36
551.666	949.7
552.092	944.29
552.518	941.48
552.943	939.28
553.369	942.65
553.795	944.92
554.221	944.36
554.646	942
555.072	947.68
555.498	949.01
555.923	953.06
556.349	960.44
556.774	963.6
557.199	963.9
557.625	965.86
558.05	962.76
558.475	967.61
558.9	966.66
559.325	962.19
559.75	957.79
560.175	953.31
560.6	949.87
561.025	947.63
561.449	948.21
561.874	949.84
562.299	951.58
562.723	954.41
563.148	948.55
563.572	950.9
563.997	956.12
564.421	959.21
564.846	959.3
565.27	961.73
565.694	961.24
566.118	967.35
566.542	971.05
566.966	967.02
567.39	964.3
567.814	958.83
568.238	958.23
568.662	960.34
569.086	962.5
569.509	967.73
569.933	961.04
570.357	958.57
570.78	949.43
571.204	945.03
571.627	940.86
572.05	942.44
572.474	944.3
572.897	940.58
573.32	938.65
573.743	934.28
574.166	926.83
574.589	928.38
575.012	926.15
575.435	925.95
575.858	922.58
576.281	918.34
576.704	910.24
577.126	904.87
577.549	899.59
577.972	895.82
578.394	892.22
578.817	890.17
579.239	880.75
579.661	874.15
580.084	868.42
580.506	863.1
580.928	862.74
581.35	858.36
581.772	857.37
582.194	851.66
582.616	846.02
583.038	839.29
583.46	833.69
583.882	833.66
584.303	837
584.725	834.54
585.147	837.87
585.568	845.72
585.99	854.25
586.411	859.36
586.833	867.68
587.254	870.03
587.675	878.18
588.096	887.2
588.518	884.8
588.939	877.3
589.36	878.04
589.781	871.14
590.202	856.52
590.623	852.43
591.043	851.01
591.464	845.3
591.885	843.32
592.305	841.29
592.726	833.53
593.147	835.86
593.567	834.11
593.987	829.78
594.408	827.1
594.828	825.54
595.248	823.48
595.669	814.95
596.089	811.31
596.509	808.16
596.929	800.93
597.349	801.65
597.769	795.66
598.189	792.06
598.608	793.95
599.028	796.2
599.448	797.14
599.867	789.4
600.287	786.59
600.706	785.24
601.126	780.93
601.545	781.63
601.965	782.3
602.384	779.98
602.803	782.67
603.222	781.53
603.641	778.87
604.061	776.98
604.48	776.94
604.898	783.45
605.317	787.55
605.736	790.31
606.155	790.53
606.574	787.07
606.992	792.39
607.411	791.46
607.829	787.62
608.248	787.11
608.666	788.47
609.085	790.81
609.503	787.75
609.921	787.59
610.339	791.29
610.758	793.11
611.176	791.87
611.594	789.29
612.012	790.24
612.43	795.47
612.847	802.94
613.265	808.13
613.683	812.92
614.101	816.84
614.518	815.89
614.936	813.03
615.353	807.15
615.771	809.1
616.188	812.57
616.606	812.67
617.023	811.36
617.44	805.07
617.857	801.16
618.274	797.76
618.691	796.57
619.108	793.01
619.525	790.53
619.942	796.35
620.359	799.73
620.776	797.54
621.192	797.28
621.609	797.57
622.026	803.34
622.442	808.87
622.859	812.73
623.275	809
623.691	813.5
624.108	822.44
624.524	832.73
624.94	834.37
625.356	841.65
625.772	849.82
626.188	858.07
626.604	859.67
627.02	857.62
627.436	856.22
627.852	862.05
628.268	871.13
628.683	865.49
629.099	859.81
629.514	856.6
629.93	860.09
630.345	863.99
630.761	861.69
631.176	864.51
631.591	862.98
632.007	860.3
632.422	858.84
632.837	852.33
633.252	852.64
633.667	847.81
634.082	843.35
634.497	837.02
634.911	826.58
635.326	826.04
635.741	817.85
636.155	813.3
636.57	818.42
636.984	822.03
637.399	828.17
637.813	831.93
638.228	836.22
638.642	844.91
639.056	842.79
639.47	848.01
639.884	849.6
640.298	850.89
640.712	856.98
641.126	854.44
641.54	855.82
641.954	858.71
642.368	857.58
642.781	859.05
643.195	852.72
643.609	860.58
644.022	864.32
644.436	867.56
644.849	865.27
645.262	863.38
645.676	872.04
646.089	876.1
646.502	870.22
646.915	872.11
647.328	865.8
647.741	869.83
648.154	863.75
648.567	866.84
648.98	860.7
649.393	865.77
649.805	867.69
650.218	865.5
650.631	855.47
651.043	854.74
651.456	853.38
651.868	856.73
652.28	874.38
652.693	890.23
653.105	899.02
653.517	912.62
653.929	917.63
654.341	926.57
654.753	919.33
655.165	929.02
655.577	931.23
655.989	931.68
656.401	930.7
656.813	904.67
657.224	891.62
657.636	872.38
658.047	861.08
658.459	849.78
658.87	848.26
659.282	845.71
659.693	833.9
660.104	828.63
660.515	823.91
660.926	828.27
661.338	833.77
661.749	837.53
662.159	836.24
662.57	840.02
662.981	843.45
663.392	842.81
663.803	854.86
664.213	860
664.624	863.24
665.035	875.11
665.445	870.3
665.855	869.44
666.266	866.61
666.676	871.39
667.086	868.39
667.497	873.8
667.907	873.44
668.317	868.21
668.727	868.56
669.137	873.53
669.547	872.86
669.956	879.32
670.366	885.17
670.776	890.54
671.186	896.97
671.595	902.97
672.005	908.17
672.414	909.13
672.824	908.51
673.233	916.38
673.642	920
674.052	925.6
674.461	928.3
674.87	934.76
675.279	931.13
675.688	933.96
676.097	935.16
676.506	932.05
676.915	948.79
677.323	951.09
677.732	947.25
678.141	946.07
678.549	932.44
678.958	929.72
679.366	925.94
679.775	929.81
680.183	939.14
680.592	942.02
681	944.32
681.408	931.11
681.816	934.13
682.224	938.39
682.632	940.99
683.04	964.79
683.448	982.53
683.856	1004.98
684.264	1030.46
684.671	1048.79
685.079	1074.57
685.487	1100.07
685.894	1141.05
686.302	1166.15
686.709	1177.68
687.116	1194.72
687.524	1200.93
687.931	1197.48
688.338	1188.16
688.745	1174.09
689.152	1161.9
689.559	1158.02
689.966	1154.99
690.373	1133.65
690.78	1128.57
691.187	1139.49
691.593	1137.14
692	1131.86
692.407	1140.87
692.813	1160.5
693.22	1169.07
693.626	1180.47
694.032	1185.41
694.439	1206.54
694.845	1219.81
695.251	1245.05
695.657	1266.33
696.063	1308.5
696.469	1336.17
696.875	1364.87
697.281	1376.33
697.687	1397.14
698.093	1415.41
698.498	1455.68
698.904	1485.98
699.31	1537.03
699.715	1574.51
700.12	1630.36
700.526	1647.44
700.931	1695.09
701.337	1734.19
701.742	1765.28
702.147	1824.77
702.552	1856.57
702.957	1905.99
703.362	1936.06
703.767	1969.54
704.172	2009.86
704.577	1999.8
704.981	2047.05
705.386	2077.67
705.791	2092.29
706.195	2159.97
706.6	2188.03
707.004	2260.11
707.408	2262.73
707.813	2302.99
708.217	2318.87
708.621	2345.65
709.025	2434.48
709.43	2460.09
709.834	2526.74
710.237	2602.16
710.641	2617.85
711.045	2660.22
711.449	2685.26
711.853	2735.44
712.256	2794.14
712.66	2849.84
713.064	2934.84
713.467	2995.72
713.87	3111.45
714.274	3177.22
714.677	3292.93
715.08	3452.49
715.484	3619.7
715.887	3814.45
716.29	4008.83
716.693	4213.83
717.096	4448.55
717.499	4595.54
717.901	4660.25
718.304	4722.53
718.707	4786.75
719.109	4739.05
719.512	4751.04
719.915	4671.78
720.317	4659.74
720.719	4734.67
721.122	4746.82
721.524	4741.05
721.926	4740.36
722.328	4869.21
722.731	4899.2
723.133	4962.76
723.535	5179.26
723.937	5233.97
724.338	5321.45
724.74	5399.14
725.142	5373.11
725.544	5405.89
725.945	5463.21
726.347	5494.81
726.748	5519.33
727.15	5563.18
727.551	5552.49
727.952	5555.41
728.354	5557.33
728.755	5585.89
729.156	5573.71
729.557	5593.34
729.958	5494.12
730.359	5462.86
730.76	5467.58
731.161	5428.06
731.562	5426.07
731.962	5453.88
732.363	5406.92
732.763	5362.02
733.164	5419.37
733.564	5365.61
733.965	5282.64
734.365	5264.49
734.766	5315.79
735.166	5291.11
735.566	5247.56
735.966	5236.18
736.366	5243.36
736.766	5191.79
737.166	5239.75
737.566	5209.26
737.966	5193.61
738.365	5249.39
738.765	5256.35
739.165	5184.8
739.564	5167.85
739.964	5229.74
740.363	5187.61
740.763	5196.21
741.162	5195.31
741.561	5168.59
741.96	5127.89
742.36	5160.44
742.759	5177.72
743.158	5230.71
743.557	5254.65
743.955	5308.94
744.354	5266.95
744.753	5340.48
745.152	5300.82
745.55	5369.04
745.949	5367.71
746.348	5373.42
746.746	5398.09
747.144	5354.17
747.543	5333.87
747.941	5397.84
748.339	5320.59
748.737	5315.63
749.136	5311.67
749.534	5391.85
749.932	5364.53
750.33	5397.87
750.727	5468.58
751.125	5447.17
751.523	5437.07
751.921	5489.55
752.318	5451.5
752.716	5522.64
753.113	5542.89
753.511	5573.78
753.908	5575.98
754.305	5558.33
754.703	5633.78
755.1	5704.3
755.497	5772.77
755.894	5996.05
756.291	6207.18
756.688	6594.24
757.085	7107.34
757.482	7825.05
757.878	8609.2
758.275	9320.39
758.672	10298
759.068	11087.46
759.465	12224.67
759.861	13692.65
760.258	15391.2
760.654	16265.98
761.05	16136.81
761.447	15402.75
761.843	14340.86
762.239	13240.18
762.635	12748.62
763.031	12275.14
763.427	11595.3
763.822	10874.52
764.218	10162.62
764.614	9236.51
765.01	8619.57
765.405	8218.97
765.801	7915.1
766.196	7529.11
766.592	7316.49
766.987	6951.88
767.382	6705.08
767.778	6600.13
768.173	6450.17
768.568	6366.12
768.963	6222.54
769.358	6243.11
769.753	6189.22
770.148	6092.83
770.542	6091.68
770.937	6056.9
771.332	6164.47
771.726	6188.34
772.121	6117.28
772.515	6179.81
772.91	6161.15
773.304	6240.03
773.699	6163.76
774.093	6226.82
774.487	6292.61
774.881	6344.43
775.275	6342.45
775.669	6291.94
776.063	6342.98
776.457	6384.47
776.851	6300.54
777.245	6295.58
777.638	6338.34
778.032	6476.79
778.425	6433.09
778.819	6478.77
779.212	6429.47
779.606	6378.79
779.999	6400.95
780.392	6382.83
780.786	6480.29
781.179	6505.47
781.572	6553.61
781.965	6567.71
782.358	6497.94
782.751	6565.2
783.143	6510.68
783.536	6598.13
783.929	6650.98
784.322	6786.14
784.714	6822.41
785.107	6816.48
785.499	6902.06
785.891	6878.41
786.284	6854.65
786.676	7019.25
787.068	6996.98
787.46	7057.69
787.852	7077.06
788.245	7176.07
788.636	7210.13
789.028	7286.96
789.42	7329.99
789.812	7339.2
790.204	7451.13
790.595	7567.1
790.987	7341.39
791.378	7366.6
791.77	7517.98
792.161	7675.65
792.553	7744.87
792.944	7613.27
793.335	7534
793.726	7622.34
794.117	7724.77
794.508	7882.78
794.899	7850.97
795.29	8013.86
795.681	8085.63
796.072	7923.87
796.463	7705.21
796.853	7709.99
797.244	7899.14
797.634	7941.22
798.025	7939.17
798.415	7954.57
798.806	8059.47
799.196	8156.17
799.586	8213.47
799.976	8165.02
800.366	8428.33
800.756	8713.62
801.146	8670.23
801.536	8703.45
801.926	8790.63
802.316	8818.36
802.706	8897.5
803.095	8753.28
803.485	8873.47
803.874	8925.17
804.264	9229.48
804.653	9204.13
805.043	9373.92
805.432	9494.54
805.821	9489.59
806.21	9512.11
806.599	9649.04
806.988	9703.53
807.377	9831.13
807.766	9979.91
808.155	10305.74
808.544	9998.06
808.933	10010.01
809.321	9980.3
809.71	10323.97
810.098	10509.25
810.487	11042.23
810.875	11599.55
811.264	11622.71
811.652	11948.15
812.04	12115.4
812.428	12303.07
812.816	13188.47
813.204	13677.27
813.592	14317.05
813.98	14710.71
814.368	14601.06
814.756	15156.25
815.144	15059.03
815.531	15598.77
815.919	15513.93
816.306	15861.35
816.694	15503.87
817.081	15563.77
817.469	15952.56
817.856	15953.09
818.243	16259.81
818.63	16721.95
819.017	16235.09
819.404	16311.17
819.791	16752.15
820.178	17470.64
820.565	17768.47
820.952	18841.16
821.339	18262.42
821.725	18484.09
822.112	17619.81
822.498	17575.11
822.885	17722.28
823.271	17618.99
823.657	18109.17
824.044	18118.66
824.43	18204.98
824.816	18160.54
825.202	17660.17
825.588	18843
825.974	18862.64
826.36	19461.7
826.746	19499.42
827.132	19910.63
827.517	19876.01
827.903	18974.63
828.289	19017.02
828.674	18121.69
829.06	18012.53
829.445	18469.56
829.83	18884.47
830.216	19439.51
830.601	19867.35
830.986	19400.16
831.371	19246.62
831.756	19892.36
832.141	19387.01
832.526	19381.99
832.911	19707.02
833.295	19571.79
833.68	20124.58
834.065	19406.47
834.449	18348.93
834.834	18266.21
835.218	18271.68
835.603	18664.75
835.987	18419.81
836.371	19398.95
836.755	19285.03
837.139	19751.4
837.524	20036.13
837.908	19837.1
838.291	19913.87
838.675	19999.17
839.059	20251.94
839.443	20231.18
839.827	19976.13
840.21	20548.03
840.594	20373.76
840.977	20609.62
841.361	20591.35
841.744	21034.7
842.127	20843.51
842.511	21126.65
842.894	21819.93
843.277	22255.75
843.66	22901.6
844.043	22994.83
844.426	22051.38
844.809	21686.96
845.191	21738.92
845.574	21203.26
845.957	20780.59
846.339	20654.47
846.722	20047.59
847.104	20129.31
847.487	19931.55
847.869	19934.04
848.252	20252.29
848.634	20638.52
849.016	20942.11
849.398	21080.26
849.78	22063.25
850.162	22064.98
850.544	22554.09
850.926	23290.59
851.307	23179.12
851.689	23505.35
852.071	24031.57
852.452	24411.87
852.834	24391.23
853.215	24859.64
853.597	25042.63
853.978	25387.85
854.359	25914.77
854.741	24766.5
855.122	24641.42
855.503	24313.35
855.884	24466.05
856.265	24392.67
856.646	24528.72
857.026	24068.59
857.407	23984.59
857.788	24165.78
858.169	24505.61
858.549	23516.16
858.93	24237.83
859.31	24291
859.69	24530.74
860.071	24055.61
860.451	23811.83
860.831	22945.62
861.211	24299
861.591	24942.34
861.971	24912.89
862.351	25135.18
862.731	25591.62
863.111	25890.21
863.491	26288.63
863.87	27321.62
864.25	27729.49
864.629	27250.84
865.009	27859.33
865.388	28854.14
865.768	30917.57
866.147	30791.97
866.526	29093.46
866.905	29444.95
867.284	31099.65
867.663	29529.37
868.042	28293.53
868.421	28206.95
868.8	28688.96
869.179	28961.15
869.558	27266.34
869.936	25141.02
870.315	25584.65
870.693	26207.42
871.072	28268.62
871.45	26942.91
871.828	27303.09
872.207	28700.19
872.585	28263.6
872.963	29040.17
873.341	28044.79
873.719	27713.04
874.097	27383.72
874.475	27925.87
874.853	28577.28
875.23	27386.14
875.608	28530.26
875.986	30841.07
876.363	29487.82
876.741	30399.27
877.118	29634.97
877.495	31088.95
877.873	31609.62
878.25	33269.8
878.627	31917.53
879.004	32361.16
879.381	32199.91
879.758	31358
880.135	29191.36
880.512	30886.77
880.889	30074.87
881.265	29759.86
881.642	29525.53
882.019	30026.48
882.395	29417.05
882.772	30579.68
883.148	29242.25
883.524	29116.31
883.901	28936.8
884.277	29371.44
884.653	29176.38
885.029	30005.06
885.405	33228.53
885.781	32964.6
886.157	31613.81
886.532	31996.07
886.908	31967.6
887.284	35552.69
887.659	36726.97
888.035	37885.08
888.411	38872.48
888.786	39384.69
889.161	40745.49
889.537	40013.52
889.912	41284.57
890.287	41237.4
890.662	42286.36
891.037	41517.47
891.412	38702.68
891.787	38306.94
892.162	36969.26
892.536	37825.2
892.911	36408.49
893.286	35645.83
893.66	34189.6
894.035	35063.97
894.409	38188.27
894.784	36652.64
895.158	37262.97
895.532	39478.54
895.906	40554.44
896.281	41499.96
896.655	40854.51
897.029	46678.16
897.402	48616.69
897.776	54137.5
898.15	53954.16
898.524	53362.57
898.898	54063.52
899.271	60523.83
899.645	52422.12
900.018	50370.2
900.392	52236.42
900.765	52619.73
901.138	48707.69
901.511	47972.61
901.884	44030.16
902.258	40614.8
902.631	41965.18
903.003	48317.14
903.376	43622.4
903.749	48924.8
904.122	52359.47
904.495	57654.78
904.867	58438.34
905.24	50721.48
905.612	47206.41
905.985	48278.77
906.357	50474.38
906.729	48188.41
907.102	41160.59
907.474	39566.3
907.846	39787.51
908.218	39268.26
908.59	34705.18
908.962	33567.64
909.334	36153.1
909.705	37979.62
910.077	36891.75
910.449	38413.46
910.82	39489.76
911.192	43460.38
911.563	45175.27
911.935	48379.07
912.306	48446.99
912.677	50010.19
913.048	49473.05
913.419	53683
913.79	54002.62
914.161	57884.7
914.532	55340.66
914.903	50852.97
915.274	48280.65
915.645	47572.84
916.015	41873.69
916.386	39913.19
916.756	42481.69
917.127	43837.65
917.497	39172.42
917.868	42610.51
918.238	40494.02
918.608	41636.39
918.978	42494.97
919.348	45020.18
919.718	46507.46
920.088	44793.69
920.458	46523.53
920.828	48979.82
921.198	46422.49
921.567	49588.02
921.937	38415.87
922.306	38776.71
922.676	41820.02
923.045	34877.51
923.415	33103.73
923.784	30139.3
924.153	30963
924.522	30955.3
924.891	29097.11
925.26	31165
925.629	30418.13
925.998	34961.14
926.367	34136.88
926.736	32498.18
927.104	38707.08
927.473	41646.46
927.842	50326.02
928.21	49879.2
928.578	52401.3
928.947	49535.59
929.315	49829.54
929.683	58458.03
930.051	58913.91
930.42	68384.3
930.788	58467.98
931.156	58052.29
931.523	54388.62
931.891	50249.43
932.259	48268.54
932.627	55926.91
932.994	79156.64
933.362	65407.32
933.729	56780.86
934.097	54393.78
934.464	46028.15
934.831	53125.28
935.199	52350.51
935.566	50759.8
935.933	51371.28
936.3	62182.01
936.667	48453.79
937.034	43652.07
937.401	43192.49
937.767	37259.47
938.134	33152.37
938.501	46760.79
938.867	49820.61
939.234	84270.04
939.6	71937.95
939.967	79377.63
940.333	53190.11
940.699	45255.58
941.065	36315.15
941.431	47584.6
941.798	45931.86
942.163	60295.73
942.529	37706.37
942.895	34692.38
943.261	22430.8
943.627	29419.32
943.992	25765.43
944.358	25787.78
944.723	25885.41
945.089	25266.6
945.454	23368.08
945.82	24927.1
946.185	23967.91
946.55	27765.66
946.915	24929.07
947.28	29268.36
947.645	25794.74
948.01	23808.5
948.375	24818.94
948.74	29747.26
949.104	34711.99
949.469	50128.94
949.834	88605.77
950.198	83896.13
950.562	50284.2
950.927	41872.09
951.291	50380.15
951.655	42848.18
952.02	40212.71
952.384	30417.2
952.748	26467.45
953.112	25784.73
953.476	22427.87
953.839	20729.06
954.203	20511.47
954.567	25633.1
954.931	40397.8
955.294	34497.79
955.658	34701.16
956.021	58959.14
956.385	99944.37
956.748	147565.39
957.111	228978.38
957.474	257002.44
957.837	289704.63
958.2	219203.04
958.563	78849.38
958.926	53255.55
959.289	80909.37
959.652	90334.62
960.015	67816.79
960.377	97285.21
960.74	110999.8
961.102	191777.27
961.465	205850.91
961.827	110067.63
962.189	211377.87
962.552	146608.33
962.914	117547
963.276	76293.06
963.638	63097.97
964	62491.04
964.362	42235.67
964.724	40840.47
965.085	29099.73
965.447	23850.17
965.809	27228.89
966.17	27283.55
966.532	29510.95
966.893	27085.87
967.255	24653.44
967.616	29122.64
967.977	23321.69
968.338	25500.69
968.699	20949.24
969.061	20942.04
969.421	21088.45
969.782	23660.53
970.143	19964.75
970.504	20664.9
970.865	23492.8
971.225	23996.95
971.586	23477.78
971.946	33477.26
972.307	29026.3
972.667	37969.26
973.027	39112.03
973.388	47352.43
973.748	32170.8
974.108	35044.57
974.468	47460.34
974.828	36548.54
975.188	28105.59
975.548	25842.71
975.907	21699.9
976.267	24362.21
976.627	20424.45
976.986	21178.43
977.346	20219.76
977.705	19456.42
978.064	17716.99
978.424	14728.46
978.783	15238.13
979.142	17409.45
979.501	16635.3
979.86	17588.77
980.219	16937.51
980.578	21901.95
980.937	24534.39
981.296	21864.06
981.654	22488.33
982.013	34991.86
982.371	45455.83
982.73	42460.64
983.088	48091.98
983.447	51347.35
983.805	73371.52
984.163	153487.59
984.521	170106.59
984.879	249585.64
985.237	-406427.46
985.595	391769.89
985.953	97388.09
986.311	56175.25
986.669	32591.05
987.026	28143.12
987.384	37839.31
987.741	39136.46
988.099	27932.98
988.456	22256.74
988.814	20817.1
989.171	18072.28
989.528	17846.45
989.885	18835.79
990.242	14933.06
990.599	18638.3
990.956	15240.39
991.313	10654.16
991.67	8739.67
992.027	9252.19
992.383	8230.45
992.74	7213.54
993.096	7564.81
993.453	7849.48
993.809	8143.26
994.165	10842.38
994.522	9898.28
994.878	10903.9
995.234	13679.77
995.59	13499.27
995.946	12788.73
996.302	14570.22
996.658	16840.19
997.013	18565.67
997.369	21973.75
997.725	28126.71
998.08	18219.78
998.436	28232.19
998.791	38887.64
999.147	38824.39
999.502	42321.84
999.857	30757.4
1000.212	50194.61
1000.567	71469.85
1000.922	41225.5
1001.277	26233.88
1001.632	19451.77
1001.987	25043.45
1002.342	17961.04
1002.696	14390.44
1003.051	11485.41
1003.406	13933.88
1003.76	13901.07
1004.114	13707.7
1004.469	11525.94
1004.823	9549.02
1005.177	10310.52
1005.531	8185.1
1005.885	7257.26
1006.239	8172.36
1006.593	10261.65
1006.947	13713.97
1007.301	10264.84
1007.655	11205.37
1008.008	8210.55
1008.362	9226.45
1008.715	13162.91
1009.069	11949.38
1009.422	17947.58
1009.776	36052.01
1010.129	23956.51
1010.482	20010
1010.835	16987.5
1011.188	35408.14
1011.541	33296.17
1011.894	-203750.21
1012.247	598676.16
1012.6	40715.02
1012.952	25705.88
1013.305	13266.22
1013.657	9549.2
1014.01	9046.77
1014.362	7451.67
1014.715	6596.08
1015.067	5741.7
1015.419	5615.84
1015.771	4984.94
1016.123	4435.73
1016.475	4560.64
1016.827	4862.95
1017.179	5225.83
1017.531	5286.63
1017.883	5410.04
1018.234	5222.22
1018.586	6615.78
1018.938	6985.48
1019.289	9620.19
1019.64	11018.3
1019.992	10280.27
1020.343	9434.19
1020.694	7451.39
1021.045	6574.54
1021.396	7500.91
1021.747	7993.95
1022.098	9556.25
1022.449	6921.2
1022.8	6447.74
1023.151	4498.79
1023.501	3975.76
1023.852	4326.65
1024.202	4466.49
1024.553	4920.3
1024.903	4805.24
1025.253	4100.59
1025.604	3689.06
1025.954	4596.32
1026.304	5597.1
1026.654	6529.99
1027.004	9554.97
1027.354	15502.62
1027.703	14566.68
1028.053	19202.39
1028.403	27744.5
1028.753	40318.3
1029.102	55027.17
1029.452	285183.18
1029.801	12351.91
1030.15	8000.7
1030.499	6774.83
897.758	2231.57
901.051	2164.29
904.343	2197.57
907.636	2204.74
910.928	2267.88
914.22	2187.32
917.511	2191.59
920.803	2240.39
924.094	2239.41
927.384	2243.55
930.675	2207.24
933.965	2169.1
937.255	2198.32
940.544	2166.38
943.834	2168.17
947.123	2107.3
950.411	2195.09
953.7	2177.55
956.988	2158.16
960.276	2092.86
963.563	2144.71
966.851	2154.74
970.138	2198.92
973.424	2200.1
976.711	2154.18
979.997	2200.1
983.283	2245.2
986.568	2175.42
989.853	2165.26
993.138	2195.09
996.423	2282.79
999.708	2238.72
1002.992	2270.14
1006.275	2180.66
1009.559	2188.12
1012.842	2287.37
1016.125	2242.93
1019.408	2219.98
1022.69	2279.45
1025.972	2316.68
1029.254	2291.41
1032.536	2251.29
1035.817	2263.51
1039.098	2233.04
1042.379	2288.72
1045.659	2315.24
1048.939	2263.8
1052.219	2271.17
1055.498	2268.04
1058.778	2264.93
1062.057	2237.88
1065.335	2262.08
1068.614	2275.66
1071.892	2269.42
1075.17	2324.46
1078.447	2327.06
1081.724	2324.44
1085.001	2352.31
1088.278	2327.48
1091.554	2334.53
1094.83	2327.41
1098.106	2365.44
1101.382	2398.66
1104.657	2396.76
1107.932	2398.11
1111.206	2373.85
1114.481	2327.09
1117.755	2326.66
1121.029	2319.8
1124.302	2383.32
1127.575	2347.14
1130.848	2344.53
1134.121	2313.96
1137.393	2274.32
1140.665	2332.35
1143.937	2310.35
1147.208	2260.77
1150.48	2318.23
1153.75	2307.73
1157.021	2308.5
1160.291	2284.27
1163.561	2338.95
1166.831	2306.52
1170.101	2333.98
1173.37	2292.15
1176.639	2251.41
1179.907	2296.46
1183.176	2318.32
1186.444	2321.23
1189.711	2345.05
1192.979	2368.67
1196.246	2322.32
1199.513	2334.9
1202.78	2341.42
1206.046	2350.7
1209.312	2377.63
1212.578	2396.75
1215.843	2361.84
1219.108	2327.24
1222.373	2351.03
1225.638	2324.25
1228.902	2316.33
1232.166	2271.5
1235.43	2258.28
1238.693	2281.4
1241.956	2274.59
1245.219	2324.53
1248.482	2304.4
1251.744	2302.97
1255.006	2428.78
1258.268	2377.52
1261.529	2331.04
1264.79	2331.87
1268.051	2434.38
1271.312	2443
1274.572	2415.96
1277.832	2402.45
1281.092	2382.93
1284.351	2374.98
1287.61	2359.22
1290.869	2292.92
1294.128	2287.28
1297.386	2338.62
1300.644	2331.37
1303.902	2341.03
1307.159	2207.81
1310.416	2259.82
1313.673	2286.72
1316.93	2284.12
1320.186	2316.07
1323.442	2350.35
1326.697	2350.61
1329.953	2323.84
1333.208	2359.64
1336.463	2329.81
1339.717	2288.23
1342.972	2396.13
1346.226	2365.94
1349.479	2313.98
1352.733	2294.11
1355.986	2298.82
1359.238	2278.98
1362.491	2283.03
1365.743	2282.18
1368.995	2273.02
1372.247	2284.9
1375.498	2305.76
1378.749	2346.07
1382	2295.06
1385.251	2330.63
1388.501	2283.46
1391.751	2280.84
1395	2245.33
1398.25	2272.08
1401.499	2292.33
1404.748	2238.97
1407.996	2217.59
1411.244	2204.34
1414.492	2189.31
1417.74	2174.63
1420.987	2180.14
1424.234	2238
1427.481	2200.92
1430.728	2259.4
1433.974	2233.52
1437.22	2232.54
1440.465	2228.99
1443.711	2225.25
1446.956	2250.77
1450.201	2224.63
1453.445	2265.63
1456.689	2254.31
1459.933	2262.58
1463.177	2303.22
1466.42	2274.21
1469.663	2258.55
1472.906	2271.72
1476.148	2323.48
1479.391	2299.36
1482.633	2272.82
1485.874	2296.95
1489.115	2302.69
1492.356	2285.79
1495.597	2266.16
1498.838	2260.77
1502.078	2245.29
1505.318	2214.46
1508.557	2251.39
1511.797	2246.27
1515.036	2287.76
1518.274	2263.07
1521.513	2215.16
1524.751	2228.19
1527.989	2253.19
1531.227	2271.49
1534.464	2285.05
1537.701	2281.05
1540.938	2294.29
1544.174	2243.39
1547.41	2233.46
1550.646	2272.65
1553.882	2321.33
1557.117	2379.23
1560.352	2387.58
1563.587	2350.85
1566.821	2317.57
1570.055	2333.75
1573.289	2314.66
1576.523	2374.62
1579.756	2388.01
1582.989	2411.14
1586.222	2371.72
1589.454	2399.15
1592.686	2385.37
1595.918	2411.38
1599.15	2408.79
1602.381	2457.04
1605.612	2436.69
1608.843	2529.21
1612.073	2451.95
1615.303	2440.5
1618.533	2436.98
1621.762	2437.09
1624.992	2414.88
1628.221	2415.43
1631.449	2405.06
1634.678	2433.64
1637.906	2400.85
1641.134	2429.81
1644.361	2396.09
1647.588	2387.17
1650.815	2408.15
1654.042	2372.07
1657.269	2401.62
1660.495	2380.5
1663.72	2365.56
1666.946	2335.4
1670.171	2305.77
1673.396	2277.97
1676.621	2261.64
1679.845	2259.16
1683.069	2264.82
1686.293	2295.75
1689.517	2285.13
1692.74	2234.17
1695.963	2255.83
1699.185	2296.06
1702.408	2268.31
1705.63	2299.17
1708.852	2316.58
1712.073	2287.62
1715.294	2297.93
1718.515	2339.43
1721.736	2297.22
1724.956	2279.6
1728.176	2301.2
1731.396	2323.56
1734.616	2309.17
1737.835	2344.9
1741.054	2315.32
1744.272	2308.41
1747.491	2345.46
1750.709	2370
1753.927	2316.94
1757.144	2345.36
1760.361	2400.42
1763.578	2375.01
1766.795	2324.54
1770.011	2313.35
1773.227	2339.1
1776.443	2380.9
1779.658	2423.21
1782.874	2362.92
1786.089	2355.43
1789.303	2359.28
1792.518	2352.8
1795.732	2340.19
1798.945	2356.11
1802.159	2397.89
1805.372	2338.08
1808.585	2332.63
1811.797	2334.03
1815.01	2355
1818.222	2377.31
1821.434	2335.65
1824.645	2379.15
1827.856	2388.58
1831.067	2419.9
1834.278	2357.58
1837.488	2339.95
1840.698	2464.57
1843.908	2404.65
1847.117	2372.46
1850.326	2296.59
1853.535	2356.56
1856.744	2390.25
1859.952	2311.93
1863.16	2312.58
1866.368	2327.39
1869.575	2438.71
1872.782	2321.1
1875.989	2255.04
1879.196	2306.3
1882.402	2294.64
1885.608	2329.97
1888.814	2270.07
1892.019	2178.34
1895.224	2228.12
1898.429	2195.73
1901.634	2179
1904.838	2152.59
1908.042	2211.08
1911.246	2222.59
1914.449	2183.4
1917.652	2165.87
1920.855	2147.39
1924.058	2171.81
1927.26	2217.69
1930.462	2239.86
1933.664	2279.8
1936.865	2220.91
1940.066	2240.68
1943.267	2182.74
1946.467	2191.82
1949.668	2209.52
1952.868	2284.64
1956.067	2271.73
1959.267	2213.98
1962.466	2236.69
1965.665	2219.52
1968.863	2210.32
1972.061	2212.67
1975.259	2207.48
1978.457	2283.47
1981.654	2245.33
1984.852	2250.75
1988.048	2198.65
1991.245	2188.52
1994.441	2276.39
1997.637	2236.95
2000.833	2218.31
2004.028	2254.13
2007.223	2316.52
2010.418	2301.9
2013.613	2252.72
2016.807	2245.4
2020.001	2238.32
2023.194	2263.78
2026.388	2248.24
2029.581	2191.7
2032.774	2252.53
2035.966	2265.62
2039.158	2211.1
2042.35	2230.36
2045.542	2157.24
2048.733	2240.28
2051.924	2235.68
2055.115	2251.94
2058.306	2215.08
2061.496	2269.25
2064.686	2320.4
2067.875	2227.6
2071.065	2229.28
2074.254	2249.59
2077.442	2202.73
2080.631	2286.6
2083.819	2216.97
2087.007	2204.04
2090.195	2189.87
2093.382	2206.63
2096.569	2190.66
2099.756	2152.22
2102.942	2198.06
2106.128	2212.88
2109.314	2201.76
2112.5	2188.08
2115.685	2153.07
2118.87	2159.85
2122.055	2225.09
2125.239	2204.42
2128.424	2188.88
2131.608	2252.16
2134.791	2235.93
2137.974	2273.09
2141.157	2261.52
2144.34	2230.87
2147.523	2222.79
2150.705	2249.29
2153.887	2218.9
2157.068	2189.5
2160.25	2172.71
2163.431	2196.68
2166.611	2163.5
2169.792	2186.01
2172.972	2098.79
2176.152	2149
2179.331	2177.95
2182.511	2181.34
2185.69	2203.69
2188.868	2207.63
2192.047	2242.07
2195.225	2254.79
2198.403	2207.01
2201.58	2195.61
2204.758	2179.71
2207.935	2255.33
2211.111	2170.35
2214.288	2157.96
2217.464	2189.74
2220.64	2147.65
2223.815	2197.87
2226.991	2130.07
2230.166	2147.66
2233.34	2189.22
2236.515	2202.06
2239.689	2267.32
2242.863	2217.09
2246.036	2272.06
2249.209	2254.66
2252.382	2275.06
2255.555	2283.69
2258.727	2232.49
2261.9	2262.12
2265.071	2253.16
2268.243	2249.78
2271.414	2197.85
2274.585	2181.87
2277.756	2242.71
2280.926	2196.62
2284.096	2229.84
2287.266	2158.47
2290.436	2204.05
2293.605	2222.72
2296.774	2262.57
2299.942	2266.92
2303.111	2282.49
2306.279	2333
2309.447	2319.09
2312.614	2287.66
2315.781	2314.62
2318.948	2290.08
2322.115	2328.44
2325.281	2227.16
2328.447	2239.26
2331.613	2207.34
2334.779	2198.13
2337.944	2194.17
2341.109	2197.47
2344.274	2184.86
2347.438	2152.39
2350.602	2174.06
2353.766	2183.41
2356.929	2171.82
2360.092	2211.01
2363.255	2178.61
2366.418	2143.35
2369.58	2212.38
2372.742	2081.95
2375.904	2075.5
2379.066	2059.58
2382.227	2089.97
2385.388	2050.8
2388.548	1997.41
2391.709	2041.61
2394.869	2029.26
2398.029	2087.77
2401.188	2084.47
2404.347	2045.81
2407.506	2129.07
2410.665	2168.69
2413.823	2155.89
2416.981	2131.47
2420.139	2149.5
2423.296	2193.83
2426.453	2164.19
2429.61	2185.73
2432.767	2153.53
2435.923	2194.73
2439.079	2141.58
2442.235	2176.06
2445.391	2116.77
2448.546	2157.64
2451.701	2194.41
2454.855	2187.97
2458.009	2216.05
2461.163	2210.13
2464.317	2179.58
2467.471	2204.34
2470.624	2233.45
2473.777	2224.29
2476.929	2240.52
2480.082	2264.77
2483.234	2237.86
2486.385	2176.94
2489.537	2172.26
2492.688	2160.23
2495.839	2174.57
2498.989	2191.32
2502.14	2180.55
2505.29	2171.24
2508.439	2195.19
2511.589	2135.61
2514.738	2132.39
2517.887	2156.08
2521.035	2233.86
2524.183	2192.55
2527.331	2180.55
2530.479	2172.32
2533.627	2174.35
