Data from C_1_DEC_VA_2N_Splice17_11-57-39-235.txt Node
Date: Sat Mar 14 11:57:39 EDT 2020
User: sa697716
Spectrometer: FLMS03696
Trigger mode: 0
Integration Time (sec): 3.180400E-1
Scans to average: 20
Electric dark correction enabled: true
Nonlinearity correction enabled: true
Boxcar width: 5
XAxis mode: Wavelengths
Number of Pixels in Spectrum: 2048
>>>>>Begin Spectral Data<<<<<
187.83	-198787.57
188.298	1306.35
188.766	793.72
189.233	797.6
189.701	1045.48
190.169	1542.08
190.636	546.89
191.104	431.29
191.571	42.66
192.039	-83.91
192.506	-50.86
192.974	585.74
193.441	-1399.57
193.908	-372.27
194.375	-78.17
194.842	-50.5
195.31	30.13
195.777	143.26
196.244	341.57
196.711	448.08
197.177	567.02
197.644	819.48
198.111	1434.64
198.578	2031.47
199.045	1575.55
199.511	2606.51
199.978	3041.08
200.445	2587.8
200.911	2866.92
201.378	3238.94
201.844	2944.18
202.31	5030.74
202.777	5271.54
203.243	2932.39
203.709	2801.5
204.176	3377.95
204.642	2783.51
205.108	2584.13
205.574	2131.63
206.04	1943.74
206.506	1814.93
206.972	1722.6
207.438	1663.86
207.903	1899.8
208.369	1677.79
208.835	1663.51
209.301	1752.36
209.766	1803.44
210.232	1800.07
210.697	2202.49
211.163	2720.98
211.628	4093.04
212.094	3417.53
212.559	4182.27
213.024	2609.38
213.49	3173.35
213.955	3122.38
214.42	3019.64
214.885	2789.33
215.35	2681.7
215.815	2586.42
216.28	2735.73
216.745	2226.02
217.21	2406.09
217.675	2213.09
218.14	2460.94
218.604	2743.21
219.069	3123.64
219.534	3281.27
219.998	3835.94
220.463	4637.37
220.927	5709.33
221.392	5386.28
221.856	5474.95
222.32	6904.84
222.785	8524.44
223.249	10735.12
223.713	11962.99
224.177	11934.81
224.642	15310.11
225.106	18789.52
225.57	20563.97
226.034	15305.5
226.497	23290.68
226.961	20987.18
227.425	24392.83
227.889	27097.26
228.353	27155.43
228.816	56107.78
229.28	53697.14
229.744	45247.61
230.207	27504.79
230.671	27028.35
231.134	44724.95
231.597	51484.99
232.061	51554.65
232.524	50281.1
232.987	34596.63
233.45	31127.99
233.914	27910.62
234.377	28632.35
234.84	26245.18
235.303	30948.94
235.766	34534.75
236.229	35664.88
236.691	22480.55
237.154	25251.71
237.617	19008.76
238.08	19477.67
238.542	22804.7
239.005	16309.48
239.468	16195.91
239.93	15247.21
240.393	13868.3
240.855	12184.78
241.317	12482.03
241.78	15199.86
242.242	15717.28
242.704	16979.57
243.166	14797.48
243.629	13430.81
244.091	15472.62
244.553	16944.54
245.015	18251.47
245.477	23608.35
245.939	34615.22
246.4	36755.89
246.862	35719.66
247.324	33689.14
247.786	37721.6
248.247	49446.23
248.709	51103.75
249.17	38263.11
249.632	36097.61
250.093	41869.92
250.555	36173.14
251.016	22070.61
251.477	20937.25
251.939	22633.33
252.4	23761.55
252.861	28285.59
253.322	26331.37
253.783	31370.03
254.244	40697.25
254.705	32091.61
255.166	28528.38
255.627	28107.86
256.088	39629.83
256.549	42140.94
257.009	36274.71
257.47	44010.64
257.931	35850.83
258.391	26869.27
258.852	27693.08
259.312	29052.54
259.773	35902.37
260.233	30367.27
260.694	25614.69
261.154	29098.45
261.614	23376.97
262.074	20924.05
262.534	21755.11
262.994	20518.54
263.455	27350.35
263.915	23038.81
264.374	21708.35
264.834	23729.81
265.294	26322.7
265.754	27272.33
266.214	25811.76
266.673	24166.2
267.133	30504.78
267.593	30273.27
268.052	36994.29
268.512	32169.11
268.971	38823.15
269.431	42543.89
269.89	38081.74
270.349	57037.11
270.809	63650.49
271.268	57230.12
271.727	128426.64
272.186	83178.03
272.645	62347.21
273.104	44997.71
273.563	65173.66
274.022	51218.09
274.481	43583.22
274.94	33578
275.399	24967.35
275.857	29053.54
276.316	39284.02
276.775	34941.56
277.233	34429.41
277.692	32252.83
278.15	36488.06
278.609	37547.52
279.067	34795.85
279.525	32331.87
279.984	41753.15
280.442	50113.27
280.9	49426.67
281.358	32524.61
281.816	30311.17
282.274	29638.67
282.732	30632.17
283.19	30795.7
283.648	26589.07
284.106	28313.94
284.564	28813.01
285.021	26724.91
285.479	19947.46
285.937	18159.78
286.394	15938.47
286.852	16419.96
287.309	17261.98
287.767	16674.43
288.224	15859.98
288.682	17396.53
289.139	19090.83
289.596	17467.78
290.053	18141.07
290.511	22890.38
290.968	27736.94
291.425	37672.46
291.882	31343.56
292.339	27323.29
292.796	27084.6
293.252	25529.78
293.709	20255.18
294.166	18173.51
294.623	20088.47
295.079	19279.59
295.536	19373.64
295.992	17609.36
296.449	17406.07
296.905	18068.35
297.362	17330.13
297.818	18239.11
298.274	18898.21
298.731	19279.73
299.187	19063.31
299.643	20462.31
300.099	24779.42
300.555	27181.33
301.011	22677.84
301.467	21845.33
301.923	25591.16
302.379	24977.11
302.835	24555.57
303.291	24625.57
303.746	28029.84
304.202	35412.86
304.658	35561.79
305.113	23914.86
305.569	23435.02
306.024	25013.56
306.479	23835.19
306.935	20137.15
307.39	22002.21
307.845	20309.01
308.301	20438.34
308.756	19928
309.211	19205.87
309.666	19695.6
310.121	24451.56
310.576	24837.18
311.031	24660.48
311.486	28254.26
311.94	28196.52
312.395	37738.37
312.85	70956.17
313.305	348575.08
313.759	1804552.34
314.214	130820.62
314.668	103745.33
315.123	87263.01
315.577	31294.65
316.032	27825.55
316.486	34905.7
316.94	27547.3
317.394	19153.65
317.849	14902.77
318.303	14137.87
318.757	13353.09
319.211	14763.1
319.665	12922.44
320.119	13088.31
320.572	18788.5
321.026	17547.7
321.48	14588.55
321.934	15930.87
322.387	15983.51
322.841	17254.86
323.295	15498.26
323.748	17849.86
324.202	18110.91
324.655	21763.44
325.108	30400.87
325.562	21432.37
326.015	25517.8
326.468	19313.01
326.921	21602.57
327.374	20135.37
327.827	20972.2
328.28	23749.96
328.733	15900.87
329.186	13987.38
329.639	13306.3
330.092	11219.48
330.545	10703.94
330.997	10784.75
331.45	11785.24
331.903	13785.53
332.355	23708.57
332.808	23041.56
333.26	19022.01
333.713	20668.49
334.165	20807.75
334.617	27801.89
335.069	22462.67
335.522	40617.58
335.974	44977.86
336.426	41065.35
336.878	28484.53
337.33	14476.54
337.782	14147.94
338.234	17688.25
338.686	21116.65
339.137	25032.42
339.589	23616.71
340.041	18492.15
340.493	15898.2
340.944	16294.89
341.396	17561.72
341.847	14750.37
342.299	17394.09
342.75	21180.98
343.201	18530.99
343.653	21366.83
344.104	26258.59
344.555	20648.68
345.006	32116.75
345.457	24619.12
345.908	19557.66
346.359	18432.33
346.81	15030.61
347.261	15852.04
347.712	15624.95
348.163	16741.75
348.613	16928.44
349.064	15826.3
349.515	13854.86
349.965	14238.12
350.416	17132.91
350.866	18802.71
351.317	21211.5
351.767	35143.14
352.217	44326.27
352.668	36873.17
353.118	33807.46
353.568	32648.44
354.018	25803.59
354.468	27203.22
354.918	19525.99
355.368	17062.04
355.818	24092.65
356.268	69446.88
356.718	290456.41
357.168	72343.56
357.617	36244.07
358.067	40288.6
358.517	37704.51
358.966	44187.96
359.416	49546.79
359.865	53478.76
360.315	63603.1
360.764	29704.09
361.213	16600.63
361.663	15747.67
362.112	19418.31
362.561	31372.55
363.01	23652.58
363.459	19904.26
363.908	21552.48
364.357	18300.81
364.806	30876.12
365.255	21254.53
365.703	19520.51
366.152	19596.33
366.601	15888.31
367.05	12929.24
367.498	11760.78
367.947	12305
368.395	12803.47
368.844	11308.48
369.292	13672.5
369.74	9466.44
370.189	14521.73
370.637	16977.16
371.085	14619.35
371.533	17789.53
371.981	17068.41
372.429	16256.19
372.877	16906.22
373.325	14163.42
373.773	14465.3
374.221	12863.93
374.669	15950.15
375.116	13773.67
375.564	13908.32
376.012	15575.59
376.459	12848.84
376.907	15426.81
377.354	18685.83
377.801	17461.82
378.249	20072.75
378.696	25667.86
379.143	31072.98
379.591	33132.93
380.038	56111.38
380.485	40523.44
380.932	43799.94
381.379	40077.42
381.826	29471.96
382.273	20961.34
382.72	18289.43
383.166	17828.96
383.613	11563.62
384.06	10413.82
384.506	12058.75
384.953	8861.1
385.4	8923.83
385.846	7817.15
386.292	7613.9
386.739	7457.4
387.185	7366.93
387.631	7392.52
388.078	7174.16
388.524	7673.81
388.97	7102.72
389.416	5930.81
389.862	6317.62
390.308	5985.92
390.754	6088.52
391.2	6623.65
391.645	6783.6
392.091	6504.29
392.537	6298.75
392.983	6318.36
393.428	6232.04
393.874	6693.33
394.319	6725.2
394.765	6392.14
395.21	6594.7
395.655	6194.1
396.101	5805.59
396.546	5248.94
396.991	5297.71
397.436	4922.75
397.881	4762.82
398.326	4516.77
398.771	4276.81
399.216	3745.96
399.661	3371.99
400.106	3364.03
400.551	3452.11
400.995	3099.83
401.44	3066.34
401.885	2883.31
402.329	2911.08
402.774	2788.66
403.218	2695.75
403.663	2595.19
404.107	2664.81
404.551	2681.52
404.995	2456.24
405.44	2359.81
405.884	2395.96
406.328	2318.87
406.772	2309.46
407.216	2104
407.66	2035.15
408.104	1934.11
408.547	1811.34
408.991	1751.71
409.435	1685.58
409.879	1658.83
410.322	1635.66
410.766	1577.8
411.209	1497.99
411.653	1434.64
412.096	1403.49
412.54	1405.95
412.983	1394.56
413.426	1393.42
413.869	1391.5
414.312	1363.99
414.756	1315.83
415.199	1253.83
415.642	1215.33
416.085	1217.72
416.527	1211.75
416.97	1228.71
417.413	1163.64
417.856	1151.59
418.298	1139.06
418.741	1128.4
419.184	1125.48
419.626	1170.52
420.069	1171.38
420.511	1177.71
420.953	1150.15
421.396	1138.78
421.838	1111.39
422.28	1133.4
422.722	1138.05
423.164	1154.72
423.606	1136.73
424.048	1134.56
424.49	1078.24
424.932	1070.23
425.374	1052.78
425.816	1069.35
426.258	1087.94
426.699	1097.71
427.141	1082.39
427.582	1096.38
428.024	1091.95
428.465	1083.29
428.907	1053.36
429.348	1038.15
429.789	1038.38
430.231	1017.52
430.672	1029.34
431.113	1004.33
431.554	988.07
431.995	961.67
432.436	927.42
432.877	904.9
433.318	890.49
433.759	887.66
434.2	888.59
434.64	879.89
435.081	882.78
435.522	837.87
435.962	806.54
436.403	791.94
436.843	802.74
437.284	784.55
437.724	764.21
438.164	767.67
438.604	751.09
439.045	723.03
439.485	694.31
439.925	678.23
440.365	662.04
440.805	654.31
441.245	644.69
441.685	622.45
442.125	619.58
442.564	622.97
443.004	607.12
443.444	604.89
443.883	604.21
444.323	598.9
444.762	600.45
445.202	608.81
445.641	619.76
446.081	615.41
446.52	620.07
446.959	613.06
447.398	598.34
447.837	591.52
448.276	582.46
448.716	590.31
449.154	593.96
449.593	581.13
450.032	579.09
450.471	568.09
450.91	568.53
451.349	567.11
451.787	565.72
452.226	574.75
452.664	575.17
453.103	574.83
453.541	572.67
453.98	571.65
454.418	574.82
454.856	566.34
455.295	565.93
455.733	571.5
456.171	574.59
456.609	575.35
457.047	575.15
457.485	582.44
457.923	584.81
458.361	577.68
458.798	580.24
459.236	578.82
459.674	582.19
460.111	584.35
460.549	577.28
460.987	574.93
461.424	573.2
461.862	571.33
462.299	564.08
462.736	563.05
463.173	564.96
463.611	559.78
464.048	558.87
464.485	563.03
464.922	558.51
465.359	555.74
465.796	549.72
466.233	545.81
466.67	540.66
467.106	539.84
467.543	534.82
467.98	527.27
468.416	514.11
468.853	509.88
469.29	495.51
469.726	488.27
470.162	476.14
470.599	469.47
471.035	465.08
471.471	454.54
471.907	451.52
472.344	448.92
472.78	450.02
473.216	454.47
473.652	449.04
474.088	447.1
474.523	447.1
474.959	451.04
475.395	446.04
475.831	443.52
476.266	444.57
476.702	442.51
477.138	436.09
477.573	434.68
478.008	433.53
478.444	435.57
478.879	439.52
479.314	440.9
479.75	439.8
480.185	442.44
480.62	445.21
481.055	447.68
481.49	451.18
481.925	458.01
482.36	466.27
482.795	477.86
483.229	490.71
483.664	501.17
484.099	502.71
484.534	510.21
484.968	514.84
485.403	516.78
485.837	515.38
486.271	514.66
486.706	515.05
487.14	509.03
487.574	501.27
488.009	495.88
488.443	491.19
488.877	496.99
489.311	499
489.745	505.19
490.179	510.42
490.613	521.1
491.046	525.32
491.48	530.23
491.914	531.67
492.348	537.28
492.781	542.14
493.215	544.54
493.648	546.54
494.082	551.74
494.515	553.11
494.948	560.46
495.382	564.62
495.815	569.72
496.248	575.64
496.681	587.17
497.114	596.97
497.547	606.58
497.98	619.72
498.413	626.23
498.846	636.73
499.279	647
499.711	652.48
500.144	656.92
500.577	668.39
501.009	680.32
501.442	691.02
501.874	695.52
502.306	700.9
502.739	710.46
503.171	726.31
503.603	732
504.036	742.17
504.468	750.8
504.9	764.58
505.332	774.32
505.764	781.44
506.196	792.03
506.627	808.55
507.059	823.33
507.491	835.17
507.923	837.67
508.354	855.32
508.786	869.37
509.217	889.62
509.649	907.77
510.08	928.87
510.512	948.87
510.943	967.33
511.374	982.81
511.805	1006.9
512.237	1028.82
512.668	1063.58
513.099	1094.49
513.53	1125.03
513.961	1149.08
514.391	1183.52
514.822	1219.62
515.253	1257.69
515.684	1286.58
516.114	1319.2
516.545	1342.98
516.975	1373.82
517.406	1397.09
517.836	1404.04
518.267	1415.17
518.697	1437.81
519.127	1446.6
519.558	1458.72
519.988	1466.78
520.418	1480.64
520.848	1502.36
521.278	1515.74
521.708	1534.21
522.138	1549.6
522.567	1584.07
522.997	1611.62
523.427	1630.28
523.857	1650.79
524.286	1663.83
524.716	1682.07
525.145	1703.74
525.575	1716.53
526.004	1733.39
526.433	1731.42
526.863	1732.79
527.292	1724.09
527.721	1732.39
528.15	1739.62
528.579	1741.35
529.008	1753.77
529.437	1779.04
529.866	1794.52
530.295	1813.65
530.724	1827.42
531.152	1857.46
531.581	1873.04
532.01	1892.76
532.438	1903.33
532.867	1919.98
533.295	1939.99
533.723	1946.92
534.152	1945.58
534.58	1945.55
535.008	1929.8
535.436	1932.81
535.865	1940.47
536.293	1958.31
536.721	1975.68
537.149	2001.96
537.576	2005.87
538.004	2018.7
538.432	2028.3
538.86	2027.47
539.287	2036.56
539.715	2053.01
540.143	2057.02
540.57	2054.48
540.998	2050.29
541.425	2026.81
541.852	2004.44
542.28	2002.21
542.707	1987.42
543.134	1972.68
543.561	1968.05
543.988	1960.2
544.415	1958.22
544.842	1951.67
545.269	1943.9
545.696	1945.95
546.123	1958.84
546.549	1948.59
546.976	1933.9
547.403	1931.98
547.829	1933.73
548.256	1935.04
548.682	1930.35
549.108	1922.7
549.535	1921.9
549.961	1922.88
550.387	1907.84
550.813	1900.11
551.24	1905.75
551.666	1907.27
552.092	1896.05
552.518	1888.37
552.943	1880.69
553.369	1887.6
553.795	1892.51
554.221	1893.35
554.646	1889.04
555.072	1899.15
555.498	1903.59
555.923	1912.22
556.349	1927.01
556.774	1936.32
557.199	1936.89
557.625	1942.57
558.05	1934.71
558.475	1944.58
558.9	1941.09
559.325	1930.85
559.75	1922.91
560.175	1916.37
560.6	1908.71
561.025	1904.79
561.449	1903.77
561.874	1907.95
562.299	1912.07
562.723	1919.9
563.148	1909.47
563.572	1913.27
563.997	1923.23
564.421	1928.78
564.846	1928.06
565.27	1930.68
565.694	1926.67
566.118	1939.13
566.542	1946.32
566.966	1938.18
567.39	1931.66
567.814	1918.7
568.238	1917.4
568.662	1922.09
569.086	1923.68
569.509	1930.03
569.933	1913.44
570.357	1906.49
570.78	1882.27
571.204	1867.12
571.627	1855.15
572.05	1851.88
572.474	1850.06
572.897	1835.81
573.32	1827.72
573.743	1816.33
574.166	1796.58
574.589	1794.3
575.012	1783.4
575.435	1782.1
575.858	1771.35
576.281	1757.4
576.704	1740.25
577.126	1724.96
577.549	1711.7
577.972	1698.73
578.394	1685.94
578.817	1675.82
579.239	1655.45
579.661	1640.85
580.084	1622.35
580.506	1607.43
580.928	1602.28
581.35	1590.06
581.772	1584.75
582.194	1570.66
582.616	1556.47
583.038	1540.15
583.46	1528.64
583.882	1523.85
584.303	1527.13
584.725	1521.6
585.147	1522.13
585.568	1531.89
585.99	1543.31
586.411	1549.49
586.833	1562.75
587.254	1564.13
587.675	1577.64
588.096	1590.55
588.518	1585.95
588.939	1568.23
589.36	1564.55
589.781	1553.56
590.202	1524.56
590.623	1514.16
591.043	1510.41
591.464	1496.83
591.885	1491.44
592.305	1485.45
592.726	1470.24
593.147	1470.02
593.567	1464.45
593.987	1457.64
594.408	1453.06
594.828	1450.75
595.248	1444.28
595.669	1426.41
596.089	1419.35
596.509	1413.23
596.929	1399.13
597.349	1399.83
597.769	1390.08
598.189	1383.79
598.608	1384.79
599.028	1386.13
599.448	1385.74
599.867	1371.81
600.287	1366.28
600.706	1361.37
601.126	1350.68
601.545	1349.06
601.965	1347.02
602.384	1340.81
602.803	1342.44
603.222	1336.62
603.641	1328.48
604.061	1323.38
604.48	1319.27
604.898	1326.55
605.317	1329.84
605.736	1330.63
606.155	1327.66
606.574	1317.03
606.992	1321.3
607.411	1315.08
607.829	1305.79
608.248	1301.48
608.666	1298.26
609.085	1296.16
609.503	1286.28
609.921	1279.4
610.339	1280.47
610.758	1277.37
611.176	1272.92
611.594	1261.8
612.012	1258.04
612.43	1259.19
612.847	1264.2
613.265	1264.34
613.683	1268.02
614.101	1268.87
614.518	1264.74
614.936	1253.86
615.353	1238.75
615.771	1233.6
616.188	1233.54
616.606	1227.57
617.023	1220.52
617.44	1205.5
617.857	1197.89
618.274	1187.92
618.691	1179.37
619.108	1168.87
619.525	1161.93
619.942	1166.46
620.359	1167.76
620.776	1161.03
621.192	1156.74
621.609	1153.04
622.026	1158.81
622.442	1162.45
622.859	1164.58
623.275	1157.83
623.691	1162.41
624.108	1172.76
624.524	1185.37
624.94	1185.05
625.356	1194.38
625.772	1206.38
626.188	1216.51
626.604	1217.37
627.02	1213.35
627.436	1211.26
627.852	1218.1
628.268	1228.27
628.683	1218.73
629.099	1210.56
629.514	1205.37
629.93	1208.38
630.345	1212.42
630.761	1208.91
631.176	1212.15
631.591	1206.66
632.007	1201.63
632.422	1197.65
632.837	1187.19
633.252	1184.59
633.667	1175.09
634.082	1166.65
634.497	1153.29
634.911	1133.91
635.326	1129.58
635.741	1111.19
636.155	1100.14
636.57	1098.84
636.984	1097.06
637.399	1096.73
637.813	1094.05
638.228	1091.57
638.642	1091.82
639.056	1081.31
639.47	1079.26
639.884	1068.99
640.298	1061.19
640.712	1057.56
641.126	1043.59
641.54	1033.32
641.954	1025.77
642.368	1012.93
642.781	1003.15
643.195	986.23
643.609	983.61
644.022	975.64
644.436	969.64
644.849	956.33
645.262	944.24
645.676	942.79
646.089	937.03
646.502	921.83
646.915	914.85
647.328	897.62
647.741	893.45
648.154	880.63
648.567	875.93
648.98	863.17
649.393	862.08
649.805	856.75
650.218	849.19
650.631	834.48
651.043	827.59
651.456	821.31
651.868	820.39
652.28	832.89
652.693	842.07
653.105	846.26
653.517	853.01
653.929	852.36
654.341	855.79
654.753	845.28
655.165	848.54
655.577	844.27
655.989	838.15
656.401	829.49
656.813	797.87
657.224	780.76
657.636	755.86
658.047	738.84
658.459	720.91
658.87	711.78
659.282	699.9
659.693	681.9
660.104	669.13
660.515	656.36
660.926	652.35
661.338	647.62
661.749	638.87
662.159	629.7
662.57	623.77
662.981	617.82
663.392	609.67
663.803	610.32
664.213	605.97
664.624	600.32
665.035	599.94
665.445	588.07
665.855	582.05
666.266	575.23
666.676	571.48
667.086	563.36
667.497	561.53
667.907	555.91
668.317	547.86
668.727	545.24
669.137	545.09
669.547	542.75
669.956	544.18
670.366	544.84
670.776	545.34
671.186	547.43
671.595	549.86
672.005	552.35
672.414	552.3
672.824	551.19
673.233	553.81
673.642	555.28
674.052	558.49
674.461	561.24
674.87	564.86
675.279	564.18
675.688	566.18
676.097	568.78
676.506	567.24
676.915	578.95
677.323	581.91
677.732	581.99
678.141	582.24
678.549	575.61
678.958	575.99
679.366	576.66
679.775	581.98
680.183	592.12
680.592	597.55
681	603.35
681.408	599.37
681.816	607.6
682.224	615.68
682.632	626.51
683.04	651.16
683.448	672.02
683.856	700.24
684.264	730.62
684.671	759.58
685.079	796.14
685.487	835.75
685.894	891.56
686.302	937.33
686.709	977.18
687.116	1024.32
687.524	1065.06
687.931	1103.03
688.338	1135.04
688.745	1163.79
689.152	1196.81
689.559	1239.57
689.966	1284.07
690.373	1309.23
690.78	1353.44
691.187	1415.87
691.593	1465.02
692	1510.99
692.407	1573.93
692.813	1650.55
693.22	1715.53
693.626	1782.06
694.032	1836.35
694.439	1915.7
694.845	1979.25
695.251	2058.32
695.657	2130.67
696.063	2234.45
696.469	2312.99
696.875	2386.66
697.281	2432.66
697.687	2487.9
698.093	2532.86
698.498	2616.5
698.904	2681.27
699.31	2775.9
699.715	2843.9
700.12	2941.15
700.526	2966.3
700.931	3042.79
701.337	3103.73
701.742	3143.84
702.147	3234.8
702.552	3272.49
702.957	3337.37
703.362	3364.56
703.767	3400.97
704.172	3448.96
704.577	3407.37
704.981	3461.62
705.386	3484.41
705.791	3481.3
706.195	3564.24
706.6	3577.38
707.004	3664.59
707.408	3638.67
707.813	3672.91
708.217	3663.9
708.621	3670.07
709.025	3775.48
709.43	3779.61
709.834	3847.1
710.237	3922.5
710.641	3908.93
711.045	3935.92
711.449	3934.86
711.853	3968.91
712.256	4013.83
712.66	4056.36
713.064	4140.91
713.467	4189.2
713.87	4314.14
714.274	4365.56
714.677	4486.16
715.08	4660.3
715.484	4841.88
715.887	5060.41
716.29	5272.76
716.693	5497.3
717.096	5755.33
717.499	5897.49
717.901	5927.95
718.304	5955.89
718.707	5987.33
719.109	5879.04
719.512	5850.2
719.915	5708.44
720.317	5648.83
720.719	5698.77
721.122	5668.56
721.524	5614.85
721.926	5569.97
722.328	5677.28
722.731	5670.9
723.133	5701.72
723.535	5911.7
723.937	5934.56
724.338	5992.97
724.74	6035.53
725.142	5953.04
725.544	5953.53
725.945	5981.22
726.347	5978.94
726.748	5973.05
727.15	5987.41
727.551	5945.28
727.952	5916.35
728.354	5883.48
728.755	5881.28
729.156	5839.93
729.557	5840.73
729.958	5712.48
730.359	5660.86
730.76	5640.2
731.161	5574.79
731.562	5550.33
731.962	5556.68
732.363	5486.43
732.763	5422.37
733.164	5463.11
733.564	5391.36
733.965	5291.1
734.365	5255.53
734.766	5284.06
735.166	5243.88
735.566	5186.84
735.966	5158.08
736.366	5151.01
736.766	5088.58
737.166	5121.1
737.566	5076.62
737.966	5047.8
738.365	5090.97
738.765	5083.44
739.165	5004.89
739.564	4977.13
739.964	5027.42
740.363	4977.4
740.763	4974.77
741.162	4960.63
741.561	4927.42
741.96	4878.61
742.36	4900.21
742.759	4904.65
743.158	4943.39
743.557	4958.77
743.955	5003.06
744.354	4953.13
744.753	5015.21
745.152	4970.49
745.55	5027.92
745.949	5022.01
746.348	5026.3
746.746	5044.61
747.144	5002.15
747.543	4980.71
747.941	5029.31
748.339	4953.5
748.737	4946.22
749.136	4934.54
749.534	5004.89
749.932	4974.27
750.33	4994.45
750.727	5052.17
751.125	5029.61
751.523	5014.45
751.921	5058.46
752.318	5024.76
752.716	5085.57
753.113	5098.76
753.511	5128.49
753.908	5128.93
754.305	5111.16
754.703	5177.45
755.1	5239.42
755.497	5296.72
755.894	5495.09
756.291	5685.58
756.688	6033.74
757.085	6497.73
757.482	7151.67
757.878	7859.53
758.275	8500.11
758.672	9387.38
759.068	10115.45
759.465	11147.77
759.861	12489.65
760.258	14043.42
760.654	14846.49
761.05	14725.27
761.447	14057.98
761.843	13078.69
762.239	12081.13
762.635	11636.07
763.031	11205.27
763.427	10579.54
763.822	9920.88
764.218	9265.54
764.614	8413.94
765.01	7849.03
765.405	7484.23
765.801	7204.59
766.196	6854.95
766.592	6658.53
766.987	6322.36
767.382	6095.69
767.778	5999.85
768.173	5862.43
768.568	5784.76
768.963	5654.7
769.358	5672.14
769.753	5622.69
770.148	5535.12
770.542	5535.56
770.937	5501.97
771.332	5596.62
771.726	5620.74
772.121	5554.61
772.515	5612.01
772.91	5598.64
773.304	5671.01
773.699	5600.45
774.093	5656.1
774.487	5713.74
774.881	5758.74
775.275	5758.01
775.669	5716.99
776.063	5760.63
776.457	5799.66
776.851	5721.16
777.245	5715.33
777.638	5754.92
778.032	5879.05
778.425	5842.96
778.819	5888.93
779.212	5841.88
779.606	5795.2
779.999	5816.73
780.392	5796.84
780.786	5883.3
781.179	5904.99
781.572	5947.33
781.965	5956.67
782.358	5894.04
782.751	5950.5
783.143	5899.75
783.536	5979.77
783.929	6025.58
784.322	6144.57
784.714	6177.24
785.107	6171.09
785.499	6247.92
785.891	6226.44
786.284	6206.49
786.676	6351.43
787.068	6332.03
787.46	6381.02
787.852	6399.7
788.245	6488.86
788.636	6519.61
789.028	6592.6
789.42	6630.76
789.812	6637.47
790.204	6736.75
790.595	6839.97
790.987	6634.21
791.378	6656.54
791.77	6793.7
792.161	6934.49
792.553	6992.26
792.944	6872.45
793.335	6797.15
793.726	6871.63
794.117	6964.56
794.508	7105.11
794.899	7073.74
795.29	7225.03
795.681	7288.15
796.072	7138.99
796.463	6941.53
796.853	6953.91
797.244	7117.5
797.634	7151.49
798.025	7148.28
798.415	7157.53
798.806	7248.93
799.196	7338.26
799.586	7389.81
799.976	7347.53
800.366	7589.86
800.756	7843.06
801.146	7794.02
801.536	7828.54
801.926	7908.74
802.316	7939.59
802.706	8021.54
803.095	7893.03
803.485	8001.46
803.874	8047.07
804.264	8319.26
804.653	8289.97
805.043	8439.26
805.432	8559.42
805.821	8561.39
806.21	8582.89
806.599	8708.86
806.988	8753.29
807.377	8871.05
807.766	9004.63
808.155	9299.35
808.544	9021.34
808.933	9035.58
809.321	9016.13
809.71	9322.02
810.098	9491.38
810.487	9979.01
810.875	10486.69
811.264	10514.58
811.652	10813.84
812.04	10969.97
812.428	11140.44
812.816	11944.29
813.204	12387.29
813.592	12969.9
813.98	13328.11
814.368	13216.95
814.756	13716.04
815.144	13629.66
815.531	14117.93
815.919	14041.06
816.306	14357.07
816.694	14025.11
817.081	14075.57
817.469	14438.23
817.856	14427.94
818.243	14708.15
818.63	15120.66
819.017	14676.74
819.404	14737.06
819.791	15131.6
820.178	15777.38
820.565	16038.87
820.952	17013.85
821.339	16496.31
821.725	16683.47
822.112	15910.51
822.498	15863.73
822.885	15998.01
823.271	15899.1
823.657	16332.89
824.044	16335.01
824.43	16403.35
824.816	16363.74
825.202	15914.09
825.588	16977.65
825.974	16995.87
826.36	17539.72
826.746	17574.34
827.132	17953.1
827.517	17929.7
827.903	17116.15
828.289	17164.68
828.674	16359.09
829.06	16260.27
829.445	16680.31
829.83	17057.77
830.216	17556.75
830.601	17934.19
830.986	17514.21
831.371	17366.86
831.756	17951.6
832.141	17496.66
832.526	17485.13
832.911	17779.02
833.295	17655.87
833.68	18141.09
834.065	17493.25
834.449	16548.93
834.834	16474.1
835.218	16463.97
835.603	16825.54
835.987	16604.55
836.371	17483.59
836.755	17372.29
837.139	17792.16
837.524	18051.81
837.908	17868.26
838.291	17936.06
838.675	18004.68
839.059	18233.47
839.443	18231.69
839.827	17991.16
840.21	18500.06
840.594	18345.67
840.977	18567.77
841.361	18548.85
841.744	18938.95
842.127	18785.15
842.511	19038.38
842.894	19666.44
843.277	20064.77
843.66	20638.9
844.043	20733.77
844.426	19885.06
844.809	19560.03
845.191	19591.52
845.574	19113.09
845.957	18735.58
846.339	18617.71
846.722	18075.24
847.104	18147.08
847.487	17967.71
847.869	17975.72
848.252	18263.9
848.634	18612.12
849.016	18896.61
849.398	19040.35
849.78	19934.51
850.162	19933.46
850.544	20364.07
850.926	21020.43
851.307	20925.29
851.689	21217.11
852.071	21688.86
852.452	22030.61
852.834	22008.29
853.215	22414.61
853.597	22566.88
853.978	22875.59
854.359	23358.81
854.741	22320.19
855.122	22219.94
855.503	21915.04
855.884	22042.25
856.265	21980.77
856.646	22100.38
857.026	21683.08
857.407	21609.68
857.788	21763.14
858.169	22062.87
858.549	21173.6
858.93	21828.75
859.31	21873.48
859.69	22088.8
860.071	21667.73
860.451	21435.8
860.831	20667.97
861.211	21886.03
861.591	22464.36
861.971	22442.76
862.351	22650.15
862.731	23053.61
863.111	23330.95
863.491	23663.42
863.87	24588.18
864.25	24962.24
864.629	24550.08
865.009	25075.72
865.388	25962.53
865.768	27816.73
866.147	27709.94
866.526	26154.01
866.905	26477.16
867.284	27969.2
867.663	26559.07
868.042	25446.62
868.421	25351.41
868.8	25768.5
869.179	26020.3
869.558	24508.3
869.936	22597.84
870.315	22995.22
870.693	23566.49
871.072	25400.58
871.45	24192.9
871.828	24511.04
872.207	25768.48
872.585	25390.78
872.963	26084.9
873.341	25183.47
873.719	24889.84
874.097	24594.83
874.475	25078.97
874.853	25650.03
875.23	24589.57
875.608	25608.97
875.986	27706.67
876.363	26500.85
876.741	27304.69
877.118	26613.37
877.495	27922.11
877.873	28388.86
878.25	29852.99
878.627	28633.38
879.004	29033.66
879.381	28894.11
879.758	28140.66
880.135	26207.17
880.512	27713
880.889	26976.72
881.265	26708.34
881.642	26492.27
882.019	26941.8
882.395	26398.91
882.772	27441.44
883.148	26259.25
883.524	26161.56
883.901	26007.91
884.277	26396.4
884.653	26234.49
885.029	26993.13
885.405	29885.3
885.781	29659.82
886.157	28435.03
886.532	28785.51
886.908	28767.85
887.284	31995.36
887.659	33029.22
888.035	34075.98
888.411	34960.01
888.786	35414.4
889.161	36650.33
889.537	35970.94
889.912	37113.55
890.287	37080.87
890.662	38047.2
891.037	37370.28
891.412	34834.81
891.787	34480.88
892.162	33264.82
892.536	34042.38
892.911	32771.2
893.286	32074.64
893.66	30785.49
894.035	31580.26
894.409	34381.42
894.784	32994.33
895.158	33546.66
895.532	35534.82
895.906	36500.68
896.281	37352.24
896.655	36748.06
897.029	41990.51
897.402	43740.24
897.776	48700.87
898.15	48522.5
898.524	48014.7
898.898	48658.92
899.271	54441.02
899.645	47163.97
900.018	45327.44
900.392	47018.3
900.765	47406.02
901.138	43894.23
901.511	43241.17
901.884	39693.53
902.258	36604.5
902.631	37812.88
903.003	43515.07
903.376	39280.83
903.749	44038.53
904.122	47125.47
904.495	51898.65
904.867	52534.83
905.24	45593.55
905.612	42431.43
905.985	43398.71
906.357	45394.77
906.729	43316.1
907.102	36982.81
907.474	35557.69
907.846	35787.56
908.218	35295.94
908.59	31172.7
908.962	30144.18
909.334	32437.39
909.705	34050.66
910.077	33033.42
910.449	34373.96
910.82	35337.71
911.192	38891.17
911.563	40407.23
911.935	43228.18
912.306	43302.64
912.677	44716.42
913.048	44273.85
913.419	48036.33
913.79	48311.75
914.161	51835.71
914.532	49533.43
914.903	45529.03
915.274	43222.32
915.645	42588.77
916.015	37477.16
916.386	35740.52
916.756	38022.52
917.127	39216.04
917.497	35016.18
917.868	38103.02
918.238	36199.82
918.608	37249.23
918.978	38018.44
919.348	40277.88
919.718	41619.76
920.088	40094.06
920.458	41661.3
920.828	43867.58
921.198	41589.43
921.567	44483.21
921.937	34444.88
922.306	34771.89
922.676	37487.91
923.045	31256.01
923.415	29684.09
923.784	27031.47
924.153	27801.49
924.522	27759.22
924.891	26096.63
925.26	27955.98
925.629	27277.17
925.998	31377.18
926.367	30633.98
926.736	29151.3
927.104	34731.3
927.473	37342.93
927.842	45106.23
928.21	44656.2
928.578	46952.68
928.947	44403.24
929.315	44686.49
929.683	52407.21
930.051	52825.11
930.42	61346.16
930.788	52518.88
931.156	52148.55
931.523	48898.3
931.891	45197.88
932.259	43428.22
932.627	50320.1
932.994	71208.88
933.362	58817.08
933.729	51098.69
934.097	48898.65
934.464	41408.92
934.831	47739.73
935.199	47055.84
935.566	45619.57
935.933	46156.85
936.3	55916.9
936.667	43556.07
937.034	39257.65
937.401	38854.27
937.767	33519.34
938.134	29855.91
938.501	42062.56
938.867	44869.42
939.234	75900.02
939.6	64785.07
939.967	71472.72
940.333	47858.3
940.699	40745.83
941.065	32736.69
941.431	42873.27
941.798	41361.24
942.163	54302.91
942.529	33947.15
942.895	31248.66
943.261	20214.67
943.627	26534
943.992	23239.85
944.358	23241.5
944.723	23332.74
945.089	22726.61
945.454	21016.84
945.82	22446.69
946.185	21590.87
946.55	25032.37
946.915	22444.76
947.28	26321.66
947.645	23154.54
948.01	21376.98
948.375	22288.2
948.74	26711.95
949.104	31184.2
949.469	45097.48
949.834	79764.27
950.198	75564.35
950.562	45276.42
950.927	37713.67
951.291	45366.48
951.655	38715.93
952.02	36368.58
952.384	27525.91
952.748	23952.21
953.112	23328.13
953.476	20273.24
953.839	18738.55
954.203	18529.68
954.567	23148.46
954.931	36447.94
955.294	31181.01
955.658	31330.8
956.021	53251.42
956.385	90338.21
956.748	133237.43
957.111	207005.52
957.474	232487
957.837	261654.44
958.2	198265.04
958.563	71347.69
958.926	48272.15
959.289	73222.78
959.652	81731.41
960.015	61420.19
960.377	88099.47
960.74	100553.95
961.102	173631.08
961.465	186279.62
961.827	99670.64
962.189	191124.02
962.552	132511.14
962.914	106150.12
963.276	68813.11
963.638	56898.32
964	56314.46
964.362	38041.55
964.724	36823.88
965.085	26213.51
965.447	21486.16
965.809	24527.94
966.17	24584.03
966.532	26603.45
966.893	24419.58
967.255	22259.93
967.616	26266.57
967.977	21026.07
968.338	22984.51
968.699	18861.23
969.061	18866.64
969.421	19000.88
969.782	21326.98
970.143	18012
970.504	18649.54
970.865	21188.92
971.225	21669.13
971.586	21231.6
971.946	30277.12
972.307	26282.99
972.667	34393.7
973.027	35483.26
973.388	43078.61
973.748	29278.33
974.108	31877.21
974.468	43147.16
974.828	33253.12
975.188	25596.95
975.548	23483.77
975.907	19697.54
976.267	22093.44
976.627	18546.02
976.986	19218.99
977.346	18299.86
977.705	17607.41
978.064	16041.97
978.424	13343.31
978.783	13820.16
979.142	15766.18
979.501	15113.26
979.86	15986.79
980.219	15402.83
980.578	19882.87
980.937	22270.09
981.296	19863.53
981.654	20454.19
982.013	31773.77
982.371	41239.96
982.73	38499.66
983.088	43558.74
983.447	46440.11
983.805	66431.17
984.163	138905.6
984.521	154029.23
984.879	225596.71
985.237	-366369.23
985.595	352927.99
985.953	87834.99
986.311	50768.66
986.669	29478.63
987.026	25467.7
987.384	34258.99
987.741	35379.28
988.099	25243.35
988.456	20130.79
988.814	18841.63
989.171	16390.47
989.528	16165.75
989.885	17053.51
990.242	13491.82
990.599	16803.25
990.956	13730.42
991.313	9621.2
991.67	7896.27
992.027	8365.98
992.383	7435.77
992.74	6519.71
993.096	6837.93
993.453	7095
993.809	7365.4
994.165	9818.32
994.522	8999.26
994.878	9919.9
995.234	12421.44
995.59	12277.85
995.946	11632.05
996.302	13265.4
996.658	15356.91
997.013	16934.22
997.369	20049.4
997.725	25662.21
998.08	16635.84
998.436	25676.13
998.791	35436.14
999.147	35293.95
999.502	38448
999.857	27989.07
1000.212	45634.4
1000.567	64928.18
1000.922	37410.2
1001.277	23781.27
1001.632	17640.65
1001.987	22710.93
1002.342	16278.04
1002.696	13023.03
1003.051	10434.71
1003.406	12655.93
1003.76	12572.85
1004.114	12404.02
1004.469	10444.68
1004.823	8667.15
1005.177	9360.66
1005.531	7424.13
1005.885	6586.2
1006.239	7438.24
1006.593	9315.61
1006.947	12426.76
1007.301	9302.06
1007.655	10170.45
1008.008	7465.55
1008.362	8359.88
1008.715	11913.27
1009.069	10844.47
1009.422	16275.81
1009.776	32677
1010.129	21656.36
1010.482	18121.13
1010.835	15356.56
1011.188	32016.46
1011.541	30132.18
1011.894	-183958.11
1012.247	541976.31
1012.6	36914.26
1012.952	23189.25
1013.305	11971.91
1013.657	8635.08
1014.01	8180.13
1014.362	6738.56
1014.715	5981.63
1015.067	5206.58
1015.419	5085.92
1015.771	4518.61
1016.123	4009.21
1016.475	4118.81
1016.827	4410
1017.179	4731.28
1017.531	4758.91
1017.883	4868.2
1018.234	4697.22
1018.586	5917.46
1018.938	6253.37
1019.289	8619.15
1019.64	9868.73
1019.992	9231.24
1020.343	8447.41
1020.694	6645.12
1021.045	5885.37
1021.396	6699.6
1021.747	7183.88
1022.098	8624.36
1022.449	6287.75
1022.8	5832.65
1023.151	4063
1023.501	3586.21
1023.852	3887.86
1024.202	4020.43
1024.553	4427.32
1024.903	4316.12
1025.253	3698.31
1025.604	3330.9
1025.954	4138.55
1026.304	5043.22
1026.654	5883.67
1027.004	8624.05
1027.354	13991.9
1027.703	13164.63
1028.053	17396.04
1028.403	25269.71
1028.753	36653.38
1029.102	50021.52
1029.452	256819.05
1029.801	11107.92
1030.15	7158.14
1030.499	6072.12
897.758	2208.01
901.051	2141.7
904.343	2175.81
907.636	2182.45
910.928	2245.34
914.22	2165.92
917.511	2171.14
920.803	2220.11
924.094	2220.23
927.384	2220.64
930.675	2184.69
933.965	2147.89
937.255	2175.94
940.544	2143.24
943.834	2145.89
947.123	2083.47
950.411	2173.8
953.7	2154.95
956.988	2137.31
960.276	2073.2
963.563	2124.07
966.851	2133.84
970.138	2175.87
973.424	2178.44
976.711	2134.09
979.997	2178.45
983.283	2224.59
986.568	2152.23
989.853	2143.34
993.138	2172.24
996.423	2258.19
999.708	2213.31
1002.992	2244.49
1006.275	2160.38
1009.559	2167.46
1012.842	2266.48
1016.125	2219.46
1019.408	2200.06
1022.69	2255.46
1025.972	2290.14
1029.254	2266.55
1032.536	2226.44
1035.817	2239.78
1039.098	2208.69
1042.379	2261.01
1045.659	2286.48
1048.939	2234.56
1052.219	2243.54
1055.498	2237.85
1058.778	2236.36
1062.057	2211.55
1065.335	2233.98
1068.614	2245.63
1071.892	2238.72
1075.17	2295.91
1078.447	2297.41
1081.724	2293.82
1085.001	2318.72
1088.278	2298.94
1091.554	2303.55
1094.83	2300.19
1098.106	2335.51
1101.382	2366.37
1104.657	2365.94
1107.932	2369.32
1111.206	2343.11
1114.481	2298.47
1117.755	2298.94
1121.029	2292.59
1124.302	2350.64
1127.575	2316.89
1130.848	2312.57
1134.121	2282.65
1137.393	2246.54
1140.665	2301.93
1143.937	2280.28
1147.208	2230.25
1150.48	2285.76
1153.75	2274.05
1157.021	2277.86
1160.291	2253.53
1163.561	2309.61
1166.831	2275.45
1170.101	2303.45
1173.37	2262.11
1176.639	2222.3
1179.907	2266.4
1183.176	2289.1
1186.444	2292.49
1189.711	2317.43
1192.979	2338.4
1196.246	2297.25
1199.513	2304.99
1202.78	2313.38
1206.046	2323.1
1209.312	2351.4
1212.578	2368.15
1215.843	2335.14
1219.108	2302.24
1222.373	2324.46
1225.638	2297.04
1228.902	2287.98
1232.166	2242.46
1235.43	2232.4
1238.693	2258.21
1241.956	2248.69
1245.219	2296.59
1248.482	2281.11
1251.744	2277.67
1255.006	2403.75
1258.268	2349.51
1261.529	2305.18
1264.79	2309.19
1268.051	2406.8
1271.312	2419.41
1274.572	2387.31
1277.832	2375.87
1281.092	2357.69
1284.351	2348.34
1287.61	2331.76
1290.869	2264.71
1294.128	2262.64
1297.386	2313.66
1300.644	2304.61
1303.902	2314.44
1307.159	2182.94
1310.416	2234.74
1313.673	2263.52
1316.93	2259.16
1320.186	2290.43
1323.442	2325.21
1326.697	2325.73
1329.953	2299.84
1333.208	2334.06
1336.463	2307.73
1339.717	2269.7
1342.972	2372.63
1346.226	2344.91
1349.479	2292.96
1352.733	2273.47
1355.986	2278.4
1359.238	2259.43
1362.491	2266.06
1365.743	2266.2
1368.995	2258.84
1372.247	2270.74
1375.498	2289
1378.749	2332.3
1382	2283.31
1385.251	2320.69
1388.501	2271.71
1391.751	2274.09
1395	2240.84
1398.25	2264.86
1401.499	2288.32
1404.748	2235.88
1407.996	2212.67
1411.244	2203.51
1414.492	2188.89
1417.74	2171.89
1420.987	2176.14
1424.234	2238.71
1427.481	2200.53
1430.728	2257.31
1433.974	2232.01
1437.22	2229.36
1440.465	2227.58
1443.711	2227.55
1446.956	2251.58
1450.201	2223.71
1453.445	2265.73
1456.689	2256.63
1459.933	2265.97
1463.177	2307.35
1466.42	2280.03
1469.663	2263.34
1472.906	2279.1
1476.148	2329.59
1479.391	2302.31
1482.633	2277.33
1485.874	2302.32
1489.115	2310.82
1492.356	2292.69
1495.597	2274.95
1498.838	2266.59
1502.078	2251.21
1505.318	2222.48
1508.557	2258.69
1511.797	2252.52
1515.036	2300.1
1518.274	2274.45
1521.513	2226.35
1524.751	2238.15
1527.989	2263.78
1531.227	2280.22
1534.464	2294.18
1537.701	2290.15
1540.938	2303.81
1544.174	2250.36
1547.41	2241.92
1550.646	2278.96
1553.882	2328.97
1557.117	2388.46
1560.352	2395.31
1563.587	2356.58
1566.821	2322.62
1570.055	2343.04
1573.289	2321.45
1576.523	2381.18
1579.756	2395.21
1582.989	2415.97
1586.222	2377.92
1589.454	2402.47
1592.686	2386.38
1595.918	2415.56
1599.15	2413.98
1602.381	2459.17
1605.612	2436.48
1608.843	2533.63
1612.073	2451.63
1615.303	2441.81
1618.533	2440.42
1621.762	2436.98
1624.992	2415.83
1628.221	2416.28
1631.449	2402.76
1634.678	2431.98
1637.906	2401.56
1641.134	2429.6
1644.361	2392.93
1647.588	2384.63
1650.815	2404.21
1654.042	2367.74
1657.269	2396.61
1660.495	2374.33
1663.72	2360.68
1666.946	2330.78
1670.171	2300.62
1673.396	2273.71
1676.621	2256.38
1679.845	2253.06
1683.069	2261.62
1686.293	2292.44
1689.517	2282.96
1692.74	2232.43
1695.963	2254.41
1699.185	2295.85
1702.408	2267.87
1705.63	2298.48
1708.852	2315.9
1712.073	2285.76
1715.294	2296.62
1718.515	2340.46
1721.736	2298.08
1724.956	2276.85
1728.176	2299.59
1731.396	2321.18
1734.616	2306.72
1737.835	2343.15
1741.054	2314.58
1744.272	2306.36
1747.491	2345.55
1750.709	2371.85
1753.927	2317.69
1757.144	2344.38
1760.361	2401.77
1763.578	2377.32
1766.795	2327.05
1770.011	2316.52
1773.227	2343.22
1776.443	2384.76
1779.658	2428.44
1782.874	2366.49
1786.089	2358.05
1789.303	2360.53
1792.518	2359.21
1795.732	2344.98
1798.945	2359.31
1802.159	2401.89
1805.372	2339.71
1808.585	2332.4
1811.797	2334.09
1815.01	2355.26
1818.222	2378.07
1821.434	2338.84
1824.645	2381.75
1827.856	2387.28
1831.067	2417.4
1834.278	2357.24
1837.488	2339.61
1840.698	2464.3
1843.908	2404.48
1847.117	2371.38
1850.326	2295.99
1853.535	2359.74
1856.744	2390.6
1859.952	2312.54
1863.16	2314.14
1866.368	2329.12
1869.575	2442.75
1872.782	2323.6
1875.989	2255.02
1879.196	2308.65
1882.402	2297.92
1885.608	2329.91
1888.814	2266.82
1892.019	2174.29
1895.224	2224.37
1898.429	2189.39
1901.634	2173.2
1904.838	2143.23
1908.042	2201.28
1911.246	2213.79
1914.449	2170.92
1917.652	2155.15
1920.855	2136.41
1924.058	2161.97
1927.26	2205.67
1930.462	2228.12
1933.664	2268.93
1936.865	2209.29
1940.066	2228.12
1943.267	2169.47
1946.467	2181.34
1949.668	2200.81
1952.868	2269.13
1956.067	2257.59
1959.267	2199.24
1962.466	2223.78
1965.665	2206.02
1968.863	2197.2
1972.061	2205.35
1975.259	2196.65
1978.457	2272.96
1981.654	2233.98
1984.852	2236.95
1988.048	2188.51
1991.245	2179.49
1994.441	2266.13
1997.637	2226.73
2000.833	2209.82
2004.028	2247.04
2007.223	2306.05
2010.418	2295.88
2013.613	2247.08
2016.807	2239.11
2020.001	2235.29
2023.194	2258.9
2026.388	2241.64
2029.581	2189.13
2032.774	2249.12
2035.966	2259.77
2039.158	2204.99
2042.35	2222.26
2045.542	2150.96
2048.733	2235.16
2051.924	2228.88
2055.115	2245.75
2058.306	2210.55
2061.496	2266.45
2064.686	2312.69
2067.875	2220.6
2071.065	2225.76
2074.254	2244.73
2077.442	2200.12
2080.631	2281.09
2083.819	2210.31
2087.007	2201.72
2090.195	2185.2
2093.382	2201.65
2096.569	2185.25
2099.756	2148.59
2102.942	2196.4
2106.128	2207.78
2109.314	2193.71
2112.5	2180.66
2115.685	2148.4
2118.87	2156.02
2122.055	2217.28
2125.239	2195.92
2128.424	2183.42
2131.608	2247.06
2134.791	2228.84
2137.974	2266.24
2141.157	2254.54
2144.34	2226.86
2147.523	2218.13
2150.705	2243.36
2153.887	2212.53
2157.068	2183.88
2160.25	2167.26
2163.431	2188.91
2166.611	2156.96
2169.792	2178.95
2172.972	2090.17
2176.152	2141.56
2179.331	2171.2
2182.511	2172.65
2185.69	2192.89
2188.868	2196.45
2192.047	2233.3
2195.225	2246.6
2198.403	2197.79
2201.58	2182.13
2204.758	2169.49
2207.935	2244.57
2211.111	2159.85
2214.288	2146.93
2217.464	2179.76
2220.64	2141.04
2223.815	2191.21
2226.991	2120.2
2230.166	2136.28
2233.34	2178.59
2236.515	2192.01
2239.689	2257.79
2242.863	2206.97
2246.036	2260.6
2249.209	2243.84
2252.382	2264.47
2255.555	2269.54
2258.727	2217.7
2261.9	2251.67
2265.071	2241.42
2268.243	2237.59
2271.414	2187.55
2274.585	2168.43
2277.756	2228.55
2280.926	2184.33
2284.096	2213.82
2287.266	2144.64
2290.436	2190.41
2293.605	2211.34
2296.774	2246.27
2299.942	2251.88
2303.111	2268.84
2306.279	2318.95
2309.447	2301.49
2312.614	2272.92
2315.781	2301.25
2318.948	2277.27
2322.115	2312.36
2325.281	2214.78
2328.447	2222.52
2331.613	2192.52
2334.779	2185
2337.944	2179.02
2341.109	2179.65
2344.274	2171.95
2347.438	2139.48
2350.602	2156.29
2353.766	2167.44
2356.929	2155.43
2360.092	2191.88
2363.255	2161.87
2366.418	2126.46
2369.58	2196.43
2372.742	2068.71
2375.904	2064.2
2379.066	2047.54
2382.227	2073.97
2385.388	2037.98
2388.548	1988.35
2391.709	2030.03
2394.869	2018.28
2398.029	2074.21
2401.188	2071.77
2404.347	2030.43
2407.506	2110.72
2410.665	2148.13
2413.823	2136.29
2416.981	2114.31
2420.139	2130.08
2423.296	2170.99
2426.453	2143.59
2429.61	2167.05
2432.767	2136.99
2435.923	2176.18
2439.079	2124.71
2442.235	2160.62
2445.391	2101.19
2448.546	2142.17
2451.701	2176.31
2454.855	2171.01
2458.009	2201.84
2461.163	2191.7
2464.317	2160.56
2467.471	2188.17
2470.624	2216.15
2473.777	2205.15
2476.929	2220.3
2480.082	2244.87
2483.234	2216.64
2486.385	2159.85
2489.537	2153.89
2492.688	2140.51
2495.839	2157.27
2498.989	2174.01
2502.14	2158.05
2505.29	2150.94
2508.439	2176.78
2511.589	2117.11
2514.738	2116.28
2517.887	2140.49
2521.035	2214.3
2524.183	2176.53
2527.331	2162.73
2530.479	2156.8
2533.627	2157.06
