Data from C_1_HIR_IL_4N_Splice17_11-51-43-053.txt Node
Date: Sat Mar 14 11:51:43 EDT 2020
User: sa697716
Spectrometer: FLMS03696
Trigger mode: 0
Integration Time (sec): 3.180400E-1
Scans to average: 20
Electric dark correction enabled: true
Nonlinearity correction enabled: true
Boxcar width: 5
XAxis mode: Wavelengths
Number of Pixels in Spectrum: 2048
>>>>>Begin Spectral Data<<<<<
187.83	-186416.39
188.298	1360.84
188.766	741.15
189.233	629.78
189.701	891.16
190.169	1204.6
190.636	484.31
191.104	403.42
191.571	24.28
192.039	-75.24
192.506	-44.66
192.974	414.76
193.441	-797.46
193.908	-352.82
194.375	-116.58
194.842	-53.38
195.31	-112.73
195.777	87.54
196.244	305.37
196.711	433.27
197.177	575.72
197.644	849.4
198.111	1486.49
198.578	2105.22
199.045	1712.58
199.511	2819.08
199.978	3295.27
200.445	2814.41
200.911	3134.31
201.378	3523.41
201.844	3180.97
202.31	5445.11
202.777	5675.52
203.243	3144.86
203.709	3006.62
204.176	3582.33
204.642	2952.05
205.108	2748.73
205.574	2252.17
206.04	2051.86
206.506	1928.78
206.972	1827.27
207.438	1767.79
207.903	2021.67
208.369	1783.31
208.835	1779.08
209.301	1858.58
209.766	1893.53
210.232	1884.16
210.697	2328.08
211.163	2886.83
211.628	4333.26
212.094	3644.7
212.559	4472.98
213.024	2769.35
213.49	3346.08
213.955	3263.29
214.42	3214.84
214.885	2987.15
215.35	2865.03
215.815	2744
216.28	2886.64
216.745	2353.48
217.21	2547.34
217.675	2325.65
218.14	2611.32
218.604	2917.67
219.069	3327.69
219.534	3468.97
219.998	4040.94
220.463	4879.69
220.927	6033.53
221.392	5701.03
221.856	5761.92
222.32	7223.41
222.785	8947.57
223.249	11259.97
223.713	12578.64
224.177	12550.3
224.642	16096.88
225.106	19815.25
225.57	21679.1
226.034	16097.39
226.497	24476
226.961	22101.13
227.425	25757.81
227.889	28550.2
228.353	28529.85
228.816	58875.85
229.28	56294.75
229.744	47415.36
230.207	28806.98
230.671	28303.43
231.134	46834.44
231.597	54012.37
232.061	53966.18
232.524	52660.72
232.987	36190.13
233.45	32535.9
233.914	29192.06
234.377	29932.08
234.84	27382.13
235.303	32221.62
235.766	35922.07
236.229	37090.5
236.691	23343.46
237.154	26228.72
237.617	19708.24
238.08	20205.35
238.542	23644.44
239.005	16885.22
239.468	16740.98
239.93	15773.42
240.393	14355.39
240.855	12590.18
241.317	12885.27
241.78	15656.12
242.242	16160.32
242.704	17460.46
243.166	15205.62
243.629	13788.67
244.091	15864.03
244.553	17381.61
245.015	18669.51
245.477	24126.77
245.939	35369.39
246.4	37500.82
246.862	36442.6
247.324	34355.27
247.786	38402.19
248.247	50288.34
248.709	51980.76
249.17	38888.84
249.632	36662.24
250.093	42517.51
250.555	36708.99
251.016	22398.6
251.477	21248.77
251.939	22932.37
252.4	24068.78
252.861	28597.37
253.322	26598.07
253.783	31647.2
254.244	41056.68
254.705	32331.65
255.166	28737.83
255.627	28306.46
256.088	39873.98
256.549	42321.04
257.009	36445.56
257.47	44229.82
257.931	36040.59
258.391	26991.55
258.852	27812.93
259.312	29139.94
259.773	35997.88
260.233	30432.35
260.694	25663.63
261.154	29148.02
261.614	23402.47
262.074	20944.24
262.534	21762.64
262.994	20510.04
263.455	27348.58
263.915	23048.58
264.374	21707.32
264.834	23710.32
265.294	26280.19
265.754	27227.19
266.214	25763
266.673	24133.88
267.133	30423.09
267.593	30195.53
268.052	36944.33
268.512	32126.09
268.971	38723.52
269.431	42498.08
269.89	38064.86
270.349	57084.46
270.809	63630.33
271.268	57228.58
271.727	128519.84
272.186	83363.51
272.645	62554.13
273.104	45153.22
273.563	65417.69
274.022	51503.65
274.481	43839.98
274.94	33793.07
275.399	25119.27
275.857	29274.49
276.316	39643.74
276.775	35275.28
277.233	34748.95
277.692	32514.35
278.15	36802.58
278.609	37846.13
279.067	34992.01
279.525	32495.63
279.984	41977.27
280.442	50479.12
280.9	49786.73
281.358	32711.48
281.816	30485.57
282.274	29824.74
282.732	30826.01
283.19	31014.01
283.648	26801.67
284.106	28582.86
284.564	29078.42
285.021	26978.13
285.479	20098.26
285.937	18278.29
286.394	16054.95
286.852	16537.36
287.309	17396.81
287.767	16810.24
288.224	15975.67
288.682	17514.87
289.139	19218.41
289.596	17582.29
290.053	18263.08
290.511	23031.96
290.968	27916.45
291.425	37850.68
291.882	31472.67
292.339	27379.14
292.796	27137.32
293.252	25564.9
293.709	20324.49
294.166	18212.84
294.623	20119.93
295.079	19289.21
295.536	19376.23
295.992	17581.21
296.449	17384.24
296.905	18065.1
297.362	17311.33
297.818	18212.54
298.274	18882.16
298.731	19207.97
299.187	19027.95
299.643	20414.47
300.099	24677.55
300.555	27060.87
301.011	22619.04
301.467	21801.94
301.923	25536.24
302.379	24954.57
302.835	24502.66
303.291	24511.24
303.746	27935.3
304.202	35238.47
304.658	35378.3
305.113	23807.78
305.569	23318.51
306.024	24871.4
306.479	23691.15
306.935	19941.57
307.39	21760.28
307.845	20087.28
308.301	20209.36
308.756	19673.79
309.211	18965.66
309.666	19441.22
310.121	24137.06
310.576	24539.48
311.031	24327
311.486	27849.06
311.94	27868.45
312.395	37301.22
312.85	70139.72
313.305	344957.38
313.759	1785673.89
314.214	129184.18
314.668	102460.99
315.123	86115.15
315.577	30842.95
316.032	27445.36
316.486	34377.42
316.94	27086.59
317.394	18843.85
317.849	14642.52
318.303	13858.04
318.757	13055.37
319.211	14437.22
319.665	12624.82
320.119	12788.69
320.572	18340.35
321.026	17137.81
321.48	14265.1
321.934	15580.17
322.387	15607.11
322.841	16857.91
323.295	15141.3
323.748	17448.54
324.202	17707.16
324.655	21249.18
325.108	29637
325.562	20945.13
326.015	24849.92
326.468	18761.62
326.921	20957.21
327.374	19542.42
327.827	20348.23
328.28	23036.54
328.733	15457.31
329.186	13601.62
329.639	12971.24
330.092	10948.16
330.545	10419.05
330.997	10530.24
331.45	11525.39
331.903	13502.82
332.355	23242.49
332.808	22603.85
333.26	18698.61
333.713	20335.06
334.165	20500.65
334.617	27400.82
335.069	22130.28
335.522	40101.77
335.974	44317.1
336.426	40507.88
336.878	28070.23
337.33	14259.49
337.782	13938.98
338.234	17433.79
338.686	20832.95
339.137	24692.51
339.589	23276.44
340.041	18240.14
340.493	15665.27
340.944	16067.19
341.396	17277.77
341.847	14533.64
342.299	17109.32
342.75	20869.82
343.201	18242.33
343.653	20947.47
344.104	25705.32
344.555	20215.63
345.006	31512.71
345.457	24092.73
345.908	19126.28
346.359	18024.89
346.81	14695.32
347.261	15497.26
347.712	15242.81
348.163	16319.87
348.613	16534.14
349.064	15464.26
349.515	13526.99
349.965	13871.01
350.416	16743.92
350.866	18393.55
351.317	20790.06
351.767	34406.87
352.217	43478.66
352.668	36070.13
353.118	33088.84
353.568	31876.23
354.018	25162.02
354.468	26563.78
354.918	19074.92
355.368	16675.73
355.818	23549.75
356.268	67727.26
356.718	283028.38
357.168	70508.98
357.617	35441.8
358.067	39433.19
358.517	36891.26
358.966	43265.06
359.416	48507.51
359.865	52345.77
360.315	62210.88
360.764	29048.03
361.213	16283.13
361.663	15455.53
362.112	19062.72
362.561	30756.46
363.01	23164.04
363.459	19536.96
363.908	21124.71
364.357	17936.59
364.806	30278.35
365.255	20848.38
365.703	19099.28
366.152	19148.17
366.601	15492.93
367.05	12595.15
367.498	11465.73
367.947	12008.18
368.395	12497.7
368.844	11094.86
369.292	13401.65
369.74	9279.34
370.189	14221.09
370.637	16725.54
371.085	14436.1
371.533	17663.76
371.981	17037.51
372.429	16293.54
372.877	17019
373.325	14314.33
373.773	14623.42
374.221	13068.63
374.669	16241.2
375.116	14096.57
375.564	14245.47
376.012	15987.92
376.459	13214.92
376.907	15841.44
377.354	19243.89
377.801	18009.64
378.249	20752.93
378.696	26669.41
379.143	32428.73
379.591	34716.51
380.038	59035.21
380.485	42825.32
380.932	46441.83
381.379	42651.11
381.826	31567.46
382.273	22513.81
382.72	19733.16
383.166	19325.01
383.613	12579.07
384.06	11368.63
384.506	13224.58
384.953	9756.82
385.4	9864
385.846	8673.93
386.292	8500.67
386.739	8341.24
387.185	8277.39
387.631	8311.21
388.078	8073.88
388.524	8665.95
388.97	8019.38
389.416	6696.55
389.862	7127.71
390.308	6764.79
390.754	6883
391.2	7465.36
391.645	7657.68
392.091	7326.94
392.537	7092.1
392.983	7105.68
393.428	6977.55
393.874	7485.29
394.319	7509.06
394.765	7114.91
395.21	7303.66
395.655	6842.06
396.101	6405.42
396.546	5773.05
396.991	5810.85
397.436	5384.96
397.881	5195.42
398.326	4912.05
398.771	4633.48
399.216	4041.76
399.661	3635.76
400.106	3614.21
400.551	3686.91
400.995	3300.62
401.44	3256.61
401.885	3055.39
402.329	3079.83
402.774	2949.83
403.218	2848.47
403.663	2739.63
404.107	2811.47
404.551	2821.25
404.995	2582.03
405.44	2482.37
405.884	2514.12
406.328	2426.01
406.772	2408.86
407.216	2186.61
407.66	2108
408.104	1997.41
408.547	1866.29
408.991	1801.51
409.435	1729.31
409.879	1698.62
410.322	1674.38
410.766	1611.82
411.209	1529.19
411.653	1465.09
412.096	1431.44
412.54	1426.4
412.983	1413.86
413.426	1415.93
413.869	1409.28
414.312	1378.77
414.756	1328.98
415.199	1264.75
415.642	1226.66
416.085	1229.02
416.527	1218.46
416.97	1236.06
417.413	1172.87
417.856	1155.92
418.298	1139.68
418.741	1131.85
419.184	1125.16
419.626	1168.43
420.069	1167.56
420.511	1171.84
420.953	1140.13
421.396	1129.6
421.838	1100.21
422.28	1125.98
422.722	1133.51
423.164	1149.4
423.606	1128.93
424.048	1129.24
424.49	1071.22
424.932	1062.92
425.374	1046.04
425.816	1065.16
426.258	1082.67
426.699	1092.5
427.141	1074.09
427.582	1087.13
428.024	1080.51
428.465	1073.53
428.907	1047.3
429.348	1035.31
429.789	1036.65
430.231	1015.59
430.672	1029.33
431.113	1004.48
431.554	991.29
431.995	965.7
432.436	931.69
432.877	911.47
433.318	896.02
433.759	891.12
434.2	891.95
434.64	881.99
435.081	884.27
435.522	838.31
435.962	809.69
436.403	789.87
436.843	799.82
437.284	782.47
437.724	759.69
438.164	759.38
438.604	742.9
439.045	713.89
439.485	683.53
439.925	669.21
440.365	651.78
440.805	640.33
441.245	632.14
441.685	608.6
442.125	604.46
442.564	606.74
443.004	593.2
443.444	592.05
443.883	593.35
444.323	589.36
444.762	588.1
445.202	594.89
445.641	607.05
446.081	602.86
446.52	606.7
446.959	599.68
447.398	586.41
447.837	579.01
448.276	567.51
448.716	573.51
449.154	577.84
449.593	564.43
450.032	560.85
450.471	548.77
450.91	548.13
451.349	548.4
451.787	546.16
452.226	554.2
452.664	554.27
453.103	553.33
453.541	549.09
453.98	546.92
454.418	549.48
454.856	541.85
455.295	541.45
455.733	546.31
456.171	548.12
456.609	548.7
457.047	547
457.485	555.57
457.923	557.82
458.361	550.99
458.798	552.3
459.236	551.43
459.674	553.54
460.111	555.33
460.549	549.55
460.987	547.04
461.424	543.91
461.862	542.09
462.299	532.18
462.736	531.88
463.173	533.67
463.611	528.54
464.048	527.12
464.485	532.32
464.922	527.52
465.359	524.72
465.796	519.09
466.233	516.88
466.67	512.2
467.106	511.77
467.543	506.31
467.98	499.21
468.416	486.85
468.853	484.01
469.29	469.64
469.726	464.94
470.162	452.32
470.599	445.29
471.035	440.24
471.471	430.31
471.907	427.31
472.344	424.46
472.78	425.62
473.216	428.77
473.652	421.7
474.088	419.21
474.523	416.92
474.959	421.25
475.395	416.66
475.831	414.25
476.266	414.96
476.702	412.44
477.138	406.7
477.573	404.34
478.008	403.32
478.444	404.9
478.879	408.68
479.314	410.06
479.75	408.91
480.185	410.82
480.62	413.64
481.055	415.07
481.49	418.33
481.925	424.28
482.36	432.42
482.795	443.35
483.229	454.84
483.664	464.07
484.099	465.04
484.534	471.5
484.968	475.8
485.403	475.97
485.837	475.25
486.271	474.56
486.706	474.84
487.14	468.1
487.574	460.66
488.009	456.12
488.443	452.04
488.877	457.38
489.311	458.87
489.745	463.64
490.179	468.88
490.613	477.74
491.046	481.12
491.48	483.85
491.914	484.54
492.348	488.51
492.781	492.01
493.215	493.12
493.648	492.71
494.082	496.5
494.515	497.12
494.948	502.24
495.382	504.88
495.815	508.4
496.248	513.1
496.681	522.8
497.114	530.64
497.547	537.3
497.98	546.87
498.413	552.88
498.846	559.86
499.279	566.18
499.711	570.45
500.144	573.45
500.577	581.64
501.009	590.87
501.442	598.8
501.874	601.23
502.306	604.9
502.739	613.34
503.171	625.58
503.603	630
504.036	639.63
504.468	645.41
504.9	656.22
505.332	664.21
505.764	669.24
506.196	677.44
506.627	691.35
507.059	704.32
507.491	712.87
507.923	713.91
508.354	728.83
508.786	739.83
509.217	756.98
509.649	771.82
510.08	790.29
510.512	808.06
510.943	824.3
511.374	837.83
511.805	857.64
512.237	877.44
512.668	908.07
513.099	934.73
513.53	961.7
513.961	983.4
514.391	1014.25
514.822	1046.16
515.253	1080.27
515.684	1106.16
516.114	1135.45
516.545	1159.01
516.975	1186
517.406	1207.31
517.836	1214.71
518.267	1225.81
518.697	1247.1
519.127	1255.66
519.558	1267.4
519.988	1275.64
520.418	1289.73
520.848	1310.77
521.278	1322.87
521.708	1344.25
522.138	1360.07
522.567	1392.72
522.997	1419.46
523.427	1437.05
523.857	1458.29
524.286	1472.11
524.716	1490.51
525.145	1511.95
525.575	1525.2
526.004	1543.16
526.433	1542.05
526.863	1546.05
527.292	1539.85
527.721	1548.52
528.15	1558.12
528.579	1561.58
529.008	1574
529.437	1597.52
529.866	1612.1
530.295	1630.79
530.724	1645.05
531.152	1671.6
531.581	1686.86
532.01	1706.1
532.438	1716.68
532.867	1731.88
533.295	1750.36
533.723	1758.11
534.152	1757.2
534.58	1758.89
535.008	1745.4
535.436	1748.21
535.865	1757.26
536.293	1771.98
536.721	1788.43
537.149	1814.2
537.576	1818.18
538.004	1832.29
538.432	1840.36
538.86	1840.16
539.287	1847.92
539.715	1862.8
540.143	1866.05
540.57	1864
540.998	1861.68
541.425	1839.73
541.852	1819.68
542.28	1817.78
542.707	1801.6
543.134	1788.61
543.561	1785.53
543.988	1778.55
544.415	1777.99
544.842	1772.74
545.269	1765.2
545.696	1765.68
546.123	1777.78
546.549	1767.25
546.976	1754.68
547.403	1753.82
547.829	1755.72
548.256	1757.44
548.682	1753.52
549.108	1745.14
549.535	1744.62
549.961	1746.99
550.387	1734.96
550.813	1729.82
551.24	1735.67
551.666	1737.08
552.092	1727.77
552.518	1720.49
552.943	1713.09
553.369	1720.67
553.795	1725.9
554.221	1725.76
554.646	1720.27
555.072	1728.78
555.498	1731.99
555.923	1738.51
556.349	1751.1
556.774	1757.25
557.199	1757.71
557.625	1761.52
558.05	1752.17
558.475	1759.27
558.9	1755.49
559.325	1746.77
559.75	1739.09
560.175	1730.63
560.6	1722.25
561.025	1717.54
561.449	1716.23
561.874	1718.7
562.299	1720.04
562.723	1724.16
563.148	1712.01
563.572	1714.42
563.997	1720.8
564.421	1723.07
564.846	1720.37
565.27	1720.57
565.694	1715.12
566.118	1723.72
566.542	1727.43
566.966	1719.01
567.39	1712.01
567.814	1698.91
568.238	1694
568.662	1694.62
569.086	1692.94
569.509	1696.13
569.933	1679.49
570.357	1669.29
570.78	1645.02
571.204	1629.51
571.627	1615.98
572.05	1610.68
572.474	1606.62
572.897	1592.55
573.32	1582.31
573.743	1570.46
574.166	1549.73
574.589	1545.35
575.012	1535.02
575.435	1531.24
575.858	1519.07
576.281	1504.77
576.704	1486.92
577.126	1472.74
577.549	1459.56
577.972	1448.42
578.394	1435.6
578.817	1427.03
579.239	1408.5
579.661	1393.77
580.084	1377.07
580.506	1363.42
580.928	1358.9
581.35	1347.77
581.772	1341.83
582.194	1328.12
582.616	1313.88
583.038	1298.53
583.46	1286.62
583.882	1282.49
584.303	1283.35
584.725	1277.02
585.147	1277.27
585.568	1283.47
585.99	1290.76
586.411	1294.45
586.833	1305.16
587.254	1305.43
587.675	1316.28
588.096	1326.09
588.518	1318.28
588.939	1302.47
589.36	1300.92
589.781	1289.96
590.202	1265.27
590.623	1257.26
591.043	1253.46
591.464	1240.64
591.885	1235.65
592.305	1230.57
592.726	1218.01
593.147	1219.06
593.567	1214.79
593.987	1207.07
594.408	1201.77
594.828	1200.12
595.248	1193.94
595.669	1178.16
596.089	1171.96
596.509	1166.47
596.929	1154.31
597.349	1154.52
597.769	1145.31
598.189	1140.33
598.608	1140.7
599.028	1141.76
599.448	1140.55
599.867	1131.18
600.287	1126.49
600.706	1121.93
601.126	1112.3
601.545	1111.03
601.965	1109.35
602.384	1104.44
602.803	1105.41
603.222	1099.94
603.641	1093.06
604.061	1089.27
604.48	1083.7
604.898	1088.73
605.317	1091.29
605.736	1091.99
606.155	1087.78
606.574	1078.36
606.992	1080.48
607.411	1074.08
607.829	1065.92
608.248	1061.38
608.666	1057.52
609.085	1054.97
609.503	1046.91
609.921	1040.42
610.339	1039.52
610.758	1036.53
611.176	1030.86
611.594	1022
612.012	1017.45
612.43	1017.76
612.847	1020.62
613.265	1019.56
613.683	1021.32
614.101	1020.55
614.518	1015.66
614.936	1006.24
615.353	994.19
615.771	990.34
616.188	988.88
616.606	984.9
617.023	978.67
617.44	967.1
617.857	959.04
618.274	951.68
618.691	945.45
619.108	937.22
619.525	931.56
619.942	934.68
620.359	935.63
620.776	930.2
621.192	926.9
621.609	925.38
622.026	928.81
622.442	932.95
622.859	934.16
623.275	926.93
623.691	929.82
624.108	937.77
624.524	947.57
624.94	946.56
625.356	953.19
625.772	961.92
626.188	969.03
626.604	971.01
627.02	967.48
627.436	966.21
627.852	972.52
628.268	982.05
628.683	975.95
629.099	969.54
629.514	965.58
629.93	968.5
630.345	970.39
630.761	966.27
631.176	967.72
631.591	964.36
632.007	958.55
632.422	955.76
632.837	945.91
633.252	942.04
633.667	934.22
634.082	925.72
634.497	914.74
634.911	899.56
635.326	896.5
635.741	882.29
636.155	872.51
636.57	872.03
636.984	870.48
637.399	869.78
637.813	867.25
638.228	863.94
638.642	865.3
639.056	856.92
639.47	854.97
639.884	846.55
640.298	840.28
640.712	838.04
641.126	826.62
641.54	817.81
641.954	811.87
642.368	801.78
642.781	794.92
643.195	780.22
643.609	777.4
644.022	771.68
644.436	765.6
644.849	755.06
645.262	744.68
645.676	744.75
646.089	740.51
646.502	729.04
646.915	723.97
647.328	710.67
647.741	708.45
648.154	699.46
648.567	697.37
648.98	688.48
649.393	687.9
649.805	684.44
650.218	677.39
650.631	666.6
651.043	661.71
651.456	657.02
651.868	657.28
652.28	668.68
652.693	676.75
653.105	679.11
653.517	684.08
653.929	684.32
654.341	687.84
654.753	679.83
655.165	682.53
655.577	680.58
655.989	677.29
656.401	669.6
656.813	645.36
657.224	631.97
657.636	612.82
658.047	601.53
658.459	587.9
658.87	580.34
659.282	572.36
659.693	558.98
660.104	549.2
660.515	539.95
660.926	538.7
661.338	536.77
661.749	532.06
662.159	526.91
662.57	523.33
662.981	521.09
663.392	517.1
663.803	519.75
664.213	518.49
664.624	516.03
665.035	519.46
665.445	512.47
665.855	508.84
666.266	505.18
666.676	503.88
667.086	498.64
667.497	498.91
667.907	495.97
668.317	490.75
668.727	490.6
669.137	492.34
669.547	491.05
669.956	493.86
670.366	496.32
670.776	497.07
671.186	500.78
671.595	505.47
672.005	508.33
672.414	509.26
672.824	510.16
673.233	512.46
673.642	515.61
674.052	519.05
674.461	521.26
674.87	524.65
675.279	525.06
675.688	526.4
676.097	528.06
676.506	526.08
676.915	536.35
677.323	537.91
677.732	538.62
678.141	538.22
678.549	531.59
678.958	530.92
679.366	531.1
679.775	534.03
680.183	542.32
680.592	546.5
681	552.17
681.408	547.29
681.816	552.6
682.224	558.65
682.632	565.74
683.04	585.38
683.448	601.41
683.856	621.34
684.264	645.38
684.671	665.88
685.079	692.33
685.487	720.52
685.894	761.95
686.302	797.15
686.709	824.13
687.116	856.63
687.524	884.07
687.931	908.17
688.338	929.66
688.745	948.56
689.152	972.01
689.559	1002.96
689.966	1035.53
690.373	1054.22
690.78	1086.41
691.187	1135.61
691.593	1175.86
692	1212.64
692.407	1266.03
692.813	1331.71
693.22	1385.64
693.626	1444.07
694.032	1494.14
694.439	1565.43
694.845	1625.19
695.251	1698.31
695.657	1767.99
696.063	1864.12
696.469	1941.31
696.875	2015.8
697.281	2065.31
697.687	2125.59
698.093	2178.83
698.498	2264.61
698.904	2334.13
699.31	2431.62
699.715	2507.94
700.12	2608.88
700.526	2646.42
700.931	2729.84
701.337	2797.42
701.742	2849.43
702.147	2946.86
702.552	2993.78
702.957	3067.75
703.362	3107.82
703.767	3154.34
704.172	3210.4
704.577	3182.93
704.981	3245.47
705.386	3279.96
705.791	3291.76
706.195	3384.46
706.6	3411.78
707.004	3509.03
707.408	3497.33
707.813	3541.86
708.217	3545.02
708.621	3564.37
709.025	3680.68
709.43	3700.82
709.834	3778.47
710.237	3868.2
710.641	3869.6
711.045	3909.57
711.449	3919.07
711.853	3962.71
712.256	4022.84
712.66	4080.1
713.064	4175.1
713.467	4236.9
713.87	4371.42
714.274	4437.95
714.677	4570.06
715.08	4757.31
715.484	4955.06
715.887	5192.64
716.29	5432.62
716.693	5676.62
717.096	5957.66
717.499	6121.69
717.901	6168.31
718.304	6215.59
718.707	6260.87
719.109	6161.86
719.512	6144.21
719.915	6006.65
720.317	5959.1
720.719	6020.03
721.122	6000.64
721.524	5957.1
721.926	5923.52
722.328	6046.58
722.731	6051.37
723.133	6096.28
723.535	6328.49
723.937	6366.98
724.338	6442.68
724.74	6498.38
725.142	6411.65
725.544	6418.02
725.945	6455.87
726.347	6460.12
726.748	6461.92
727.15	6484.51
727.551	6445.7
727.952	6423.99
728.354	6397.08
728.755	6404.09
729.156	6364.34
729.557	6381.02
729.958	6248.26
730.359	6191.04
730.76	6178.31
731.161	6115.59
731.562	6093.96
731.962	6104.03
732.363	6032.68
732.763	5962.32
733.164	6009.45
733.564	5934.31
733.965	5826.88
734.365	5789.91
734.766	5828.68
735.166	5786.31
735.566	5726
735.966	5696.79
736.366	5695.73
736.766	5629.58
737.166	5670.06
737.566	5623.14
737.966	5596.32
738.365	5646.09
738.765	5641.48
739.165	5556.59
739.564	5527.9
739.964	5584.88
740.363	5532.02
740.763	5534.2
741.162	5520.49
741.561	5483.29
741.96	5431.07
742.36	5458.42
742.759	5464.41
743.158	5514.96
743.557	5533.03
743.955	5583.4
744.354	5529.32
744.753	5601.2
745.152	5551.13
745.55	5618.44
745.949	5615.05
746.348	5616.74
746.746	5637.38
747.144	5591.72
747.543	5564.44
747.941	5626.37
748.339	5541.8
748.737	5533.71
749.136	5523.14
749.534	5601.98
749.932	5568.45
750.33	5595.37
750.727	5664.73
751.125	5638.95
751.523	5621.33
751.921	5672.31
752.318	5632.15
752.716	5704.45
753.113	5720.27
753.511	5751.98
753.908	5749.53
754.305	5727.49
754.703	5801.03
755.1	5872.77
755.497	5944.28
755.894	6172.69
756.291	6385.93
756.688	6775.05
757.085	7297.6
757.482	8031.81
757.878	8832.11
758.275	9563.26
758.672	10569.48
759.068	11384.03
759.465	12544.22
759.861	14036.04
760.258	15772.4
760.654	16669.58
761.05	16537.1
761.447	15778.92
761.843	14692.96
762.239	13569.13
762.635	13058.14
763.031	12571.67
763.427	11870.46
763.822	11133.25
764.218	10403.07
764.614	9450.71
765.01	8815.74
765.405	8409.26
765.801	8098.52
766.196	7705.08
766.592	7484.4
766.987	7109.08
767.382	6853.51
767.778	6746.11
768.173	6591.52
768.568	6506.02
768.963	6358.79
769.358	6383.59
769.753	6326.75
770.148	6225.78
770.542	6218.56
770.937	6178.67
771.332	6286.57
771.726	6310.24
772.121	6234.89
772.515	6299.28
772.91	6283.25
773.304	6370.21
773.699	6290.61
774.093	6354.08
774.487	6422.21
774.881	6477.15
775.275	6473.2
775.669	6423.59
776.063	6474.54
776.457	6517.42
776.851	6430.47
777.245	6418.23
777.638	6454.75
778.032	6590.61
778.425	6548.81
778.819	6597.16
779.212	6543.76
779.606	6497.3
779.999	6518.49
780.392	6500.54
780.786	6601.76
781.179	6622.81
781.572	6675.05
781.965	6688.69
782.358	6619.1
782.751	6687.62
783.143	6630.7
783.536	6720.09
783.929	6772.49
784.322	6911.75
784.714	6948.4
785.107	6939.69
785.499	7026.12
785.891	6998.82
786.284	6978.3
786.676	7147.64
787.068	7121.73
787.46	7181.2
787.852	7204.22
788.245	7303.65
788.636	7337.72
789.028	7414.79
789.42	7460.84
789.812	7469.99
790.204	7586.66
790.595	7701.73
790.987	7472.46
791.378	7497.6
791.77	7649.56
792.161	7807.98
792.553	7873.34
792.944	7742.53
793.335	7661.14
793.726	7749.46
794.117	7855.11
794.508	8015.22
794.899	7981.74
795.29	8147.09
795.681	8215.15
796.072	8048.89
796.463	7820.83
796.853	7829.33
797.244	8014.89
797.634	8059.04
798.025	8057.57
798.415	8076.73
798.806	8178.45
799.196	8277.01
799.586	8336.07
799.976	8290.74
800.366	8561.18
800.756	8862.88
801.146	8813.69
801.536	8843.55
801.926	8931.2
802.316	8959.57
802.706	9038
803.095	8895.3
803.485	9019
803.874	9066.04
804.264	9376.02
804.653	9345.82
805.043	9512.9
805.432	9645.03
805.821	9651.86
806.21	9673.88
806.599	9813.36
806.988	9866.26
807.377	9991.77
807.766	10138.4
808.155	10470.94
808.544	10154.33
808.933	10168.73
809.321	10135.73
809.71	10482.66
810.098	10662.37
810.487	11204.41
810.875	11767.97
811.264	11789.1
811.652	12117.14
812.04	12292.99
812.428	12481.22
812.816	13380.21
813.204	13868.19
813.592	14526.56
813.98	14916.57
814.368	14804.61
814.756	15370.78
815.144	15274.28
815.531	15824.99
815.919	15747.3
816.306	16098.75
816.694	15741.21
817.081	15794.79
817.469	16198.84
817.856	16182.2
818.243	16497.7
818.63	16963
819.017	16457.04
819.404	16531.23
819.791	16984.22
820.178	17706.01
820.565	17993.6
820.952	19071.56
821.339	18497.65
821.725	18719.92
822.112	17858.3
822.498	17808.41
822.885	17960.67
823.271	17846.47
823.657	18331.17
824.044	18328.14
824.43	18417.25
824.816	18382
825.202	17881.99
825.588	19073.23
825.974	19086.38
826.36	19687.98
826.746	19739.79
827.132	20155.16
827.517	20130.18
827.903	19216.23
828.289	19263.65
828.674	18350.99
829.06	18242.95
829.445	18703.64
829.83	19124.08
830.216	19690.33
830.601	20122.55
830.986	19633.68
831.371	19473.05
831.756	20133.2
832.141	19629.23
832.526	19631.89
832.911	19965.02
833.295	19819.65
833.68	20373.27
834.065	19653.67
834.449	18581.86
834.834	18497.69
835.218	18501
835.603	18911.76
835.987	18674.19
836.371	19657.91
836.755	19534.15
837.139	20012.97
837.524	20301.32
837.908	20098.92
838.291	20167
838.675	20253.57
839.059	20497.15
839.443	20487.52
839.827	20221.16
840.21	20780
840.594	20611.76
840.977	20859.83
841.361	20832.71
841.744	21288.51
842.127	21106.68
842.511	21407.87
842.894	22113.66
843.277	22564.76
843.66	23207.66
844.043	23297.71
844.426	22346.68
844.809	21982.41
845.191	22014.78
845.574	21480.58
845.957	21043.12
846.339	20918.04
846.722	20302.09
847.104	20377.4
847.487	20187.58
847.869	20199.54
848.252	20517.3
848.634	20910.33
849.016	21219.19
849.398	21371.05
849.78	22367.61
850.162	22379.32
850.544	22862.3
850.926	23605.16
851.307	23504.08
851.689	23822.37
852.071	24356.54
852.452	24750.59
852.834	24734.69
853.215	25195.47
853.597	25376.86
853.978	25725.16
854.359	26254.66
854.741	25088.59
855.122	24957.36
855.503	24615.2
855.884	24770.35
856.265	24696.82
856.646	24837.08
857.026	24359.11
857.407	24283.81
857.788	24465.86
858.169	24799.04
858.549	23792.54
858.93	24521.71
859.31	24576.29
859.69	24814.54
860.071	24338.42
860.451	24082.76
860.831	23208.41
861.211	24574.3
861.591	25216.39
861.971	25191.13
862.351	25418.62
862.731	25881.26
863.111	26189.32
863.491	26567.97
863.87	27619.34
864.25	28024.7
864.629	27552.45
865.009	28155.73
865.388	29153.68
865.768	31245.37
866.147	31117.57
866.526	29390.09
866.905	29732.29
867.284	31399.34
867.663	29833.97
868.042	28580.54
868.421	28488
868.8	28959.65
869.179	29228.6
869.558	27522.75
869.936	25362.95
870.315	25819.58
870.693	26438.63
871.072	28515.12
871.45	27163.21
871.828	27499.87
872.207	28915.59
872.585	28486.23
872.963	29264.3
873.341	28270.59
873.719	27934.89
874.097	27601.18
874.475	28122.08
874.853	28782.21
875.23	27589.58
875.608	28741.13
875.986	31094.7
876.363	29732.66
876.741	30621.87
877.118	29857.95
877.495	31327.4
877.873	31855.44
878.25	33527
878.627	32154.31
879.004	32617.28
879.381	32460.77
879.758	31615.04
880.135	29431.05
880.512	31127.12
880.889	30315.58
881.265	29994.72
881.642	29748.17
882.019	30253.48
882.395	29632.18
882.772	30815.95
883.148	29468.5
883.524	29352.83
883.901	29183.95
884.277	29634.81
884.653	29453.4
885.029	30296.45
885.405	33541.25
885.781	33292.14
886.157	31931.88
886.532	32334.36
886.908	32308.28
887.284	35921.87
887.659	37085.96
888.035	38240.04
888.411	39213.47
888.786	39713.89
889.161	41091.53
889.537	40354.89
889.912	41635.43
890.287	41579.29
890.662	42647.07
891.037	41872.37
891.412	39062.15
891.787	38669.89
892.162	37311.8
892.536	38184.07
892.911	36760.06
893.286	35986.76
893.66	34525.87
894.035	35398.11
894.409	38563.67
894.784	37002.46
895.158	37627.8
895.532	39840.02
895.906	40933.85
896.281	41910.11
896.655	41238.2
897.029	47114.73
897.402	49073.44
897.776	54623.9
898.15	54424.26
898.524	53809.32
898.898	54534.1
899.271	61026.37
899.645	52852.65
900.018	50755.31
900.392	52622.21
900.765	53049.89
901.138	49086.98
901.511	48346.68
901.884	44390.69
902.258	40971.81
902.631	42337.93
903.003	48711.02
903.376	43967.46
903.749	49314.68
904.122	52810.76
904.495	58145.08
904.867	58877.96
905.24	51127.37
905.612	47586.06
905.985	48663.75
906.357	50859.01
906.729	48539.96
907.102	41485.02
907.474	39868.92
907.846	40112.13
908.218	39568.33
908.59	34981.39
908.962	33836.37
909.334	36429.64
909.705	38276.79
910.077	37161.01
910.449	38689.13
910.82	39784.57
911.192	43772.38
911.563	45504.4
911.935	48687.24
912.306	48760.93
912.677	50337.82
913.048	49841.24
913.419	54066.55
913.79	54370.04
914.161	58304.1
914.532	55710.68
914.903	51204.52
915.274	48625.81
915.645	47915.49
916.015	42187.53
916.386	40208.82
916.756	42796.73
917.127	44137.85
917.497	39424.46
917.868	42898.42
918.238	40759.7
918.608	41936.44
918.978	42755.55
919.348	45262.84
919.718	46765.04
920.088	45045.77
920.458	46794.44
920.828	49224.39
921.198	46635.36
921.567	49840.67
921.937	38578.91
922.306	38944.07
922.676	41988.05
923.045	35041.46
923.415	33283.09
923.784	30298.38
924.153	31131.68
924.522	31098.77
924.891	29224.6
925.26	31312.9
925.629	30561.61
925.998	35154.88
926.367	34310.42
926.736	32651.38
927.104	38889.78
927.473	41799.59
927.842	50505.61
928.21	50051.47
928.578	52625.13
928.947	49743.24
929.315	50007.6
929.683	58636.91
930.051	59076.97
930.42	68630.78
930.788	58702.6
931.156	58255.18
931.523	54588.43
931.891	50429.57
932.259	48411.41
932.627	56066.88
932.994	79426.08
933.362	65666.18
933.729	57039.42
934.097	54605.01
934.464	46203.26
934.831	53295.24
935.199	52530.46
935.566	50981.58
935.933	51755.99
936.3	62676.64
936.667	48852.1
937.034	44037
937.401	43581.69
937.767	37607.33
938.134	33484.26
938.501	47205.62
938.867	50321.14
939.234	85104.48
939.6	72609.78
939.967	79827.13
940.333	53443.42
940.699	45444.7
941.065	36503.55
941.431	47845.62
941.798	46118.63
942.163	60538.72
942.529	37809.93
942.895	34827.56
943.261	22521.06
943.627	29540.68
943.992	25847.64
944.358	25890.05
944.723	25997.91
945.089	25321.01
945.454	23408.09
945.82	24990.1
946.185	24025.18
946.55	27864.61
946.915	25002.28
947.28	29344.36
947.645	25863.92
948.01	23879.26
948.375	24898.44
948.74	29843.85
949.104	34817.78
949.469	50320.42
949.834	88978.51
950.198	84226.99
950.562	50442
950.927	41976.61
951.291	50535.15
951.655	43013.75
952.02	40414.11
952.384	30556.24
952.748	26615.08
953.112	25939.58
953.476	22539.42
953.839	20839.02
954.203	20633.69
954.567	25821.69
954.931	40683.63
955.294	34788.99
955.658	34992.54
956.021	59537.49
956.385	100961.88
956.748	148928.68
957.111	231101.41
957.474	259493.83
957.837	292454.47
958.2	221345.65
958.563	79631.34
958.926	53855.58
959.289	81744.8
959.652	91329.07
960.015	68489.07
960.377	98309.27
960.74	112182.72
961.102	193561.68
961.465	207762.25
961.827	110980.48
962.189	212919.94
962.552	147596.59
962.914	118370.28
963.276	76771.32
963.638	63496.3
964	62905.62
964.362	42506.78
964.724	41066.06
965.085	29311.49
965.447	24036.7
965.809	27450.87
966.17	27504.76
966.532	29752.61
966.893	27276.29
967.255	24837.39
967.616	29306.75
967.977	23460.8
968.338	25612.97
968.699	21049.39
969.061	21044.4
969.421	21179.24
969.782	23787.23
970.143	20074.86
970.504	20786.7
970.865	23640.93
971.225	24158.23
971.586	23632.81
971.946	33680.15
972.307	29290.72
972.667	38286.71
973.027	39395.36
973.388	47809.75
973.748	32512.55
974.108	35435.44
974.468	47941.27
974.828	36919.49
975.188	28396.66
975.548	26053.41
975.907	21873.91
976.267	24518.89
976.627	20615.16
976.986	21380.13
977.346	20387.86
977.705	19609.94
978.064	17846.86
978.424	14864.87
978.783	15407.89
979.142	17608.68
979.501	16857.88
979.86	17816.59
980.219	17169.65
980.578	22148.21
980.937	24810.55
981.296	22097.05
981.654	22715.86
982.013	35324.64
982.371	45825.54
982.73	42748.36
983.088	48432.46
983.447	51742.36
983.805	73952.42
984.163	154450.99
984.521	171481.07
984.879	251472.25
985.237	-408367.11
985.595	393462.02
985.953	97860.02
986.311	56537.07
986.669	32808.2
987.026	28269.8
987.384	38030.38
987.741	39259.66
988.099	28022.29
988.456	22321.1
988.814	20890.67
989.171	18175.06
989.528	17953.5
989.885	18971.2
990.242	15014
990.599	18707.11
990.956	15315.16
991.313	10718.61
991.67	8803.92
992.027	9314.61
992.383	8280.86
992.74	7271.83
993.096	7631.7
993.453	7910.48
993.809	8200.68
994.165	10916.63
994.522	9968.08
994.878	10990.3
995.234	13784.42
995.59	13611.43
995.946	12908.36
996.302	14721.67
996.658	16986.6
997.013	18705.47
997.369	22159.58
997.725	28378.77
998.08	18400.32
998.436	28474.61
998.791	39231.87
999.147	39112.44
999.502	42703
999.857	31064.81
1000.212	50617.95
1000.567	72175.8
1000.922	41677.31
1001.277	26473.24
1001.632	19648.68
1001.987	25301.05
1002.342	18173.87
1002.696	14546.49
1003.051	11597.63
1003.406	14021.37
1003.76	13969.19
1004.114	13769.5
1004.469	11558.52
1004.823	9557.72
1005.177	10330.87
1005.531	8178.71
1005.885	7258.16
1006.239	8165.22
1006.593	10205.28
1006.947	13686.4
1007.301	10298.28
1007.655	11207.38
1008.008	8215.14
1008.362	9212.64
1008.715	13152.63
1009.069	11930.24
1009.422	17887.16
1009.776	35828.71
1010.129	23836.06
1010.482	19964.85
1010.835	16859.58
1011.188	35005.78
1011.541	32961.19
1011.894	-201694.14
1012.247	594560.71
1012.6	40429.28
1012.952	25520.26
1013.305	13201.59
1013.657	9521.01
1014.01	8988.32
1014.362	7424.18
1014.715	6586.06
1015.067	5723.36
1015.419	5605.86
1015.771	4962.5
1016.123	4418.66
1016.475	4530.35
1016.827	4826.38
1017.179	5194.31
1017.531	5229.62
1017.883	5350.4
1018.234	5143.88
1018.586	6493.72
1018.938	6862.62
1019.289	9452.25
1019.64	10846.76
1019.992	10097.45
1020.343	9284.14
1020.694	7328.26
1021.045	6460.27
1021.396	7400.3
1021.747	7942.32
1022.098	9558.49
1022.449	6939.18
1022.8	6461.84
1023.151	4506.63
1023.501	3980.12
1023.852	4337.53
1024.202	4478.49
1024.553	4929.67
1024.903	4799.07
1025.253	4082.61
1025.604	3664.45
1025.954	4542.89
1026.304	5550.41
1026.654	6470.6
1027.004	9499.89
1027.354	15445.03
1027.703	14500.22
1028.053	19125.33
1028.403	27718.29
1028.753	40329.33
1029.102	54929.57
1029.452	282983.33
1029.801	12205.18
1030.15	7864.97
1030.499	6679.46
897.758	2100.22
901.051	2030.24
904.343	2064.06
907.636	2072.64
910.928	2135.13
914.22	2057.43
917.511	2061.9
920.803	2109.71
924.094	2105.15
927.384	2112.5
930.675	2075.93
933.965	2040.31
937.255	2074.03
940.544	2045.25
943.834	2036.75
947.123	1978.89
950.411	2065.13
953.7	2048.71
956.988	2035.02
960.276	1970.5
963.563	2016.65
966.851	2025.11
970.138	2065.7
973.424	2067.91
976.711	2021.39
979.997	2073.07
983.283	2113.27
986.568	2049.19
989.853	2037.7
993.138	2062.97
996.423	2150.81
999.708	2109.16
1002.992	2143.57
1006.275	2060.35
1009.559	2066.85
1012.842	2163.3
1016.125	2119.89
1019.408	2102.89
1022.69	2153.18
1025.972	2189.56
1029.254	2165.37
1032.536	2132.19
1035.817	2140.34
1039.098	2111.13
1042.379	2157.14
1045.659	2181.36
1048.939	2133.82
1052.219	2139.03
1055.498	2127.71
1058.778	2127.81
1062.057	2104.48
1065.335	2128.65
1068.614	2138.46
1071.892	2138.05
1075.17	2187.9
1078.447	2192.89
1081.724	2191.09
1085.001	2212.9
1088.278	2192.91
1091.554	2197.93
1094.83	2192.47
1098.106	2227.8
1101.382	2257.35
1104.657	2256.87
1107.932	2256.93
1111.206	2236.69
1114.481	2190.39
1117.755	2189.07
1121.029	2185.59
1124.302	2246.68
1127.575	2216.15
1130.848	2214.15
1134.121	2184.96
1137.393	2151.15
1140.665	2206.95
1143.937	2187.96
1147.208	2133.11
1150.48	2196.43
1153.75	2184.48
1157.021	2181.41
1160.291	2158.66
1163.561	2213.9
1166.831	2178.53
1170.101	2205.65
1173.37	2160.74
1176.639	2121.6
1179.907	2161.33
1183.176	2189.14
1186.444	2189.96
1189.711	2211.93
1192.979	2239.41
1196.246	2198.05
1199.513	2209.35
1202.78	2216.85
1206.046	2225.27
1209.312	2252.79
1212.578	2267.97
1215.843	2241.3
1219.108	2204.93
1222.373	2225.97
1225.638	2204.44
1228.902	2195.01
1232.166	2146.77
1235.43	2136.65
1238.693	2161.69
1241.956	2151
1245.219	2203.02
1248.482	2185.67
1251.744	2181.89
1255.006	2298.65
1258.268	2245.33
1261.529	2202.74
1264.79	2204.01
1268.051	2300.64
1271.312	2309.28
1274.572	2281.3
1277.832	2271.08
1281.092	2247.89
1284.351	2240.99
1287.61	2227.2
1290.869	2166.61
1294.128	2167.06
1297.386	2207.11
1300.644	2201.96
1303.902	2210.43
1307.159	2079.5
1310.416	2129.58
1313.673	2157.61
1316.93	2159.84
1320.186	2188.82
1323.442	2218.7
1326.697	2221.77
1329.953	2191.04
1333.208	2230.16
1336.463	2199.75
1339.717	2166.04
1342.972	2267.44
1346.226	2238.17
1349.479	2190.2
1352.733	2170.04
1355.986	2173.4
1359.238	2153.77
1362.491	2161.69
1365.743	2160.84
1368.995	2148.3
1372.247	2161.26
1375.498	2180.93
1378.749	2228.14
1382	2176.46
1385.251	2209.79
1388.501	2158.93
1391.751	2162.14
1395	2126.47
1398.25	2149.35
1401.499	2175.44
1404.748	2131.79
1407.996	2104.73
1411.244	2093.57
1414.492	2077.94
1417.74	2064.19
1420.987	2066
1424.234	2127.47
1427.481	2086.86
1430.728	2145.93
1433.974	2119.69
1437.22	2116.18
1440.465	2109.32
1443.711	2115.81
1446.956	2137.48
1450.201	2107.65
1453.445	2148.81
1456.689	2141.28
1459.933	2148.15
1463.177	2189.39
1466.42	2163.99
1469.663	2147.66
1472.906	2164.47
1476.148	2214.38
1479.391	2179.7
1482.633	2157.05
1485.874	2183.46
1489.115	2191.85
1492.356	2173.5
1495.597	2158.08
1498.838	2147.67
1502.078	2134.2
1505.318	2110.53
1508.557	2142.69
1511.797	2138.04
1515.036	2190.71
1518.274	2160.72
1521.513	2110.68
1524.751	2121.82
1527.989	2147.53
1531.227	2166.39
1534.464	2186.7
1537.701	2177.23
1540.938	2189.02
1544.174	2137.54
1547.41	2127.19
1550.646	2162.87
1553.882	2214.84
1557.117	2274.17
1560.352	2281.93
1563.587	2245.73
1566.821	2213.02
1570.055	2227.06
1573.289	2209.58
1576.523	2265.22
1579.756	2281.97
1582.989	2306.38
1586.222	2268.06
1589.454	2294.31
1592.686	2281.03
1595.918	2307.98
1599.15	2308.8
1602.381	2349.24
1605.612	2332.6
1608.843	2426.67
1612.073	2349.88
1615.303	2340.03
1618.533	2337.9
1621.762	2333.52
1624.992	2306.14
1628.221	2311.46
1631.449	2301.68
1634.678	2322.85
1637.906	2292.28
1641.134	2317.84
1644.361	2285.05
1647.588	2275.95
1650.815	2296.58
1654.042	2257.44
1657.269	2288.97
1660.495	2272.89
1663.72	2252.08
1666.946	2221.26
1670.171	2200.1
1673.396	2171.42
1676.621	2153.56
1679.845	2146.03
1683.069	2151.44
1686.293	2180.08
1689.517	2173.82
1692.74	2125.81
1695.963	2146.56
1699.185	2190.32
1702.408	2162.77
1705.63	2189.87
1708.852	2212.06
1712.073	2181.52
1715.294	2195.78
1718.515	2236.28
1721.736	2196.37
1724.956	2172.82
1728.176	2194.31
1731.396	2215.51
1734.616	2200.3
1737.835	2237.56
1741.054	2206.94
1744.272	2199.5
1747.491	2241.76
1750.709	2258.14
1753.927	2211.73
1757.144	2234.29
1760.361	2297.88
1763.578	2267.09
1766.795	2217.87
1770.011	2205.99
1773.227	2228.94
1776.443	2270.39
1779.658	2311.06
1782.874	2247.94
1786.089	2246.7
1789.303	2249.13
1792.518	2243.46
1795.732	2227.86
1798.945	2246.11
1802.159	2285.18
1805.372	2233.49
1808.585	2229.43
1811.797	2229.6
1815.01	2243.29
1818.222	2269.71
1821.434	2222.25
1824.645	2263.11
1827.856	2276.99
1831.067	2306.26
1834.278	2240.68
1837.488	2225.9
1840.698	2341.09
1843.908	2284.79
1847.117	2252.6
1850.326	2187.89
1853.535	2242.24
1856.744	2281.48
1859.952	2204.35
1863.16	2205.55
1866.368	2216.16
1869.575	2328.84
1872.782	2207.88
1875.989	2144.54
1879.196	2184.39
1882.402	2177.88
1885.608	2205.49
1888.814	2151.31
1892.019	2061.18
1895.224	2109.97
1898.429	2069.94
1901.634	2053.62
1904.838	2029.26
1908.042	2086.69
1911.246	2096.18
1914.449	2065
1917.652	2044.28
1920.855	2028.03
1924.058	2045.52
1927.26	2090.83
1930.462	2111.13
1933.664	2153.6
1936.865	2099.6
1940.066	2116.61
1943.267	2061.92
1946.467	2072.45
1949.668	2088.45
1952.868	2156.6
1956.067	2147.39
1959.267	2092.78
1962.466	2113.84
1965.665	2097.24
1968.863	2092.6
1972.061	2094.04
1975.259	2084.79
1978.457	2158.97
1981.654	2120.06
1984.852	2124.3
1988.048	2081.37
1991.245	2067.95
1994.441	2157.23
1997.637	2112.45
2000.833	2094.16
2004.028	2128.17
2007.223	2189.53
2010.418	2181.37
2013.613	2130.61
2016.807	2127.4
2020.001	2120.84
2023.194	2139.94
2026.388	2125.72
2029.581	2069.15
2032.774	2134.26
2035.966	2145.58
2039.158	2094.51
2042.35	2112.09
2045.542	2040.64
2048.733	2118.06
2051.924	2105.8
2055.115	2122.59
2058.306	2090.23
2061.496	2145.46
2064.686	2191.41
2067.875	2098.33
2071.065	2098.93
2074.254	2115.99
2077.442	2071.62
2080.631	2151.6
2083.819	2091.36
2087.007	2085.66
2090.195	2071.87
2093.382	2085.54
2096.569	2069.46
2099.756	2033.74
2102.942	2083.32
2106.128	2100.95
2109.314	2087.94
2112.5	2078.13
2115.685	2044
2118.87	2050.68
2122.055	2109.04
2125.239	2090.29
2128.424	2077.66
2131.608	2129.6
2134.791	2115.48
2137.974	2150.91
2141.157	2139.33
2144.34	2113.81
2147.523	2101.43
2150.705	2129.03
2153.887	2095.81
2157.068	2072.88
2160.25	2048.94
2163.431	2071.74
2166.611	2045.78
2169.792	2067.03
2172.972	1983.04
2176.152	2026.39
2179.331	2053.81
2182.511	2056.78
2185.69	2078.87
2188.868	2085.63
2192.047	2115.88
2195.225	2137.97
2198.403	2083.8
2201.58	2070.51
2204.758	2054.1
2207.935	2124.94
2211.111	2049.92
2214.288	2037.92
2217.464	2072.65
2220.64	2025.01
2223.815	2072.96
2226.991	2008.94
2230.166	2022.2
2233.34	2070.19
2236.515	2079.49
2239.689	2147.24
2242.863	2098.42
2246.036	2148.86
2249.209	2127.95
2252.382	2143.9
2255.555	2154.6
2258.727	2108.25
2261.9	2134.18
2265.071	2127.08
2268.243	2123.02
2271.414	2076.52
2274.585	2058.68
2277.756	2118.34
2280.926	2073.41
2284.096	2103.71
2287.266	2039.19
2290.436	2083.13
2293.605	2099.24
2296.774	2139.44
2299.942	2143.34
2303.111	2155.87
2306.279	2207.91
2309.447	2193.52
2312.614	2161
2315.781	2188.59
2318.948	2166.61
2322.115	2201.59
2325.281	2103.91
2328.447	2110.97
2331.613	2080.36
2334.779	2072.56
2337.944	2068.91
2341.109	2069.2
2344.274	2059.74
2347.438	2029.97
2350.602	2049.15
2353.766	2055.78
2356.929	2045.72
2360.092	2084.63
2363.255	2057.12
2366.418	2028.12
2369.58	2087.52
2372.742	1979.43
2375.904	1969.67
2379.066	1955.2
2382.227	1979.96
2385.388	1943.84
2388.548	1898.48
2391.709	1936.57
2394.869	1928.15
2398.029	1974.2
2401.188	1966.45
2404.347	1936.01
2407.506	2001.88
2410.665	2042.94
2413.823	2027.27
2416.981	2008.63
2420.139	2021.55
2423.296	2060
2426.453	2034.85
2429.61	2053.73
2432.767	2031.74
2435.923	2073.03
2439.079	2015.01
2442.235	2045.47
2445.391	1990.2
2448.546	2033.2
2451.701	2065.58
2454.855	2065.55
2458.009	2091.66
2461.163	2075.08
2464.317	2049.26
2467.471	2074.11
2470.624	2099.73
2473.777	2095.85
2476.929	2113.29
2480.082	2136.07
2483.234	2111.9
2486.385	2051.24
2489.537	2045.4
2492.688	2037.37
2495.839	2058.16
2498.989	2072
2502.14	2059.46
2505.29	2054.08
2508.439	2074.33
2511.589	2019.22
2514.738	2017.83
2517.887	2037.79
2521.035	2114.77
2524.183	2070.04
2527.331	2060.33
2530.479	2055.24
2533.627	2056.29
