Data from C_1_DEC_NC_4N_Splice17_11-44-23-780.txt Node
Date: Sat Mar 14 11:44:23 EDT 2020
User: sa697716
Spectrometer: FLMS03696
Trigger mode: 0
Integration Time (sec): 3.180400E-1
Scans to average: 20
Electric dark correction enabled: true
Nonlinearity correction enabled: true
Boxcar width: 5
XAxis mode: Wavelengths
Number of Pixels in Spectrum: 2048
>>>>>Begin Spectral Data<<<<<
187.83	-174390.51
188.298	1206.02
188.766	720.08
189.233	667.22
189.701	934.26
190.169	1332.29
190.636	465.84
191.104	407.04
191.571	31.63
192.039	-46.21
192.506	28.49
192.974	416.9
193.441	-798.33
193.908	-182.63
194.375	10.93
194.842	36.24
195.31	85.3
195.777	140.73
196.244	283.01
196.711	149.37
197.177	130.87
197.644	125.37
198.111	170.93
198.578	198.09
199.045	119.35
199.511	139.12
199.978	79.84
200.445	83.1
200.911	29.09
201.378	-84.97
201.844	-30.22
202.31	-89.68
202.777	-82.86
203.243	-46.93
203.709	-58.98
204.176	-87.09
204.642	-65.24
205.108	-34.88
205.574	-38.11
206.04	-43.91
206.506	-28.75
206.972	-47.07
207.438	-64.27
207.903	-70.99
208.369	-33.09
208.835	-19.46
209.301	-14.82
209.766	-38.87
210.232	-34.29
210.697	-50.5
211.163	-93.96
211.628	-158.46
212.094	-101.19
212.559	-7.6
213.024	0.61
213.49	-6.71
213.955	-13.17
214.42	-44.35
214.885	-30.16
215.35	-16.08
215.815	84.37
216.28	101.31
216.745	88.76
217.21	108.09
217.675	47.96
218.14	44.59
218.604	23.97
219.069	45.61
219.534	92.4
219.998	80.35
220.463	82.74
220.927	-23.71
221.392	-26.89
221.856	-18.57
222.32	-87.73
222.785	-57.62
223.249	-74.4
223.713	-87.11
224.177	-101.39
224.642	-226.6
225.106	-283.84
225.57	-315.96
226.034	-158.65
226.497	-200.72
226.961	-130.65
227.425	-86.21
227.889	-154.36
228.353	-200.55
228.816	-453.07
229.28	-430.55
229.744	-315.59
230.207	-118.6
230.671	-112.17
231.134	-342.87
231.597	-351.48
232.061	-433.03
232.524	-483.01
232.987	-289.49
233.45	-171.88
233.914	-142.02
234.377	-199.97
234.84	-168.34
235.303	-230.56
235.766	-246.06
236.229	-213.46
236.691	-163.23
237.154	-200.24
237.617	-123.52
238.08	-168.2
238.542	-224.85
239.005	-129.3
239.468	-94.48
239.93	-95.16
240.393	-79.5
240.855	-69.37
241.317	-80.35
241.78	-117.97
242.242	-103.82
242.704	-72.9
243.166	-18.41
243.629	24.01
244.091	12.39
244.553	-9.24
245.015	5.82
245.477	-6.43
245.939	-44.93
246.4	-21.65
246.862	1.5
247.324	-8.92
247.786	-66.25
248.247	-175.26
248.709	-328.65
249.17	-214.65
249.632	-86.02
250.093	-41.21
250.555	-22.83
251.016	27.64
251.477	31.63
251.939	42.1
252.4	34.31
252.861	8.68
253.322	33.34
253.783	15.53
254.244	-50.2
254.705	-93.51
255.166	-131.34
255.627	-140.45
256.088	-190.77
256.549	-238.44
257.009	-212.84
257.47	-298.21
257.931	-272.66
258.391	-194.39
258.852	-190.43
259.312	-169.18
259.773	-252.23
260.233	-152.47
260.694	-88.36
261.154	-127.74
261.614	-25.05
262.074	-36.4
262.534	-7.32
262.994	33.75
263.455	11.3
263.915	38.05
264.374	33.27
264.834	48.96
265.294	18.11
265.754	27.78
266.214	26.92
266.673	-8.79
267.133	-16.36
267.593	-32.59
268.052	-50.71
268.512	-35.59
268.971	-2.27
269.431	-4.42
269.89	6.23
270.349	28.01
270.809	21.14
271.268	36.9
271.727	-86.06
272.186	33.14
272.645	33.77
273.104	-43.68
273.563	-87.69
274.022	-192.42
274.481	-125.73
274.94	-105.08
275.399	-95.1
275.857	-146.87
276.316	-249.69
276.775	-206.24
277.233	-217.2
277.692	-177.9
278.15	-145.66
278.609	-76.83
279.067	-47.75
279.525	-51.66
279.984	-81.41
280.442	-98.52
280.9	-4.81
281.358	4.42
281.816	12.61
282.274	-8.66
282.732	-58.15
283.19	-91.37
283.648	-124.88
284.106	-137.44
284.564	-154.7
285.021	-121.91
285.479	-89.99
285.937	-133.41
286.394	-92.43
286.852	-107.9
287.309	-110.51
287.767	-64.38
288.224	-41.32
288.682	-51.16
289.139	-41.84
289.596	-24.26
290.053	-32.15
290.511	-58.49
290.968	-40.87
291.425	-93.19
291.882	-11.19
292.339	38.92
292.796	-23.2
293.252	-36.81
293.709	5.94
294.166	6.15
294.623	-15.07
295.079	-33.21
295.536	-23.31
295.992	-18.08
296.449	-9.74
296.905	-10.7
297.362	7.56
297.818	14.16
298.274	36.02
298.731	22.94
299.187	8.53
299.643	25.69
300.099	60.63
300.555	84.66
301.011	63.03
301.467	129.39
301.923	80.86
302.379	70.43
302.835	69.05
303.291	45.25
303.746	44
304.202	65.34
304.658	57.06
305.113	21.3
305.569	15.84
306.024	14.14
306.479	-71.46
306.935	-24.55
307.39	-73.57
307.845	-64.66
308.301	-50.12
308.756	-69.63
309.211	-64.73
309.666	-84
310.121	-65.12
310.576	-76.88
311.031	-108.17
311.486	-136.51
311.94	-163.96
312.395	-259.84
312.85	-587.23
313.305	-3821.06
313.759	-13626.7
314.214	-1056.44
314.668	-817.48
315.123	-669.44
315.577	-227.92
316.032	-162.43
316.486	-217.64
316.94	-128.45
317.394	-49.62
317.849	-24.27
318.303	-14.87
318.757	-10.06
319.211	3.35
319.665	18.1
320.119	4.98
320.572	2.9
321.026	23.07
321.48	23.72
321.934	-2.66
322.387	-9.71
322.841	14.68
323.295	68.65
323.748	14.3
324.202	0.54
324.655	-9.65
325.108	43.03
325.562	49.34
326.015	28.15
326.468	30.34
326.921	43.07
327.374	75.49
327.827	107.24
328.28	94.75
328.733	92.14
329.186	96.6
329.639	93.8
330.092	67.1
330.545	70.51
330.997	96.58
331.45	133.28
331.903	188.25
332.355	247.39
332.808	170.54
333.26	124.97
333.713	152.23
334.165	142.01
334.617	132.36
335.069	40.29
335.522	-30.48
335.974	-122.26
336.426	-255.6
336.878	-289.11
337.33	-117.99
337.782	-107.86
338.234	-85.64
338.686	-143.49
339.137	-180.93
339.589	-147.23
340.041	-61.27
340.493	-46.12
340.944	-30.8
341.396	-3.67
341.847	47.96
342.299	73.31
342.75	133.01
343.201	39.02
343.653	52.36
344.104	29.71
344.555	19.67
345.006	-93.49
345.457	14.44
345.908	3.78
346.359	36.44
346.81	4.08
347.261	-23.74
347.712	-46.9
348.163	-57.3
348.613	-9.2
349.064	2.25
349.515	16.97
349.965	48.5
350.416	18.8
350.866	7.2
351.317	-52.81
351.767	-76.85
352.217	-126.92
352.668	-149.93
353.118	-131.81
353.568	-279.9
354.018	-183.56
354.468	-165.57
354.918	-97.03
355.368	-62.83
355.818	-110.17
356.268	-374.89
356.718	-899.11
357.168	-92.01
357.617	-15.31
358.067	-63.69
358.517	2.32
358.966	21.4
359.416	31.23
359.865	-30.21
360.315	-260.94
360.764	-74.21
361.213	-19.63
361.663	-64.2
362.112	-130.18
362.561	-232.53
363.01	-156.29
363.459	-128.75
363.908	-178.28
364.357	-122.56
364.806	-250.97
365.255	-131.65
365.703	-95.97
366.152	-109.76
366.601	-75.76
367.05	-20.34
367.498	0.46
367.947	-21.02
368.395	-45.65
368.844	-23.35
369.292	-85.39
369.74	-33.34
370.189	-90.13
370.637	-131.56
371.085	-105.94
371.533	-137.49
371.981	-179.7
372.429	-116.7
372.877	-87.3
373.325	-44.47
373.773	-70.73
374.221	-86.86
374.669	-110.4
375.116	-76.16
375.564	-95.38
376.012	-103.49
376.459	-76.71
376.907	-81.26
377.354	-163.43
377.801	-134.54
378.249	-134.2
378.696	-187.01
379.143	-158.52
379.591	-222.75
380.038	-400.9
380.485	-153.29
380.932	-185.4
381.379	-39.65
381.826	22.07
382.273	-6.87
382.72	-42.17
383.166	-15.41
383.613	22.78
384.06	17.01
384.506	40.72
384.953	35.5
385.4	16.39
385.846	6.57
386.292	-26.58
386.739	-38.56
387.185	-37.35
387.631	-38.03
388.078	-31.26
388.524	-42.66
388.97	-27.43
389.416	-28.1
389.862	-25.78
390.308	-26.83
390.754	-9.88
391.2	-8
391.645	-15.36
392.091	18.52
392.537	32.06
392.983	18.74
393.428	44.32
393.874	30.7
394.319	58.01
394.765	71.2
395.21	75.25
395.655	61.56
396.101	59.14
396.546	62.78
396.991	38.46
397.436	28.71
397.881	22.17
398.326	2.08
398.771	15.84
399.216	-2.56
399.661	-13.09
400.106	-8.42
400.551	-3.53
400.995	-3.81
401.44	-6.78
401.885	-1.52
402.329	1.87
402.774	5.63
403.218	23.89
403.663	22.93
404.107	30.04
404.551	36.53
404.995	31.44
405.44	23.59
405.884	24.29
406.328	20.74
406.772	15.89
407.216	14.13
407.66	9.01
408.104	-6.16
408.547	-9.7
408.991	-9.84
409.435	-10.13
409.879	-6.36
410.322	-3.72
410.766	-0.92
411.209	1.58
411.653	1.2
412.096	5.72
412.54	4.56
412.983	8.54
413.426	12.62
413.869	8.15
414.312	11.18
414.756	6.04
415.199	6.19
415.642	8.24
416.085	10.88
416.527	10.29
416.97	8.63
417.413	11.4
417.856	8.17
418.298	7.07
418.741	6.4
419.184	2.48
419.626	-2.1
420.069	-4.04
420.511	-4.91
420.953	-3.29
421.396	-3.36
421.838	-6.29
422.28	-6.67
422.722	-4.2
423.164	-7.74
423.606	-5.22
424.048	-8.56
424.49	-3.44
424.932	-3.7
425.374	-7.18
425.816	-11.51
426.258	-9.89
426.699	-7.44
427.141	-5.5
427.582	-9.58
428.024	-9.53
428.465	-11.59
428.907	-7.64
429.348	-10.34
429.789	-7.64
430.231	-3.68
430.672	-2.9
431.113	-3.02
431.554	-3.73
431.995	-5.11
432.436	-0.06
432.877	2.21
433.318	5.55
433.759	2.16
434.2	4.67
434.64	2.99
435.081	1.27
435.522	1.84
435.962	2.43
436.403	3.49
436.843	1.57
437.284	-1.95
437.724	-5.28
438.164	-10.08
438.604	-8.24
439.045	-5.39
439.485	-0.84
439.925	-0.97
440.365	-1.66
440.805	-2.49
441.245	-0.65
441.685	0.55
442.125	0.28
442.564	0.48
443.004	2.74
443.444	2.77
443.883	1.37
444.323	-2.93
444.762	-7.23
445.202	-8.65
445.641	-6.67
446.081	-9.49
446.52	-9.5
446.959	-7.81
447.398	-5.65
447.837	-5.28
448.276	-5.46
448.716	-4.49
449.154	-5.27
449.593	-2.21
450.032	-1.04
450.471	-3.62
450.91	-4.68
451.349	-2.42
451.787	-2.56
452.226	-3.51
452.664	-4.45
453.103	-5.1
453.541	-7.99
453.98	-4.7
454.418	-4.53
454.856	-2.28
455.295	-1.95
455.733	-0.71
456.171	-1.9
456.609	-0.29
457.047	0.48
457.485	2.66
457.923	4.93
458.361	6.51
458.798	5.63
459.236	5.64
459.674	4.12
460.111	4
460.549	5.27
460.987	3.03
461.424	0.99
461.862	0.7
462.299	1.08
462.736	1.61
463.173	1.96
463.611	4.91
464.048	6.27
464.485	7.44
464.922	8.31
465.359	6.75
465.796	17.32
466.233	19.18
466.67	21.78
467.106	21.92
467.543	20.18
467.98	18.37
468.416	15.55
468.853	14.05
469.29	12.31
469.726	11.98
470.162	11.38
470.599	3.93
471.035	1.51
471.471	0.06
471.907	-1.51
472.344	-1.83
472.78	-0.67
473.216	-2.07
473.652	-2.5
474.088	-3.24
474.523	-3.06
474.959	-3.27
475.395	-3.93
475.831	-2.95
476.266	-2.22
476.702	-2.81
477.138	-2.59
477.573	-3.39
478.008	-2.68
478.444	-2.08
478.879	0.12
479.314	-0.03
479.75	0.63
480.185	0.62
480.62	-0.14
481.055	-0.76
481.49	0.42
481.925	1.03
482.36	3.45
482.795	2.76
483.229	2.52
483.664	2.11
484.099	2.18
484.534	2.67
484.968	3.62
485.403	3.49
485.837	2.21
486.271	1.86
486.706	0.89
487.14	-1.01
487.574	-0.49
488.009	-0.29
488.443	-1.11
488.877	-0.28
489.311	-1.16
489.745	-1.77
490.179	-1.24
490.613	1.28
491.046	0.18
491.48	0.61
491.914	1.2
492.348	1.32
492.781	1.52
493.215	2.11
493.648	1.1
494.082	1.04
494.515	1.42
494.948	2.38
495.382	0.74
495.815	1.18
496.248	1.27
496.681	0.69
497.114	-0.2
497.547	-0.02
497.98	0.51
498.413	2.22
498.846	2.5
499.279	1.89
499.711	0.98
500.144	1
500.577	2.28
501.009	2.08
501.442	3.54
501.874	4.85
502.306	4.57
502.739	6.69
503.171	5.77
503.603	6.23
504.036	6.28
504.468	6.65
504.9	6.58
505.332	5.44
505.764	6.32
506.196	5.41
506.627	5.43
507.059	5.32
507.491	1.96
507.923	1.97
508.354	1.75
508.786	2.25
509.217	2.17
509.649	2.29
510.08	1.95
510.512	1.98
510.943	2.26
511.374	1.99
511.805	1.5
512.237	1.46
512.668	0.7
513.099	-0.14
513.53	-0.31
513.961	-0.19
514.391	-0.64
514.822	1.65
515.253	1.44
515.684	0.77
516.114	1.02
516.545	2.23
516.975	2.67
517.406	2.84
517.836	3
518.267	3.05
518.697	4.14
519.127	4.45
519.558	2.89
519.988	2.4
520.418	2.35
520.848	1.18
521.278	0.62
521.708	33.6
522.138	34.26
522.567	33.32
522.997	32.93
523.427	31.59
523.857	31.64
524.286	31.66
524.716	32.23
525.145	32.7
525.575	33.6
526.004	32.61
526.433	-0.31
526.863	-0.72
527.292	1.73
527.721	2.68
528.15	2.89
528.579	2.8
529.008	2.76
529.437	1.71
529.866	1.16
530.295	0.49
530.724	2.15
531.152	2.51
531.581	2.93
532.01	2.24
532.438	1.33
532.867	0.78
533.295	1.28
533.723	1.27
534.152	1.55
534.58	1.95
535.008	2.24
535.436	2.96
535.865	2.75
536.293	1.68
536.721	1.11
537.149	1.43
537.576	2.96
538.004	3.21
538.432	2.93
538.86	3.48
539.287	3.15
539.715	3.25
540.143	1.71
540.57	1.87
540.998	1.85
541.425	3.44
541.852	3.23
542.28	2.01
542.707	1.5
543.134	2.09
543.561	2.03
543.988	2.47
544.415	2.63
544.842	2.16
545.269	2.58
545.696	3.28
546.123	2.28
546.549	2.35
546.976	3.25
547.403	2.93
547.829	1.78
548.256	1.61
548.682	1.76
549.108	2.41
549.535	2.94
549.961	2.16
550.387	2.07
550.813	3.14
551.24	3.09
551.666	1.92
552.092	2.22
552.518	2.44
552.943	3.39
553.369	3.13
553.795	2.48
554.221	2.55
554.646	2.69
555.072	4.13
555.498	2.08
555.923	1.71
556.349	2.16
556.774	2.09
557.199	2.11
557.625	0.89
558.05	0.82
558.475	0.76
558.9	0.91
559.325	1.77
559.75	1.09
560.175	1.82
560.6	1.34
561.025	0.5
561.449	0.62
561.874	0.25
562.299	0.9
562.723	0.9
563.148	0.81
563.572	0.07
563.997	-0.36
564.421	-1.63
564.846	-2.26
565.27	-1.9
565.694	-1.43
566.118	-1.86
566.542	-0.6
566.966	-0.82
567.39	-0.91
567.814	-0.51
568.238	-0.22
568.662	-0.95
569.086	-0.42
569.509	-0.02
569.933	2.03
570.357	2.47
570.78	2.22
571.204	2.82
571.627	2.57
572.05	2.6
572.474	3.23
572.897	3.33
573.32	4.51
573.743	3.67
574.166	3.96
574.589	2.4
575.012	2.32
575.435	2.64
575.858	2.03
576.281	2.22
576.704	2
577.126	0.69
577.549	0.75
577.972	-0.19
578.394	0.62
578.817	2.56
579.239	2.1
579.661	2.12
580.084	3.18
580.506	3.65
580.928	3.36
581.35	3.35
581.772	4.04
582.194	3.92
582.616	3.81
583.038	2.76
583.46	0.38
583.882	0.85
584.303	-0.33
584.725	-1.65
585.147	2.65
585.568	3.1
585.99	3.94
586.411	4.19
586.833	5.07
587.254	5.23
587.675	5.91
588.096	6.19
588.518	5.84
588.939	6.75
589.36	7.31
589.781	1.49
590.202	3.94
590.623	3.11
591.043	1.98
591.464	1.44
591.885	1.74
592.305	1.25
592.726	1.15
593.147	1.59
593.567	1.42
593.987	1.44
594.408	0.73
594.828	-2.2
595.248	-1.08
595.669	0.42
596.089	-0.12
596.509	-0.81
596.929	-0.71
597.349	-0.23
597.769	-0.47
598.189	0.01
598.608	-0.2
599.028	0.51
599.448	0.49
599.867	-0.16
600.287	-0.99
600.706	-0.38
601.126	0.59
601.545	1.43
601.965	1.43
602.384	1.35
602.803	0.78
603.222	1.01
603.641	0.52
604.061	0.82
604.48	0.83
604.898	0.27
605.317	0.21
605.736	-0.33
606.155	0.3
606.574	0.28
606.992	0.53
607.411	1.1
607.829	0.17
608.248	0.42
608.666	-0.35
609.085	-0.29
609.503	0.11
609.921	0.59
610.339	0.9
610.758	-0.55
611.176	-0.78
611.594	-0.06
612.012	-0.09
612.43	1.3
612.847	1.41
613.265	3.08
613.683	3.2
614.101	3.21
614.518	2.45
614.936	2.15
615.353	2.94
615.771	3.29
616.188	3.26
616.606	2.84
617.023	2.78
617.44	3.06
617.857	1.44
618.274	0.95
618.691	1.94
619.108	1.96
619.525	1.6
619.942	1.94
620.359	1.92
620.776	1.22
621.192	2.21
621.609	2.33
622.026	2.47
622.442	3.58
622.859	3.15
623.275	1.89
623.691	1.52
624.108	2.38
624.524	1.88
624.94	1.68
625.356	1.15
625.772	0.03
626.188	-0.48
626.604	-0.21
627.02	-0.42
627.436	0.53
627.852	2.53
628.268	3.59
628.683	2.72
629.099	2.55
629.514	2.38
629.93	2.47
630.345	2.8
630.761	2.24
631.176	1.75
631.591	3.17
632.007	3.22
632.422	0.86
632.837	-0.23
633.252	1.27
633.667	1.38
634.082	1.8
634.497	2.87
634.911	4.7
635.326	5.57
635.741	5.65
636.155	4.67
636.57	5.39
636.984	6.13
637.399	8.12
637.813	7.23
638.228	6.81
638.642	5.96
639.056	5.6
639.47	4.22
639.884	4.26
640.298	4.9
640.712	5.38
641.126	5.29
641.54	4.8
641.954	1.94
642.368	1.84
642.781	4.72
643.195	5.12
643.609	5.47
644.022	4.69
644.436	3.97
644.849	2.62
645.262	0.86
645.676	-1.05
646.089	-0.5
646.502	1.49
646.915	0.48
647.328	-0.85
647.741	0.02
648.154	-0.4
648.567	2.99
648.98	3.27
649.393	3.83
649.805	4.48
650.218	5.43
650.631	5.88
651.043	5.87
651.456	7.3
651.868	6.42
652.28	4.91
652.693	4.26
653.105	1.8
653.517	1.41
653.929	1.15
654.341	1.85
654.753	2.7
655.165	1.36
655.577	0.78
655.989	0.73
656.401	-0.04
656.813	1.84
657.224	1.71
657.636	0.84
658.047	2.18
658.459	2.57
658.87	0.47
659.282	-0.04
659.693	1.93
660.104	2.53
660.515	1.73
660.926	1.71
661.338	0.63
661.749	0.37
662.159	2.18
662.57	0.6
662.981	0.35
663.392	1.26
663.803	0.95
664.213	-0.3
664.624	-0.34
665.035	-0.99
665.445	-1.32
665.855	-0.54
666.266	0.84
666.676	-0.05
667.086	-0.41
667.497	0.61
667.907	0.97
668.317	0.72
668.727	4.31
669.137	2.97
669.547	3.49
669.956	2.77
670.366	2.61
670.776	3.19
671.186	2.56
671.595	3.34
672.005	2.18
672.414	2.6
672.824	3.37
673.233	-0.82
673.642	-0.07
674.052	0.78
674.461	2.63
674.87	2.1
675.279	2.34
675.688	1.66
676.097	2.82
676.506	2.65
676.915	1.91
677.323	1.92
677.732	2.8
678.141	1.85
678.549	1.56
678.958	0.76
679.366	-0.06
679.775	-2.36
680.183	0.36
680.592	-0.51
681	-0.72
681.408	-0.06
681.816	-0.39
682.224	-1.52
682.632	0.78
683.04	0.11
683.448	-0
683.856	0.88
684.264	2.56
684.671	-0.22
685.079	-0.88
685.487	-1.1
685.894	-2.5
686.302	-3.78
686.709	-2.24
687.116	-3.37
687.524	-2.43
687.931	-1.06
688.338	-1.51
688.745	-3.55
689.152	-3.25
689.559	-2.05
689.966	0.33
690.373	1.78
690.78	3.25
691.187	3.02
691.593	2.75
692	2.14
692.407	2
692.813	5.29
693.22	6.82
693.626	5.76
694.032	5.71
694.439	4.8
694.845	4.04
695.251	3.85
695.657	3.74
696.063	2.21
696.469	2
696.875	1.93
697.281	-0.48
697.687	-0.7
698.093	0.24
698.498	0.55
698.904	-1.21
699.31	-0.91
699.715	0.58
700.12	-0.08
700.526	1.22
700.931	1.67
701.337	1.98
701.742	2.95
702.147	2.29
702.552	2.33
702.957	0.38
703.362	1.28
703.767	1.2
704.172	-0.25
704.577	-0.41
704.981	-1.43
705.386	-1.26
705.791	-1.99
706.195	-3.27
706.6	-2.47
707.004	-3.93
707.408	-3.4
707.813	-2.16
708.217	-1.32
708.621	-1.94
709.025	-2.38
709.43	0.03
709.834	-0.3
710.237	-0.29
710.641	-0.13
711.045	-0.17
711.449	1.6
711.853	6.05
712.256	4.86
712.66	4.09
713.064	4.3
713.467	6.08
713.87	4.53
714.274	5.85
714.677	6.63
715.08	7.49
715.484	7.66
715.887	10.54
716.29	6.17
716.693	7.58
717.096	8.38
717.499	9.09
717.901	7.79
718.304	7.78
718.707	6.15
719.109	5.99
719.512	4.19
719.915	7.2
720.317	5.05
720.719	3.02
721.122	2.35
721.524	2.5
721.926	7.39
722.328	7.83
722.731	8.16
723.133	8.39
723.535	8.42
723.937	8.23
724.338	7.18
724.74	8.85
725.142	64.53
725.544	68.29
725.945	81.36
726.347	75.57
726.748	75.74
727.15	76.47
727.551	79.38
727.952	77.39
728.354	76.87
728.755	75.55
729.156	72.83
729.557	20
729.958	15.37
730.359	3.22
730.76	3.71
731.161	3.62
731.562	2.09
731.962	-1.34
732.363	-0.52
732.763	-0.02
733.164	-2.17
733.564	-0.71
733.965	0.48
734.365	1.73
734.766	1.31
735.166	1.32
735.566	2.64
735.966	3.18
736.366	4.08
736.766	3.34
737.166	2.9
737.566	4.5
737.966	3.28
738.365	2.88
738.765	3.72
739.165	3.43
739.564	3.33
739.964	0.73
740.363	-0.28
740.763	-2.05
741.162	0.58
741.561	0.5
741.96	0.79
742.36	-0.01
742.759	0.91
743.158	-1.51
743.557	-2.08
743.955	-3.1
744.354	-2.29
744.753	-1.91
745.152	-0.25
745.55	-3.42
745.949	-2.92
746.348	-2.92
746.746	-4.61
747.144	-2.54
747.543	-2.71
747.941	-2.36
748.339	-0.63
748.737	0.16
749.136	0.82
749.534	-0.23
749.932	2.79
750.33	1.98
750.727	0.28
751.125	3.4
751.523	0.56
751.921	5.43
752.318	5
752.716	5.68
753.113	4.78
753.511	4.47
753.908	5.23
754.305	9.48
754.703	9.54
755.1	11.28
755.497	10.33
755.894	9.96
756.291	5.97
756.688	7.55
757.085	4.86
757.482	6.47
757.878	9.74
758.275	10.89
758.672	1.31
759.068	2.34
759.465	0.34
759.861	-1.54
760.258	-3.88
760.654	-4.61
761.05	-6.45
761.447	-5.5
761.843	-5.51
762.239	-6.22
762.635	-9.26
763.031	-11.99
763.427	-10.76
763.822	-8.35
764.218	-7.32
764.614	-4.48
765.01	-4.79
765.405	-5.53
765.801	-3.34
766.196	-3.27
766.592	-4.83
766.987	-2.46
767.382	-0.43
767.778	0.05
768.173	-1.67
768.568	-2.15
768.963	-1.96
769.358	-1.02
769.753	1.85
770.148	2.27
770.542	1.24
770.937	0.55
771.332	-0.09
771.726	-1.11
772.121	2.53
772.515	3.41
772.91	4.71
773.304	5.02
773.699	4.92
774.093	3.57
774.487	2.79
774.881	2.67
775.275	4.32
775.669	3.77
776.063	4.31
776.457	2.02
776.851	2.51
777.245	3.25
777.638	2.46
778.032	1.56
778.425	1.63
778.819	4.79
779.212	8.48
779.606	10.7
779.999	11.05
780.392	12.92
780.786	10.99
781.179	11.38
781.572	10.26
781.965	11.16
782.358	11.5
782.751	11.86
783.143	8.51
783.536	6.6
783.929	2.31
784.322	2.2
784.714	0.36
785.107	1.99
785.499	2.05
785.891	4.49
786.284	3.23
786.676	2.55
787.068	3.97
787.46	5.68
787.852	4.19
788.245	4.9
788.636	2.64
789.028	5.17
789.42	6.22
789.812	6.86
790.204	5.75
790.595	8.07
790.987	9.39
791.378	8.45
791.77	6.45
792.161	6.32
792.553	6.24
792.944	9.09
793.335	5.41
793.726	3.32
794.117	4.46
794.508	1.18
794.899	-0.63
795.29	-1.42
795.681	-3.5
796.072	-3.93
796.463	17.63
796.853	22.95
797.244	23.33
797.634	25.61
798.025	26.28
798.415	21.5
798.806	25.53
799.196	27.9
799.586	32.44
799.976	34.85
800.366	35.81
800.756	12.7
801.146	7.92
801.536	6.7
801.926	5.56
802.316	7.96
802.706	10.68
803.095	8.8
803.485	7.71
803.874	2.05
804.264	0.8
804.653	2.49
805.043	6.82
805.432	10.07
805.821	12.91
806.21	13.68
806.599	8.77
806.988	10.27
807.377	8.33
807.766	6.52
808.155	8.28
808.544	7.46
808.933	7.45
809.321	10.27
809.71	5.2
810.098	3.08
810.487	-0.15
810.875	-0.88
811.264	-0.57
811.652	11.24
812.04	11.27
812.428	13.16
812.816	11.65
813.204	10.9
813.592	1.17
813.98	3.43
814.368	9.39
814.756	14.38
815.144	16.7
815.531	19.3
815.919	6.99
816.306	11.18
816.694	11.35
817.081	13.51
817.469	15.62
817.856	13.18
818.243	9.54
818.63	3.65
819.017	2.42
819.404	5.92
819.791	0.09
820.178	-3.12
820.565	-2.12
820.952	7.81
821.339	13.03
821.725	12.01
822.112	17.45
822.498	20.54
822.885	18.22
823.271	16.2
823.657	8.26
824.044	10.73
824.43	12.85
824.816	19.02
825.202	14.58
825.588	11.8
825.974	12.73
826.36	13.32
826.746	12.72
827.132	13.74
827.517	20.5
827.903	25.21
828.289	28.09
828.674	25.95
829.06	21.15
829.445	14.6
829.83	9.52
830.216	9.21
830.601	14.3
830.986	24.03
831.371	23.73
831.756	23.1
832.141	32.96
832.526	34.66
832.911	38.94
833.295	36.15
833.68	35.97
834.065	43.16
834.449	39.76
834.834	36.65
835.218	33.42
835.603	36.39
835.987	30.89
836.371	22.52
836.755	21.57
837.139	17.88
837.524	14.45
837.908	14.08
838.291	11.22
838.675	12.24
839.059	12.52
839.443	9.83
839.827	5.16
840.21	2.44
840.594	6.05
840.977	3.15
841.361	4.33
841.744	2.09
842.127	2.43
842.511	0.07
842.894	-2.95
843.277	-9.28
843.66	-15.48
844.043	-11.31
844.426	-5.02
844.809	-12.78
845.191	-10.09
845.574	-8.97
845.957	-6.45
846.339	-4.2
846.722	-1.27
847.104	-0.87
847.487	-2.78
847.869	0.97
848.252	3.07
848.634	4.15
849.016	5.9
849.398	0.9
849.78	-2.87
850.162	1.72
850.544	0.69
850.926	-6.75
851.307	-9.25
851.689	-3.79
852.071	-7.21
852.452	-8.85
852.834	-9.69
853.215	-3.92
853.597	-1.8
853.978	5.94
854.359	3.37
854.741	8.54
855.122	11.45
855.503	11.63
855.884	13.27
856.265	14.97
856.646	9.58
857.026	11.27
857.407	11.7
857.788	10.34
858.169	2.83
858.549	11.17
858.93	8.22
859.31	10.31
859.69	16.08
860.071	15.59
860.451	17.25
860.831	20.5
861.211	16.83
861.591	10.65
861.971	10.02
862.351	10.96
862.731	2.26
863.111	3.21
863.491	9.62
863.87	7.23
864.25	3.08
864.629	7.56
865.009	2.17
865.388	4.58
865.768	0.4
866.147	4.86
866.526	8.33
866.905	10.79
867.284	-0.2
867.663	-9.25
868.042	-11.74
868.421	-9.94
868.8	-17.17
869.179	-9.54
869.558	-13.65
869.936	-6.43
870.315	-10.94
870.693	-5.99
871.072	-13.61
871.45	-10.62
871.828	-2.2
872.207	1.74
872.585	3.97
872.963	4.11
873.341	9.13
873.719	23.72
874.097	23.47
874.475	20.42
874.853	11.31
875.23	16.41
875.608	21.39
875.986	16.07
876.363	13.03
876.741	18.6
877.118	33.05
877.495	30.79
877.873	17.61
878.25	15.2
878.627	20.52
879.004	23.96
879.381	18.85
879.758	21.53
880.135	20.73
880.512	24.14
880.889	10.29
881.265	-2.38
881.642	-8.67
882.019	-7.34
882.395	3.14
882.772	4.4
883.148	11.47
883.524	16.65
883.901	11.37
884.277	6.55
884.653	1.76
885.029	13.22
885.405	24.12
885.781	28.19
886.157	28.25
886.532	20.82
886.908	22.15
887.284	18.55
887.659	21.27
888.035	24.22
888.411	29.67
888.786	33.2
889.161	30.96
889.537	20.08
889.912	21.16
890.287	21.89
890.662	22.34
891.037	15.82
891.412	11.74
891.787	1.75
892.162	8.02
892.536	7.45
892.911	12.49
893.286	6.41
893.66	7.91
894.035	8.86
894.409	3.2
894.784	10.23
895.158	11.11
895.532	16.42
895.906	25.68
896.281	22.25
896.655	26.98
897.029	21.28
897.402	20.46
897.776	10.99
898.15	7.77
898.524	14.47
898.898	7.92
899.271	15.26
899.645	14.18
900.018	6.97
900.392	6.59
900.765	2.87
901.138	5.83
901.511	10.84
901.884	33.24
902.258	35.73
902.631	41.64
903.003	37.01
903.376	25.04
903.749	21.93
904.122	20.36
904.495	8.49
904.867	-2.98
905.24	1.01
905.612	3.06
905.985	-18.47
906.357	-28.45
906.729	-24.87
907.102	-7.46
907.474	0.98
907.846	10.11
908.218	17.47
908.59	36.34
908.962	33.64
909.334	36.39
909.705	42.9
910.077	45.65
910.449	41.58
910.82	46.21
911.192	45.06
911.563	53.73
911.935	41.59
912.306	25.44
912.677	-7.61
913.048	11.82
913.419	1.91
913.79	-17.42
914.161	-26.88
914.532	-3.5
914.903	-18
915.274	-17.7
915.645	-18.11
916.015	-19.08
916.386	-14.97
916.756	2.33
917.127	-9.91
917.497	1.17
917.868	10.73
918.238	17.03
918.608	13.16
918.978	19.14
919.348	21.28
919.718	25.86
920.088	31.93
920.458	42.99
920.828	31.85
921.198	42.11
921.567	45.7
921.937	39.64
922.306	23.76
922.676	15.04
923.045	28.2
923.415	29.59
923.784	17.18
924.153	23.39
924.522	31.95
924.891	29.07
925.26	17.68
925.629	9.02
925.998	11.12
926.367	22.96
926.736	45.06
927.104	36.35
927.473	31.69
927.842	40.01
928.21	19.37
928.578	-3.8
928.947	21.68
929.315	42.48
929.683	68.75
930.051	70.49
930.42	91.75
930.788	68.7
931.156	74.44
931.523	96.21
931.891	95.46
932.259	116.4
932.627	159.49
932.994	195.76
933.362	196.06
933.729	161.3
934.097	138.12
934.464	123.91
934.831	104.84
935.199	74.98
935.566	66.93
935.933	131.24
936.3	157.09
936.667	108.22
937.034	191.91
937.401	167.36
937.767	153.89
938.134	145.52
938.501	175.34
938.867	234.45
939.234	408.23
939.6	303.96
939.967	210.03
940.333	160.57
940.699	117.27
941.065	-15.25
941.431	-23.03
941.798	34.27
942.163	76.58
942.529	28.8
942.895	12.85
943.261	15.07
943.627	25.63
943.992	33.84
944.358	33.36
944.723	71.67
945.089	80.19
945.454	80.08
945.82	61.04
946.185	37.28
946.55	73.64
946.915	70
947.28	101.98
947.645	96.66
948.01	111.21
948.375	123.9
948.74	115.08
949.104	119.6
949.469	109.31
949.834	177.91
950.198	302.6
950.562	210.17
950.927	171.32
951.291	174.31
951.655	158.42
952.02	87.06
952.384	53.92
952.748	76.39
953.112	130.29
953.476	127.47
953.839	117.5
954.203	123.47
954.567	122.93
954.931	141.47
955.294	146.07
955.658	110.01
956.021	212.12
956.385	298.25
956.748	432.04
957.111	247.17
957.474	137.77
957.837	-14.77
958.2	-241.84
958.563	-39.61
958.926	45.49
959.289	41.15
959.652	118.71
960.015	96.71
960.377	121.17
960.74	92.66
961.102	19.17
961.465	183.62
961.827	536.59
962.189	991.04
962.552	710.37
962.914	540.52
963.276	335.6
963.638	252.59
964	188.56
964.362	188.46
964.724	159.85
965.085	138.88
965.447	119.9
965.809	48.58
966.17	35.08
966.532	19.79
966.893	10.53
967.255	6.33
967.616	0.44
967.977	14.62
968.338	-9.3
968.699	26.14
969.061	28.44
969.421	22.51
969.782	11.21
970.143	37.03
970.504	77.28
970.865	95.52
971.225	126.95
971.586	131.81
971.946	153.43
972.307	105.81
972.667	63.54
973.027	61.73
973.388	79.71
973.748	89.97
974.108	102
974.468	38.88
974.828	93.91
975.188	45.8
975.548	35.02
975.907	52.79
976.267	84.01
976.627	109.9
976.986	101.6
977.346	88.13
977.705	81.89
978.064	54.72
978.424	55.35
978.783	30.93
979.142	38.35
979.501	51.8
979.86	54.33
980.219	47.81
980.578	22.64
980.937	19.08
981.296	36.71
981.654	20.35
982.013	22.19
982.371	61.3
982.73	67.48
983.088	51.22
983.447	61.78
983.805	86.05
984.163	135.15
984.521	66.02
984.879	-171.88
985.237	259.6
985.595	166.26
985.953	30.18
986.311	-87.64
986.669	-52.53
987.026	-66.31
987.384	-143.66
987.741	-168.27
988.099	-32.02
988.456	-15.44
988.814	21.79
989.171	12.97
989.528	-14.63
989.885	-38.25
990.242	24.04
990.599	-4.67
990.956	16.92
991.313	15.1
991.67	24.93
992.027	64.09
992.383	63.75
992.74	71.25
993.096	85.04
993.453	86.1
993.809	89.87
994.165	96.53
994.522	158.21
994.878	161.23
995.234	207.91
995.59	190.41
995.946	88.19
996.302	100.6
996.658	77.43
997.013	37.25
997.369	98.79
997.725	203.86
998.08	123.64
998.436	-40.89
998.791	-33.91
999.147	10.85
999.502	34.11
999.857	2.77
1000.212	-31.05
1000.567	7.94
1000.922	32.73
1001.277	-5.42
1001.632	-32.63
1001.987	-63.74
1002.342	-23.96
1002.696	2.88
1003.051	33.39
1003.406	20.75
1003.76	24.35
1004.114	41.16
1004.469	34.68
1004.823	47.24
1005.177	52.47
1005.531	44.93
1005.885	62.02
1006.239	86.71
1006.593	117.05
1006.947	124.08
1007.301	100.99
1007.655	99.38
1008.008	86.48
1008.362	92.22
1008.715	93.74
1009.069	65.85
1009.422	185.65
1009.776	255.18
1010.129	119.84
1010.482	66.86
1010.835	-7.95
1011.188	7.65
1011.541	33.81
1011.894	446.08
1012.247	-772.58
1012.6	2.31
1012.952	69.82
1013.305	-51.08
1013.657	-11.48
1014.01	-7.84
1014.362	-18.6
1014.715	48.66
1015.067	47.33
1015.419	44
1015.771	45.55
1016.123	58.1
1016.475	64.2
1016.827	69.29
1017.179	106.09
1017.531	89.59
1017.883	98.88
1018.234	162.51
1018.586	185.94
1018.938	236.17
1019.289	340.04
1019.64	371.18
1019.992	309.7
1020.343	260.38
1020.694	235.24
1021.045	189.18
1021.396	228.93
1021.747	254.99
1022.098	178.46
1022.449	128.83
1022.8	121.19
1023.151	111.33
1023.501	127.19
1023.852	133.98
1024.202	177.86
1024.553	155.77
1024.903	187.39
1025.253	194.85
1025.604	187.99
1025.954	224.45
1026.304	245.23
1026.654	261.33
1027.004	278.22
1027.354	344.15
1027.703	397.67
1028.053	352.62
1028.403	679.27
1028.753	564.99
1029.102	4.77
1029.452	-3158.29
1029.801	-148.13
1030.15	-105.99
1030.499	-144.16
897.758	1888.88
901.051	1817.65
904.343	1847.93
907.636	1858.18
910.928	1913.26
914.22	1842.76
917.511	1847.38
920.803	1884.74
924.094	1875.62
927.384	1885.66
930.675	1847.95
933.965	1818.92
937.255	1851.16
940.544	1827.28
943.834	1811.33
947.123	1761.44
950.411	1840.66
953.7	1823.83
956.988	1817.89
960.276	1753.21
963.563	1788.48
966.851	1800.67
970.138	1832.94
973.424	1836.14
976.711	1792.1
979.997	1839.02
983.283	1872.07
986.568	1813.8
989.853	1798.61
993.138	1818.38
996.423	1899.47
999.708	1866.78
1002.992	1893.06
1006.275	1810.04
1009.559	1811.51
1012.842	1893.23
1016.125	1854.76
1019.408	1837.91
1022.69	1878.05
1025.972	1908.1
1029.254	1888
1032.536	1861.33
1035.817	1860.86
1039.098	1835.62
1042.379	1876.26
1045.659	1898.57
1048.939	1853.43
1052.219	1856.33
1055.498	1842.92
1058.778	1841.47
1062.057	1815.95
1065.335	1836.54
1068.614	1842.8
1071.892	1844.04
1075.17	1880.74
1078.447	1888.06
1081.724	1882.98
1085.001	1902.49
1088.278	1880.8
1091.554	1881.92
1094.83	1877.7
1098.106	1911.74
1101.382	1931.89
1104.657	1929.8
1107.932	1926.93
1111.206	1911.81
1114.481	1866.16
1117.755	1866.68
1121.029	1863.53
1124.302	1916.33
1127.575	1891.59
1130.848	1889.99
1134.121	1866.27
1137.393	1834.99
1140.665	1883.37
1143.937	1866.04
1147.208	1817.51
1150.48	1872.92
1153.75	1862.01
1157.021	1854.66
1160.291	1837.27
1163.561	1884.24
1166.831	1848.96
1170.101	1868.22
1173.37	1829.02
1176.639	1796.07
1179.907	1833.06
1183.176	1855.67
1186.444	1857.46
1189.711	1876.49
1192.979	1901.25
1196.246	1864.31
1199.513	1874.23
1202.78	1879.84
1206.046	1888.62
1209.312	1916.21
1212.578	1925.47
1215.843	1900.51
1219.108	1871.82
1222.373	1892.79
1225.638	1874.79
1228.902	1869.53
1232.166	1830.44
1235.43	1824.22
1238.693	1850.94
1241.956	1841.48
1245.219	1887.77
1248.482	1871.03
1251.744	1869.74
1255.006	1968.77
1258.268	1918.69
1261.529	1883.92
1264.79	1881.01
1268.051	1960.8
1271.312	1965.56
1274.572	1939.21
1277.832	1926.66
1281.092	1908.55
1284.351	1906
1287.61	1893.07
1290.869	1841.8
1294.128	1844.18
1297.386	1871.7
1300.644	1867.75
1303.902	1878.43
1307.159	1764.71
1310.416	1809.02
1313.673	1835.95
1316.93	1836.1
1320.186	1857.78
1323.442	1885.27
1326.697	1890.43
1329.953	1865.47
1333.208	1904.51
1336.463	1879.37
1339.717	1852.9
1342.972	1943.48
1346.226	1919.22
1349.479	1882.76
1352.733	1867.41
1355.986	1870.19
1359.238	1856.12
1362.491	1861.87
1365.743	1861.46
1368.995	1853.83
1372.247	1871.46
1375.498	1887.57
1378.749	1934.18
1382	1889.54
1385.251	1918.16
1388.501	1878.02
1391.751	1886.47
1395	1856.98
1398.25	1880.65
1401.499	1909.76
1404.748	1871.06
1407.996	1850.93
1411.244	1842.81
1414.492	1831.66
1417.74	1824.14
1420.987	1825.1
1424.234	1879.25
1427.481	1840.67
1430.728	1891.67
1433.974	1871.6
1437.22	1863.54
1440.465	1859.08
1443.711	1866.32
1446.956	1886.22
1450.201	1855.11
1453.445	1890.53
1456.689	1883.97
1459.933	1890.2
1463.177	1928.73
1466.42	1904.46
1469.663	1888.16
1472.906	1907.54
1476.148	1946.81
1479.391	1904.39
1482.633	1882.23
1485.874	1907.57
1489.115	1916.45
1492.356	1894.17
1495.597	1877.3
1498.838	1863.25
1502.078	1852.72
1505.318	1831.41
1508.557	1857.04
1511.797	1853.98
1515.036	1903.5
1518.274	1868.15
1521.513	1818.23
1524.751	1824.34
1527.989	1845.64
1531.227	1859.58
1534.464	1876.51
1537.701	1863.91
1540.938	1871.39
1544.174	1823
1547.41	1809.9
1550.646	1840.76
1553.882	1885.99
1557.117	1935.9
1560.352	1939.2
1563.587	1907.67
1566.821	1880.72
1570.055	1886.94
1573.289	1868.92
1576.523	1913.41
1579.756	1927.41
1582.989	1945.85
1586.222	1908.55
1589.454	1932.24
1592.686	1921.04
1595.918	1944.31
1599.15	1941.84
1602.381	1974.76
1605.612	1965.13
1608.843	2044.68
1612.073	1979.07
1615.303	1970.71
1618.533	1967.71
1621.762	1966.21
1624.992	1940.06
1628.221	1943.57
1631.449	1933.25
1634.678	1947.74
1637.906	1921.08
1641.134	1941.66
1644.361	1912.44
1647.588	1906.7
1650.815	1925.98
1654.042	1891.28
1657.269	1914.33
1660.495	1902.6
1663.72	1881.45
1666.946	1855.68
1670.171	1843.84
1673.396	1820.42
1676.621	1802.34
1679.845	1796.26
1683.069	1796.29
1686.293	1818.04
1689.517	1816.65
1692.74	1781.17
1695.963	1798.17
1699.185	1837.04
1702.408	1816.89
1705.63	1838.45
1708.852	1856.74
1712.073	1830.83
1715.294	1848.01
1718.515	1883.06
1721.736	1851.96
1724.956	1830.54
1728.176	1849.93
1731.396	1868.63
1734.616	1859.92
1737.835	1894.45
1741.054	1866.88
1744.272	1861.51
1747.491	1901.79
1750.709	1912.8
1753.927	1881.46
1757.144	1898.66
1760.361	1955.69
1763.578	1924.69
1766.795	1884.52
1770.011	1870.27
1773.227	1889.21
1776.443	1928.62
1779.658	1963.68
1782.874	1912.34
1786.089	1911.16
1789.303	1913.31
1792.518	1908.32
1795.732	1897.21
1798.945	1916.86
1802.159	1952.15
1805.372	1913.31
1808.585	1907.92
1811.797	1909.52
1815.01	1924.16
1818.222	1951.49
1821.434	1909.78
1824.645	1942.01
1827.856	1959.72
1831.067	1984.61
1834.278	1927.09
1837.488	1915.16
1840.698	2015.52
1843.908	1973.93
1847.117	1947.86
1850.326	1894.28
1853.535	1937.45
1856.744	1977.93
1859.952	1915.18
1863.16	1917.88
1866.368	1932.59
1869.575	2039.52
1872.782	1936.43
1875.989	1879.5
1879.196	1917.1
1882.402	1914.66
1885.608	1944.18
1888.814	1905.21
1892.019	1832.49
1895.224	1880.48
1898.429	1846.82
1901.634	1836.39
1904.838	1812.38
1908.042	1870.14
1911.246	1886.13
1914.449	1860.85
1917.652	1840.71
1920.855	1823.63
1924.058	1839.33
1927.26	1882.11
1930.462	1902.18
1933.664	1942.1
1936.865	1893.05
1940.066	1914.3
1943.267	1859.83
1946.467	1868.77
1949.668	1883.42
1952.868	1948.17
1956.067	1942.88
1959.267	1892.19
1962.466	1911.97
1965.665	1892.61
1968.863	1889.61
1972.061	1883.93
1975.259	1875.25
1978.457	1943.77
1981.654	1906.08
1984.852	1909.64
1988.048	1872.36
1991.245	1857.53
1994.441	1939.09
1997.637	1889.28
2000.833	1875.43
2004.028	1903.35
2007.223	1964.8
2010.418	1954.34
2013.613	1905.87
2016.807	1908.59
2020.001	1898.47
2023.194	1912.73
2026.388	1897.62
2029.581	1848.01
2032.774	1911.62
2035.966	1921.98
2039.158	1878.14
2042.35	1893.19
2045.542	1825.94
2048.733	1896.78
2051.924	1878.9
2055.115	1891.18
2058.306	1864.77
2061.496	1916.34
2064.686	1952.76
2067.875	1867.18
2071.065	1863.49
2074.254	1877.04
2077.442	1836.91
2080.631	1911.77
2083.819	1861.62
2087.007	1856.15
2090.195	1843.95
2093.382	1852.16
2096.569	1840.48
2099.756	1808.13
2102.942	1858.21
2106.128	1874.98
2109.314	1863.13
2112.5	1855.22
2115.685	1823.91
2118.87	1829.69
2122.055	1885.14
2125.239	1872.19
2128.424	1865.09
2131.608	1903.83
2134.791	1889.34
2137.974	1917.76
2141.157	1909.17
2144.34	1891.02
2147.523	1872.46
2150.705	1900.51
2153.887	1865.68
2157.068	1848.91
2160.25	1822.99
2163.431	1839.98
2166.611	1820.32
2169.792	1843.85
2172.972	1766.1
2176.152	1804.89
2179.331	1825.89
2182.511	1837.92
2185.69	1853.28
2188.868	1863.42
2192.047	1887.39
2195.225	1913.35
2198.403	1865.01
2201.58	1850.43
2204.758	1834.5
2207.935	1900.96
2211.111	1833.29
2214.288	1824.63
2217.464	1853.6
2220.64	1809.48
2223.815	1851.58
2226.991	1794.66
2230.166	1807.55
2233.34	1852.66
2236.515	1861.55
2239.689	1920
2242.863	1877.23
2246.036	1921.34
2249.209	1903.22
2252.382	1914.92
2255.555	1930.5
2258.727	1889.55
2261.9	1912.18
2265.071	1906.76
2268.243	1904.29
2271.414	1863.74
2274.585	1854.83
2277.756	1907.99
2280.926	1871.15
2284.096	1891.33
2287.266	1837.72
2290.436	1877.94
2293.605	1892.82
2296.774	1931.98
2299.942	1928.73
2303.111	1942.22
2306.279	1991.17
2309.447	1976.5
2312.614	1950.39
2315.781	1972.72
2318.948	1954.43
2322.115	1986.63
2325.281	1895.36
2328.447	1899.18
2331.613	1869.01
2334.779	1868.31
2337.944	1861.4
2341.109	1864.71
2344.274	1856.47
2347.438	1827.11
2350.602	1848.05
2353.766	1854.03
2356.929	1846.19
2360.092	1878.53
2363.255	1857.26
2366.418	1838.09
2369.58	1878.29
2372.742	1807.69
2375.904	1789.5
2379.066	1780.19
2382.227	1802.94
2385.388	1766.53
2388.548	1731.63
2391.709	1763.85
2394.869	1757.86
2398.029	1791.97
2401.188	1780.44
2404.347	1761.88
2407.506	1800.65
2410.665	1847.6
2413.823	1824.46
2416.981	1810.34
2420.139	1820.25
2423.296	1855.57
2426.453	1829.68
2429.61	1849.18
2432.767	1836.02
2435.923	1876.05
2439.079	1818.23
2442.235	1844.22
2445.391	1795
2448.546	1842.14
2451.701	1866.91
2454.855	1871.96
2458.009	1888.34
2461.163	1875.11
2464.317	1852.94
2467.471	1873.22
2470.624	1896.3
2473.777	1896.91
2476.929	1913.35
2480.082	1932.7
2483.234	1910.36
2486.385	1853.67
2489.537	1846.47
2492.688	1848.66
2495.839	1862.53
2498.989	1876.22
2502.14	1867.6
2505.29	1864.21
2508.439	1883.7
2511.589	1834.97
2514.738	1829.76
2517.887	1849.39
2521.035	1925.32
2524.183	1878.11
2527.331	1867.8
2530.479	1869.77
2533.627	1870.58
