Data from C_1_DIV_IL_4N_Splice17_11-59-43-890.txt Node
Date: Sat Mar 14 11:59:43 EDT 2020
User: sa697716
Spectrometer: FLMS03696
Trigger mode: 0
Integration Time (sec): 3.180400E-1
Scans to average: 20
Electric dark correction enabled: true
Nonlinearity correction enabled: true
Boxcar width: 5
XAxis mode: Wavelengths
Number of Pixels in Spectrum: 2048
>>>>>Begin Spectral Data<<<<<
187.83	-158532.73
188.298	1180.96
188.766	689.33
189.233	596.94
189.701	896.74
190.169	1215.43
190.636	502.81
191.104	486.39
191.571	119.99
192.039	-2.14
192.506	-26.79
192.974	506.55
193.441	-820.4
193.908	-313.8
194.375	-111.65
194.842	0.92
195.31	28.84
195.777	117.91
196.244	295.28
196.711	356.46
197.177	443.63
197.644	613.28
198.111	1096.82
198.578	1511.2
199.045	1189.55
199.511	1938.59
199.978	2203.31
200.445	1892.58
200.911	2094.98
201.378	2323.91
201.844	2093.28
202.31	3541.55
202.777	3688.95
203.243	2015.2
203.709	1910.25
204.176	2313.66
204.642	1913.43
205.108	1810.57
205.574	1453.78
206.04	1322.01
206.506	1246.39
206.972	1188.12
207.438	1159.85
207.903	1305.63
208.369	1153.37
208.835	1156.73
209.301	1214.1
209.766	1229.72
210.232	1210.53
210.697	1527.98
211.163	1897.19
211.628	2862.44
212.094	2405.52
212.559	2992.74
213.024	1897.77
213.49	2343.82
213.955	2293.99
214.42	2244.4
214.885	2106.71
215.35	2044.48
215.815	1979.74
216.28	2124.62
216.745	1750.32
217.21	1909.96
217.675	1745.56
218.14	1970.37
218.604	2218.42
219.069	2560.93
219.534	2725.18
219.998	3207.97
220.463	3921.53
220.927	4864.35
221.392	4626.15
221.856	4736.5
222.32	6006.3
222.785	7492.97
223.249	9517.97
223.713	10665.79
224.177	10711.9
224.642	13807.81
225.106	17086.73
225.57	18773.9
226.034	14025.47
226.497	21403.47
226.961	19346.21
227.425	22635.28
227.889	25161.56
228.353	25206.68
228.816	52181.8
229.28	50156.68
229.744	42319.8
230.207	25769.65
230.671	25367.55
231.134	41972.06
231.597	48526.21
232.061	48599.92
232.524	47459.05
232.987	32787.99
233.45	29579.97
233.914	26593.11
234.377	27281.5
234.84	25069.09
235.303	29601.32
235.766	33078.58
236.229	34249.26
236.691	21575.17
237.154	24291.71
237.617	18293.36
238.08	18757
238.542	21970.78
239.005	15718.81
239.468	15620.48
239.93	14714.98
240.393	13379.06
240.855	11769.07
241.317	12066.82
241.78	14696.13
242.242	15199.09
242.704	16417.75
243.166	14293.11
243.629	12995.43
244.091	15002.35
244.553	16451.11
245.015	17683.1
245.477	22888.17
245.939	33560.85
246.4	35665.61
246.862	34711.8
247.324	32762.46
247.786	36700.58
248.247	48175.03
248.709	49723.63
249.17	37226.74
249.632	35098.21
250.093	40729.88
250.555	35231.23
251.016	21500.32
251.477	20408.14
251.939	22043.03
252.4	23130.45
252.861	27519.82
253.322	25597.25
253.783	30487.91
254.244	39528.05
254.705	31157.23
255.166	27737.15
255.627	27321.96
256.088	38568.21
256.549	40980.62
257.009	35307.53
257.47	42871.45
257.931	34965.47
258.391	26220.95
258.852	27084.55
259.312	28402.57
259.773	35136.93
260.233	29711.43
260.694	25082.74
261.154	28495.37
261.614	22887.46
262.074	20490.93
262.534	21296.07
262.994	20071.74
263.455	26771.7
263.915	22541.6
264.374	21273.86
264.834	23252.96
265.294	25816.34
265.754	26744.15
266.214	25330.63
266.673	23765.8
267.133	29997.13
267.593	29811.08
268.052	36505.02
268.512	31787.6
268.971	38360.76
269.431	42064.63
269.89	37696.02
270.349	56484.4
270.809	63026.74
271.268	56636.53
271.727	127005.69
272.186	82310.65
272.645	61745.62
273.104	44583.5
273.563	64569.92
274.022	50860.46
274.481	43303.81
274.94	33352.3
275.399	24812.01
275.857	28935.1
276.316	39165.89
276.775	34850.75
277.233	34355.8
277.692	32195.75
278.15	36435.57
278.609	37479.82
279.067	34694.39
279.525	32246.55
279.984	41694.13
280.442	50078.79
280.9	49287.27
281.358	32447.09
281.816	30275.26
282.274	29628.95
282.732	30609.08
283.19	30773.96
283.648	26585.11
284.106	28298.07
284.564	28751.06
285.021	26647.8
285.479	19878.1
285.937	18105.22
286.394	15902.79
286.852	16376.22
287.309	17205.75
287.767	16632.18
288.224	15804.11
288.682	17320.98
289.139	19041.15
289.596	17447.95
290.053	18135.44
290.511	22888.95
290.968	27764.53
291.425	37626.74
291.882	31324.49
292.339	27284.43
292.796	27069.01
293.252	25547.83
293.709	20316.96
294.166	18195.87
294.623	20089.78
295.079	19297.18
295.536	19408.09
295.992	17652.07
296.449	17475.75
296.905	18147.16
297.362	17426.75
297.818	18343.43
298.274	19040.4
298.731	19408.24
299.187	19224.4
299.643	20657.39
300.099	24998.92
300.555	27403.86
301.011	22900.91
301.467	22065.06
301.923	25836.91
302.379	25204.27
302.835	24744.15
303.291	24781.8
303.746	28201.39
304.202	35639.79
304.658	35802.81
305.113	24081.45
305.569	23620.57
306.024	25160.66
306.479	23967.25
306.935	20216.38
307.39	22081.58
307.845	20411.51
308.301	20525.31
308.756	20012.53
309.211	19250.53
309.666	19717.87
310.121	24468.66
310.576	24823.08
311.031	24614.41
311.486	28182.33
311.94	28180.5
312.395	37695.63
312.85	70829.08
313.305	347860.14
313.759	1798727.7
314.214	130285.85
314.668	103152.31
315.123	86627.17
315.577	31016.9
316.032	27595.61
316.486	34631.56
316.94	27294.97
317.394	18994.16
317.849	14739.18
318.303	13959.72
318.757	13189.52
319.211	14584.01
319.665	12784.06
320.119	12962.62
320.572	18625.83
321.026	17414.33
321.48	14488.86
321.934	15803.06
322.387	15850.97
322.841	17143.81
323.295	15385.59
323.748	17705.07
324.202	17986.63
324.655	21593.55
325.108	30128.99
325.562	21275.03
326.015	25275.01
326.468	19114.27
326.921	21402.07
327.374	19972.86
327.827	20789.84
328.28	23598.89
328.733	15827.74
329.186	13944.98
329.639	13308.29
330.092	11228.98
330.545	10702.44
330.997	10797.88
331.45	11812.56
331.903	13836.84
332.355	23813.65
332.808	23142.67
333.26	19090.29
333.713	20739.31
334.165	20857.53
334.617	27806.21
335.069	22474.45
335.522	40648.97
335.974	45003.79
336.426	41077.69
336.878	28490.94
337.33	14456.45
337.782	14143.04
338.234	17714.08
338.686	21178.64
339.137	25136.68
339.589	23671.7
340.041	18621.31
340.493	16024.32
340.944	16423.63
341.396	17703.95
341.847	14896.81
342.299	17597.22
342.75	21499.49
343.201	18805.74
343.653	21655.24
344.104	26654.23
344.555	21041.96
345.006	32714.14
345.457	25069.03
345.908	19944.84
346.359	18777.32
346.81	15308.16
347.261	16118.54
347.712	15905.32
348.163	17091.39
348.613	17343
349.064	16194.54
349.515	14191.57
349.965	14571.39
350.416	17572.47
350.866	19362.4
351.317	21942.14
351.767	36406.71
352.217	46138.12
352.668	38288.21
353.118	35119.86
353.568	33909.93
354.018	26883.27
354.468	28420.17
354.918	20409
355.368	17876.84
355.818	25254.5
356.268	72675.83
356.718	304742.22
357.168	75956.59
357.617	38165.67
358.067	42442.19
358.517	39812.59
358.966	46760.73
359.416	52569.06
359.865	57003.46
360.315	68082.26
360.764	31821.98
361.213	17855.35
361.663	16935.95
362.112	20929.09
362.561	33896
363.01	25642.1
363.459	21638.56
363.908	23482.58
364.357	19974.98
364.806	33810.79
365.255	23261.67
365.703	21410.34
366.152	21570.53
366.601	17550.23
367.05	14288.36
367.498	13048.62
367.947	13691.1
368.395	14316.66
368.844	12710.8
369.292	15391.98
369.74	10697.91
370.189	16473.77
370.637	19379.99
371.085	16789.53
371.533	20551.96
371.981	19940.72
372.429	19081.17
372.877	19999.03
373.325	16840.69
373.773	17274.06
374.221	15485.18
374.669	19287.4
375.116	16821.72
375.564	17046.23
376.012	19166.68
376.459	15906.98
376.907	19135.89
377.354	23288.52
377.801	21835.45
378.249	25192.41
378.696	32378.42
379.143	39411.77
379.591	42295.41
380.038	72013.9
380.485	52485.21
380.932	57125.76
381.379	52550.95
381.826	38928.1
382.273	27889.98
382.72	24566.48
383.166	24130.01
383.613	15758.61
384.06	14277.59
384.506	16604.43
384.953	12220.79
385.4	12350.75
385.846	10877.76
386.292	10660.34
386.739	10480.47
387.185	10393.35
387.631	10415.72
388.078	10117.56
388.524	10850.3
388.97	10051.56
389.416	8406.99
389.862	8957.87
390.308	8511
390.754	8638.95
391.2	9399.79
391.645	9628.28
392.091	9202.93
392.537	8904.73
392.983	8935.28
393.428	8787.12
393.874	9428.76
394.319	9450.05
394.765	8973.74
395.21	9230.08
395.655	8664.93
396.101	8115.83
396.546	7324.87
396.991	7400.4
397.436	6870.47
397.881	6635.32
398.326	6286.7
398.771	5927.52
399.216	5195.41
399.661	4673.74
400.106	4642.87
400.551	4740.94
400.995	4238.9
401.44	4190.1
401.885	3926.52
402.329	3962.57
402.774	3791.48
403.218	3651.65
403.663	3518.74
404.107	3596.78
404.551	3616.55
404.995	3311.94
405.44	3186.7
405.884	3225.96
406.328	3113.34
406.772	3099.67
407.216	2814.52
407.66	2715.15
408.104	2577.45
408.547	2406.44
408.991	2328.07
409.435	2231.28
409.879	2195.46
410.322	2158.22
410.766	2080.23
411.209	1972.14
411.653	1887.21
412.096	1840.64
412.54	1837.21
412.983	1821.81
413.426	1821.87
413.869	1813.26
414.312	1775.13
414.756	1705.26
415.199	1622.69
415.642	1572.31
416.085	1570.91
416.527	1557.25
416.97	1581.65
417.413	1497.47
417.856	1481.79
418.298	1462.87
418.741	1453.85
419.184	1450.94
419.626	1510.48
420.069	1512.75
420.511	1518.27
420.953	1484.76
421.396	1471.25
421.838	1434.57
422.28	1464.53
422.722	1466.76
423.164	1487.89
423.606	1458.6
424.048	1454.27
424.49	1380.25
424.932	1371
425.374	1351.92
425.816	1375.29
426.258	1398.2
426.699	1413.17
427.141	1392.13
427.582	1413.29
428.024	1407.08
428.465	1398.56
428.907	1363.6
429.348	1346.61
429.789	1344.19
430.231	1312.29
430.672	1325.25
431.113	1292.65
431.554	1270.24
431.995	1238.97
432.436	1191.51
432.877	1161.11
433.318	1139.91
433.759	1130.47
434.2	1130.29
434.64	1115.91
435.081	1117.4
435.522	1056.17
435.962	1016.77
436.403	993.01
436.843	1003.83
437.284	983.52
437.724	958.48
438.164	961.97
438.604	942.5
439.045	904.39
439.485	866.26
439.925	847.09
440.365	827.96
440.805	817.11
441.245	806.62
441.685	776.61
442.125	770.71
442.564	774.77
443.004	756.18
443.444	755.4
443.883	756.37
444.323	751.3
444.762	753.1
445.202	762.37
445.641	775.1
446.081	772
446.52	779.74
446.959	770.86
447.398	751.31
447.837	743.06
448.276	729.46
448.716	737.95
449.154	744.63
449.593	730.83
450.032	729.05
450.471	715.63
450.91	715.78
451.349	714.88
451.787	712.34
452.226	723.2
452.664	722.89
453.103	725.27
453.541	722.92
453.98	721.83
454.418	724.62
454.856	714.26
455.295	713.58
455.733	719.18
456.171	722.26
456.609	725.17
457.047	725.48
457.485	737.04
457.923	737.31
458.361	727.9
458.798	730.49
459.236	729.69
459.674	734.31
460.111	738.5
460.549	731.78
460.987	729.79
461.424	725.73
461.862	721.78
462.299	709.92
462.736	709.01
463.173	712.46
463.611	705.26
464.048	703.06
464.485	708.69
464.922	701.22
465.359	697.32
465.796	687.03
466.233	682.69
466.67	676.82
467.106	675.4
467.543	668.31
467.98	659.69
468.416	643.56
468.853	638.25
469.29	619.13
469.726	612.96
470.162	597.02
470.599	590.05
471.035	584.75
471.471	570.72
471.907	567.23
472.344	564.9
472.78	566.79
473.216	573.97
473.652	567.87
474.088	567.33
474.523	566.99
474.959	572.88
475.395	568.09
475.831	563.97
476.266	566.71
476.702	565.75
477.138	559.06
477.573	555.93
478.008	552.06
478.444	553.43
478.879	558.03
479.314	559.27
479.75	558.69
480.185	560.99
480.62	566.46
481.055	569.49
481.49	572.92
481.925	581.96
482.36	593.35
482.795	610.85
483.229	628.03
483.664	641.1
484.099	644.3
484.534	654.2
484.968	661
485.403	663.08
485.837	663.09
486.271	662.7
486.706	662.69
487.14	655.6
487.574	645.47
488.009	640.06
488.443	634.9
488.877	641.03
489.311	642.97
489.745	651.17
490.179	657.09
490.613	669.19
491.046	674.73
491.48	680.62
491.914	680.25
492.348	684.98
492.781	689.61
493.215	691.37
493.648	692.93
494.082	697.81
494.515	697.17
494.948	704.26
495.382	709.14
495.815	713.33
496.248	718.17
496.681	731.59
497.114	743.05
497.547	752.13
497.98	764.53
498.413	769.91
498.846	780.1
499.279	788.17
499.711	793.36
500.144	794.42
500.577	804.57
501.009	814.69
501.442	823.09
501.874	823.29
502.306	824.87
502.739	831.01
503.171	845.17
503.603	847.52
504.036	856.29
504.468	860.01
504.9	870.61
505.332	875.7
505.764	878.48
506.196	883.39
506.627	895.98
507.059	907.73
507.491	914.78
507.923	911.02
508.354	922.72
508.786	929.92
509.217	944.9
509.649	956.54
510.08	971.78
510.512	984.46
510.943	996.43
511.374	1004.46
511.805	1019.2
512.237	1033.45
512.668	1059.68
513.099	1081.94
513.53	1103.84
513.961	1118.42
514.391	1143.22
514.822	1168.97
515.253	1198.25
515.684	1218.13
516.114	1240.59
516.545	1255.81
516.975	1275.79
517.406	1287.96
517.836	1285.43
518.267	1287.39
518.697	1300.03
519.127	1299.86
519.558	1302.77
519.988	1301.84
520.418	1306.55
520.848	1319.09
521.278	1323.43
521.708	1337.27
522.138	1344.17
522.567	1367.86
522.997	1385.98
523.427	1395.74
523.857	1407.06
524.286	1411.66
524.716	1421.4
525.145	1433.32
525.575	1438.08
526.004	1446.77
526.433	1434.48
526.863	1431.33
527.292	1420.02
527.721	1422.96
528.15	1424.6
528.579	1422.87
529.008	1430.25
529.437	1446.35
529.866	1455.28
530.295	1467.52
530.724	1476.39
531.152	1496.89
531.581	1507.26
532.01	1520.14
532.438	1524.59
532.867	1535.6
533.295	1550.3
533.723	1555.25
534.152	1553.36
534.58	1552.52
535.008	1538.18
535.436	1538.75
535.865	1544.49
536.293	1555.69
536.721	1568.39
537.149	1590.23
537.576	1592.41
538.004	1601.09
538.432	1605.59
538.86	1603.94
539.287	1609.72
539.715	1621.95
540.143	1624.03
540.57	1622.38
540.998	1619.72
541.425	1600.99
541.852	1581.96
542.28	1580.66
542.707	1566.55
543.134	1554.89
543.561	1550.08
543.988	1544.03
544.415	1542.59
544.842	1536.58
545.269	1528.96
545.696	1530.42
546.123	1539.63
546.549	1530.09
546.976	1517.59
547.403	1516.64
547.829	1517.5
548.256	1519.63
548.682	1516.1
549.108	1509.03
549.535	1508.74
549.961	1508.67
550.387	1495.98
550.813	1490.88
551.24	1496.36
551.666	1497.44
552.092	1488.6
552.518	1483.21
552.943	1477.17
553.369	1481.94
553.795	1486.95
554.221	1487.49
554.646	1484.84
555.072	1494.39
555.498	1498.69
555.923	1505.08
556.349	1517.94
556.774	1525.95
557.199	1527.53
557.625	1532.24
558.05	1528.37
558.475	1536.95
558.9	1536.12
559.325	1531.04
559.75	1526.78
560.175	1523.22
560.6	1519.18
561.025	1517.65
561.449	1519.94
561.874	1524.79
562.299	1529.18
562.723	1536.12
563.148	1527.94
563.572	1532.54
563.997	1540.85
564.421	1546.56
564.846	1546.09
565.27	1551.03
565.694	1550.01
566.118	1560.88
566.542	1569.62
566.966	1566.1
567.39	1563.91
567.814	1557.71
568.238	1560.05
568.662	1567.56
569.086	1572.19
569.509	1581.54
569.933	1571.02
570.357	1567.19
570.78	1551.02
571.204	1541.46
571.627	1535.12
572.05	1535.62
572.474	1537.81
572.897	1528.4
573.32	1523.46
573.743	1516.67
574.166	1502.53
574.589	1504.14
575.012	1498.91
575.435	1499.59
575.858	1493.41
576.281	1485.9
576.704	1473.15
577.126	1463.24
577.549	1455.42
577.972	1446.55
578.394	1437.65
578.817	1432.76
579.239	1416.36
579.661	1406.01
580.084	1393.7
580.506	1383.41
580.928	1379.61
581.35	1371.53
581.772	1368.18
582.194	1356.81
582.616	1347.79
583.038	1336.41
583.46	1328.12
583.882	1326.17
584.303	1331.01
584.725	1328.98
585.147	1331.88
585.568	1342.01
585.99	1353.05
586.411	1359.96
586.833	1373.28
587.254	1374.94
587.675	1389.05
588.096	1399.78
588.518	1396.88
588.939	1381.31
589.36	1379.33
589.781	1369.88
590.202	1345.48
590.623	1338.19
591.043	1337.08
591.464	1327.24
591.885	1325.13
592.305	1319.61
592.726	1307.63
593.147	1308.48
593.567	1304.95
593.987	1298.2
594.408	1293.24
594.828	1292.12
595.248	1287.48
595.669	1271.03
596.089	1265.79
596.509	1260.58
596.929	1249.67
597.349	1251.07
597.769	1243.02
598.189	1237.43
598.608	1239.72
599.028	1241.56
599.448	1241.85
599.867	1231.07
600.287	1227.54
600.706	1224.1
601.126	1215.32
601.545	1213.75
601.965	1213.8
602.384	1210.23
602.803	1214.25
603.222	1210.44
603.641	1205.82
604.061	1203.04
604.48	1199.96
604.898	1208.33
605.317	1213.33
605.736	1216.77
606.155	1215.36
606.574	1207.49
606.992	1212.57
607.411	1209.13
607.829	1202.02
608.248	1200.04
608.666	1198.57
609.085	1199.41
609.503	1192.2
609.921	1186.97
610.339	1189.79
610.758	1189.9
611.176	1186.95
611.594	1178.96
612.012	1176.45
612.43	1180.65
612.847	1188.05
613.265	1190.39
613.683	1196.02
614.101	1198.85
614.518	1195.85
614.936	1187.67
615.353	1175.63
615.771	1174.66
616.188	1176.3
616.606	1174.58
617.023	1169.71
617.44	1157.43
617.857	1151.61
618.274	1144.14
618.691	1139.12
619.108	1132.81
619.525	1127.69
619.942	1134.33
620.359	1136.69
620.776	1133.73
621.192	1130.72
621.609	1128.74
622.026	1135.19
622.442	1141.79
622.859	1145.13
623.275	1138.39
623.691	1143.99
624.108	1153.78
624.524	1166.55
624.94	1166.88
625.356	1174.92
625.772	1187
626.188	1197.86
626.604	1199.29
627.02	1195.49
627.436	1194.32
627.852	1200.99
628.268	1211.41
628.683	1204.62
629.099	1198.11
629.514	1193.39
629.93	1197.34
630.345	1200.5
630.761	1197.32
631.176	1200.55
631.591	1195.28
632.007	1189.46
632.422	1188.26
632.837	1178.55
633.252	1176.06
633.667	1166.51
634.082	1158.74
634.497	1147.49
634.911	1131.42
635.326	1127.67
635.741	1112.95
636.155	1104.44
636.57	1105.86
636.984	1105.91
637.399	1108.37
637.813	1109.21
638.228	1110.04
638.642	1115.59
639.056	1107.55
639.47	1109.02
639.884	1104.6
640.298	1101.12
640.712	1103.03
641.126	1093.53
641.54	1087.25
641.954	1083.27
642.368	1073.96
642.781	1068.98
643.195	1055.04
643.609	1057.47
644.022	1053.22
644.436	1049.94
644.849	1040.28
645.262	1029.08
645.676	1031.89
646.089	1030.05
646.502	1018.61
646.915	1015.05
647.328	999.44
647.741	998.72
648.154	987.25
648.567	986.16
648.98	974.33
649.393	975.5
649.805	973.6
650.218	967.14
650.631	952.52
651.043	946.67
651.456	941.04
651.868	941.73
652.28	956.77
652.693	970.7
653.105	976.6
653.517	987.26
653.929	986.67
654.341	992.15
654.753	981.18
655.165	986.94
655.577	985.43
655.989	981.9
656.401	975.85
656.813	942.53
657.224	923.22
657.636	897.4
658.047	880.76
658.459	864.26
658.87	856.06
659.282	845.5
659.693	827.47
660.104	814.14
660.515	801.91
660.926	799.68
661.338	797.54
661.749	792.65
662.159	783.74
662.57	779.23
662.981	774.84
663.392	768.89
663.803	772.16
664.213	769.19
664.624	763.78
665.035	766.99
665.445	754.89
665.855	747.69
666.266	740.25
666.676	738.18
667.086	728.94
667.497	727.24
667.907	720.42
668.317	712.27
668.727	708.99
669.137	710
669.547	706.41
669.956	707.66
670.366	708.21
670.776	708.26
671.186	710.62
671.595	712.74
672.005	715.32
672.414	713.5
672.824	711.78
673.233	714.7
673.642	715.46
674.052	717.57
674.461	718.6
674.87	723.74
675.279	720.23
675.688	721.07
676.097	722.67
676.506	719.07
676.915	731.96
677.323	733.55
677.732	730.67
678.141	729.7
678.549	718.69
678.958	717.63
679.366	716.3
679.775	721.15
680.183	730.7
680.592	736.22
681	740.61
681.408	734
681.816	740.88
682.224	749.61
682.632	758.83
683.04	786.3
683.448	809.39
683.856	836.15
684.264	867.18
684.671	894.95
685.079	930.39
685.487	970.81
685.894	1026.95
686.302	1070.62
686.709	1105.46
687.116	1146.48
687.524	1180.43
687.931	1206.35
688.338	1227.81
688.745	1244.3
689.152	1264.24
689.559	1293.33
689.966	1320.73
690.373	1327.41
690.78	1353.14
691.187	1397.79
691.593	1428.35
692	1451.58
692.407	1491.57
692.813	1544.36
693.22	1583.34
693.626	1624.86
694.032	1654.33
694.439	1704.9
694.845	1743.65
695.251	1792.98
695.657	1834.89
696.063	1904.6
696.469	1953.05
696.875	1998.45
697.281	2018.5
697.687	2046.25
698.093	2067.64
698.498	2118.8
698.904	2155.26
699.31	2215.6
699.715	2257.9
700.12	2322.19
700.526	2329.16
700.931	2375.93
701.337	2409.59
701.742	2428.67
702.147	2487.88
702.552	2505.34
702.957	2544.5
703.362	2555.65
703.767	2570.77
704.172	2593.98
704.577	2551.79
704.981	2581.62
705.386	2589.9
705.791	2579.21
706.195	2630.42
706.6	2632.93
707.004	2686.96
707.408	2659.77
707.813	2675.63
708.217	2663.65
708.621	2661.11
709.025	2730.02
709.43	2726.12
709.834	2767.26
710.237	2816.08
710.641	2803.15
711.045	2816.1
711.449	2811.32
711.853	2831.56
712.256	2860.3
712.66	2885.34
713.064	2939.2
713.467	2968.25
713.87	3051.05
714.274	3083.41
714.677	3161.93
715.08	3278.7
715.484	3401.23
715.887	3546.5
716.29	3689.54
716.693	3839.43
717.096	4013.64
717.499	4107.66
717.901	4124.15
718.304	4139.14
718.707	4152.66
719.109	4073.1
719.512	4045.86
719.915	3945.34
720.317	3902.81
720.719	3932.07
721.122	3906.55
721.524	3869.47
721.926	3837.53
722.328	3908
722.731	3899.63
723.133	3919.16
723.535	4058.65
723.937	4070.09
724.338	4106.63
724.74	4132.18
725.142	4094.89
725.544	4092.9
725.945	4112.65
726.347	4107.8
726.748	4102.98
727.15	4111.35
727.551	4082.57
727.952	4061.77
728.354	4042.39
728.755	4042.96
729.156	4012.57
729.557	3991.39
729.958	3903.16
730.359	3859.61
730.76	3843.59
731.161	3798.88
731.562	3781.55
731.962	3783.43
732.363	3736.48
732.763	3687.86
733.164	3706.79
733.564	3658.38
733.965	3589.91
734.365	3562.36
734.766	3580.83
735.166	3553.19
735.566	3513.57
735.966	3492.43
736.366	3489.17
736.766	3443.97
737.166	3467.21
737.566	3437.59
737.966	3416.56
738.365	3443.05
738.765	3440.68
739.165	3385.57
739.564	3366.33
739.964	3396.92
740.363	3363.26
740.763	3359.56
741.162	3348.93
741.561	3326.19
741.96	3294.62
742.36	3310.82
742.759	3314.53
743.158	3340.55
743.557	3351.02
743.955	3379.16
744.354	3345.55
744.753	3385.57
745.152	3356.29
745.55	3396.7
745.949	3392.54
746.348	3393.05
746.746	3405.09
747.144	3376.68
747.543	3362.22
747.941	3395.93
748.339	3344.27
748.737	3336.99
749.136	3331.53
749.534	3377.61
749.932	3358.78
750.33	3372.56
750.727	3412.82
751.125	3392.91
751.523	3380.7
751.921	3409.16
752.318	3386.05
752.716	3429.65
753.113	3440.96
753.511	3458.05
753.908	3457.38
754.305	3446.34
754.703	3490.22
755.1	3533.11
755.497	3575.01
755.894	3710.91
756.291	3839.17
756.688	4074.29
757.085	4384.08
757.482	4823.35
757.878	5300.74
758.275	5732.44
758.672	6322.99
759.068	6810.84
759.465	7500.9
759.861	8393.91
760.258	9425.08
760.654	9960.04
761.05	9879.36
761.447	9433.34
761.843	8786.77
762.239	8119.82
762.635	7818.4
763.031	7525.38
763.427	7104.97
763.822	6667.38
764.218	6236.17
764.614	5669.88
765.01	5290.61
765.405	5045.21
765.801	4859.1
766.196	4617.02
766.592	4483.94
766.987	4260.41
767.382	4109.48
767.778	4046.44
768.173	3954.82
768.568	3902.05
768.963	3813
769.358	3824.37
769.753	3790.35
770.148	3730.88
770.542	3732.09
770.937	3710.26
771.332	3775.85
771.726	3790.77
772.121	3745.84
772.515	3782.14
772.91	3770.79
773.304	3821.69
773.699	3775.68
774.093	3811.73
774.487	3850.29
774.881	3880.72
775.275	3876.83
775.669	3845.16
776.063	3876.43
776.457	3901.45
776.851	3849.35
777.245	3845.59
777.638	3869.5
778.032	3948.88
778.425	3928.03
778.819	3959.57
779.212	3929.83
779.606	3901.28
779.999	3915.11
780.392	3903.77
780.786	3961.46
781.179	3975.9
781.572	4002.89
781.965	4012.03
782.358	3970.97
782.751	4005.65
783.143	3969.62
783.536	4021.93
783.929	4053.37
784.322	4134.99
784.714	4156.87
785.107	4154.71
785.499	4205.59
785.891	4192.01
786.284	4178.1
786.676	4282.61
787.068	4273.56
787.46	4312.62
787.852	4326.5
788.245	4388.04
788.636	4409.54
789.028	4457.69
789.42	4485.92
789.812	4493.21
790.204	4560.77
790.595	4632.32
790.987	4492.36
791.378	4506.38
791.77	4595.37
792.161	4690.85
792.553	4729.98
792.944	4649.89
793.335	4598.85
793.726	4650.7
794.117	4710.44
794.508	4808.39
794.899	4785.73
795.29	4882.66
795.681	4921.17
796.072	4822.68
796.463	4694.24
796.853	4699.85
797.244	4809.44
797.634	4834.76
798.025	4832.47
798.415	4842.13
798.806	4902.86
799.196	4962.28
799.586	4998.78
799.976	4972.58
800.366	5133.47
800.756	5297.48
801.146	5269.37
801.536	5289.54
801.926	5339.52
802.316	5357.64
802.706	5406.87
803.095	5319.96
803.485	5390.17
803.874	5415.69
804.264	5597.53
804.653	5575.6
805.043	5679.98
805.432	5757.09
805.821	5759.11
806.21	5773.81
806.599	5855.33
806.988	5884.23
807.377	5953.92
807.766	6042.83
808.155	6240.92
808.544	6055.52
808.933	6063.45
809.321	6044.33
809.71	6246.6
810.098	6355.22
810.487	6677.65
810.875	7010.92
811.264	7028.66
811.652	7238.55
812.04	7340.24
812.428	7455.85
812.816	7990.45
813.204	8281.6
813.592	8667.49
813.98	8903.53
814.368	8838.52
814.756	9166.39
815.144	9109.11
815.531	9433.98
815.919	9372.96
816.306	9584.17
816.694	9364.17
817.081	9398.31
817.469	9641.62
817.856	9639.29
818.243	9819.23
818.63	10090.43
819.017	9801.27
819.404	9846.73
819.791	10105.73
820.178	10538.34
820.565	10716.21
820.952	11364.95
821.339	11021.46
821.725	11146.86
822.112	10624.24
822.498	10604.01
822.885	10686.55
823.271	10614.59
823.657	10903.08
824.044	10908.99
824.43	10955.51
824.816	10933.12
825.202	10634.19
825.588	11341.83
825.974	11361.21
826.36	11723.1
826.746	11740.88
827.132	11998.56
827.517	11988.14
827.903	11435.57
828.289	11466.56
828.674	10926.68
829.06	10852.75
829.445	11124.35
829.83	11375.03
830.216	11705.38
830.601	11961.91
830.986	11678.71
831.371	11581.75
831.756	11969.58
832.141	11683.86
832.526	11676.59
832.911	11876.15
833.295	11797.96
833.68	12128
834.065	11695.14
834.449	11053.63
834.834	11005.77
835.218	11008.4
835.603	11247.53
835.987	11106.76
836.371	11684.7
836.755	11613.21
837.139	11892.43
837.524	12059.12
837.908	11941.98
838.291	11990.75
838.675	12041.08
839.059	12186.79
839.443	12179.18
839.827	12016.07
840.21	12349.26
840.594	12248.57
840.977	12395.78
841.361	12382.82
841.744	12647.49
842.127	12531.81
842.511	12700.34
842.894	13122.69
843.277	13394.81
843.66	13770.14
844.043	13834.84
844.426	13269.18
844.809	13055.64
845.191	13078.05
845.574	12752.8
845.957	12499.51
846.339	12428.93
846.722	12062
847.104	12110.76
847.487	11988.47
847.869	11998.95
848.252	12189.61
848.634	12421.55
849.016	12598.67
849.398	12692.02
849.78	13295.77
850.162	13298.71
850.544	13580.98
850.926	14022.16
851.307	13952.08
851.689	14142.54
852.071	14456.83
852.452	14681.37
852.834	14660.77
853.215	14938.51
853.597	15042.7
853.978	15240.67
854.359	15559.95
854.741	14872.67
855.122	14792.14
855.503	14584.6
855.884	14672.35
856.265	14632.47
856.646	14710.66
857.026	14440.76
857.407	14402.94
857.788	14506.31
858.169	14702.39
858.549	14109.47
858.93	14549.83
859.31	14589.4
859.69	14746.9
860.071	14470.24
860.451	14319.55
860.831	13806.69
861.211	14618.62
861.591	14996.74
861.971	14984.57
862.351	15126.94
862.731	15390.87
863.111	15567.07
863.491	15796.15
863.87	16404.27
864.25	16648.19
864.629	16371.23
865.009	16728.34
865.388	17326.76
865.768	18561.46
866.147	18487.3
866.526	17464.05
866.905	17690.06
867.284	18682.09
867.663	17742.14
868.042	17005.65
868.421	16945.2
868.8	17227.32
869.179	17396.85
869.558	16377.02
869.936	15099.78
870.315	15372.87
870.693	15744.2
871.072	16963.48
871.45	16162.18
871.828	16383.1
872.207	17218.75
872.585	16966.31
872.963	17424.46
873.341	16841.22
873.719	16643.4
874.097	16450.46
874.475	16761.96
874.853	17147.33
875.23	16442.33
875.608	17132.04
875.986	18524.22
876.363	17732.53
876.741	18276.68
877.118	17821.4
877.495	18681.47
877.873	19000.9
878.25	19983.71
878.627	19174.4
879.004	19448.57
879.381	19356.85
879.758	18850.14
880.135	17556.64
880.512	18562.81
880.889	18081.17
881.265	17896.28
881.642	17754.29
882.019	18051.91
882.395	17688.35
882.772	18389.57
883.148	17587.13
883.524	17513.86
883.901	17405.16
884.277	17656.55
884.653	17541.29
885.029	18040.22
885.405	19984.17
885.781	19823
886.157	19014.32
886.532	19256.49
886.908	19241.36
887.284	21392.87
887.659	22096.14
888.035	22793.12
888.411	23379.21
888.786	23694.94
889.161	24521.86
889.537	24063.91
889.912	24839.23
890.287	24813.44
890.662	25448.01
891.037	24990.49
891.412	23312.24
891.787	23075.19
892.162	22271.31
892.536	22790.87
892.911	21938.71
893.286	21465.41
893.66	20596.41
894.035	21118.13
894.409	22997.45
894.784	22071.54
895.158	22439.04
895.532	23763.21
895.906	24410.56
896.281	24978.27
896.655	24584.31
897.029	28083.02
897.402	29237.08
897.776	32539.39
898.15	32423.82
898.524	32058.5
898.898	32468.01
899.271	36352.02
899.645	31486.55
900.018	30244.97
900.392	31368.16
900.765	31620.02
901.138	29259.3
901.511	28840.81
901.884	26499.47
902.258	24449.74
902.631	25273.46
903.003	29098.46
903.376	26255.69
903.749	29448.59
904.122	31524.48
904.495	34716.97
904.867	35164.92
905.24	30523.46
905.612	28398.68
905.985	29051.1
906.357	30407.28
906.729	29012.89
907.102	24787.44
907.474	23830.65
907.846	23997.38
908.218	23681.74
908.59	20934.55
908.962	20233.83
909.334	21799.33
909.705	22910.43
910.077	22228.33
910.449	23132.7
910.82	23785.68
911.192	26164.66
911.563	27190.76
911.935	29073.71
912.306	29130.36
912.677	30093.41
913.048	29832.63
913.419	32386.21
913.79	32566.32
914.161	34932.95
914.532	33376.27
914.903	30678.62
915.274	29129.1
915.645	28721.95
916.015	25294.46
916.386	24119.58
916.756	25671.43
917.127	26465.23
917.497	23636.95
917.868	25716.04
918.238	24427.11
918.608	25131.6
918.978	25668.01
919.348	27214.72
919.718	28120.17
920.088	27095.53
920.458	28145.49
920.828	29611.33
921.198	28088.87
921.567	30033.21
921.937	23289.84
922.306	23529.5
922.676	25372.91
923.045	21174.13
923.415	20108.35
923.784	18315.15
924.153	18834.02
924.522	18805.97
924.891	17685.5
925.26	18928.23
925.629	18458.25
925.998	21193.43
926.367	20668.45
926.736	19686.64
927.104	23423.69
927.473	25183.17
927.842	30401.99
928.21	30075.93
928.578	31629.64
928.947	29898.06
929.315	30086.84
929.683	35295.25
930.051	35571.31
930.42	41353.74
930.788	35359.45
931.156	35111
931.523	32937.61
931.891	30440.73
932.259	29282.65
932.627	33970.05
932.994	48032.4
933.362	39720.87
933.729	34499.97
934.097	33069.63
934.464	27978.14
934.831	32291.04
935.199	31856.74
935.566	30895.71
935.933	31300.94
936.3	37896.84
936.667	29502.2
937.034	26673.51
937.401	26420.16
937.767	22829.92
938.134	20319.54
938.501	28676.48
938.867	30574.11
939.234	51661.61
939.6	44102.19
939.967	48625.83
940.333	32566.28
940.699	27724.72
941.065	22228
941.431	29083.19
941.798	28018.26
942.163	36833.92
942.529	22994.47
942.895	21141.68
943.261	13663.74
943.627	17889.54
943.992	15673.23
944.358	15707.52
944.723	15748.29
945.089	15344.56
945.454	14196.29
945.82	15152.56
946.185	14547.69
946.55	16869.83
946.915	15147.58
947.28	17792.66
947.645	15675.93
948.01	14467.8
948.375	15072.25
948.74	18050.87
949.104	21044.64
949.469	30355.97
949.834	53603.16
950.198	50837.32
950.562	30467.14
950.927	25397
951.291	30558.75
951.655	26019.56
952.02	24411.32
952.384	18462.75
952.748	16093.29
953.112	15703.67
953.476	13666.35
953.839	12665.46
954.203	12547.29
954.567	15706.81
954.931	24686.46
955.294	21126.35
955.658	21265.41
956.021	36209.39
956.385	61320.52
956.748	90558.65
957.111	140397.33
957.474	157566.52
957.837	177213.21
958.2	134018.73
958.563	48167.88
958.926	32620.81
959.289	49535.1
959.652	55334.81
960.015	41490.56
960.377	59592.42
960.74	67960.39
961.102	117351.68
961.465	126057.48
961.827	67686.34
962.189	129992.59
962.552	90151.63
962.914	72253.32
963.276	46833.77
963.638	38760.03
964	38414.23
964.362	25994.56
964.724	25125.19
965.085	17938.62
965.447	14725.38
965.809	16745.76
966.17	16770.62
966.532	18139.61
966.893	16631.36
967.255	15134.32
967.616	17850
967.977	14301.55
968.338	15623.07
968.699	12845.28
969.061	12845.24
969.421	12915.15
969.782	14506.23
970.143	12252.41
970.504	12700.77
970.865	14467.49
971.225	14816.87
971.586	14495.85
971.946	20663.28
972.307	17923.1
972.667	23428.57
973.027	24097.98
973.388	29211.49
973.748	19879.58
974.108	21672.59
974.468	29305.55
974.828	22622.18
975.188	17400.17
975.548	16004.99
975.907	13455.53
976.267	15096.23
976.627	12698.62
976.986	13178.82
977.346	12556.9
977.705	12084.85
978.064	10986.78
978.424	9153.91
978.783	9451.06
979.142	10792.45
979.501	10319.99
979.86	10889.2
980.219	10492.84
980.578	13540.55
980.937	15172.1
981.296	13542.6
981.654	13927
982.013	21711.84
982.371	28141.03
982.73	26284.43
983.088	29727.92
983.447	31759.44
983.805	45479.55
984.163	95035.93
984.521	105346.42
984.879	154441.04
985.237	-251215.64
985.595	242183.99
985.953	60089.22
986.311	34806.37
986.669	20195.23
987.026	17417.21
987.384	23430.75
987.741	24214.32
988.099	17323.65
988.456	13839.6
988.814	12951.41
989.171	11258.85
989.528	11094.8
989.885	11700.37
990.242	9258.08
990.599	11538.96
990.956	9452.29
991.313	6622.66
991.67	5440.11
992.027	5781.21
992.383	5123.37
992.74	4496.37
993.096	4723.5
993.453	4905.41
993.809	5085.23
994.165	6775.21
994.522	6218.82
994.878	6860.86
995.234	8579.9
995.59	8448.36
995.946	7981.27
996.302	9114.12
996.658	10517.33
997.013	11554.08
997.369	13722.05
997.725	17603.19
998.08	11389.32
998.436	17508.73
998.791	24134.14
999.147	24137.76
999.502	26386.4
999.857	19176.74
1000.212	31277.73
1000.567	44525.16
1000.922	25707.5
1001.277	16288.18
1001.632	12072.26
1001.987	15581.78
1002.342	11193.36
1002.696	8952.26
1003.051	7145.7
1003.406	8640.32
1003.76	8612.83
1004.114	8486.84
1004.469	7173.5
1004.823	5937.53
1005.177	6414.78
1005.531	5103.97
1005.885	4519.85
1006.239	5092.48
1006.593	6394.15
1006.947	8571.92
1007.301	6429.74
1007.655	7015.89
1008.008	5142.97
1008.362	5764.49
1008.715	8249.56
1009.069	7511.98
1009.422	11293.54
1009.776	22701.19
1010.129	15088.23
1010.482	12599.53
1010.835	10603.08
1011.188	22147.64
1011.541	20768.47
1011.894	-127136.68
1012.247	373787.95
1012.6	25437.43
1012.952	15991.11
1013.305	8238.81
1013.657	5947.3
1014.01	5630.47
1014.362	4649.39
1014.715	4153.34
1015.067	3619.48
1015.419	3538.09
1015.771	3142.37
1016.123	2802.63
1016.475	2872.78
1016.827	3056.59
1017.179	3291.81
1017.531	3306.09
1017.883	3392.8
1018.234	3273.47
1018.586	4128.52
1018.938	4361.65
1019.289	6014.37
1019.64	6874.23
1019.992	6388.68
1020.343	5872.16
1020.694	4680.79
1021.045	4105.81
1021.396	4686.54
1021.747	5008.49
1022.098	5989.81
1022.449	4342.78
1022.8	4015.42
1023.151	2805.95
1023.501	2493.61
1023.852	2712.56
1024.202	2826.78
1024.553	3072.61
1024.903	3026.28
1025.253	2600.91
1025.604	2344
1025.954	2928.13
1026.304	3572.62
1026.654	4196.21
1027.004	6150.26
1027.354	9886.7
1027.703	9267.27
1028.053	12045.28
1028.403	17689.32
1028.753	25325.78
1029.102	34169.17
1029.452	175166.04
1029.801	7524.42
1030.15	4822.27
1030.499	4043.51
897.758	2232.39
901.051	2168.66
904.343	2202.51
907.636	2210.38
910.928	2271.97
914.22	2191.09
917.511	2198.23
920.803	2247
924.094	2246.17
927.384	2247.56
930.675	2211.9
933.965	2174.72
937.255	2202.49
940.544	2168.87
943.834	2170.37
947.123	2109
950.411	2197.62
953.7	2177.05
956.988	2159.13
960.276	2097.17
963.563	2148.42
966.851	2158.43
970.138	2199.42
973.424	2200.16
976.711	2155.99
979.997	2202.69
983.283	2246.53
986.568	2175.38
989.853	2169.35
993.138	2195.53
996.423	2278.76
999.708	2234.99
1002.992	2264.7
1006.275	2178.67
1009.559	2187.33
1012.842	2283.31
1016.125	2233.99
1019.408	2214.23
1022.69	2274.54
1025.972	2305.42
1029.254	2282.03
1032.536	2240.86
1035.817	2254.34
1039.098	2222.6
1042.379	2278.4
1045.659	2302.22
1048.939	2251.72
1052.219	2260.85
1055.498	2256.44
1058.778	2250.4
1062.057	2228.08
1065.335	2249.55
1068.614	2260.88
1071.892	2254.56
1075.17	2311.04
1078.447	2309.31
1081.724	2305.3
1085.001	2332.3
1088.278	2311.8
1091.554	2317.34
1094.83	2314.08
1098.106	2347.08
1101.382	2379.02
1104.657	2381.53
1107.932	2379.2
1111.206	2355.27
1114.481	2311.15
1117.755	2311.57
1121.029	2302.69
1124.302	2358.37
1127.575	2326.69
1130.848	2320.82
1134.121	2288.5
1137.393	2250.47
1140.665	2306.61
1143.937	2284.37
1147.208	2235.78
1150.48	2290.8
1153.75	2277.88
1157.021	2283.47
1160.291	2260.17
1163.561	2309.5
1166.831	2280.68
1170.101	2309.46
1173.37	2271.33
1176.639	2229.15
1179.907	2272.77
1183.176	2294.68
1186.444	2297.86
1189.711	2322.43
1192.979	2342.48
1196.246	2300.65
1199.513	2313.26
1202.78	2316.21
1206.046	2325.51
1209.312	2353.1
1212.578	2370.37
1215.843	2338.5
1219.108	2304.23
1222.373	2326.78
1225.638	2300.47
1228.902	2292.96
1232.166	2250.98
1235.43	2239.37
1238.693	2267.03
1241.956	2259.19
1245.219	2304.3
1248.482	2288.3
1251.744	2286.6
1255.006	2413.99
1258.268	2362.27
1261.529	2316.73
1264.79	2318.23
1268.051	2415.2
1271.312	2424.04
1274.572	2390.28
1277.832	2380.21
1281.092	2362.31
1284.351	2351.87
1287.61	2335.21
1290.869	2266.95
1294.128	2261.68
1297.386	2314.66
1300.644	2308.04
1303.902	2317.33
1307.159	2188.34
1310.416	2241.09
1313.673	2266.49
1316.93	2264.33
1320.186	2296.59
1323.442	2331.2
1326.697	2330.23
1329.953	2307.65
1333.208	2341.94
1336.463	2314.15
1339.717	2273.7
1342.972	2383.82
1346.226	2356.89
1349.479	2304.64
1352.733	2283.4
1355.986	2290.1
1359.238	2272.49
1362.491	2278.25
1365.743	2275.12
1368.995	2268.54
1372.247	2283.13
1375.498	2303.05
1378.749	2337.76
1382	2290.51
1385.251	2327.54
1388.501	2281.32
1391.751	2282.08
1395	2246.91
1398.25	2273.37
1401.499	2295.73
1404.748	2241.08
1407.996	2220
1411.244	2209.53
1414.492	2195.2
1417.74	2178.01
1420.987	2184.78
1424.234	2246.09
1427.481	2209.94
1430.728	2268.71
1433.974	2240.17
1437.22	2241.02
1440.465	2239.13
1443.711	2233.35
1446.956	2257.89
1450.201	2232.09
1453.445	2274.47
1456.689	2262.05
1459.933	2271.15
1463.177	2309.9
1466.42	2280.61
1469.663	2266.02
1472.906	2277.34
1476.148	2326.32
1479.391	2305.93
1482.633	2279.48
1485.874	2302.18
1489.115	2305.13
1492.356	2293.27
1495.597	2272.53
1498.838	2265.91
1502.078	2250.01
1505.318	2219.6
1508.557	2252.39
1511.797	2249.57
1515.036	2289.41
1518.274	2265.37
1521.513	2219.27
1524.751	2233.04
1527.989	2254.19
1531.227	2270.85
1534.464	2279.8
1537.701	2278.62
1540.938	2291.8
1544.174	2242.47
1547.41	2232.22
1550.646	2270.88
1553.882	2316.16
1557.117	2373.65
1560.352	2380.61
1563.587	2341.05
1566.821	2308.69
1570.055	2326.14
1573.289	2306.61
1576.523	2365.29
1579.756	2380.39
1582.989	2400.22
1586.222	2359.3
1589.454	2390.64
1592.686	2373.32
1595.918	2400.4
1599.15	2397.09
1602.381	2445.3
1605.612	2424.67
1608.843	2514.73
1612.073	2438.93
1615.303	2423.68
1618.533	2422.25
1621.762	2420.94
1624.992	2397.62
1628.221	2397.39
1631.449	2385.65
1634.678	2418.29
1637.906	2382.46
1641.134	2411.03
1644.361	2375.65
1647.588	2364.26
1650.815	2386.91
1654.042	2352.94
1657.269	2380.86
1660.495	2354.7
1663.72	2346.75
1666.946	2316.24
1670.171	2284.61
1673.396	2260.41
1676.621	2243.16
1679.845	2244.11
1683.069	2254.36
1686.293	2285.25
1689.517	2272.82
1692.74	2222.23
1695.963	2245.12
1699.185	2281.62
1702.408	2254.8
1705.63	2283.71
1708.852	2301.9
1712.073	2275.45
1715.294	2282.24
1718.515	2326.91
1721.736	2284.76
1724.956	2266.48
1728.176	2288.97
1731.396	2312.02
1734.616	2297.11
1737.835	2332.92
1741.054	2306.64
1744.272	2297.98
1747.491	2334.99
1750.709	2362.32
1753.927	2305.29
1757.144	2333.29
1760.361	2387.82
1763.578	2364.49
1766.795	2315
1770.011	2306.8
1773.227	2334.65
1776.443	2374.88
1779.658	2414.83
1782.874	2356.37
1786.089	2348.93
1789.303	2350.54
1792.518	2347.65
1795.732	2335.22
1798.945	2350.98
1802.159	2391.17
1805.372	2329.16
1808.585	2320.05
1811.797	2321.53
1815.01	2350.03
1818.222	2369.56
1821.434	2330.95
1824.645	2375.83
1827.856	2380.2
1831.067	2410.23
1834.278	2351.59
1837.488	2335.33
1840.698	2460.03
1843.908	2401.39
1847.117	2369.32
1850.326	2287.38
1853.535	2353.41
1856.744	2384.81
1859.952	2309.38
1863.16	2314.19
1866.368	2329.75
1869.575	2441.37
1872.782	2326.7
1875.989	2259.88
1879.196	2314.14
1882.402	2305.32
1885.608	2339.77
1888.814	2276.63
1892.019	2185.13
1895.224	2233.69
1898.429	2202.18
1901.634	2186.78
1904.838	2157.89
1908.042	2213.01
1911.246	2227.25
1914.449	2185.12
1917.652	2172.17
1920.855	2153.39
1924.058	2182.34
1927.26	2225.45
1930.462	2249.36
1933.664	2288.03
1936.865	2229.07
1940.066	2248.92
1943.267	2193.28
1946.467	2202.11
1949.668	2221.66
1952.868	2290.17
1956.067	2280.05
1959.267	2219.12
1962.466	2243.37
1965.665	2226.51
1968.863	2217.84
1972.061	2224.93
1975.259	2217.51
1978.457	2291.75
1981.654	2255.03
1984.852	2258.32
1988.048	2208
1991.245	2197.65
1994.441	2283.2
1997.637	2247.66
2000.833	2226.39
2004.028	2262.84
2007.223	2322.84
2010.418	2308.67
2013.613	2264.51
2016.807	2254.73
2020.001	2251.41
2023.194	2273.65
2026.388	2257.72
2029.581	2204.04
2032.774	2261.75
2035.966	2274.04
2039.158	2219.6
2042.35	2236.96
2045.542	2165.53
2048.733	2247.54
2051.924	2245.16
2055.115	2262.1
2058.306	2227.9
2061.496	2282.25
2064.686	2331.89
2067.875	2242.21
2071.065	2247.95
2074.254	2265.21
2077.442	2220.04
2080.631	2304.12
2083.819	2231.19
2087.007	2222.22
2090.195	2204.27
2093.382	2221.97
2096.569	2205.84
2099.756	2167.93
2102.942	2210.93
2106.128	2223.57
2109.314	2212.91
2112.5	2197.25
2115.685	2166.2
2118.87	2174.19
2122.055	2235.27
2125.239	2214.5
2128.424	2199.31
2131.608	2261.76
2134.791	2248.14
2137.974	2287.49
2141.157	2274.91
2144.34	2245.1
2147.523	2238.79
2150.705	2262.62
2153.887	2232.2
2157.068	2200.5
2160.25	2186.65
2163.431	2211.27
2166.611	2179.64
2169.792	2198.67
2172.972	2109.99
2176.152	2164.36
2179.331	2192.35
2182.511	2192.45
2185.69	2213.4
2188.868	2217.98
2192.047	2253.7
2195.225	2263.8
2198.403	2215.44
2201.58	2204.38
2204.758	2192.86
2207.935	2267.61
2211.111	2179.08
2214.288	2167.65
2217.464	2201.13
2220.64	2162.38
2223.815	2211.2
2226.991	2144.56
2230.166	2161.43
2233.34	2200.96
2236.515	2214.73
2239.689	2278.2
2242.863	2227.69
2246.036	2283.31
2249.209	2268.16
2252.382	2288.45
2255.555	2294.53
2258.727	2243.36
2261.9	2272.1
2265.071	2264.31
2268.243	2261.15
2271.414	2209.34
2274.585	2188.95
2277.756	2251.08
2280.926	2206.09
2284.096	2237.41
2287.266	2166.58
2290.436	2212.07
2293.605	2233.31
2296.774	2270.44
2299.942	2275.83
2303.111	2293.82
2306.279	2344.61
2309.447	2329.98
2312.614	2300.58
2315.781	2325.44
2318.948	2302.55
2322.115	2339.48
2325.281	2240.19
2328.447	2249
2331.613	2221.31
2334.779	2210.65
2337.944	2205.77
2341.109	2205.91
2344.274	2196.51
2347.438	2164.3
2350.602	2185.56
2353.766	2196.15
2356.929	2183.92
2360.092	2223.05
2363.255	2192
2366.418	2153.04
2369.58	2224.53
2372.742	2092.01
2375.904	2088.86
2379.066	2071.49
2382.227	2099.46
2385.388	2061.33
2388.548	2005.9
2391.709	2049.84
2394.869	2038.03
2398.029	2097.25
2401.188	2096.44
2404.347	2055.64
2407.506	2140.98
2410.665	2177.18
2413.823	2166.39
2416.981	2141.48
2420.139	2158.71
2423.296	2204.38
2426.453	2175.96
2429.61	2194.96
2432.767	2162
2435.923	2201.92
2439.079	2152.61
2442.235	2185.73
2445.391	2127.09
2448.546	2167.28
2451.701	2205.01
2454.855	2199.45
2458.009	2227.27
2461.163	2220.91
2464.317	2192.06
2467.471	2218.7
2470.624	2247.24
2473.777	2234.25
2476.929	2252.48
2480.082	2276.71
2483.234	2248.24
2486.385	2189.13
2489.537	2182.83
2492.688	2172.68
2495.839	2185.6
2498.989	2201.28
2502.14	2186.5
2505.29	2177.98
2508.439	2202.98
2511.589	2140.58
2514.738	2141.13
2517.887	2166.94
2521.035	2241
2524.183	2202.03
2527.331	2186.8
2530.479	2180.6
2533.627	2182.77
