Data from C_1_DEC_ON_6N_Splice17_11-53-38-811.txt Node
Date: Sat Mar 14 11:53:38 EDT 2020
User: sa697716
Spectrometer: FLMS03696
Trigger mode: 0
Integration Time (sec): 3.180400E-1
Scans to average: 20
Electric dark correction enabled: true
Nonlinearity correction enabled: true
Boxcar width: 5
XAxis mode: Wavelengths
Number of Pixels in Spectrum: 2048
>>>>>Begin Spectral Data<<<<<
187.83	-388913.97
188.298	2737.97
188.766	1427.83
189.233	1319.23
189.701	1868.93
190.169	2467.56
190.636	888.35
191.104	686.61
191.571	141.16
192.039	-33.85
192.506	-79.85
192.974	409.51
193.441	-718.87
193.908	-288.69
194.375	-36.86
194.842	38.46
195.31	79.94
195.777	144.69
196.244	321.02
196.711	352.54
197.177	431.34
197.644	576.8
198.111	984.21
198.578	1417.17
199.045	1135.76
199.511	1791.31
199.978	2088.11
200.445	1756.28
200.911	1913.41
201.378	2112.58
201.844	1961.43
202.31	3318.89
202.777	3483.61
203.243	1952.25
203.709	1847.94
204.176	2214.05
204.642	1841.4
205.108	1709.56
205.574	1401.62
206.04	1276.09
206.506	1197.8
206.972	1130.49
207.438	1092.19
207.903	1234.92
208.369	1088.33
208.835	1092.78
209.301	1142.15
209.766	1166.72
210.232	1154.02
210.697	1415.46
211.163	1743.91
211.628	2611.39
212.094	2160.14
212.559	2660.19
213.024	1650.87
213.49	1992.38
213.955	1914.44
214.42	1838.09
214.885	1690.84
215.35	1618.28
215.815	1589.82
216.28	1662.01
216.745	1335.01
217.21	1416.54
217.675	1253.42
218.14	1372.95
218.604	1466.75
219.069	1606.99
219.534	1655.64
219.998	1852.05
220.463	2163.95
220.927	2511.82
221.392	2291.12
221.856	2285.76
222.32	2802.88
222.785	3399.68
223.249	4194.01
223.713	4643.91
224.177	4588.67
224.642	5771.14
225.106	7067.19
225.57	7639.34
226.034	5718.78
226.497	8709.89
226.961	7812.68
227.425	9082.67
227.889	10046.31
228.353	9980.39
228.816	20438.24
229.28	19523.13
229.744	16346.98
230.207	9896.24
230.671	9719.19
231.134	15890.41
231.597	18282.09
232.061	18274.28
232.524	17747.7
232.987	12202.05
233.45	11016.54
233.914	9887.2
234.377	10046
234.84	9205.57
235.303	10857.87
235.766	12140.98
236.229	12513.43
236.691	7849.61
237.154	8799.32
237.617	6656.29
238.08	6825.27
238.542	7958.63
239.005	5687.57
239.468	5678.65
239.93	5362.96
240.393	4884.6
240.855	4285.56
241.317	4397.14
241.78	5340.22
242.242	5520.36
242.704	5964.38
243.166	5187.07
243.629	4735.33
244.091	5454.82
244.553	5976.46
245.015	6435.01
245.477	8303.21
245.939	12125.02
246.4	12867.22
246.862	12501.84
247.324	11767.54
247.786	13099.15
248.247	17178.81
248.709	17667.53
249.17	13251.02
249.632	12567.52
250.093	14611.29
250.555	12589.13
251.016	7716.62
251.477	7325.32
251.939	7917.62
252.4	8302.14
252.861	9862.91
253.322	9160.76
253.783	10891.2
254.244	14100.44
254.705	11047.99
255.166	9788.63
255.627	9642.36
256.088	13639.44
256.549	14501.3
257.009	12501.6
257.47	15148.57
257.931	12324.78
258.391	9239.65
258.852	9519.56
259.312	9965.15
259.773	12306.82
260.233	10410.53
260.694	8816.5
261.154	9958.48
261.614	8009.3
262.074	7138.16
262.534	7424.71
262.994	7014.26
263.455	9316.65
263.915	7858.54
264.374	7394.01
264.834	8057.31
265.294	8904.04
265.754	9216.59
266.214	8718.3
266.673	8164.98
267.133	10283.35
267.593	10192.09
268.052	12456.98
268.512	10833.78
268.971	13090.6
269.431	14385.68
269.89	12899.56
270.349	19354.02
270.809	21558.36
271.268	19347.45
271.727	43229.09
272.186	28048.51
272.645	21022.64
273.104	15136.5
273.563	21942.43
274.022	17188.38
274.481	14607.67
274.94	11265.74
275.399	8372.06
275.857	9724.92
276.316	13154.76
276.775	11712.83
277.233	11535.96
277.692	10840.76
278.15	12288.6
278.609	12671.62
279.067	11733.75
279.525	10937.58
279.984	14116.84
280.442	16974.42
280.9	16806.62
281.358	11061.65
281.816	10327.08
282.274	10114.61
282.732	10434.14
283.19	10494.37
283.648	9061.62
284.106	9666.21
284.564	9810.19
285.021	9132.77
285.479	6815.3
285.937	6189.48
286.394	5476.22
286.852	5647.42
287.309	5957.07
287.767	5792.82
288.224	5529.17
288.682	6078.92
289.139	6692.49
289.596	6152.75
290.053	6384.52
290.511	8065.33
290.968	9812.43
291.425	13271.59
291.882	11105.66
292.339	9694.44
292.796	9589.37
293.252	9024.27
293.709	7178.33
294.166	6444.93
294.623	7118.69
295.079	6828.44
295.536	6885.32
295.992	6263.4
296.449	6193.03
296.905	6439.7
297.362	6193.49
297.818	6522.02
298.274	6789.28
298.731	6904.84
299.187	6836.3
299.643	7330.34
300.099	8876.87
300.555	9716.04
301.011	8132.16
301.467	7906.17
301.923	9213.6
302.379	8996.65
302.835	8822.86
303.291	8848.01
303.746	10100.17
304.202	12783.73
304.658	12885.49
305.113	8701.61
305.569	8546.18
306.024	9100.73
306.479	8623.91
306.935	7314.05
307.39	7981.8
307.845	7419.63
308.301	7489.57
308.756	7315.54
309.211	7042.24
309.666	7234.81
310.121	9007.06
310.576	9157.87
311.031	9096.14
311.486	10400.18
311.94	10378.43
312.395	13893.64
312.85	26049.31
313.305	127385.8
313.759	663459.01
314.214	48323.92
314.668	38319.88
315.123	32275.4
315.577	11618.38
316.032	10379.63
316.486	13035.97
316.94	10315.07
317.394	7212.21
317.849	5620.26
318.303	5326.49
318.757	5025.19
319.211	5551.4
319.665	4850.14
320.119	4910.82
320.572	7023.84
321.026	6585.04
321.48	5476.38
321.934	5966.66
322.387	5965.8
322.841	6450.09
323.295	5838.4
323.748	6696.88
324.202	6792.22
324.655	8193.68
325.108	11479.45
325.562	8131.2
326.015	9632.81
326.468	7314.29
326.921	8178.98
327.374	7665.05
327.827	8049.72
328.28	9103.85
328.733	6146.52
329.186	5414.19
329.639	5168.52
330.092	4369.35
330.545	4179.9
330.997	4226.98
331.45	4635.64
331.903	5456.43
332.355	9367.96
332.808	9051.9
333.26	7466.66
333.713	8087.75
334.165	8147.18
334.617	10855.52
335.069	8703.51
335.522	15692.18
335.974	17373.97
336.426	15917.69
336.878	11019.33
337.33	5596.3
337.782	5478.33
338.234	6892.59
338.686	8226.43
339.137	9757.59
339.589	9190.13
340.041	7247.35
340.493	6204.11
340.944	6369.64
341.396	6838.99
341.847	5756.84
342.299	6831.06
342.75	8345.84
343.201	7250.05
343.653	8368.89
344.104	10303.27
344.555	8089.86
345.006	12523.49
345.457	9673.7
345.908	7668.71
346.359	7231.76
346.81	5889.59
347.261	6158.79
347.712	6041.31
348.163	6449.68
348.613	6547.05
349.064	6095.21
349.515	5360.66
349.965	5508.43
350.416	6617.15
350.866	7255.21
351.317	8193.43
351.767	13577.3
352.217	17157.21
352.668	14255.61
353.118	13145.49
353.568	12607.98
354.018	10009.71
354.468	10569.63
354.918	7609.15
355.368	6641.88
355.818	9379.31
356.268	26926.58
356.718	113050.39
357.168	28315.17
357.617	14236.86
358.067	15806.53
358.517	14839.06
358.966	17496.82
359.416	19708.94
359.865	21239.11
360.315	25325.83
360.764	11875.86
361.213	6675.64
361.663	6298.15
362.112	7736.05
362.561	12523.12
363.01	9486.92
363.459	8000.73
363.908	8621.07
364.357	7343.63
364.806	12411.76
365.255	8546.09
365.703	7838.94
366.152	7850.81
366.601	6390.56
367.05	5227.64
367.498	4761.05
367.947	4968.72
368.395	5175.91
368.844	4599.19
369.292	5486.72
369.74	3810.22
370.189	5815.87
370.637	6830.35
371.085	5899.11
371.533	7178.71
371.981	6879.85
372.429	6568.34
372.877	6850.56
373.325	5741.08
373.773	5823.6
374.221	5203.51
374.669	6450.14
375.116	5591.33
375.564	5637.39
376.012	6281.58
376.459	5193.96
376.907	6246.06
377.354	7554.93
377.801	7033.52
378.249	8111.96
378.696	10415.4
379.143	12617.15
379.591	13420.61
380.038	22777.23
380.485	16444.6
380.932	17875.99
381.379	16445.81
381.826	12149.47
382.273	8601.74
382.72	7569.55
383.166	7342.18
383.613	4766.45
384.06	4313.41
384.506	5012.16
384.953	3666.69
385.4	3692.71
385.846	3219.12
386.292	3121.66
386.739	3044.24
387.185	3018.39
387.631	3037.73
388.078	2989.68
388.524	3209.75
388.97	2993.29
389.416	2524.19
389.862	2707.5
390.308	2581.42
390.754	2656.35
391.2	2915.79
391.645	3032.71
392.091	2969.99
392.537	2904.83
392.983	2932.29
393.428	2940.12
393.874	3171.19
394.319	3232.1
394.765	3144.16
395.21	3314.9
395.655	3191.19
396.101	3071.4
396.546	2844.52
396.991	2933.57
397.436	2807.22
397.881	2799.67
398.326	2741.51
398.771	2694.63
399.216	2440
399.661	2272.6
400.106	2338.71
400.551	2471.51
400.995	2279.65
401.44	2313.42
401.885	2226.92
402.329	2295.47
402.774	2242.8
403.218	2214.68
403.663	2176.63
404.107	2284.1
404.551	2341.82
404.995	2197.05
405.44	2164.43
405.884	2248.23
406.328	2223.64
406.772	2262.2
407.216	2102.88
407.66	2082.19
408.104	2025.55
408.547	1943.27
408.991	1921.56
409.435	1889.72
409.879	1892.84
410.322	1896.39
410.766	1858.83
411.209	1798.98
411.653	1760.72
412.096	1758.45
412.54	1788.08
412.983	1805.46
413.426	1836.38
413.869	1860.63
414.312	1848.59
414.756	1806.01
415.199	1747.6
415.642	1720.9
416.085	1741.33
416.527	1746.29
416.97	1790.44
417.413	1713.78
417.856	1705.46
418.298	1696.57
418.741	1691.06
419.184	1692.83
419.626	1769.56
420.069	1771.38
420.511	1784.7
420.953	1756.06
421.396	1750.09
421.838	1715.69
422.28	1765.36
422.722	1786.89
423.164	1830.97
423.606	1819.22
424.048	1838.5
424.49	1760.64
424.932	1768.18
425.374	1757.12
425.816	1791.09
426.258	1820.64
426.699	1825.64
427.141	1768.79
427.582	1768.86
428.024	1739.57
428.465	1727.08
428.907	1690.98
429.348	1691.91
429.789	1711.34
430.231	1691.18
430.672	1731.62
431.113	1711.19
431.554	1722.26
431.995	1734.75
432.436	1725.7
432.877	1734.13
433.318	1737.39
433.759	1759.52
434.2	1779.35
434.64	1776.74
435.081	1799.57
435.522	1725.88
435.962	1689.05
436.403	1676.74
436.843	1721.77
437.284	1704.86
437.724	1676.7
438.164	1695.46
438.604	1670.84
439.045	1619.32
439.485	1568.35
439.925	1555.5
440.365	1535.59
440.805	1532.68
441.245	1523.28
441.685	1473.78
442.125	1470.97
442.564	1486.08
443.004	1455.23
443.444	1456.64
443.883	1466.72
444.323	1467.25
444.762	1482.31
445.202	1512.99
445.641	1543.9
446.081	1546.65
446.52	1572.12
446.959	1569.3
447.398	1543.89
447.837	1546.8
448.276	1537.98
448.716	1564.38
449.154	1586.83
449.593	1546.68
450.032	1540.51
450.471	1515.34
450.91	1517.98
451.349	1509.63
451.787	1502.91
452.226	1521.48
452.664	1514.26
453.103	1509.27
453.541	1506.07
453.98	1498.76
454.418	1513.72
454.856	1487.01
455.295	1485.06
455.733	1493.1
456.171	1500.19
456.609	1496.02
457.047	1493.69
457.485	1508.56
457.923	1508.46
458.361	1486.01
458.798	1490.87
459.236	1487.35
459.674	1503.69
460.111	1514.77
460.549	1503.78
460.987	1505.14
461.424	1506.43
461.862	1502.63
462.299	1487
462.736	1490.35
463.173	1499.81
463.611	1483.37
464.048	1482.01
464.485	1498.38
464.922	1491.69
465.359	1494.04
465.796	1469.74
466.233	1468.54
466.67	1463.37
467.106	1467.38
467.543	1462.53
467.98	1455.37
468.416	1436.07
468.853	1440.92
469.29	1412.19
469.726	1409.11
470.162	1383.14
470.599	1389.04
471.035	1389.82
471.471	1370.11
471.907	1378.08
472.344	1381.02
472.78	1391.38
473.216	1414.25
473.652	1400.83
474.088	1400.28
474.523	1399.16
474.959	1416.35
475.395	1406.37
475.831	1396.6
476.266	1404.78
476.702	1402.82
477.138	1387.39
477.573	1383.7
478.008	1377.45
478.444	1382.42
478.879	1392.82
479.314	1395.54
479.75	1390.93
480.185	1393.35
480.62	1402.18
481.055	1402.8
481.49	1401.85
481.925	1410.63
482.36	1414.68
482.795	1432.73
483.229	1445.43
483.664	1449.6
484.099	1434.8
484.534	1437.34
484.968	1436.56
485.403	1428.86
485.837	1418.82
486.271	1410.27
486.706	1409.81
487.14	1400.92
487.574	1386.83
488.009	1384.75
488.443	1381.08
488.877	1395.26
489.311	1401.34
489.745	1416.58
490.179	1428.08
490.613	1450.3
491.046	1461.22
491.48	1470.98
491.914	1471.87
492.348	1482.5
492.781	1491.52
493.215	1498.3
493.648	1508.52
494.082	1526.8
494.515	1530.49
494.948	1547.46
495.382	1560.58
495.815	1570.98
496.248	1581.89
496.681	1607.38
497.114	1630.78
497.547	1648.59
497.98	1669.72
498.413	1674.22
498.846	1686.79
499.279	1702.99
499.711	1714.03
500.144	1720.2
500.577	1740.13
501.009	1762.83
501.442	1782.56
501.874	1787.74
502.306	1800.5
502.739	1824.98
503.171	1870.46
503.603	1888.9
504.036	1918.31
504.468	1935.26
504.9	1965.06
505.332	1986.8
505.764	2005.32
506.196	2029.6
506.627	2068.43
507.059	2101.99
507.491	2128.31
507.923	2126.24
508.354	2165.33
508.786	2194.97
509.217	2241.27
509.649	2278.82
510.08	2326.41
510.512	2361.07
510.943	2392.44
511.374	2416.06
511.805	2460.98
512.237	2505.35
512.668	2577.87
513.099	2631.01
513.53	2675.28
513.961	2698.27
514.391	2749.2
514.822	2799.45
515.253	2863.85
515.684	2908.97
516.114	2967.14
516.545	3008.79
516.975	3062.9
517.406	3102.97
517.836	3115.31
518.267	3148.3
518.697	3210.44
519.127	3241.57
519.558	3279.23
519.988	3303.47
520.418	3345.24
520.848	3397.36
521.278	3429.12
521.708	3405.34
522.138	3439.79
522.567	3514.54
522.997	3565.02
523.427	3587.84
523.857	3610.38
524.286	3621.66
524.716	3648.15
525.145	3682.1
525.575	3702.38
526.004	3731.65
526.433	3781.92
526.863	3777.99
527.292	3750.32
527.721	3767.68
528.15	3795.19
528.579	3811.36
529.008	3844.35
529.437	3896.44
529.866	3922.31
530.295	3952.49
530.724	3967.16
531.152	4017.2
531.581	4038.67
532.01	4072.17
532.438	4085.93
532.867	4112.38
533.295	4144
533.723	4150.47
534.152	4140.43
534.58	4137.45
535.008	4102.07
535.436	4103.97
535.865	4118.15
536.293	4146.04
536.721	4172.95
537.149	4212.98
537.576	4200.56
538.004	4217.32
538.432	4229.7
538.86	4222.57
539.287	4235.44
539.715	4261.15
540.143	4267.06
540.57	4260.03
540.998	4256.1
541.425	4207.96
541.852	4173.63
542.28	4184.19
542.707	4160.38
543.134	4137.73
543.561	4138.7
543.988	4130.18
544.415	4137.23
544.842	4131.88
545.269	4121.19
545.696	4130.47
546.123	4170.07
546.549	4153.09
546.976	4129.5
547.403	4135.78
547.829	4148.69
548.256	4161.14
548.682	4159.69
549.108	4147.75
549.535	4154.08
549.961	4165.26
550.387	4140.74
550.813	4129.56
551.24	4149.65
551.666	4158.32
552.092	4140.37
552.518	4130.12
552.943	4116.63
553.369	4133.45
553.795	4145.7
554.221	4145.41
554.646	4136.42
555.072	4152.67
555.498	4158.47
555.923	4168.39
556.349	4189.29
556.774	4195.01
557.199	4184.91
557.625	4191.5
558.05	4171.67
558.475	4188.9
558.9	4178.62
559.325	4153.03
559.75	4134.23
560.175	4117.32
560.6	4100.31
561.025	4092.4
561.449	4092.8
561.874	4100.09
562.299	4096.76
562.723	4102.01
563.148	4066.23
563.572	4064.13
563.997	4074.01
564.421	4078.27
564.846	4066.72
565.27	4059.08
565.694	4037.28
566.118	4044.89
566.542	4042.75
566.966	4015.52
567.39	3989.1
567.814	3950.5
568.238	3933.28
568.662	3931.9
569.086	3924.06
569.509	3931.99
569.933	3894.14
570.357	3879.77
570.78	3836.08
571.204	3808.44
571.627	3788.4
572.05	3787.12
572.474	3790.06
572.897	3770.28
573.32	3755.18
573.743	3738.51
574.166	3698.24
574.589	3700.08
575.012	3681.25
575.435	3676.39
575.858	3654.12
576.281	3630.19
576.704	3600.96
577.126	3580.21
577.549	3560.24
577.972	3544.89
578.394	3524.91
578.817	3513.13
579.239	3480.84
579.661	3458.52
580.084	3430.7
580.506	3411.16
580.928	3410.74
581.35	3392.41
581.772	3387.74
582.194	3358.68
582.616	3330.24
583.038	3297.78
583.46	3272.93
583.882	3258.3
584.303	3261.28
584.725	3244.89
585.147	3228.28
585.568	3227.09
585.99	3219.78
586.411	3197.4
586.833	3197.94
587.254	3174.06
587.675	3180.84
588.096	3185.03
588.518	3153.9
588.939	3101.02
589.36	3080.77
589.781	3057.07
590.202	2995.3
590.623	2985.29
591.043	2993.64
591.464	2974.64
591.885	2967.34
592.305	2955.57
592.726	2927.52
593.147	2930.12
593.567	2919.48
593.987	2903.68
594.408	2890.7
594.828	2887.39
595.248	2870.52
595.669	2826.48
596.089	2810.17
596.509	2798.4
596.929	2769.69
597.349	2768.2
597.769	2744.28
598.189	2726.52
598.608	2721.77
599.028	2719.25
599.448	2713.6
599.867	2686.61
600.287	2677.04
600.706	2666.95
601.126	2645.51
601.545	2640.28
601.965	2636.12
602.384	2622.75
602.803	2624.78
603.222	2612.8
603.641	2598.58
604.061	2588.52
604.48	2576.99
604.898	2586.69
605.317	2587.73
605.736	2583.62
606.155	2568.65
606.574	2540.89
606.992	2540.76
607.411	2522.46
607.829	2498.93
608.248	2484.36
608.666	2471.17
609.085	2460.88
609.503	2436.86
609.921	2417.3
610.339	2411.95
610.758	2402.8
611.176	2386.49
611.594	2362.94
612.012	2351.91
612.43	2349.94
612.847	2352.63
613.265	2343.26
613.683	2340.06
614.101	2332.24
614.518	2318.82
614.936	2296.15
615.353	2265.82
615.771	2256.17
616.188	2252.86
616.606	2241.48
617.023	2226.75
617.44	2200.43
617.857	2190.81
618.274	2177.12
618.691	2165.08
619.108	2146.7
619.525	2131.38
619.942	2137.99
620.359	2136.61
620.776	2122.18
621.192	2108.08
621.609	2095.32
622.026	2096.5
622.442	2095.66
622.859	2092.04
623.275	2073.43
623.691	2075.42
624.108	2086.95
624.524	2102.06
624.94	2094.3
625.356	2101.88
625.772	2115.23
626.188	2128.6
626.604	2126.07
627.02	2114.26
627.436	2105.64
627.852	2110.28
628.268	2122.77
628.683	2103.94
629.099	2085.65
629.514	2076.03
629.93	2079.68
630.345	2085.41
630.761	2078.21
631.176	2082.99
631.591	2071.5
632.007	2060.75
632.422	2057.28
632.837	2040.29
633.252	2035.09
633.667	2020.52
634.082	2004.72
634.497	1983.73
634.911	1951.58
635.326	1944.67
635.741	1915.95
636.155	1900.66
636.57	1899.25
636.984	1896.32
637.399	1895.12
637.813	1893.32
638.228	1886.4
638.642	1889.32
639.056	1870.1
639.47	1868.19
639.884	1851.12
640.298	1837.4
640.712	1831.23
641.126	1809.95
641.54	1792.98
641.954	1782.53
642.368	1759.5
642.781	1743.74
643.195	1713.81
643.609	1708.26
644.022	1691.73
644.436	1679.78
644.849	1654.77
645.262	1629.36
645.676	1623.47
646.089	1608.52
646.502	1577.18
646.915	1561.57
647.328	1531.83
647.741	1524.2
648.154	1502.71
648.567	1493.51
648.98	1471.06
649.393	1470.9
649.805	1465.3
650.218	1454.98
650.631	1433.47
651.043	1426.7
651.456	1418.16
651.868	1416.74
652.28	1436.21
652.693	1447.13
653.105	1445.9
653.517	1444.25
653.929	1430.14
654.341	1426.38
654.753	1400.18
655.165	1400.9
655.577	1391.69
655.989	1382.43
656.401	1369.86
656.813	1322.26
657.224	1300.11
657.636	1269.8
658.047	1256.27
658.459	1240.12
658.87	1235.92
659.282	1226.06
659.693	1199.75
660.104	1179.16
660.515	1160.4
660.926	1156.05
661.338	1150.42
661.749	1139.73
662.159	1126.01
662.57	1118.1
662.981	1108.5
663.392	1094.87
663.803	1096.3
664.213	1090.26
664.624	1082.92
665.035	1082.86
665.445	1062.85
665.855	1050.24
666.266	1037.73
666.676	1031.78
667.086	1017.19
667.497	1013.14
667.907	1000.93
668.317	984.39
668.727	974.27
669.137	971.58
669.547	964.98
669.956	964.5
670.366	962.94
670.776	959.8
671.186	959.77
671.595	959.57
672.005	959.73
672.414	955.78
672.824	951.26
673.233	956
673.642	954.76
674.052	954.33
674.461	953.84
674.87	956.29
675.279	949.48
675.688	949.97
676.097	948.83
676.506	943.6
676.915	958.45
677.323	959.99
677.732	956.22
678.141	953.14
678.549	940.75
678.958	939.02
679.366	936.38
679.775	942.75
680.183	954.34
680.592	961.83
681	967.25
681.408	958.77
681.816	966.78
682.224	975.69
682.632	988.15
683.04	1021.91
683.448	1047.39
683.856	1075.49
684.264	1104.62
684.671	1129.24
685.079	1162.97
685.487	1203.01
685.894	1264.51
686.302	1311.82
686.709	1350.17
687.116	1397.18
687.524	1436.47
687.931	1473.14
688.338	1511.74
688.745	1549.99
689.152	1591.3
689.559	1645.64
689.966	1697.62
690.373	1721.24
690.78	1767.34
691.187	1836.38
691.593	1887.13
692	1932.51
692.407	1999.46
692.813	2081.53
693.22	2147.52
693.626	2219.52
694.032	2278.34
694.439	2368.21
694.845	2441.26
695.251	2532.58
695.657	2612.29
696.063	2731.52
696.469	2815.62
696.875	2895.14
697.281	2938.31
697.687	2989.3
698.093	3026.31
698.498	3106.01
698.904	3167.25
699.31	3258.32
699.715	3321.65
700.12	3424.68
700.526	3444.24
700.931	3529.41
701.337	3592.13
701.742	3637.74
702.147	3742.37
702.552	3786.97
702.957	3864.85
703.362	3892.97
703.767	3936.59
704.172	3996.45
704.577	3948.86
704.981	4012.68
705.386	4036.13
705.791	4031.73
706.195	4124.81
706.6	4139.73
707.004	4240.18
707.408	4206.79
707.813	4246.39
708.217	4237.97
708.621	4240.51
709.025	4360.58
709.43	4361.42
709.834	4436.84
710.237	4523.84
710.641	4507.51
711.045	4534.4
711.449	4527.18
711.853	4557.44
712.256	4602.83
712.66	4640.86
713.064	4719.27
713.467	4748.47
713.87	4847.3
714.274	4850.86
714.677	4920.04
715.08	5038.89
715.484	5155.77
715.887	5298.85
716.29	5435.86
716.693	5569.67
717.096	5735.21
717.499	5797.29
717.901	5769.69
718.304	5782.48
718.707	5824.5
719.109	5755.97
719.512	5769.24
719.915	5672.54
720.317	5656.19
720.719	5738.71
721.122	5740.56
721.524	5713.51
721.926	5686.11
722.328	5799.69
722.731	5774.32
723.133	5783.09
723.535	5961.65
723.937	5951.07
724.338	5979.89
724.74	6004.52
725.142	5913.66
725.544	5908.77
725.945	5935.41
726.347	5933.96
726.748	5932.07
727.15	5958.41
727.551	5922.36
727.952	5893.99
728.354	5865.74
728.755	5876.35
729.156	5850.12
729.557	5877.82
729.958	5777.79
730.359	5757.15
730.76	5777.72
731.161	5756.7
731.562	5770.93
731.962	5815.52
732.363	5782.69
732.763	5748.85
733.164	5820.1
733.564	5765.14
733.965	5672.27
734.365	5647.57
734.766	5690.28
735.166	5651.57
735.566	5587.39
735.966	5554.36
736.366	5548.3
736.766	5479.76
737.166	5521.31
737.566	5480.42
737.966	5456.84
738.365	5507.26
738.765	5501.93
739.165	5417.38
739.564	5389.76
739.964	5446.61
740.363	5403.29
740.763	5407.11
741.162	5398.22
741.561	5364.05
741.96	5313.93
742.36	5342.48
742.759	5352.3
743.158	5402.56
743.557	5421.26
743.955	5470.64
744.354	5418.62
744.753	5483.03
745.152	5432.9
745.55	5495.31
745.949	5484.67
746.348	5482.48
746.746	5498.24
747.144	5446
747.543	5414.46
747.941	5465.93
748.339	5376.85
748.737	5361.38
749.136	5343.44
749.534	5411.81
749.932	5371.41
750.33	5391.71
750.727	5450.9
751.125	5417.82
751.523	5398.2
751.921	5441.34
752.318	5398.64
752.716	5461.64
753.113	5474.77
753.511	5497.77
753.908	5491.11
754.305	5466.16
754.703	5532.75
755.1	5591.43
755.497	5648.77
755.894	5840.41
756.291	5989.09
756.688	6255.7
757.085	6575.08
757.482	7009.95
757.878	7440.19
758.275	7775.93
758.672	8303.3
759.068	8658.72
759.465	9244.49
759.861	10006.79
760.258	10877.92
760.654	11202.58
761.05	10946.36
761.447	10427.17
761.843	9799.09
762.239	9194.5
762.635	8994.89
763.031	8800.9
763.427	8436.95
763.822	8047.21
764.218	7673.23
764.614	7132.77
765.01	6808.98
765.405	6642.1
765.801	6540.3
766.196	6344.69
766.592	6274.27
766.987	6056.98
767.382	5924.52
767.778	5902.28
768.173	5825.06
768.568	5794.45
768.963	5694.22
769.358	5740.14
769.753	5709.95
770.148	5632
770.542	5641.96
770.937	5615.44
771.332	5720.78
771.726	5739.67
772.121	5669.57
772.515	5724.58
772.91	5703.91
773.304	5781.02
773.699	5704.73
774.093	5760.21
774.487	5815.14
774.881	5851.42
775.275	5838.84
775.669	5786.58
776.063	5829.13
776.457	5863.01
776.851	5773.9
777.245	5756.48
777.638	5780.25
778.032	5894.19
778.425	5846.42
778.819	5881.76
779.212	5833.99
779.606	5783.78
779.999	5794.45
780.392	5763.44
780.786	5837.28
781.179	5848.99
781.572	5884.99
781.965	5887.27
782.358	5815.95
782.751	5859.99
783.143	5796.06
783.536	5855.89
783.929	5884.93
784.322	5989.35
784.714	6007.73
785.107	5986.89
785.499	6042.79
785.891	5998.5
786.284	5957.52
786.676	6078.24
787.068	6032.98
787.46	6060.7
787.852	6056.74
788.245	6119.01
788.636	6124.8
789.028	6170.72
789.42	6186.05
789.812	6172.19
790.204	6248.78
790.595	6326.04
790.987	6122.69
791.378	6133.43
791.77	6245.24
792.161	6363.84
792.553	6405.86
792.944	6282.6
793.335	6200.09
793.726	6254.17
794.117	6326.2
794.508	6443.5
794.899	6405.02
795.29	6525
795.681	6562.61
796.072	6415.69
796.463	6225.04
796.853	6217.92
797.244	6348.69
797.634	6365.74
798.025	6351.73
798.415	6347.01
798.806	6409.18
799.196	6468.6
799.586	6490.89
799.976	6434.41
800.366	6622.53
800.756	6819.27
801.146	6761.75
801.536	6770.31
801.926	6817.54
802.316	6826.07
802.706	6872.31
803.095	6752.85
803.485	6829.65
803.874	6853.69
804.264	7070.24
804.653	7031.59
805.043	7143.5
805.432	7222.42
805.821	7203.9
806.21	7202.3
806.599	7276.36
806.988	7286.37
807.377	7343.4
807.766	7420.86
808.155	7620.39
808.544	7359.18
808.933	7331.78
809.321	7271.88
809.71	7474.7
810.098	7550.4
810.487	7873.08
810.875	8201.49
811.264	8150.55
811.652	8311.95
812.04	8348.03
812.428	8403.05
812.816	8911.41
813.204	9142.96
813.592	9469.19
813.98	9631.71
814.368	9479.3
814.756	9766.71
815.144	9637.46
815.531	9923.48
815.919	9812.14
816.306	9992.34
816.694	9728.61
817.081	9748.77
817.469	9996.47
817.856	10007.61
818.243	10217.94
818.63	10520.82
819.017	10216.19
819.404	10257.43
819.791	10503.79
820.178	10909.72
820.565	11057.89
820.952	11708.88
821.339	11336.25
821.725	11441.9
822.112	10882.25
822.498	10823.87
822.885	10880.91
823.271	10789.07
823.657	11084.38
824.044	11105.29
824.43	11176.88
824.816	11156.91
825.202	10836.55
825.588	11537.25
825.974	11522.67
826.36	11854.02
826.746	11838.56
827.132	12059.06
827.517	12013.02
827.903	11426.82
828.289	11427.54
828.674	10853.1
829.06	10763.89
829.445	11022.75
829.83	11254.94
830.216	11570.03
830.601	11805.31
830.986	11513.81
831.371	11413.21
831.756	11789.24
832.141	11492.11
832.526	11473.09
832.911	11670.51
833.295	11582.52
833.68	11902.5
834.065	11479.74
834.449	10849.83
834.834	10803.64
835.218	10805.45
835.603	11033.34
835.987	10883.59
836.371	11451.36
836.755	11382.91
837.139	11655.39
837.524	11815.98
837.908	11685.57
838.291	11718.37
838.675	11756.97
839.059	11888.1
839.443	11865.89
839.827	11703.36
840.21	12020.84
840.594	11911.38
840.977	12041.5
841.361	12016.04
841.744	12255.16
842.127	12140.71
842.511	12298.77
842.894	12693.5
843.277	12935.38
843.66	13287.03
844.043	13330.42
844.426	12775.29
844.809	12549.12
845.191	12560.42
845.574	12237.36
845.957	11987.24
846.339	11893.85
846.722	11517.65
847.104	11539.89
847.487	11399.96
847.869	11393.75
848.252	11553.36
848.634	11750.6
849.016	11907.64
849.398	11963.9
849.78	12509.68
850.162	12494.12
850.544	12745.59
850.926	13132.3
851.307	13044.83
851.689	13200.61
852.071	13460.06
852.452	13651.39
852.834	13624.01
853.215	13864.04
853.597	13950.71
853.978	14117.74
854.359	14399.65
854.741	13752.41
855.122	13682.14
855.503	13500.99
855.884	13598.74
856.265	13566.73
856.646	13638.16
857.026	13375.06
857.407	13322.75
857.788	13415.1
858.169	13590.65
858.549	13030.67
858.93	13428.47
859.31	13453.99
859.69	13583.46
860.071	13313.25
860.451	13163.69
860.831	12678.5
861.211	13413.74
861.591	13741.72
861.971	13707.77
862.351	13813.51
862.731	14030.98
863.111	14166.23
863.491	14342.57
863.87	14859.37
864.25	15046.34
864.629	14768.41
865.009	15061.27
865.388	15564.97
865.768	16659.33
866.147	16570.69
866.526	15632.38
866.905	15814.72
867.284	16688.41
867.663	15852.13
868.042	15199.43
868.421	15149.08
868.8	15390.92
869.179	15537.37
869.558	14627.34
869.936	13483.06
870.315	13721.69
870.693	14052.02
871.072	15147.76
871.45	14425.38
871.828	14595.97
872.207	15333.35
872.585	15094.64
872.963	15503
873.341	14971.78
873.719	14788.95
874.097	14607.71
874.475	14871.08
874.853	15212.37
875.23	14564.1
875.608	15174.8
875.986	16407.94
876.363	15683.52
876.741	16163.21
877.118	15751.86
877.495	16509.29
877.873	16775.76
878.25	17641.84
878.627	16910.42
879.004	17136.69
879.381	17043.93
879.758	16583
880.135	15429.65
880.512	16311.1
880.889	15857.85
881.265	15682.31
881.642	15541.08
882.019	15803.71
882.395	15476.72
882.772	16090.15
883.148	15376.24
883.524	15312.21
883.901	15203.9
884.277	15426.34
884.653	15307.42
885.029	15737.57
885.405	17417.01
885.781	17275.38
886.157	16535.3
886.532	16724.49
886.908	16709.49
887.284	18568.55
887.659	19171.21
888.035	19763.62
888.411	20265.33
888.786	20545.84
889.161	21249.63
889.537	20837.66
889.912	21474.71
890.287	21448.97
890.662	21980.33
891.037	21548.1
891.412	20073.47
891.787	19839.31
892.162	19124.05
892.536	19528.48
892.911	18748.61
893.286	18314.85
893.66	17540.53
894.035	17961.73
894.409	19504.81
894.784	18676.64
895.158	18941.77
895.532	20014.46
895.906	20512.38
896.281	20947.84
896.655	20575.05
897.029	23459.46
897.402	24386.99
897.776	27095.72
898.15	26952.44
898.524	26642.49
898.898	26949.26
899.271	30153.18
899.645	26083.91
900.018	25047.92
900.392	25952.66
900.765	26162.63
901.138	24240.8
901.511	23884.41
901.884	21957.18
902.258	20279.62
902.631	20975.14
903.003	24171.82
903.376	21815.67
903.749	24500.31
904.122	26221.76
904.495	28883.41
904.867	29218.91
905.24	25336.79
905.612	23560.13
905.985	24071.56
906.357	25127.37
906.729	23945.01
907.102	20424.62
907.474	19618.94
907.846	19709.41
908.218	19429.33
908.59	17146.36
908.962	16581.21
909.334	17834.52
909.705	18726.3
910.077	18152.96
910.449	18879.46
910.82	19394.32
911.192	21324.58
911.563	22153.31
911.935	23694.46
912.306	23710.08
912.677	24476.54
913.048	24207.34
913.419	26242.19
913.79	26375.43
914.161	28278.01
914.532	27038.88
914.903	24844.31
915.274	23586.5
915.645	23237.95
916.015	20447.77
916.386	19497.53
916.756	20777.87
917.127	21460.54
917.497	19185.73
917.868	20899.59
918.238	19878.73
918.608	20449.73
918.978	20882.58
919.348	22144.94
919.718	22911.65
920.088	22082.31
920.458	22953.68
920.828	24145.73
921.198	22877.27
921.567	24438.91
921.937	18912.84
922.306	19076.18
922.676	20566.94
923.045	17158.95
923.415	16290.92
923.784	14833.83
924.153	15254.61
924.522	15239.11
924.891	14308.3
925.26	15322.65
925.629	14955.75
925.998	17181.22
926.367	16760.51
926.736	15954.65
927.104	18976.08
927.473	20358.75
927.842	24498.56
928.21	24215.08
928.578	25380.41
928.947	23946.43
929.315	24030.05
929.683	28099.36
930.051	28254.51
930.42	32712.96
930.788	27871.76
931.156	27569.02
931.523	25810.44
931.891	23810.24
932.259	22809.55
932.627	26391.78
932.994	37269.56
933.362	30751.77
933.729	26681
934.097	25493.81
934.464	21559.96
934.831	24840.83
935.199	24476.62
935.566	23708.62
935.933	23992.44
936.3	29071.14
936.667	22622.99
937.034	20478.64
937.401	20290.77
937.767	17539.07
938.134	15631.17
938.501	22112.49
938.867	23631.83
939.234	39985.96
939.6	34173.36
939.967	37793.49
940.333	25322.42
940.699	21633.1
941.065	17328.43
941.431	22719.47
941.798	21920.18
942.163	28828.32
942.529	18003.32
942.895	16555.76
943.261	10736.51
943.627	14083.46
943.992	12328.88
944.358	12347.08
944.723	12390.38
945.089	12077.83
945.454	11175.41
945.82	11933.93
946.185	11472.13
946.55	13252.95
946.915	11899.6
947.28	13967.49
947.645	12292.43
948.01	11365.07
948.375	11847.88
948.74	14165.63
949.104	16505.76
949.469	23804.69
949.834	41966.41
950.198	39810.07
950.562	23897.82
950.927	19884.06
951.291	23887.86
951.655	20352.95
952.02	19053.18
952.384	14415.44
952.748	12571.24
953.112	12295.02
953.476	10682.56
953.839	9883.09
954.203	9789.79
954.567	12225.96
954.931	19245.98
955.294	16483.87
955.658	16560.94
956.021	28205.93
956.385	47758.98
956.748	70495.02
957.111	108998.8
957.474	122332.13
957.837	137640.89
958.2	104116.39
958.563	37510.2
958.926	25365.86
959.289	38480.22
959.652	43018.65
960.015	32279.05
960.377	46418.31
960.74	52972.54
961.102	91558.12
961.465	98488.05
961.827	52983.01
962.189	101561.09
962.552	70450.59
962.914	56503.7
963.276	36652.23
963.638	30301.2
964	29969.14
964.362	20240.96
964.724	19564.2
965.085	13969.46
965.447	11458.45
965.809	13005.54
966.17	13017.87
966.532	14067.01
966.893	12932.47
967.255	11764.02
967.616	13889.63
967.977	11152.66
968.338	12208.38
968.699	10051.09
969.061	10050.57
969.421	10125.86
969.782	11395.2
970.143	9648.87
970.504	10031.13
970.865	11416.09
971.225	11701.97
971.586	11460.7
971.946	16336.07
972.307	14165.51
972.667	18499.76
973.027	19038.51
973.388	23056.18
973.748	15684.77
974.108	17090.57
974.468	23073.71
974.828	17793.44
975.188	13684.48
975.548	12554.39
975.907	10540.21
976.267	11796.61
976.627	9921.37
976.986	10284.44
977.346	9792.46
977.705	9407.47
978.064	8554.25
978.424	7111.56
978.783	7323.75
979.142	8333.09
979.501	7991.16
979.86	8443.48
980.219	8157.47
980.578	10509.08
980.937	11781.68
981.296	10520
981.654	10824.88
982.013	16842.04
982.371	21903.72
982.73	20537.4
983.088	23294.64
983.447	24900.67
983.805	35608.01
984.163	74397.67
984.521	82497.63
984.879	120748.5
985.237	-196236.46
985.595	189227.66
985.953	47072.16
986.311	27154.92
986.669	15726.25
987.026	13561.29
987.384	18220.64
987.741	18833.77
988.099	13485.59
988.456	10762.25
988.814	10103.67
989.171	8816.55
989.528	8687.79
989.885	9152.62
990.242	7253.97
990.599	9034.5
990.956	7423.4
991.313	5196.73
991.67	4265.65
992.027	4536.39
992.383	4032.22
992.74	3537.18
993.096	3703.89
993.453	3842.55
993.809	3994.14
994.165	5314.98
994.522	4899.52
994.878	5388.73
995.234	6762.63
995.59	6666.92
995.946	6265.96
996.302	7155.94
996.658	8263.05
997.013	9084.18
997.369	10809.33
997.725	13811.41
998.08	8961.07
998.436	13781.84
998.791	19025.4
999.147	18944.46
999.502	20650.68
999.857	15063.71
1000.212	24594.41
1000.567	35044.4
1000.922	20268.93
1001.277	12895.98
1001.632	9592.98
1001.987	12376.21
1002.342	8830.04
1002.696	7082.48
1003.051	5680.43
1003.406	6886.54
1003.76	6824.13
1004.114	6707.96
1004.469	5625.75
1004.823	4655.79
1005.177	5002.2
1005.531	3967.53
1005.885	3525.83
1006.239	4000.84
1006.593	5012.54
1006.947	6692.03
1007.301	5033.83
1007.655	5494.66
1008.008	4042.83
1008.362	4549.49
1008.715	6499.63
1009.069	5927.3
1009.422	8924.06
1009.776	17938.21
1010.129	11870.21
1010.482	9899.89
1010.835	8394.38
1011.188	17414.74
1011.541	16487.93
1011.894	-100676.45
1012.247	297892.24
1012.6	20214.27
1012.952	12775.96
1013.305	6566.34
1013.657	4714.79
1014.01	4493.11
1014.362	3720.43
1014.715	3301.94
1015.067	2894.13
1015.419	2827.23
1015.771	2513.31
1016.123	2234.29
1016.475	2306.57
1016.827	2459.04
1017.179	2662.38
1017.531	2686.77
1017.883	2724.58
1018.234	2632.73
1018.586	3330.7
1018.938	3545.24
1019.289	4903.42
1019.64	5611.04
1019.992	5218.18
1020.343	4771.38
1020.694	3778.53
1021.045	3318.23
1021.396	3786.31
1021.747	4090.07
1022.098	4897.15
1022.449	3546.29
1022.8	3286.38
1023.151	2298.73
1023.501	2049.88
1023.852	2223.75
1024.202	2316.6
1024.553	2539.5
1024.903	2518.27
1025.253	2168.09
1025.604	1957.67
1025.954	2419.84
1026.304	2967.25
1026.654	3459.23
1027.004	5068.16
1027.354	8152.67
1027.703	7668.63
1028.053	10071.81
1028.403	14816.28
1028.753	21197.88
1029.102	28408.42
1029.452	144488.83
1029.801	6243.34
1030.15	3998.69
1030.499	3361.03
897.758	2149.91
901.051	2085.23
904.343	2118.85
907.636	2124.66
910.928	2185.79
914.22	2107.56
917.511	2110.38
920.803	2158.8
924.094	2156.26
927.384	2159.84
930.675	2126.23
933.965	2090.63
937.255	2117.85
940.544	2086.58
943.834	2084.89
947.123	2025.21
950.411	2112.83
953.7	2093.8
956.988	2078.68
960.276	2013.67
963.563	2063.73
966.851	2069.47
970.138	2110.1
973.424	2114.07
976.711	2067.71
979.997	2114.4
983.283	2157.26
986.568	2088.08
989.853	2079.03
993.138	2105.87
996.423	2191.07
999.708	2147.27
1002.992	2180.37
1006.275	2102.64
1009.559	2107.31
1012.842	2204.95
1016.125	2158.98
1019.408	2140.34
1022.69	2192.68
1025.972	2227.41
1029.254	2202.41
1032.536	2166.35
1035.817	2174.27
1039.098	2143.51
1042.379	2187.02
1045.659	2212.95
1048.939	2163.72
1052.219	2169.69
1055.498	2163.34
1058.778	2162.1
1062.057	2137.1
1065.335	2158.73
1068.614	2167.87
1071.892	2165.94
1075.17	2217.88
1078.447	2221.21
1081.724	2216.65
1085.001	2238.35
1088.278	2218.03
1091.554	2224.43
1094.83	2217.72
1098.106	2253.5
1101.382	2284.2
1104.657	2286.59
1107.932	2283.74
1111.206	2263.5
1114.481	2215.79
1117.755	2214.95
1121.029	2209.9
1124.302	2269.85
1127.575	2234.93
1130.848	2234.35
1134.121	2204.02
1137.393	2166.73
1140.665	2220.32
1143.937	2200.91
1147.208	2148.21
1150.48	2206.82
1153.75	2193.15
1157.021	2196.09
1160.291	2171.43
1163.561	2223.47
1166.831	2191.35
1170.101	2217.93
1173.37	2178.05
1176.639	2136.13
1179.907	2181.6
1183.176	2205.47
1186.444	2204.35
1189.711	2231.49
1192.979	2255.39
1196.246	2215.27
1199.513	2224.74
1202.78	2230.03
1206.046	2239.03
1209.312	2268.36
1212.578	2286.45
1215.843	2252.57
1219.108	2221.05
1222.373	2246.02
1225.638	2219.33
1228.902	2209.01
1232.166	2165.84
1235.43	2156.59
1238.693	2183.66
1241.956	2173.16
1245.219	2218.7
1248.482	2204.15
1251.744	2201.07
1255.006	2318.06
1258.268	2265.59
1261.529	2222.33
1264.79	2223.78
1268.051	2318.2
1271.312	2326.9
1274.572	2294.93
1277.832	2285.49
1281.092	2266.98
1284.351	2256.44
1287.61	2241.84
1290.869	2180.07
1294.128	2177.76
1297.386	2224.28
1300.644	2216.92
1303.902	2225.3
1307.159	2098.2
1310.416	2148.99
1313.673	2176.1
1316.93	2172.88
1320.186	2204.34
1323.442	2237.29
1326.697	2238.28
1329.953	2213.66
1333.208	2251.49
1336.463	2221.64
1339.717	2185.66
1342.972	2293.62
1346.226	2263.51
1349.479	2214.86
1352.733	2196.87
1355.986	2202.09
1359.238	2182.53
1362.491	2189.08
1365.743	2187.29
1368.995	2177.48
1372.247	2195.21
1375.498	2214.39
1378.749	2252.17
1382	2205.82
1385.251	2240.56
1388.501	2193.59
1391.751	2192.34
1395	2161.03
1398.25	2186.77
1401.499	2211.08
1404.748	2161.85
1407.996	2138.28
1411.244	2127.86
1414.492	2113.34
1417.74	2097.8
1420.987	2102.67
1424.234	2161.67
1427.481	2125.84
1430.728	2180.81
1433.974	2154.37
1437.22	2150.78
1440.465	2148.04
1443.711	2147.62
1446.956	2171.69
1450.201	2141.79
1453.445	2184.3
1456.689	2172.38
1459.933	2183.76
1463.177	2222.66
1466.42	2195.33
1469.663	2181.82
1472.906	2197.33
1476.148	2244.17
1479.391	2215.63
1482.633	2189.8
1485.874	2217.06
1489.115	2222.72
1492.356	2204.11
1495.597	2184.51
1498.838	2176.18
1502.078	2163.11
1505.318	2132.66
1508.557	2167.32
1511.797	2161.29
1515.036	2207.62
1518.274	2179.59
1521.513	2131.48
1524.751	2142.01
1527.989	2167.8
1531.227	2183.09
1534.464	2198.06
1537.701	2192.13
1540.938	2203.69
1544.174	2152.73
1547.41	2143.94
1550.646	2180.46
1553.882	2229.02
1557.117	2284.72
1560.352	2292.7
1563.587	2255.84
1566.821	2224.3
1570.055	2238.59
1573.289	2220.37
1576.523	2277.86
1579.756	2291.81
1582.989	2315.31
1586.222	2274.15
1589.454	2302.4
1592.686	2288.65
1595.918	2316.89
1599.15	2313.85
1602.381	2359.32
1605.612	2340.98
1608.843	2431.98
1612.073	2355.15
1615.303	2343.16
1618.533	2340.54
1621.762	2337.74
1624.992	2314.14
1628.221	2314.81
1631.449	2302.43
1634.678	2329.2
1637.906	2295.78
1641.134	2322.48
1644.361	2288.4
1647.588	2279.48
1650.815	2299.26
1654.042	2264.59
1657.269	2294.43
1660.495	2272.31
1663.72	2260.39
1666.946	2230.47
1670.171	2204.91
1673.396	2177.65
1676.621	2161.31
1679.845	2157.41
1683.069	2164.52
1686.293	2194.49
1689.517	2183.91
1692.74	2136.39
1695.963	2158.25
1699.185	2196.14
1702.408	2170.88
1705.63	2198.68
1708.852	2218.35
1712.073	2188.76
1715.294	2201.3
1718.515	2242.49
1721.736	2202.24
1724.956	2183.16
1728.176	2204.01
1731.396	2227.75
1734.616	2212.44
1737.835	2247.92
1741.054	2220.62
1744.272	2212.04
1747.491	2251.96
1750.709	2272.89
1753.927	2223.23
1757.144	2248.14
1760.361	2306.14
1763.578	2281.48
1766.795	2229.72
1770.011	2218.95
1773.227	2242.83
1776.443	2284.78
1779.658	2327.16
1782.874	2267.46
1786.089	2261.6
1789.303	2264.6
1792.518	2259.18
1795.732	2245.08
1798.945	2262.25
1802.159	2302.07
1805.372	2248.29
1808.585	2243.1
1811.797	2242.41
1815.01	2262.31
1818.222	2285.77
1821.434	2245.9
1824.645	2286.62
1827.856	2298.79
1831.067	2328.19
1834.278	2267.07
1837.488	2251.86
1840.698	2370.89
1843.908	2313.62
1847.117	2282.67
1850.326	2212.41
1853.535	2270.69
1856.744	2304.76
1859.952	2230.05
1863.16	2232.25
1866.368	2243.53
1869.575	2351.69
1872.782	2237.17
1875.989	2173.3
1879.196	2221.35
1882.402	2213.42
1885.608	2244.11
1888.814	2187.67
1892.019	2099.57
1895.224	2149
1898.429	2114.15
1901.634	2100.72
1904.838	2077.92
1908.042	2134.94
1911.246	2147.82
1914.449	2112.43
1917.652	2093.68
1920.855	2074.35
1924.058	2096.95
1927.26	2140.98
1930.462	2162.49
1933.664	2201.55
1936.865	2145.05
1940.066	2159.8
1943.267	2104.9
1946.467	2112.23
1949.668	2129.6
1952.868	2197.58
1956.067	2190.03
1959.267	2132.11
1962.466	2154.3
1965.665	2136.08
1968.863	2130.96
1972.061	2136.14
1975.259	2128.57
1978.457	2203.82
1981.654	2165.67
1984.852	2168.32
1988.048	2122.41
1991.245	2111.29
1994.441	2200.71
1997.637	2157.64
2000.833	2140.64
2004.028	2175.72
2007.223	2234.75
2010.418	2223.59
2013.613	2175.12
2016.807	2170.21
2020.001	2164.79
2023.194	2185.93
2026.388	2173.55
2029.581	2115.57
2032.774	2179.73
2035.966	2191.3
2039.158	2138.47
2042.35	2156.45
2045.542	2085.78
2048.733	2164.84
2051.924	2157.04
2055.115	2173.43
2058.306	2140.25
2061.496	2193.12
2064.686	2241.48
2067.875	2147.59
2071.065	2151.18
2074.254	2168.48
2077.442	2124.58
2080.631	2204.11
2083.819	2137.92
2087.007	2131.08
2090.195	2116.65
2093.382	2132.32
2096.569	2115.13
2099.756	2078.17
2102.942	2126.8
2106.128	2139.38
2109.314	2127.83
2112.5	2114.32
2115.685	2082.94
2118.87	2091.16
2122.055	2148.81
2125.239	2129.08
2128.424	2117.24
2131.608	2175.43
2134.791	2160.54
2137.974	2196.1
2141.157	2184.6
2144.34	2157.93
2147.523	2147.62
2150.705	2173.73
2153.887	2141.85
2157.068	2117.04
2160.25	2095.32
2163.431	2118.87
2166.611	2089.56
2169.792	2110.95
2172.972	2026.34
2176.152	2073.36
2179.331	2100.83
2182.511	2104.31
2185.69	2125.71
2188.868	2131.22
2192.047	2163.74
2195.225	2184.39
2198.403	2132.34
2201.58	2118.44
2204.758	2104.82
2207.935	2177.62
2211.111	2097.85
2214.288	2085.21
2217.464	2121.37
2220.64	2076.36
2223.815	2124.77
2226.991	2058.63
2230.166	2072.8
2233.34	2116.03
2236.515	2127.63
2239.689	2190.56
2242.863	2141.79
2246.036	2194.01
2249.209	2176.14
2252.382	2192.59
2255.555	2202.69
2258.727	2153.26
2261.9	2182.98
2265.071	2175.12
2268.243	2172.34
2271.414	2122.8
2274.585	2107.78
2277.756	2167.42
2280.926	2125.08
2284.096	2156.21
2287.266	2085.96
2290.436	2131.84
2293.605	2151.21
2296.774	2188.15
2299.942	2191.57
2303.111	2205.96
2306.279	2258.26
2309.447	2242.19
2312.614	2213.73
2315.781	2239.71
2318.948	2216.25
2322.115	2254.2
2325.281	2155.04
2328.447	2163.25
2331.613	2134.72
2334.779	2128.13
2337.944	2124.91
2341.109	2126.82
2344.274	2116.67
2347.438	2083.59
2350.602	2103.03
2353.766	2111.1
2356.929	2100.46
2360.092	2138.94
2363.255	2110.26
2366.418	2077.64
2369.58	2139.34
2372.742	2020.59
2375.904	2011.71
2379.066	1997.18
2382.227	2022.54
2385.388	1984.5
2388.548	1938.52
2391.709	1978.21
2394.869	1966.65
2398.029	2018.86
2401.188	2013.3
2404.347	1981.21
2407.506	2053.13
2410.665	2095.79
2413.823	2081.03
2416.981	2061.62
2420.139	2079.08
2423.296	2116.8
2426.453	2091.57
2429.61	2112.45
2432.767	2085.2
2435.923	2125.61
2439.079	2070.81
2442.235	2102.7
2445.391	2044.51
2448.546	2086.02
2451.701	2118.38
2454.855	2115.68
2458.009	2144.02
2461.163	2129.09
2464.317	2103.55
2467.471	2129.11
2470.624	2154.95
2473.777	2146.32
2476.929	2164.44
2480.082	2188.3
2483.234	2163.48
2486.385	2106.11
2489.537	2098.88
2492.688	2089.09
2495.839	2109.53
2498.989	2123.14
2502.14	2108.44
2505.29	2104.5
2508.439	2124.02
2511.589	2066.64
2514.738	2063.4
2517.887	2086.24
2521.035	2161.05
2524.183	2119.16
2527.331	2107.94
2530.479	2100.87
2533.627	2101.48
