Data from C_1_DIV_WI_4N_Splice17_11-48-21-308.txt Node
Date: Sat Mar 14 11:48:21 EDT 2020
User: sa697716
Spectrometer: FLMS03696
Trigger mode: 0
Integration Time (sec): 3.180400E-1
Scans to average: 20
Electric dark correction enabled: true
Nonlinearity correction enabled: true
Boxcar width: 5
XAxis mode: Wavelengths
Number of Pixels in Spectrum: 2048
>>>>>Begin Spectral Data<<<<<
187.83	-247740.99
188.298	1804.67
188.766	944.17
189.233	827.55
189.701	1176.68
190.169	1564.02
190.636	559.75
191.104	443.72
191.571	67.51
192.039	-65.25
192.506	-153.36
192.974	252.91
193.441	-376.86
193.908	-111.79
194.375	-74.69
194.842	-40.99
195.31	-56.25
195.777	92.74
196.244	290.3
196.711	419.62
197.177	564.08
197.644	816.83
198.111	1427.27
198.578	2007.4
199.045	1615.59
199.511	2670.61
199.978	3169.4
200.445	2730.34
200.911	3035.12
201.378	3440.85
201.844	3133.22
202.31	5327.6
202.777	5553.53
203.243	3108.48
203.709	2973.71
204.176	3557.61
204.642	2918.8
205.108	2718.8
205.574	2208.48
206.04	2008.73
206.506	1869.87
206.972	1762.98
207.438	1699.91
207.903	1951.63
208.369	1718.31
208.835	1710.48
209.301	1802.2
209.766	1868.95
210.232	1865.14
210.697	2326.04
211.163	2919.56
211.628	4453.32
212.094	3796.82
212.559	4711.01
213.024	2928.06
213.49	3585.33
213.955	3535.62
214.42	3487.4
214.885	3286.95
215.35	3156.79
215.815	3007.67
216.28	3213.8
216.745	2654.99
217.21	2919.35
217.675	2735.5
218.14	3153.09
218.604	3626.46
219.069	4238.03
219.534	4516.47
219.998	5368.11
220.463	6639.58
220.927	8409.25
221.392	8029.14
221.856	8229.75
222.32	10507.82
222.785	13104.87
223.249	16620.47
223.713	18656.41
224.177	18798.1
224.642	24344.32
225.106	30127.44
225.57	33077.5
226.034	24597.75
226.497	37526.84
226.961	33919.21
227.425	39526.26
227.889	43939.4
228.353	44049.54
228.816	91177.26
229.28	87263.98
229.744	73609.88
230.207	44734.32
230.671	44047.45
231.134	73048.85
231.597	84267.68
232.061	84482.76
232.524	82447.89
232.987	56823.65
233.45	51073.08
233.914	45797.39
234.377	46928.84
234.84	42946.59
235.303	50660.5
235.766	56488.89
236.229	58402.88
236.691	36799.61
237.154	41326.9
237.617	31072.61
238.08	31803.06
238.542	37240.06
239.005	26601.77
239.468	26401.67
239.93	24879.95
240.393	22587.07
240.855	19824.9
241.317	20294.94
241.78	24690.53
242.242	25482.22
242.704	27472.08
243.166	23926.73
243.629	21701.34
244.091	24992.42
244.553	27367.32
245.015	29409.57
245.477	38059.74
245.939	55826.28
246.4	59202.81
246.862	57521.76
247.324	54250.61
247.786	60760.48
248.247	79611.92
248.709	82329.62
249.17	61608.73
249.632	58012.01
250.093	67154.51
250.555	57957.28
251.016	35305.55
251.477	33496.5
251.939	36141.8
252.4	37893.72
252.861	45053.85
253.322	41886.14
253.783	49847.54
254.244	64567.26
254.705	50924.38
255.166	45298.19
255.627	44592.32
256.088	62772.97
256.549	66630.3
257.009	57390.88
257.47	69709.47
257.931	56764.58
258.391	42539.81
258.852	43812.92
259.312	45958.17
259.773	56781.44
260.233	47972.31
260.694	40432.29
261.154	45959.94
261.614	36872.81
262.074	32980.46
262.534	34239.51
262.994	32287.88
263.455	43048.19
263.915	36279.82
264.374	34165.52
264.834	37324.1
265.294	41404.81
265.754	42922.45
266.214	40628.84
266.673	38091.57
267.133	48074.68
267.593	47680.79
268.052	58318.19
268.512	50689.55
268.971	61047.85
269.431	66962.12
269.89	59920.75
270.349	89741.5
270.809	99932.06
271.268	89750.12
271.727	201183.84
272.186	130274.9
272.645	97663.78
273.104	70454.27
273.563	101957.27
274.022	80218.83
274.481	68148.52
274.94	52440.97
275.399	38980.55
275.857	45388.27
276.316	61369.24
276.775	54584.38
277.233	53678.41
277.692	50186.33
278.15	56678.03
278.609	58227.48
279.067	53843.7
279.525	49979.2
279.984	64509.75
280.442	77373.06
280.9	76092.26
281.358	49996.89
281.816	46524.72
282.274	45546.16
282.732	47045.74
283.19	47227.86
283.648	40729.12
284.106	43338.03
284.564	44045.46
285.021	40773.37
285.479	30376.52
285.937	27668.31
286.394	24237.18
286.852	24937.57
287.309	26142.18
287.767	25205.09
288.224	23942.97
288.682	26230.66
289.139	28754.8
289.596	26272.08
290.053	27310.13
290.511	34443.54
290.968	41698.41
291.425	56627.48
291.882	47026.98
292.339	40912.03
292.796	40622.17
293.252	38264.6
293.709	30370.93
294.166	27192.07
294.623	30026.3
295.079	28782.44
295.536	28871.12
295.992	26202.84
296.449	25874.13
296.905	26864.84
297.362	25744.22
297.818	27035.7
298.274	28022.86
298.731	28552.48
299.187	28233.03
299.643	30280.76
300.099	36578.82
300.555	40091.17
301.011	33457.86
301.467	32175.5
301.923	37667.44
302.379	36720.55
302.835	36040.68
303.291	36051.64
303.746	41016.06
304.202	51748.49
304.658	51926.07
305.113	34923.11
305.569	34184.05
306.024	36420.31
306.479	34707.08
306.935	29205.86
307.39	31885.15
307.845	29417.14
308.301	29543.44
308.756	28756.9
309.211	27712.15
309.666	28351.73
310.121	35116.48
310.576	35605.86
311.031	35288.78
311.486	40360.04
311.94	40326.09
312.395	53946.56
312.85	101240.17
313.305	498033.56
313.759	2570725.93
314.214	185820.1
314.668	147266.7
315.123	123728.69
315.577	44392.8
316.032	39427.54
316.486	49416.55
316.94	38895.43
317.394	27034.55
317.849	21020.55
318.303	19863.72
318.757	18729.84
319.211	20699.89
319.665	18090.41
320.119	18289.22
320.572	26174.85
321.026	24420.92
321.48	20299.76
321.934	22166
322.387	22200.92
322.841	23959.73
323.295	21502.12
323.748	24794.2
324.202	25123.54
324.655	30146.63
325.108	42085.24
325.562	29684.35
326.015	35296.19
326.468	26645.52
326.921	29719.88
327.374	27657.13
327.827	28739.77
328.28	32504.43
328.733	21736.35
329.186	19100.1
329.639	18175.19
330.092	15298.6
330.545	14568.18
330.997	14669.74
331.45	15997.06
331.903	18725.19
332.355	32204.8
332.808	31272.57
333.26	25826.57
333.713	28018.81
334.165	28213.08
334.617	37718.78
335.069	30518.92
335.522	55211.09
335.974	61042.9
336.426	55742.65
336.878	38621.14
337.33	19586.1
337.782	19111.78
338.234	23830.86
338.686	28471.1
339.137	33712.5
339.589	31703.04
340.041	24821.93
340.493	21329.79
340.944	21851.91
341.396	23542.62
341.847	19767.4
342.299	23280.49
342.75	28406.53
343.201	24865.19
343.653	28614.49
344.104	35169.31
344.555	27650.63
345.006	42988.25
345.457	32812.74
345.908	26087.34
346.359	24501.59
346.81	19941.66
347.261	21001.71
347.712	20649.13
348.163	22101.19
348.613	22312.19
349.064	20798.21
349.515	18216.01
349.965	18654.54
350.416	22478.45
350.866	24622.97
351.317	27854.18
351.767	46077.51
352.217	58183.67
352.668	48248.24
353.118	44170.88
353.568	42612.5
354.018	33658.99
354.468	35440.05
354.918	25391.19
355.368	22181.82
355.818	31341.91
356.268	90030.15
356.718	376517.07
357.168	93646.38
357.617	47000.56
358.067	52351.72
358.517	49011.06
358.966	57358.89
359.416	64181.99
359.865	69371.56
360.315	82537.26
360.764	38468.01
361.213	21564.61
361.663	20412.68
362.112	25161.12
362.561	40634.82
363.01	30604.49
363.459	25771.4
363.908	27890.48
364.357	23725.38
364.806	40075.91
365.255	27615.76
365.703	25296.22
366.152	25286.38
366.601	20532.5
367.05	16669.06
367.498	15145.68
367.947	15844.62
368.395	16487.02
368.844	14620.46
369.292	17644.17
369.74	12205.41
370.189	18685.44
370.637	21911.32
371.085	18970.29
371.533	23139.94
371.981	22322.91
372.429	21286.91
372.877	22204.87
373.325	18603.89
373.773	18995.73
374.221	16944.26
374.669	21054.27
375.116	18260.94
375.564	18457.94
376.012	20670.07
376.459	17070.73
376.907	20462.69
377.354	24827.89
377.801	23182.42
378.249	26684.61
378.696	34220.16
379.143	41521.01
379.591	44499.2
380.038	75279.49
380.485	54602.76
380.932	59129.06
381.379	54256.59
381.826	40010.59
382.273	28536.61
382.72	25093.84
383.166	24504.91
383.613	15936.6
384.06	14415.09
384.506	16682.26
384.953	12309.32
385.4	12434.04
385.846	10916.07
386.292	10676.33
386.739	10503.97
387.185	10407.54
387.631	10401.31
388.078	10115.37
388.524	10835.54
388.97	10014.39
389.416	8365.15
389.862	8898.64
390.308	8435.66
390.754	8591.64
391.2	9329.65
391.645	9538.38
392.091	9113.48
392.537	8822.9
392.983	8832.2
393.428	8669.45
393.874	9303.04
394.319	9323.44
394.765	8824.57
395.21	9045.52
395.655	8459.45
396.101	7911.12
396.546	7142.56
396.991	7207.7
397.436	6688.67
397.881	6469.01
398.326	6132.7
398.771	5777.06
399.216	5047.42
399.661	4540.68
400.106	4520.96
400.551	4614.56
400.995	4130.84
401.44	4073.85
401.885	3819.84
402.329	3849.76
402.774	3676.54
403.218	3543.13
403.663	3409.4
404.107	3499.17
404.551	3514.15
404.995	3216.18
405.44	3092.15
405.884	3135.54
406.328	3028.58
406.772	3015.09
407.216	2738.32
407.66	2645.07
408.104	2511.85
408.547	2348.97
408.991	2265.61
409.435	2176.49
409.879	2140.12
410.322	2110.07
410.766	2032.37
411.209	1926.25
411.653	1844.25
412.096	1801.36
412.54	1799.01
412.983	1782.08
413.426	1782.08
413.869	1779.34
414.312	1742.79
414.756	1676.24
415.199	1592.6
415.642	1540.33
416.085	1538.27
416.527	1522.27
416.97	1540.78
417.413	1459.23
417.856	1439.98
418.298	1422.27
418.741	1408.49
419.184	1405.31
419.626	1461.94
420.069	1463.29
420.511	1470.73
420.953	1440.67
421.396	1426.81
421.838	1390.42
422.28	1420.31
422.722	1426.93
423.164	1446.94
423.606	1421.83
424.048	1418.68
424.49	1347.91
424.932	1340.17
425.374	1322.28
425.816	1342.26
426.258	1365.19
426.699	1379.64
427.141	1357.2
427.582	1375.33
428.024	1366.82
428.465	1357.63
428.907	1320.94
429.348	1302.94
429.789	1299.78
430.231	1269.46
430.672	1285.39
431.113	1257.21
431.554	1238.32
431.995	1209.83
432.436	1167.52
432.877	1139.68
433.318	1118
433.759	1112.19
434.2	1112.71
434.64	1102.43
435.081	1103.56
435.522	1045.71
435.962	1006.26
436.403	981.58
436.843	992.78
437.284	972.35
437.724	946.19
438.164	949.18
438.604	926.73
439.045	889.18
439.485	850.9
439.925	832.81
440.365	811.92
440.805	801.4
441.245	792.39
441.685	761.92
442.125	754.94
442.564	759.59
443.004	741.78
443.444	739.23
443.883	739.85
444.323	733.58
444.762	735.16
445.202	743.1
445.641	753.99
446.081	749.25
446.52	754.44
446.959	744.49
447.398	725.23
447.837	717.28
448.276	704.93
448.716	711.33
449.154	716.63
449.593	699.12
450.032	696.27
450.471	682.63
450.91	682.17
451.349	679.96
451.787	677.63
452.226	685.83
452.664	683.34
453.103	684.04
453.541	682.22
453.98	679.98
454.418	683.49
454.856	671.97
455.295	671.15
455.733	675.66
456.171	677.69
456.609	678.84
457.047	678.79
457.485	688.86
457.923	690
458.361	680.31
458.798	683.66
459.236	681.65
459.674	686.23
460.111	689.27
460.549	683.06
460.987	681.12
461.424	678.2
461.862	675.36
462.299	664.8
462.736	663.53
463.173	665.9
463.611	658.23
464.048	656.34
464.485	662.15
464.922	655.37
465.359	650.88
465.796	642.12
466.233	636.68
466.67	631.9
467.106	630.04
467.543	623
467.98	614.85
468.416	599.06
468.853	594.83
469.29	576.03
469.726	569.31
470.162	554.29
470.599	547.55
471.035	542.47
471.471	528.69
471.907	525.6
472.344	521.68
472.78	521.65
473.216	526.71
473.652	520.09
474.088	518.12
474.523	516.56
474.959	521.05
475.395	515.13
475.831	510.79
476.266	510.69
476.702	507.74
477.138	502.29
477.573	500.27
478.008	497.59
478.444	497.57
478.879	500.93
479.314	501.22
479.75	499.67
480.185	500.94
480.62	504.75
481.055	507.36
481.49	510.27
481.925	516.45
482.36	524.39
482.795	537.78
483.229	552.85
483.664	564
484.099	566.15
484.534	574.35
484.968	578.93
485.403	580.77
485.837	579.89
486.271	578.64
486.706	578.73
487.14	572.03
487.574	562.39
488.009	556.57
488.443	551
488.877	555.68
489.311	557.23
489.745	563.28
490.179	567.29
490.613	577.2
491.046	580.53
491.48	583.59
491.914	583.9
492.348	587.26
492.781	589.25
493.215	590.41
493.648	590.45
494.082	593.6
494.515	592.73
494.948	597.69
495.382	599.51
495.815	602.59
496.248	606.24
496.681	614.92
497.114	623.23
497.547	630.05
497.98	639.5
498.413	643.8
498.846	650.03
499.279	655.32
499.711	658.23
500.144	659.06
500.577	666.05
501.009	673.21
501.442	679.4
501.874	679
502.306	680.25
502.739	684.72
503.171	694.7
503.603	696.42
504.036	704.06
504.468	707.33
504.9	715.31
505.332	720.22
505.764	723.07
506.196	728.38
506.627	739.42
507.059	749.35
507.491	755.18
507.923	753.52
508.354	765.02
508.786	772.95
509.217	786.3
509.649	798.25
510.08	812.6
510.512	825.97
510.943	838.11
511.374	847.82
511.805	864.24
512.237	881.19
512.668	907.6
513.099	929.65
513.53	952.74
513.961	970.86
514.391	997.15
514.822	1025.45
515.253	1054.93
515.684	1077.95
516.114	1102.74
516.545	1120.84
516.975	1143.62
517.406	1159.54
517.836	1163.19
518.267	1169.92
518.697	1187.44
519.127	1192.83
519.558	1200.45
519.988	1206.35
520.418	1216.17
520.848	1232.27
521.278	1241.75
521.708	1248.59
522.138	1261.49
522.567	1289.4
522.997	1312.19
523.427	1326.02
523.857	1342.51
524.286	1353.69
524.716	1368.15
525.145	1386.24
525.575	1398.05
526.004	1412.18
526.433	1418.56
526.863	1419.79
527.292	1413.12
527.721	1419.75
528.15	1426.24
528.579	1428.45
529.008	1438.66
529.437	1459.69
529.866	1472.27
530.295	1487.81
530.724	1500.32
531.152	1523.21
531.581	1536.4
532.01	1552.52
532.438	1559.61
532.867	1573.67
533.295	1590.86
533.723	1597.19
534.152	1596.28
534.58	1596.54
535.008	1583.81
535.436	1585.64
535.865	1593.93
536.293	1607.32
536.721	1622.54
537.149	1646.29
537.576	1649.2
538.004	1659.94
538.432	1667.48
538.86	1665.64
539.287	1672.79
539.715	1686.03
540.143	1688.8
540.57	1686.63
540.998	1685.23
541.425	1665.27
541.852	1646.63
542.28	1645.03
542.707	1631.68
543.134	1619.47
543.561	1615.54
543.988	1608.94
544.415	1607.58
544.842	1601.96
545.269	1593.87
545.696	1593.97
546.123	1605.18
546.549	1596.27
546.976	1583.91
547.403	1582.04
547.829	1581.81
548.256	1583.16
548.682	1579.33
549.108	1571.79
549.535	1570.6
549.961	1571.5
550.387	1559.6
550.813	1553.17
551.24	1557.67
551.666	1558.73
552.092	1550.04
552.518	1545.2
552.943	1539.31
553.369	1544.26
553.795	1548.05
554.221	1548.22
554.646	1545.01
555.072	1553.3
555.498	1556.03
555.923	1562.91
556.349	1574.01
556.774	1580.36
557.199	1578.81
557.625	1582.92
558.05	1576.5
558.475	1584.03
558.9	1582.16
559.325	1573.74
559.75	1566.54
560.175	1559.11
560.6	1551.17
561.025	1547.57
561.449	1545.95
561.874	1548.72
562.299	1550.74
562.723	1555.51
563.148	1546.23
563.572	1547.5
563.997	1554.35
564.421	1556.06
564.846	1554.67
565.27	1556.25
565.694	1551.9
566.118	1560.35
566.542	1565.13
566.966	1556.61
567.39	1549.39
567.814	1536.4
568.238	1533.88
568.662	1534.72
569.086	1534.6
569.509	1538.89
569.933	1524.25
570.357	1515.31
570.78	1495.64
571.204	1483.36
571.627	1472.56
572.05	1469.39
572.474	1468.11
572.897	1455.73
573.32	1449.3
573.743	1439.75
574.166	1422.83
574.589	1419.78
575.012	1412.7
575.435	1408.46
575.858	1398.06
576.281	1387.62
576.704	1373.48
577.126	1361.19
577.549	1350.49
577.972	1339.38
578.394	1329.2
578.817	1321.11
579.239	1305.18
579.661	1291.96
580.084	1278.03
580.506	1266.55
580.928	1261.57
581.35	1250.78
581.772	1245.26
582.194	1232.62
582.616	1220.42
583.038	1207.18
583.46	1196.54
583.882	1192.29
584.303	1194.36
584.725	1189.98
585.147	1189.85
585.568	1196.55
585.99	1204.5
586.411	1209.04
586.833	1218.59
587.254	1218.82
587.675	1229.48
588.096	1239.21
588.518	1233.95
588.939	1220.14
589.36	1217.89
589.781	1207.48
590.202	1185.11
590.623	1177.49
591.043	1173.91
591.464	1164.2
591.885	1161.75
592.305	1154.95
592.726	1142.94
593.147	1142.63
593.567	1136.56
593.987	1129.23
594.408	1124.82
594.828	1123.01
595.248	1117.16
595.669	1102.47
596.089	1095.79
596.509	1088.37
596.929	1077.73
597.349	1077.65
597.769	1069.24
598.189	1064.71
598.608	1065.6
599.028	1066.82
599.448	1065.68
599.867	1055.34
600.287	1051.7
600.706	1048.33
601.126	1041.19
601.545	1039.99
601.965	1038.78
602.384	1034.28
602.803	1036.47
603.222	1031.88
603.641	1027.04
604.061	1023.42
604.48	1020.59
604.898	1026.55
605.317	1029.22
605.736	1030.52
606.155	1028.65
606.574	1020.9
606.992	1024.26
607.411	1020.05
607.829	1013.06
608.248	1009.82
608.666	1007.34
609.085	1006.89
609.503	999.23
609.921	995.07
610.339	996.09
610.758	994.04
611.176	991.12
611.594	984.9
612.012	981.24
612.43	984.38
612.847	988.4
613.265	989.21
613.683	990.64
614.101	992.34
614.518	988.6
614.936	981.01
615.353	969.72
615.771	965.37
616.188	964.29
616.606	961.62
617.023	955.86
617.44	945.54
617.857	939.45
618.274	932.5
618.691	926.08
619.108	917.9
619.525	911.91
619.942	916.82
620.359	919.02
620.776	914.33
621.192	910.31
621.609	908.04
622.026	911.55
622.442	915.02
622.859	917.7
623.275	913.57
623.691	917.7
624.108	925.9
624.524	936.18
624.94	936.6
625.356	944.94
625.772	955.31
626.188	963.53
626.604	965.29
627.02	962.64
627.436	960.85
627.852	965.43
628.268	975.15
628.683	968.67
629.099	961.89
629.514	958.46
629.93	960.2
630.345	962.8
630.761	959.99
631.176	962.02
631.591	957.65
632.007	953.59
632.422	951.21
632.837	941.09
633.252	938.96
633.667	931.15
634.082	922.5
634.497	912.11
634.911	895.97
635.326	891.3
635.741	877.62
636.155	869.72
636.57	867.81
636.984	865.65
637.399	865.78
637.813	863.5
638.228	860.49
638.642	862.38
639.056	853.31
639.47	853.79
639.884	846.3
640.298	840.21
640.712	837.51
641.126	829.17
641.54	822.27
641.954	816.7
642.368	808.27
642.781	802.06
643.195	789.75
643.609	790.17
644.022	784.29
644.436	782.24
644.849	774.16
645.262	766.33
645.676	766.05
646.089	762.9
646.502	754.25
646.915	749.86
647.328	738.86
647.741	737.22
648.154	728.2
648.567	727.56
648.98	718.51
649.393	718.74
649.805	714.66
650.218	709.95
650.631	699.06
651.043	694.08
651.456	691.01
651.868	690.76
652.28	702.66
652.693	712.54
653.105	716.2
653.517	722.99
653.929	724.42
654.341	729.9
654.753	723.02
655.165	728.56
655.577	728.14
655.989	724.61
656.401	721.07
656.813	697.22
657.224	684.12
657.636	665.29
658.047	654.08
658.459	640.17
658.87	635.32
659.282	627.45
659.693	614.5
660.104	605.18
660.515	597.52
660.926	597.22
661.338	596.95
661.749	594.32
662.159	589.37
662.57	587.59
662.981	586.86
663.392	583.39
663.803	588.65
664.213	588.61
664.624	587.29
665.035	590.94
665.445	582.78
665.855	578.97
666.266	574.53
666.676	574.27
667.086	569.33
667.497	570.18
667.907	566.89
668.317	561.35
668.727	560.22
669.137	562.35
669.547	562.28
669.956	565.96
670.366	568.42
670.776	571.73
671.186	576.24
671.595	580.39
672.005	583.93
672.414	585.96
672.824	586.26
673.233	590.74
673.642	594.13
674.052	597.63
674.461	601.01
674.87	605.85
675.279	604.87
675.688	607.17
676.097	609.21
676.506	607.18
676.915	617.11
677.323	619.34
677.732	619.37
678.141	619.42
678.549	610.65
678.958	608.52
679.366	607.14
679.775	610.82
680.183	618.33
680.592	622.41
681	627.15
681.408	622.49
681.816	628.17
682.224	634.06
682.632	639.7
683.04	662.61
683.448	680.98
683.856	703.67
684.264	728.44
684.671	751.01
685.079	778.9
685.487	809.65
685.894	852.32
686.302	885.57
686.709	910.33
687.116	942.98
687.524	967.56
687.931	988.64
688.338	1006.28
688.745	1019.85
689.152	1038.36
689.559	1064.73
689.966	1092.27
690.373	1104.3
690.78	1132.45
691.187	1176.82
691.593	1210.16
692	1239.86
692.407	1284.19
692.813	1340.05
693.22	1387.19
693.626	1433.91
694.032	1473.87
694.439	1533.63
694.845	1582.37
695.251	1643.76
695.657	1701.91
696.063	1785.18
696.469	1849.93
696.875	1913.81
697.281	1954.35
697.687	2001.59
698.093	2046
698.498	2118.05
698.904	2177.08
699.31	2261.2
699.715	2326.1
700.12	2414.72
700.526	2443.44
700.931	2515.39
701.337	2573.21
701.742	2617.08
702.147	2703.15
702.552	2744.16
702.957	2810.61
703.362	2844.76
703.767	2884.67
704.172	2935.47
704.577	2907.1
704.981	2964.28
705.386	2994.94
705.791	3001.18
706.195	3081.33
706.6	3103.83
707.004	3191.93
707.408	3178.75
707.813	3215.44
708.217	3219.49
708.621	3234.91
709.025	3340.97
709.43	3355.67
709.834	3425.18
710.237	3503.99
710.641	3503.77
711.045	3538.46
711.449	3544.46
711.853	3585.6
712.256	3639.51
712.66	3688.88
713.064	3774.91
713.467	3827.14
713.87	3947.49
714.274	4005.83
714.677	4129.8
715.08	4302.71
715.484	4480.89
715.887	4695.44
716.29	4908.52
716.693	5130.57
717.096	5383.26
717.499	5530.84
717.901	5573.19
718.304	5616.68
718.707	5655.87
719.109	5565.29
719.512	5547.16
719.915	5423.06
720.317	5379.45
720.719	5433.44
721.122	5416.51
721.524	5379.82
721.926	5347.54
722.328	5461.24
722.731	5463.34
723.133	5503
723.535	5712.02
723.937	5741.55
724.338	5807.66
724.74	5856.69
725.142	5781.92
725.544	5786.18
725.945	5815.92
726.347	5819.57
726.748	5820.55
727.15	5843.63
727.551	5809.03
727.952	5788.96
728.354	5768.83
728.755	5777.58
729.156	5739.65
729.557	5751.52
729.958	5630.54
730.359	5583.96
730.76	5569.45
731.161	5510.99
731.562	5489.74
731.962	5503.1
732.363	5438.04
732.763	5374.52
733.164	5417.03
733.564	5353.9
733.965	5258.39
734.365	5226.99
734.766	5259.58
735.166	5223.31
735.566	5170.41
735.966	5146.03
736.366	5140.64
736.766	5079.3
737.166	5116.59
737.566	5075.8
737.966	5049.87
738.365	5094.72
738.765	5089.67
739.165	5011.58
739.564	4986.22
739.964	5034.36
740.363	4989.39
740.763	4990.39
741.162	4979.93
741.561	4946.03
741.96	4896.83
742.36	4919.61
742.759	4924
743.158	4966.19
743.557	4985.37
743.955	5029.55
744.354	4982.22
744.753	5043.1
745.152	4999.85
745.55	5059.77
745.949	5056.55
746.348	5058.75
746.746	5080.37
747.144	5040.12
747.543	5017.86
747.941	5071.73
748.339	4997.42
748.737	4990.39
749.136	4982.23
749.534	5052.59
749.932	5022.26
750.33	5047.28
750.727	5108.08
751.125	5082.31
751.523	5067.57
751.921	5115.6
752.318	5081.09
752.716	5145.05
753.113	5161.68
753.511	5188.23
753.908	5188.11
754.305	5168.95
754.703	5234.14
755.1	5300.51
755.497	5364.55
755.894	5567.73
756.291	5759.24
756.688	6109.74
757.085	6581.69
757.482	7242.63
757.878	7964.15
758.275	8616.2
758.672	9521.12
759.068	10258.3
759.465	11302.03
759.861	12653.57
760.258	14217.23
760.654	15031.64
761.05	14914.78
761.447	14232.07
761.843	13250.94
762.239	12236.4
762.635	11783.44
763.031	11341.83
763.427	10704
763.822	10042.27
764.218	9378.58
764.614	8523.13
765.01	7948.51
765.405	7574.3
765.801	7291.45
766.196	6931.53
766.592	6729.65
766.987	6391.42
767.382	6161.54
767.778	6065.4
768.173	5924.69
768.568	5847.9
768.963	5715.19
769.358	5732.45
769.753	5682.67
770.148	5591.97
770.542	5591.39
770.937	5561.3
771.332	5660.54
771.726	5681.51
772.121	5615.91
772.515	5672.43
772.91	5655.1
773.304	5731.81
773.699	5662.46
774.093	5721.13
774.487	5780.44
774.881	5827.83
775.275	5819.86
775.669	5774.43
776.063	5820.73
776.457	5854.01
776.851	5775.41
777.245	5769.56
777.638	5804.43
778.032	5929.28
778.425	5891.56
778.819	5934.82
779.212	5887.54
779.606	5842.4
779.999	5858.8
780.392	5843.39
780.786	5932.67
781.179	5952.79
781.572	5996.47
781.965	6009.65
782.358	5946.76
782.751	6007.87
783.143	5956.4
783.536	6036.51
783.929	6086.52
784.322	6210.42
784.714	6241.43
785.107	6236.53
785.499	6313.44
785.891	6289.42
786.284	6268.46
786.676	6421.06
787.068	6398.32
787.46	6455.44
787.852	6476.09
788.245	6570.97
788.636	6603.6
789.028	6675.82
789.42	6721.54
789.812	6730.66
790.204	6835.09
790.595	6939.09
790.987	6727.21
791.378	6753.86
791.77	6891.93
792.161	7037.37
792.553	7092.28
792.944	6972.81
793.335	6897.09
793.726	6970.53
794.117	7065.98
794.508	7211
794.899	7179.47
795.29	7327.79
795.681	7382.57
796.072	7227.76
796.463	7022.62
796.853	7029.18
797.244	7196.51
797.634	7233.49
798.025	7234.7
798.415	7248.11
798.806	7341.9
799.196	7430.16
799.586	7481.91
799.976	7438.07
800.366	7684.76
800.756	7945.14
801.146	7907.09
801.536	7936.73
801.926	8014.13
802.316	8041.5
802.706	8115.27
803.095	7982.81
803.485	8093.36
803.874	8139.48
804.264	8421.56
804.653	8394.4
805.043	8545.85
805.432	8660.41
805.821	8659.15
806.21	8679.06
806.599	8803.11
806.988	8848.52
807.377	8965.49
807.766	9100.5
808.155	9394.06
808.544	9112.36
808.933	9123.03
809.321	9102.07
809.71	9417.06
810.098	9586.47
810.487	10077.22
810.875	10585.45
811.264	10612.35
811.652	10913.81
812.04	11069.08
812.428	11245.7
812.816	12052.77
813.204	12496.92
813.592	13076.64
813.98	13430.66
814.368	13328.96
814.756	13832.63
815.144	13743.38
815.531	14228.54
815.919	14144.02
816.306	14464.57
816.694	14137.77
817.081	14191.82
817.469	14557.2
817.856	14553.54
818.243	14828.6
818.63	15246.52
819.017	14801.06
819.404	14864.55
819.791	15276.6
820.178	15932.99
820.565	16196.49
820.952	17182.06
821.339	16661.88
821.725	16854.63
822.112	16071.1
822.498	16029.54
822.885	16168.74
823.271	16077.49
823.657	16517.86
824.044	16517.9
824.43	16594.95
824.816	16559.57
825.202	16100.82
825.588	17174.94
825.974	17193.14
826.36	17743.85
826.746	17781.9
827.132	18155.83
827.517	18123.54
827.903	17297.59
828.289	17330.8
828.674	16509.32
829.06	16402.75
829.445	16815.74
829.83	17193.46
830.216	17694.46
830.601	18077.87
830.986	17651.9
831.371	17505.83
831.756	18101.81
832.141	17647.69
832.526	17650.53
832.911	17945.51
833.295	17821.85
833.68	18331.43
834.065	17671.9
834.449	16712.69
834.834	16633.38
835.218	16624.43
835.603	16985.73
835.987	16764.53
836.371	17649.28
836.755	17547.36
837.139	17976.19
837.524	18231.78
837.908	18037.51
838.291	18112.55
838.675	18184.76
839.059	18416.02
839.443	18413.22
839.827	18177.64
840.21	18686.73
840.594	18535.55
840.977	18751.24
841.361	18726.84
841.744	19126.98
842.127	18964.6
842.511	19229.17
842.894	19866.26
843.277	20264.37
843.66	20835.51
844.043	20924.86
844.426	20069.03
844.809	19735.64
845.191	19772.95
845.574	19295.84
845.957	18918.69
846.339	18807.42
846.722	18244.01
847.104	18319.52
847.487	18142.43
847.869	18153.09
848.252	18446.51
848.634	18799.43
849.016	19081.14
849.398	19210.25
849.78	20109.51
850.162	20106.13
850.544	20539.03
850.926	21212.19
851.307	21113.43
851.689	21402.77
852.071	21895.68
852.452	22230.86
852.834	22211.58
853.215	22628.38
853.597	22796.32
853.978	23108.61
854.359	23595.44
854.741	22546.89
855.122	22442.05
855.503	22140.19
855.884	22283.64
856.265	22214.72
856.646	22345.68
857.026	21925.23
857.407	21853.31
857.788	22014.73
858.169	22319.66
858.549	21405.34
858.93	22057.46
859.31	22104.53
859.69	22317.3
860.071	21890.47
860.451	21656.39
860.831	20870.72
861.211	22089.6
861.591	22678.66
861.971	22648.99
862.351	22842.7
862.731	23264.29
863.111	23544.85
863.491	23886.13
863.87	24815.29
864.25	25178.28
864.629	24745
865.009	25290.23
865.388	26193.82
865.768	28065.61
866.147	27954.77
866.526	26412.93
866.905	26722.74
867.284	28223.67
867.663	26804.41
868.042	25693.3
868.421	25608.07
868.8	26046.05
869.179	26294.4
869.558	24759.31
869.936	22825.71
870.315	23237.19
870.693	23800.42
871.072	25679.26
871.45	24467.11
871.828	24775.38
872.207	26034.02
872.585	25638.37
872.963	26334.75
873.341	25418.89
873.719	25111.53
874.097	24808.35
874.475	25279.02
874.853	25852.31
875.23	24766.99
875.608	25798.24
875.986	27905.15
876.363	26700.88
876.741	27518.28
877.118	26820.24
877.495	28139.21
877.873	28618.87
878.25	30126.73
878.627	28887.82
879.004	29319.05
879.381	29174.74
879.758	28405.07
880.135	26449.28
880.512	27952.8
880.889	27229.67
881.265	26959.53
881.642	26748.29
882.019	27198.91
882.395	26636.71
882.772	27703.15
883.148	26487.46
883.524	26383.07
883.901	26231.66
884.277	26621.27
884.653	26463.64
885.029	27211.31
885.405	30122.78
885.781	29879.05
886.157	28656.76
886.532	29007.27
886.908	28995.45
887.284	32246.19
887.659	33299.14
888.035	34345.27
888.411	35242.45
888.786	35710.17
889.161	36954.33
889.537	36266.79
889.912	37447.22
890.287	37414.1
890.662	38381.96
891.037	37685.56
891.412	35134.84
891.787	34777.69
892.162	33550.94
892.536	34329.23
892.911	33045.15
893.286	32350.63
893.66	31051.64
894.035	31844.03
894.409	34674.7
894.784	33273.06
895.158	33821.74
895.532	35825.55
895.906	36815.66
896.281	37687.48
896.655	37093.39
897.029	42387.62
897.402	44141.75
897.776	49143.58
898.15	48956.46
898.524	48412.21
898.898	49059.17
899.271	54924.23
899.645	47574.33
900.018	45691.51
900.392	47389.04
900.765	47776.24
901.138	44196.9
901.511	43513.64
901.884	39952.3
902.258	36856.07
902.631	38107.27
903.003	43852.74
903.376	39581.56
903.749	44377.1
904.122	47531.34
904.495	52327.73
904.867	52972.79
905.24	45999.74
905.612	42835.75
905.985	43794.79
906.357	45780.27
906.729	43665.04
907.102	37288.97
907.474	35845.14
907.846	36092.58
908.218	35590.75
908.59	31444.77
908.962	30421.64
909.334	32751.34
909.705	34403.31
910.077	33395.48
910.449	34751.44
910.82	35725.17
911.192	39305.18
911.563	40836.88
911.935	43667.69
912.306	43716.83
912.677	45132.65
913.048	44640.77
913.419	48411.17
913.79	48659.66
914.161	52194.36
914.532	49875.36
914.903	45823.16
915.274	43512.34
915.645	42883.26
916.015	37733.03
916.386	35981
916.756	38311.07
917.127	39521.97
917.497	35312.07
917.868	38431.92
918.238	36496.67
918.608	37545.98
918.978	38337.4
919.348	40596.93
919.718	41924.78
920.088	40390.07
920.458	41946.87
920.828	44133.57
921.198	41848.79
921.567	44715.68
921.937	34633.28
922.306	34993.06
922.676	37755.64
923.045	31495.19
923.415	29928.54
923.784	27260.72
924.153	28037.01
924.522	27995.85
924.891	26327.46
925.26	28200.98
925.629	27522.18
925.998	31629.65
926.367	30862.09
926.736	29375.91
927.104	34976.43
927.473	37598.01
927.842	45406.47
928.21	44974.29
928.578	47306.8
928.947	44717.33
929.315	44978.87
929.683	52751.69
930.051	53198.88
930.42	61787.39
930.788	52838.82
931.156	52426.5
931.523	49151.65
931.891	45416.56
932.259	43595.1
932.627	50495.18
932.994	71428.82
933.362	59024.25
933.729	51256.72
934.097	49041.18
934.464	41497.04
934.831	47857.98
935.199	47200.38
935.566	45738.99
935.933	46394.28
936.3	56208.54
936.667	43780.67
937.034	39477.96
937.401	39060.87
937.767	33730.8
938.134	30027.65
938.501	42332.24
938.867	45101.47
939.234	76224.44
939.6	65078.63
939.967	71606.88
940.333	47890.89
940.699	40807.62
941.065	32785.98
941.431	42989.45
941.798	41440.88
942.163	54374.68
942.529	34001.9
942.895	31337.89
943.261	20274.38
943.627	26588.98
943.992	23295.95
944.358	23354.64
944.723	23428.18
945.089	22830.67
945.454	21081.17
945.82	22524.57
946.185	21669.14
946.55	25110.19
946.915	22536.23
947.28	26435.53
947.645	23300.6
948.01	21492.81
948.375	22422.07
948.74	26872.85
949.104	31364.98
949.469	45343.4
949.834	80055.86
950.198	75861.33
950.562	45460.22
950.927	37848.21
951.291	45565.34
951.655	38789.51
952.02	36475.46
952.384	27564.24
952.748	24004.25
953.112	23372.79
953.476	20315.07
953.839	18808.72
954.203	18619.38
954.567	23291.95
954.931	36696.82
955.294	31367.75
955.658	31552.04
956.021	53564.27
956.385	90764.59
956.748	133920.32
957.111	207891.38
957.474	233422.24
957.837	262892.42
958.2	199080.9
958.563	71642.46
958.926	48386.38
959.289	73433.42
959.652	82018.73
960.015	61574.22
960.377	88398.41
960.74	100891.91
961.102	174173.48
961.465	187076.5
961.827	100020.37
962.189	191987.82
962.552	132972.72
962.914	106696.44
963.276	69256.12
963.638	57304.56
964	56768.17
964.362	38382.02
964.724	37109.74
965.085	26472.76
965.447	21680.34
965.809	24720.4
966.17	24728.85
966.532	26769.53
966.893	24542.43
967.255	22340.77
967.616	26364.82
967.977	21109.28
968.338	23054.98
968.699	18939.37
969.061	18932.52
969.421	19072.99
969.782	21397.4
970.143	18063.62
970.504	18685.55
970.865	21234.93
971.225	21695.29
971.586	21204.8
971.946	30246.48
972.307	26252.58
972.667	34304.09
973.027	35350.88
973.388	42866.85
973.748	29141.98
974.108	31729.75
974.468	42977.97
974.828	33170.85
975.188	25561.13
975.548	23474.3
975.907	19691.93
976.267	22114.92
976.627	18578.97
976.986	19258.74
977.346	18380.09
977.705	17710.74
978.064	16148.96
978.424	13428.46
978.783	13900.49
979.142	15858.22
979.501	15174.04
979.86	16045.6
980.219	15436.68
980.578	19933.14
980.937	22297.52
981.296	19866.22
981.654	20439.48
982.013	31829.44
982.371	41318.77
982.73	38507.64
983.088	43565.73
983.447	46530.47
983.805	66472.7
984.163	138955.81
984.521	154134.7
984.879	226027.92
985.237	-367356.26
985.595	353357.45
985.953	87729.19
986.311	50677.41
986.669	29427.66
987.026	25375.94
987.384	34130.37
987.741	35249.08
988.099	25189.35
988.456	20082.33
988.814	18815.7
989.171	16341.67
989.528	16158.22
989.885	17068.63
990.242	13508.25
990.599	16831.97
990.956	13789.13
991.313	9647.64
991.67	7927.37
992.027	8386.16
992.383	7440.07
992.74	6512.56
993.096	6830.62
993.453	7071.8
993.809	7322.39
994.165	9745
994.522	8928.82
994.878	9832.34
995.234	12332.92
995.59	12163.2
995.946	11535.63
996.302	13183.07
996.658	15252.18
997.013	16788.77
997.369	19929.88
997.725	25514.04
998.08	16535.33
998.436	25510.29
998.791	35171.95
999.147	35093.09
999.502	38284.07
999.857	27823.06
1000.212	45293.57
1000.567	64449.64
1000.922	37178.86
1001.277	23589.11
1001.632	17543.5
1001.987	22617.7
1002.342	16188.55
1002.696	12980.99
1003.051	10350.74
1003.406	12540.76
1003.76	12498.99
1004.114	12306.04
1004.469	10361.94
1004.823	8584.34
1005.177	9275.96
1005.531	7333.37
1005.885	6507.95
1006.239	7365.63
1006.593	9218.59
1006.947	12353.36
1007.301	9254.35
1007.655	10097.3
1008.008	7417.59
1008.362	8317.87
1008.715	11901.23
1009.069	10824.29
1009.422	16227.52
1009.776	32537.59
1010.129	21548.82
1010.482	18020.93
1010.835	15269.39
1011.188	31836.16
1011.541	29894.1
1011.894	-183084.96
1012.247	541028.77
1012.6	36750.48
1012.952	23196.32
1013.305	12022.02
1013.657	8640.42
1014.01	8182.11
1014.362	6735.77
1014.715	5956.91
1015.067	5183.88
1015.419	5074.01
1015.771	4501.12
1016.123	3989.24
1016.475	4099.29
1016.827	4352.3
1017.179	4668.06
1017.531	4706.19
1017.883	4826.43
1018.234	4646.94
1018.586	5872.98
1018.938	6196.29
1019.289	8548.21
1019.64	9768.3
1019.992	9107.14
1020.343	8343.52
1020.694	6599.22
1021.045	5849.26
1021.396	6714.25
1021.747	7170.55
1022.098	8633.58
1022.449	6254.74
1022.8	5827.87
1023.151	4049.68
1023.501	3577.4
1023.852	3881.5
1024.202	4015.51
1024.553	4425.45
1024.903	4315.87
1025.253	3687.13
1025.604	3304.77
1025.954	4118.51
1026.304	5029.35
1026.654	5863.59
1027.004	8619.71
1027.354	13988.81
1027.703	13174.94
1028.053	17319.74
1028.403	24931.2
1028.753	36195.56
1029.102	49312.51
1029.452	256188.6
1029.801	11050.13
1030.15	7145.87
1030.499	6063.66
897.758	1993.65
901.051	1921.79
904.343	1954.85
907.636	1966.07
910.928	2026.63
914.22	1950.78
917.511	1956.05
920.803	2001.19
924.094	1989.7
927.384	2000.98
930.675	1963.95
933.965	1932.18
937.255	1968.02
940.544	1942.77
943.834	1926.21
947.123	1871.99
950.411	1954.42
953.7	1937.38
956.988	1928.31
960.276	1864.6
963.563	1903.45
966.851	1916.89
970.138	1955.11
973.424	1957
976.711	1909.46
979.997	1963.85
983.283	2002.02
986.568	1945.28
989.853	1926.23
993.138	1950.53
996.423	2039.64
999.708	2004.39
1002.992	2035.95
1006.275	1944.89
1009.559	1947.75
1012.842	2041.54
1016.125	2000.33
1019.408	1981.39
1022.69	2026.1
1025.972	2066.73
1029.254	2043.4
1032.536	2014.24
1035.817	2018.18
1039.098	1987.35
1042.379	2036.36
1045.659	2063.49
1048.939	2017.48
1052.219	2019.83
1055.498	2008.15
1058.778	2009.05
1062.057	1980.33
1065.335	2005.94
1068.614	2014.56
1071.892	2016.17
1075.17	2062.2
1078.447	2070.84
1081.724	2067.37
1085.001	2089.12
1088.278	2068.3
1091.554	2073.72
1094.83	2067.9
1098.106	2107.66
1101.382	2130.96
1104.657	2130.13
1107.932	2130.16
1111.206	2112.61
1114.481	2063.14
1117.755	2062.61
1121.029	2059.57
1124.302	2122.97
1127.575	2092.79
1130.848	2093.12
1134.121	2064.77
1137.393	2034.34
1140.665	2086.28
1143.937	2069.46
1147.208	2013.06
1150.48	2078.29
1153.75	2069.09
1157.021	2058.8
1160.291	2036.89
1163.561	2090.64
1166.831	2052.31
1170.101	2077.83
1173.37	2031.88
1176.639	1996.1
1179.907	2034.33
1183.176	2063.55
1186.444	2064.38
1189.711	2085.56
1192.979	2114.4
1196.246	2072.75
1199.513	2084.47
1202.78	2091.36
1206.046	2101.07
1209.312	2129.21
1212.578	2144.61
1215.843	2115.28
1219.108	2081.38
1222.373	2102.69
1225.638	2079.33
1228.902	2075.39
1232.166	2026.61
1235.43	2016.84
1238.693	2045.66
1241.956	2034.04
1245.219	2085.71
1248.482	2064.33
1251.744	2063.32
1255.006	2174.76
1258.268	2120.64
1261.529	2082.12
1264.79	2078.66
1268.051	2174.95
1271.312	2182.01
1274.572	2151.93
1277.832	2141.24
1281.092	2118.95
1284.351	2116.21
1287.61	2103.91
1290.869	2046.4
1294.128	2051.25
1297.386	2082.11
1300.644	2078.05
1303.902	2088.89
1307.159	1962.25
1310.416	2011.39
1313.673	2041.85
1316.93	2041.66
1320.186	2067.84
1323.442	2095.31
1326.697	2102.4
1329.953	2068.29
1333.208	2109.81
1336.463	2079.86
1339.717	2046.53
1342.972	2142.1
1346.226	2114.1
1349.479	2067.8
1352.733	2052.8
1355.986	2049.53
1359.238	2033.68
1362.491	2037.45
1365.743	2036.89
1368.995	2026.12
1372.247	2039.05
1375.498	2057.01
1378.749	2106.37
1382	2055.2
1385.251	2084.46
1388.501	2035.3
1391.751	2043.63
1395	2008.47
1398.25	2032.19
1401.499	2060.03
1404.748	2018.29
1407.996	1992.95
1411.244	1984.1
1414.492	1970.93
1417.74	1959.68
1420.987	1960.99
1424.234	2020.42
1427.481	1977.27
1430.728	2031.88
1433.974	2008.43
1437.22	2000.45
1440.465	1996.16
1443.711	2006.65
1446.956	2026.2
1450.201	1990.83
1453.445	2032.36
1456.689	2026.61
1459.933	2035.56
1463.177	2077.98
1466.42	2053.55
1469.663	2036.62
1472.906	2061.04
1476.148	2105.76
1479.391	2060.97
1482.633	2040.05
1485.874	2072.62
1489.115	2080.87
1492.356	2059.63
1495.597	2041.44
1498.838	2031.02
1502.078	2020.3
1505.318	1998.84
1508.557	2027.99
1511.797	2026.08
1515.036	2082.99
1518.274	2046.35
1521.513	1994.3
1524.751	2002.43
1527.989	2027.58
1531.227	2048.63
1534.464	2070.7
1537.701	2059.35
1540.938	2069.76
1544.174	2017.48
1547.41	2004.23
1550.646	2042.86
1553.882	2095.98
1557.117	2154.73
1560.352	2161.4
1563.587	2129.14
1566.821	2096.47
1570.055	2104.59
1573.289	2088.94
1576.523	2140.27
1579.756	2159.2
1582.989	2180.86
1586.222	2141.32
1589.454	2165.24
1592.686	2152.16
1595.918	2181.48
1599.15	2181.54
1602.381	2218.23
1605.612	2207.99
1608.843	2299.11
1612.073	2225.43
1615.303	2215.08
1618.533	2216.78
1621.762	2212.54
1624.992	2187.5
1628.221	2194.32
1631.449	2181.41
1634.678	2196.82
1637.906	2167.49
1641.134	2192.63
1644.361	2159.83
1647.588	2150.32
1650.815	2172.82
1654.042	2132.83
1657.269	2159.59
1660.495	2147.86
1663.72	2122.27
1666.946	2092.48
1670.171	2077.77
1673.396	2052
1676.621	2031.79
1679.845	2021.82
1683.069	2023.16
1686.293	2049.04
1689.517	2044.95
1692.74	2004.56
1695.963	2023.3
1699.185	2072.11
1702.408	2047.08
1705.63	2069.79
1708.852	2091.46
1712.073	2061.32
1715.294	2079.85
1718.515	2117.14
1721.736	2081.05
1724.956	2055.31
1728.176	2075.03
1731.396	2094.5
1734.616	2080.89
1737.835	2118.49
1741.054	2088.17
1744.272	2078.56
1747.491	2121.1
1750.709	2133.82
1753.927	2099.23
1757.144	2114.82
1760.361	2180.04
1763.578	2147.71
1766.795	2101.25
1770.011	2082.73
1773.227	2103.38
1776.443	2146.81
1779.658	2187.65
1782.874	2125.38
1786.089	2124.05
1789.303	2124.95
1792.518	2120.18
1795.732	2106.15
1798.945	2124.3
1802.159	2162.3
1805.372	2119.08
1808.585	2115.79
1811.797	2116.97
1815.01	2127.86
1818.222	2158.83
1821.434	2110.31
1824.645	2147.24
1827.856	2163.59
1831.067	2191.05
1834.278	2123.3
1837.488	2108.79
1840.698	2218.67
1843.908	2167.15
1847.117	2137.07
1850.326	2078.76
1853.535	2120.63
1856.744	2161.24
1859.952	2089.36
1863.16	2089.87
1866.368	2100.56
1869.575	2213.6
1872.782	2096.93
1875.989	2032.63
1879.196	2068
1882.402	2060.5
1885.608	2087.55
1888.814	2044.78
1892.019	1958.06
1895.224	2005.74
1898.429	1967.69
1901.634	1952.42
1904.838	1928.02
1908.042	1985.95
1911.246	1996.77
1914.449	1970.42
1917.652	1946.53
1920.855	1928.38
1924.058	1943.5
1927.26	1990.1
1930.462	2009.66
1933.664	2052.52
1936.865	2001.03
1940.066	2018.6
1943.267	1962.37
1946.467	1971.67
1949.668	1986.12
1952.868	2054.82
1956.067	2050.37
1959.267	1995.71
1962.466	2016.59
1965.665	1998.11
1968.863	1991.68
1972.061	1991.43
1975.259	1982.46
1978.457	2052.47
1981.654	2013.86
1984.852	2019.83
1988.048	1979.73
1991.245	1961.78
1994.441	2051.76
1997.637	2001.02
2000.833	1987.57
2004.028	2019.89
2007.223	2079.02
2010.418	2074.68
2013.613	2021.54
2016.807	2023.73
2020.001	2013.17
2023.194	2030.55
2026.388	2019.77
2029.581	1961.73
2032.774	2029.84
2035.966	2041.29
2039.158	1993.8
2042.35	2012.67
2045.542	1938.72
2048.733	2016.46
2051.924	1998.45
2055.115	2010.66
2058.306	1981.23
2061.496	2034.33
2064.686	2078.34
2067.875	1984.26
2071.065	1979.97
2074.254	1995.63
2077.442	1953.76
2080.631	2031.49
2083.819	1978.97
2087.007	1974.99
2090.195	1965.29
2093.382	1972.52
2096.569	1959.11
2099.756	1925.67
2102.942	1980.64
2106.128	1998.93
2109.314	1986.99
2112.5	1977.52
2115.685	1942.81
2118.87	1951.33
2122.055	2006.94
2125.239	1991.85
2128.424	1986.4
2131.608	2028.84
2134.791	2013.18
2137.974	2042.84
2141.157	2033.4
2144.34	2011
2147.523	1993.99
2150.705	2024.28
2153.887	1986.74
2157.068	1970.1
2160.25	1941.83
2163.431	1961.33
2166.611	1939.86
2169.792	1961.81
2172.972	1882.33
2176.152	1920.4
2179.331	1945.69
2182.511	1954.69
2185.69	1974.52
2188.868	1983.5
2192.047	2008.26
2195.225	2035.17
2198.403	1981.15
2201.58	1965.58
2204.758	1950.89
2207.935	2019.06
2211.111	1949.41
2214.288	1937.87
2217.464	1969.6
2220.64	1918.96
2223.815	1963.7
2226.991	1903.49
2230.166	1917.19
2233.34	1965.12
2236.515	1975.69
2239.689	2034.57
2242.863	1988.04
2246.036	2036.43
2249.209	2016.51
2252.382	2029.62
2255.555	2044.44
2258.727	2000.94
2261.9	2025.95
2265.071	2019.29
2268.243	2014.1
2271.414	1968.71
2274.585	1960.61
2277.756	2018.09
2280.926	1976.94
2284.096	1999.52
2287.266	1939.94
2290.436	1985.89
2293.605	2000.48
2296.774	2040.69
2299.942	2040.12
2303.111	2053.78
2306.279	2106.83
2309.447	2090.29
2312.614	2058.59
2315.781	2083.87
2318.948	2065.21
2322.115	2101.4
2325.281	2000.09
2328.447	2003.74
2331.613	1973.2
2334.779	1970.25
2337.944	1961.97
2341.109	1964.28
2344.274	1955.64
2347.438	1926.91
2350.602	1945.25
2353.766	1952.19
2356.929	1941.27
2360.092	1976.94
2363.255	1956.18
2366.418	1932.53
2369.58	1978.6
2372.742	1892.48
2375.904	1876.85
2379.066	1865.69
2382.227	1888.5
2385.388	1851.86
2388.548	1810.33
2391.709	1848.21
2394.869	1842.19
2398.029	1877.57
2401.188	1870.41
2404.347	1847.38
2407.506	1900.05
2410.665	1944.43
2413.823	1923.8
2416.981	1910.05
2420.139	1921.32
2423.296	1958.23
2426.453	1930.62
2429.61	1950.36
2432.767	1937.09
2435.923	1976.56
2439.079	1915.38
2442.235	1942.08
2445.391	1890.72
2448.546	1936.45
2451.701	1964.38
2454.855	1967.4
2458.009	1989.24
2461.163	1973.23
2464.317	1950.78
2467.471	1973.28
2470.624	1996.18
2473.777	1995.27
2476.929	2015.85
2480.082	2035.91
2483.234	2013.93
2486.385	1952.2
2489.537	1945.59
2492.688	1944.7
2495.839	1959.71
2498.989	1975
2502.14	1964.84
2505.29	1960.75
2508.439	1981.8
2511.589	1928.32
2514.738	1926.19
2517.887	1944.43
2521.035	2023.51
2524.183	1975.3
2527.331	1965.18
2530.479	1967.33
2533.627	1966.22
