Data from C_1_DEC_OH_4N_Splice17_11-56-01-287.txt Node
Date: Sat Mar 14 11:56:01 EDT 2020
User: sa697716
Spectrometer: FLMS03696
Trigger mode: 0
Integration Time (sec): 3.180400E-1
Scans to average: 20
Electric dark correction enabled: true
Nonlinearity correction enabled: true
Boxcar width: 5
XAxis mode: Wavelengths
Number of Pixels in Spectrum: 2048
>>>>>Begin Spectral Data<<<<<
187.83	-245002.61
188.298	1750.17
188.766	970.52
189.233	851.65
189.701	1246.46
190.169	1706.71
190.636	667.86
191.104	630.8
191.571	148.77
192.039	-13.34
192.506	77.67
192.974	669.37
193.441	-1190.55
193.908	-370.5
194.375	-90.17
194.842	34
195.31	46.02
195.777	119.51
196.244	351.31
196.711	450.99
197.177	574.93
197.644	813
198.111	1402.74
198.578	1959.92
199.045	1536.41
199.511	2504.54
199.978	2896.93
200.445	2476.08
200.911	2741.86
201.378	3068.04
201.844	2781.08
202.31	4717.58
202.777	4901.93
203.243	2737.23
203.709	2589.28
204.176	3107.53
204.642	2534.75
205.108	2357.64
205.574	1931.95
206.04	1770.07
206.506	1665.13
206.972	1574.41
207.438	1530.85
207.903	1756.55
208.369	1534.3
208.835	1538.54
209.301	1611.69
209.766	1681.57
210.232	1683.91
210.697	2077.05
211.163	2589.87
211.628	3925.57
212.094	3323.72
212.559	4071.37
213.024	2551.39
213.49	3116.45
213.955	3077.48
214.42	3026.53
214.885	2814.15
215.35	2706.2
215.815	2610.75
216.28	2773.53
216.745	2262.22
217.21	2453.36
217.675	2281.59
218.14	2596.4
218.604	2963.97
219.069	3442.93
219.534	3684.79
219.998	4361.9
220.463	5363.43
220.927	6726.25
221.392	6400.97
221.856	6554.43
222.32	8323.29
222.785	10359.59
223.249	13141.36
223.713	14712.98
224.177	14777.15
224.642	19024.09
225.106	23456.36
225.57	25750.85
226.034	19147.95
226.497	29208.52
226.961	26406.67
227.425	30806.97
227.889	34248.63
228.353	34283.4
228.816	71025.26
229.28	67981.69
229.744	57423.6
230.207	34876.38
230.671	34303.85
231.134	56857.01
231.597	65583.97
232.061	65603.07
232.524	64093.75
232.987	44113.37
233.45	39676.79
233.914	35575.9
234.377	36452.82
234.84	33314.16
235.303	39302.28
235.766	43846.59
236.229	45317.41
236.691	28569.34
237.154	32131.35
237.617	24146.87
238.08	24757.69
238.542	28985.38
239.005	20717.5
239.468	20548.75
239.93	19378.79
240.393	17622.21
240.855	15467.1
241.317	15841.57
241.78	19263.29
242.242	19895.22
242.704	21463.06
243.166	18672.04
243.629	16945.07
244.091	19506.31
244.553	21387.07
245.015	22965.15
245.477	29733.1
245.939	43605.93
246.4	46259.83
246.862	44918.16
247.324	42344.66
247.786	47419.12
248.247	62201.96
248.709	64319.03
249.17	48172.57
249.632	45416.74
250.093	52720.63
250.555	45542.04
251.016	27766.47
251.477	26354.85
251.939	28496.73
252.4	29952.08
252.861	35672.26
253.322	33200.17
253.783	39557.14
254.244	51325.67
254.705	40484.19
255.166	36044.29
255.627	35503.07
256.088	50103.97
256.549	53230.67
257.009	45880.94
257.47	55619.82
257.931	45268.83
258.391	33928.18
258.852	34968.09
259.312	36692.12
259.773	45402.67
260.233	38355.25
260.694	32341.08
261.154	36729.67
261.614	29492.78
262.074	26379.15
262.534	27444.7
262.994	25895.41
263.455	34571.98
263.915	29167.31
264.374	27500.81
264.834	30036.84
265.294	33339.68
265.754	34575.09
266.214	32770.23
266.673	30788
267.133	38920.08
267.593	38691.82
268.052	47416.07
268.512	41261.5
268.971	49777.83
269.431	54633.18
269.89	48957.33
270.349	73475.57
270.809	82038.55
271.268	73758.7
271.727	165466.91
272.186	107186.5
272.645	80381.08
273.104	58024.61
273.563	84034.31
274.022	66097.87
274.481	56258.91
274.94	43339.76
275.399	32228.41
275.857	37536.75
276.316	50826.39
276.775	45219.28
277.233	44544.54
277.692	41670.28
278.15	47161.49
278.609	48524.44
279.067	44948.39
279.525	41735.03
279.984	53920.89
280.442	64752.03
280.9	63785.29
281.358	41924.93
281.816	39062.16
282.274	38264.55
282.732	39604.33
283.19	39775.33
283.648	34345.79
284.106	36584.2
284.564	37213.47
285.021	34502.5
285.479	25729.76
285.937	23401.01
286.394	20547.44
286.852	21163.75
287.309	22225.31
287.767	21434.81
288.224	20381.96
288.682	22373.64
289.139	24538.45
289.596	22455.7
290.053	23368.53
290.511	29490.55
290.968	35808.61
291.425	48596.44
291.882	40439.93
292.339	35206.67
292.796	34969.42
293.252	32948.9
293.709	26136.79
294.166	23438.21
294.623	25894.73
295.079	24838.99
295.536	24951.58
295.992	22658.33
296.449	22410.6
296.905	23265.09
297.362	22310.81
297.818	23483.96
298.274	24361.2
298.731	24858.74
299.187	24623.94
299.643	26465.59
300.099	32016.86
300.555	35107.83
301.011	29341.02
301.467	28248.15
301.923	33111.09
302.379	32352.25
302.835	31757
303.291	31792.76
303.746	36156.42
304.202	45647.73
304.658	45833.74
305.113	30833.9
305.569	30234.17
306.024	32228.94
306.479	30727.26
306.935	25907.9
307.39	28312.45
307.845	26140.19
308.301	26308.71
308.756	25654.2
309.211	24705.45
309.666	25291.73
310.121	31323.24
310.576	31736.47
311.031	31471.62
311.486	36041.34
311.94	35969.56
312.395	48011.18
312.85	90195.36
313.305	443601.28
313.759	2290758.51
314.214	165869.98
314.668	131309.87
315.123	110539.67
315.577	39646.75
316.032	35242.07
316.486	44148.64
316.94	34832.02
317.394	24238.56
317.849	18829.15
318.303	17812.26
318.757	16821.55
319.211	18605.5
319.665	16298.48
320.119	16470.64
320.572	23634.01
321.026	22066.61
321.48	18343.76
321.934	20011.04
322.387	20056.18
322.841	21671.36
323.295	19470.45
323.748	22431.78
324.202	22728.34
324.655	27252.21
325.108	38098.71
325.562	26891.35
326.015	31979.2
326.468	24149.58
326.921	26988.91
327.374	25156.14
327.827	26141.28
328.28	29567.49
328.733	19770.56
329.186	17379.38
329.639	16538.14
330.092	13931.62
330.545	13267.91
330.997	13365.64
331.45	14623.81
331.903	17110.38
332.355	29444.26
332.808	28617.14
333.26	23611.36
333.713	25668.07
334.165	25877.34
334.617	34583.52
335.069	27944.57
335.522	50413.08
335.974	55843.47
336.426	50977.95
336.878	35296.54
337.33	17893.94
337.782	17473.38
338.234	21834.19
338.686	26101.62
339.137	30928.08
339.589	29150.91
340.041	22823.04
340.493	19629.16
340.944	20068.97
341.396	21590.3
341.847	18181.2
342.299	21405.96
342.75	26118.56
343.201	22860.55
343.653	26287.61
344.104	32272.12
344.555	25405.12
345.006	39649.37
345.457	30371.78
345.908	24156.72
346.359	22731.13
346.81	18501.56
347.261	19523.04
347.712	19237.54
348.163	20639.77
348.613	20898.74
349.064	19489.33
349.515	17053.17
349.965	17475.57
350.416	21068.04
350.866	23117.07
351.317	26172.08
351.767	43344.56
352.217	54757.66
352.668	45411.08
353.118	41534.63
353.568	40066.75
354.018	31735.61
354.468	33422.92
354.918	23918.45
355.368	20888.9
355.818	29523.06
356.268	84873.86
356.718	354986.05
357.168	88320.43
357.617	44277.56
358.067	49238.96
358.517	46048.84
358.966	53946.24
359.416	60509.58
359.865	65481.05
360.315	77983.51
360.764	36373.45
361.213	20375.93
361.663	19297.96
362.112	23801.33
362.561	38498.19
363.01	29103.21
363.459	24526.69
363.908	26504.12
364.357	22460.61
364.806	37954.91
365.255	26097.36
365.703	23871.58
366.152	23902.17
366.601	19378.19
367.05	15745.41
367.498	14288.91
367.947	14913.08
368.395	15509.22
368.844	13726.15
369.292	16583.04
369.74	11447.51
370.189	17537.13
370.637	20562.25
371.085	17733.25
371.533	21569.94
371.981	20786.73
372.429	19793.69
372.877	20594.74
373.325	17223.66
373.773	17577.02
374.221	15638.38
374.669	19377.19
375.116	16748.71
375.564	16902.75
376.012	18867.01
376.459	15565.42
376.907	18557.72
377.354	22445.97
377.801	20910.03
378.249	24004.55
378.696	30620.3
379.143	37053.37
379.591	39496.69
380.038	66794.34
380.485	48146.02
380.932	52042.69
381.379	47564.53
381.826	34999.34
382.273	24873.78
382.72	21756.56
383.166	21214.02
383.613	13765.49
384.06	12405.94
384.506	14341.78
384.953	10535.08
385.4	10611.63
385.846	9279.99
386.292	9052.21
386.739	8855.89
387.185	8729.1
387.631	8712.23
388.078	8432.34
388.524	9017.07
388.97	8314.01
389.416	6923.47
389.862	7337.66
390.308	6944.27
390.754	7042.22
391.2	7615.7
391.645	7781.45
392.091	7455.32
392.537	7199.14
392.983	7193.14
393.428	7046.93
393.874	7549.01
394.319	7545.01
394.765	7137.82
395.21	7321.17
395.655	6844.98
396.101	6398.41
396.546	5769.94
396.991	5802.59
397.436	5373.01
397.881	5183.18
398.326	4904.62
398.771	4622.74
399.216	4036.87
399.661	3626.34
400.106	3597.02
400.551	3675.3
400.995	3289.21
401.44	3242.37
401.885	3039.59
402.329	3063.34
402.774	2929.01
403.218	2828.71
403.663	2723.42
404.107	2796.09
404.551	2809.68
404.995	2576.1
405.44	2477.61
405.884	2510.68
406.328	2427.22
406.772	2415.12
407.216	2197.43
407.66	2121.71
408.104	2006.48
408.547	1871.08
408.991	1807.58
409.435	1738.53
409.879	1711.47
410.322	1684.08
410.766	1622.19
411.209	1537.96
411.653	1471.03
412.096	1439.08
412.54	1438.19
412.983	1428.21
413.426	1432.72
413.869	1428.12
414.312	1398.13
414.756	1343.5
415.199	1282.55
415.642	1242.57
416.085	1244.04
416.527	1235.35
416.97	1254.32
417.413	1188.07
417.856	1174.47
418.298	1159.81
418.741	1150.51
419.184	1144.08
419.626	1190.18
420.069	1187.59
420.511	1193.36
420.953	1165.16
421.396	1153.27
421.838	1117.99
422.28	1141.32
422.722	1145.86
423.164	1159.92
423.606	1139.57
424.048	1139.93
424.49	1083.38
424.932	1078.31
425.374	1063.68
425.816	1081.55
426.258	1100.62
426.699	1114.02
427.141	1097.39
427.582	1112.59
428.024	1107.85
428.465	1100.94
428.907	1072.9
429.348	1059.9
429.789	1056.34
430.231	1033.63
430.672	1046.38
431.113	1021.26
431.554	1005.87
431.995	978.35
432.436	942.02
432.877	919.8
433.318	905.57
433.759	898.6
434.2	895.88
434.64	887.07
435.081	887.7
435.522	841.39
435.962	808.48
436.403	790.85
436.843	803.42
437.284	786.96
437.724	762.86
438.164	761.31
438.604	745.16
439.045	717.2
439.485	688.01
439.925	673.4
440.365	655.56
440.805	648.2
441.245	637.72
441.685	611.56
442.125	606.81
442.564	611.83
443.004	597.35
443.444	594.08
443.883	592.06
444.323	583.75
444.762	581.07
445.202	584.83
445.641	592.71
446.081	588.92
446.52	591.74
446.959	582.65
447.398	566.2
447.837	558
448.276	547.09
448.716	552.92
449.154	556.52
449.593	543.92
450.032	541.54
450.471	529.7
450.91	527.02
451.349	525.89
451.787	521.91
452.226	527.98
452.664	527.21
453.103	526.59
453.541	522.81
453.98	521.9
454.418	524.45
454.856	516.91
455.295	515.63
455.733	520.21
456.171	521.93
456.609	525.26
457.047	525.08
457.485	531.52
457.923	531.81
458.361	525.93
458.798	527.21
459.236	525.22
459.674	527.91
460.111	531.22
460.549	526.06
460.987	525.09
461.424	521.26
461.862	519.85
462.299	511.75
462.736	511.48
463.173	512.89
463.611	508.66
464.048	508.09
464.485	513.19
464.922	508.23
465.359	505.05
465.796	499.63
466.233	496.47
466.67	492.54
467.106	492.56
467.543	488.88
467.98	481.85
468.416	468.92
468.853	465.71
469.29	451.1
469.726	446.03
470.162	434.01
470.599	426.52
471.035	422.07
471.471	409.89
471.907	405.67
472.344	401.72
472.78	402.97
473.216	406
473.652	400.1
474.088	398.37
474.523	396.62
474.959	399.78
475.395	396.14
475.831	393.14
476.266	395.11
476.702	394.1
477.138	389.7
477.573	387.12
478.008	385.52
478.444	386.91
478.879	389.81
479.314	390.14
479.75	389.49
480.185	390.27
480.62	392.9
481.055	394.9
481.49	397.73
481.925	403.45
482.36	411.86
482.795	422.75
483.229	433.41
483.664	442.42
484.099	444.22
484.534	450.3
484.968	454.28
485.403	455.37
485.837	453.6
486.271	451.41
486.706	450.43
487.14	443.71
487.574	436.46
488.009	431.37
488.443	426.99
488.877	430.92
489.311	432.01
489.745	436.99
490.179	440.78
490.613	448.84
491.046	452.07
491.48	454.84
491.914	454.99
492.348	457.54
492.781	459.96
493.215	459.65
493.648	459.31
494.082	461.83
494.515	461.66
494.948	465.56
495.382	468.47
495.815	470.6
496.248	473.62
496.681	480.63
497.114	487.01
497.547	493.42
497.98	502.16
498.413	506.24
498.846	512.68
499.279	516.8
499.711	519.54
500.144	520.05
500.577	527.53
501.009	534.13
501.442	541.4
501.874	542.67
502.306	544.43
502.739	550.6
503.171	560.96
503.603	563.72
504.036	571.46
504.468	576.32
504.9	584.98
505.332	590.2
505.764	595.17
506.196	600.48
506.627	612.36
507.059	623.11
507.491	629.35
507.923	629.59
508.354	641.35
508.786	650.15
509.217	663.98
509.649	676.28
510.08	691.98
510.512	706.24
510.943	719.82
511.374	730.48
511.805	747.28
512.237	764.24
512.668	790.33
513.099	813.34
513.53	836.38
513.961	854.85
514.391	880.81
514.822	908.88
515.253	938.7
515.684	960.94
516.114	986.79
516.545	1006.74
516.975	1030.88
517.406	1048.83
517.836	1056.41
518.267	1066.9
518.697	1085.37
519.127	1094.29
519.558	1104.83
519.988	1111.68
520.418	1124.21
520.848	1142.28
521.278	1153.43
521.708	1177.98
522.138	1192.83
522.567	1220.3
522.997	1243.18
523.427	1259.16
523.857	1276.01
524.286	1287.89
524.716	1303.92
525.145	1322.86
525.575	1334.66
526.004	1350.03
526.433	1341.73
526.863	1344.78
527.292	1338.99
527.721	1346.97
528.15	1354.35
528.579	1357.48
529.008	1367.16
529.437	1386.33
529.866	1399.27
530.295	1415.49
530.724	1426.26
531.152	1451.11
531.581	1463.29
532.01	1480.65
532.438	1488.31
532.867	1500.74
533.295	1517.19
533.723	1524.71
534.152	1526.19
534.58	1527.49
535.008	1514.82
535.436	1517.67
535.865	1523.93
536.293	1536.72
536.721	1550.6
537.149	1573.16
537.576	1577.58
538.004	1589.59
538.432	1596.08
538.86	1595.01
539.287	1600.88
539.715	1613.14
540.143	1616.59
540.57	1615.13
540.998	1612.92
541.425	1594.42
541.852	1577.27
542.28	1576.58
542.707	1563.22
543.134	1552.12
543.561	1548.07
543.988	1542.52
544.415	1542.34
544.842	1537.36
545.269	1531.08
545.696	1531.82
546.123	1541.19
546.549	1532.09
546.976	1520.1
547.403	1519.04
547.829	1520.08
548.256	1522.87
548.682	1518.94
549.108	1512.18
549.535	1511.6
549.961	1512.34
550.387	1501.28
550.813	1497.62
551.24	1502.88
551.666	1503.43
552.092	1493.76
552.518	1487.67
552.943	1481.41
553.369	1487.94
553.795	1491.31
554.221	1491.04
554.646	1487.2
555.072	1495.63
555.498	1497.38
555.923	1502.56
556.349	1514.23
556.774	1520.64
557.199	1521.72
557.625	1524.74
558.05	1518.15
558.475	1524.82
558.9	1522.21
559.325	1513.44
559.75	1505.8
560.175	1497.74
560.6	1490.12
561.025	1485.57
561.449	1484.08
561.874	1484.96
562.299	1485.97
562.723	1488.06
563.148	1477.35
563.572	1477.4
563.997	1482.45
564.421	1483.72
564.846	1480.08
565.27	1479.62
565.694	1473.8
566.118	1479.46
566.542	1482.37
566.966	1473.63
567.39	1466.07
567.814	1454.35
568.238	1451.12
568.662	1452.25
569.086	1450.58
569.509	1453.19
569.933	1437.95
570.357	1429.64
570.78	1409.65
571.204	1396.37
571.627	1384.7
572.05	1380.28
572.474	1375.35
572.897	1362.8
573.32	1353.36
573.743	1343.31
574.166	1327.38
574.589	1324.51
575.012	1315.28
575.435	1311.9
575.858	1301.79
576.281	1290.36
576.704	1275.26
577.126	1264.77
577.549	1252.66
577.972	1242.25
578.394	1230.75
578.817	1223.56
579.239	1206.75
579.661	1194.56
580.084	1179.79
580.506	1166.26
580.928	1161.23
581.35	1151.77
581.772	1145.84
582.194	1134.29
582.616	1123.43
583.038	1111.25
583.46	1100.64
583.882	1096.9
584.303	1097.34
584.725	1093.12
585.147	1094.21
585.568	1100.37
585.99	1107.18
586.411	1110.87
586.833	1120.95
587.254	1120.53
587.675	1129.25
588.096	1136.56
588.518	1130.67
588.939	1117.4
589.36	1114.45
589.781	1104.95
590.202	1085.43
590.623	1077.43
591.043	1073.77
591.464	1063.14
591.885	1060.28
592.305	1055
592.726	1044.24
593.147	1044.74
593.567	1040.14
593.987	1034.44
594.408	1029.9
594.828	1025.86
595.248	1021.33
595.669	1008.81
596.089	1002.78
596.509	997.19
596.929	987.51
597.349	987.88
597.769	980.34
598.189	975.87
598.608	975.53
599.028	976.79
599.448	976.21
599.867	966.25
600.287	962.09
600.706	958.52
601.126	950.73
601.545	949.11
601.965	947.41
602.384	943.08
602.803	944.03
603.222	940.11
603.641	934.3
604.061	931.08
604.48	927.52
604.898	932.67
605.317	934.76
605.736	934.73
606.155	931.45
606.574	923.96
606.992	926.02
607.411	921.09
607.829	913.84
608.248	909.63
608.666	905.86
609.085	905
609.503	897
609.921	891.74
610.339	892.48
610.758	890.58
611.176	886.31
611.594	879.1
612.012	876.02
612.43	877.4
612.847	880.46
613.265	880.54
613.683	882.21
614.101	881.55
614.518	877.84
614.936	869.21
615.353	859.59
615.771	856.66
616.188	855.82
616.606	852.5
617.023	846.55
617.44	836.97
617.857	830.71
618.274	823.4
618.691	819.22
619.108	812.12
619.525	807.1
619.942	810.01
620.359	809.83
620.776	806.62
621.192	803.21
621.609	801.83
622.026	805.47
622.442	808.57
622.859	810.14
623.275	804.65
623.691	807.85
624.108	814.95
624.524	823.71
624.94	824.21
625.356	829.68
625.772	837.74
626.188	844.65
626.604	844.76
627.02	841.7
627.436	840.6
627.852	846.26
628.268	854.7
628.683	848.26
629.099	842.43
629.514	838.19
629.93	840.44
630.345	842.54
630.761	839.68
631.176	841.97
631.591	839.24
632.007	835.09
632.422	832.23
632.837	823.16
633.252	822.9
633.667	814.99
634.082	809.71
634.497	799.81
634.911	787.49
635.326	783.82
635.741	772.38
636.155	764.22
636.57	764.41
636.984	763.2
637.399	763.61
637.813	760.56
638.228	758.71
638.642	759.55
639.056	751.76
639.47	750.5
639.884	744.58
640.298	738.79
640.712	737.1
641.126	726.91
641.54	719.19
641.954	713.28
642.368	705.07
642.781	700.6
643.195	688.7
643.609	689.26
644.022	684.37
644.436	679.91
644.849	671.36
645.262	663.18
645.676	663.7
646.089	660.63
646.502	652.35
646.915	649.08
647.328	637.73
647.741	635.88
648.154	626.73
648.567	625.62
648.98	617.91
649.393	617.84
649.805	615.61
650.218	610.58
650.631	601.77
651.043	598
651.456	593.82
651.868	594.13
652.28	603.85
652.693	611.13
653.105	613.88
653.517	619.28
653.929	620.44
654.341	623.96
654.753	616.89
655.165	620.41
655.577	618.59
655.989	616.39
656.401	611.6
656.813	592.13
657.224	580.87
657.636	563.78
658.047	555.34
658.459	544.26
658.87	538.73
659.282	532.61
659.693	522.19
660.104	515.03
660.515	508.61
660.926	508.22
661.338	506.9
661.749	504.94
662.159	502.37
662.57	498.68
662.981	498.15
663.392	496.4
663.803	500.8
664.213	501.51
664.624	500.5
665.035	504.2
665.445	497.29
665.855	494.91
666.266	492.73
666.676	492.66
667.086	489.95
667.497	490.95
667.907	488.83
668.317	485.44
668.727	485.75
669.137	487.55
669.547	487.2
669.956	492.46
670.366	495.07
670.776	497.91
671.186	502.53
671.595	507.19
672.005	510.5
672.414	511.43
672.824	511.54
673.233	513.7
673.642	516.79
674.052	520
674.461	521.22
674.87	525.6
675.279	523.82
675.688	524.34
676.097	525.3
676.506	523.79
676.915	533.34
677.323	535.2
677.732	535.19
678.141	535.28
678.549	528.06
678.958	527.7
679.366	527.74
679.775	531.29
680.183	539.69
680.592	544.41
681	547.83
681.408	542.97
681.816	547.17
682.224	551.34
682.632	557.21
683.04	576.69
683.448	591.63
683.856	609.65
684.264	630.13
684.671	647.65
685.079	670.52
685.487	696.21
685.894	732.86
686.302	763.07
686.709	787.79
687.116	815.94
687.524	839.21
687.931	860.81
688.338	877.6
688.745	893.11
689.152	911.86
689.559	938.47
689.966	966.47
690.373	981.67
690.78	1010.27
691.187	1054.61
691.593	1090.21
692	1122.89
692.407	1170.24
692.813	1230.57
693.22	1281.05
693.626	1333.82
694.032	1379.08
694.439	1443.18
694.845	1498.41
695.251	1564.58
695.657	1625.53
696.063	1713.62
696.469	1783.45
696.875	1850.09
697.281	1895.33
697.687	1948.87
698.093	1995.76
698.498	2072.45
698.904	2133.68
699.31	2218.98
699.715	2286.72
700.12	2377.66
700.526	2409.33
700.931	2482.23
701.337	2542.19
701.742	2587.46
702.147	2672.9
702.552	2717.1
702.957	2782.57
703.362	2817.05
703.767	2859.48
704.172	2909.71
704.577	2883.53
704.981	2939.46
705.386	2970.36
705.791	2977.07
706.195	3056.48
706.6	3079.66
707.004	3160.07
707.408	3144.16
707.813	3182.15
708.217	3183.02
708.621	3196.49
709.025	3298.24
709.43	3310.43
709.834	3374.44
710.237	3449.61
710.641	3445.78
711.045	3476.3
711.449	3484.21
711.853	3524.55
712.256	3575.17
712.66	3621.06
713.064	3702.32
713.467	3751.75
713.87	3868.41
714.274	3921.94
714.677	4035.67
715.08	4200.66
715.484	4371.55
715.887	4576.37
716.29	4776.93
716.693	4987.45
717.096	5230.4
717.499	5369.82
717.901	5406.02
718.304	5442.01
718.707	5478.61
719.109	5390.92
719.512	5368.02
719.915	5242.41
720.317	5194.81
720.719	5248.11
721.122	5228.66
721.524	5186.24
721.926	5154.54
722.328	5260.02
722.731	5260.36
723.133	5293.77
723.535	5492.55
723.937	5520.87
724.338	5583.39
724.74	5631.67
725.142	5564.1
725.544	5569.32
725.945	5600.14
726.347	5601.04
726.748	5599.12
727.15	5617.62
727.551	5585.79
727.952	5562.5
728.354	5539.83
728.755	5543.96
729.156	5506.15
729.557	5508.74
729.958	5388.45
730.359	5341.19
730.76	5326.69
731.161	5270.96
731.562	5248.44
731.962	5258.54
732.363	5195.09
732.763	5132.99
733.164	5172.4
733.564	5109.04
733.965	5013.58
734.365	4979.36
734.766	5008.52
735.166	4970.66
735.566	4916.8
735.966	4894.47
736.366	4889.82
736.766	4829.06
737.166	4862.38
737.566	4823.66
737.966	4798.54
738.365	4841.47
738.765	4839
739.165	4764.88
739.564	4739.09
739.964	4787.54
740.363	4741.95
740.763	4741.42
741.162	4733.09
741.561	4703.38
741.96	4656.33
742.36	4676.55
742.759	4682.67
743.158	4723.57
743.557	4740.4
743.955	4784.29
744.354	4739.09
744.753	4799.47
745.152	4756.39
745.55	4812.66
745.949	4805.45
746.348	4808.25
746.746	4829.43
747.144	4787.62
747.543	4762.36
747.941	4809.52
748.339	4736.6
748.737	4727.79
749.136	4716.97
749.534	4784.47
749.932	4757.43
750.33	4780.15
750.727	4835.13
751.125	4807.47
751.523	4792.64
751.921	4837.8
752.318	4804.59
752.716	4866.1
753.113	4882.91
753.511	4909.55
753.908	4909.03
754.305	4891.74
754.703	4956.81
755.1	5019.95
755.497	5080.55
755.894	5274.14
756.291	5458.54
756.688	5796.57
757.085	6241.72
757.482	6863.85
757.878	7545.39
758.275	8165.41
758.672	9017.03
759.068	9712.35
759.465	10700.96
759.861	11979.63
760.258	13457.6
760.654	14222.43
761.05	14103.63
761.447	13456.97
761.843	12531.02
762.239	11573
762.635	11138.85
763.031	10719.01
763.427	10117.13
763.822	9486.49
764.218	8866.69
764.614	8057.27
765.01	7518.06
765.405	7167.65
765.801	6906.53
766.196	6570.18
766.592	6384.21
766.987	6065.67
767.382	5851.25
767.778	5759.21
768.173	5628.6
768.568	5555.53
768.963	5431.8
769.358	5447.35
769.753	5398.91
770.148	5311.67
770.542	5311.05
770.937	5276.59
771.332	5366.43
771.726	5386.02
772.121	5323.81
772.515	5379.68
772.91	5364.8
773.304	5438.64
773.699	5372.23
774.093	5426.16
774.487	5482.35
774.881	5525.11
775.275	5519.17
775.669	5479.59
776.063	5522.71
776.457	5560.27
776.851	5484.28
777.245	5473.7
777.638	5503.09
778.032	5621.88
778.425	5584.55
778.819	5626.46
779.212	5581.31
779.606	5540.24
779.999	5558.92
780.392	5542.28
780.786	5623.99
781.179	5643.52
781.572	5687.93
781.965	5700.71
782.358	5640.57
782.751	5699.89
783.143	5651.49
783.536	5728.08
783.929	5774.88
784.322	5891.32
784.714	5925.27
785.107	5919.49
785.499	5991.66
785.891	5967.18
786.284	5948.32
786.676	6090.18
787.068	6070.81
787.46	6121.31
787.852	6137.92
788.245	6225.71
788.636	6254.21
789.028	6322.19
789.42	6360.73
789.812	6369.6
790.204	6469.41
790.595	6571.58
790.987	6376.73
791.378	6397.16
791.77	6530.33
792.161	6670.88
792.553	6723.46
792.944	6610.94
793.335	6540.94
793.726	6614.77
794.117	6707.42
794.508	6842.85
794.899	6808.4
795.29	6949.61
795.681	7012.99
796.072	6866.46
796.463	6672.23
796.853	6681.72
797.244	6838.73
797.634	6872.29
798.025	6872.59
798.415	6883.08
798.806	6975.59
799.196	7063.96
799.586	7110.87
799.976	7068.15
800.366	7303.22
800.756	7552.79
801.146	7510.63
801.536	7537.9
801.926	7608.89
802.316	7635.25
802.706	7709.2
803.095	7583.32
803.485	7683.26
803.874	7722.79
804.264	7982.67
804.653	7954.73
805.043	8098.98
805.432	8210.9
805.821	8216.91
806.21	8238.08
806.599	8354.27
806.988	8397.57
807.377	8499.75
807.766	8629.42
808.155	8917.49
808.544	8653.81
808.933	8660.28
809.321	8634.04
809.71	8928.94
810.098	9084.46
810.487	9548.11
810.875	10029.58
811.264	10049.09
811.652	10339.71
812.04	10484.56
812.428	10647.47
812.816	11414.62
813.204	11838.89
813.592	12398.6
813.98	12736.43
814.368	12639.55
814.756	13122.18
815.144	13042.17
815.531	13503.27
815.919	13435.88
816.306	13747.13
816.694	13432.23
817.081	13479.3
817.469	13825.26
817.856	13812.55
818.243	14084.25
818.63	14478.92
819.017	14055.48
819.404	14122.8
819.791	14506.6
820.178	15126.3
820.565	15370.21
820.952	16303.23
821.339	15805.38
821.725	15998.8
822.112	15259.17
822.498	15217.03
822.885	15351.48
823.271	15255.71
823.657	15670.67
824.044	15684.49
824.43	15752.54
824.816	15727.92
825.202	15297.88
825.588	16332.83
825.974	16343.96
826.36	16867.14
826.746	16900.03
827.132	17262.93
827.517	17235.51
827.903	16447.4
828.289	16482.55
828.674	15701.79
829.06	15591.3
829.445	15988.9
829.83	16339.28
830.216	16815.45
830.601	17189.45
830.986	16783.39
831.371	16645.92
831.756	17210.27
832.141	16780.37
832.526	16776.11
832.911	17059.97
833.295	16949.14
833.68	17424.2
834.065	16801.74
834.449	15890.44
834.834	15812.84
835.218	15816.17
835.603	16149.37
835.987	15941.91
836.371	16782.78
836.755	16682.98
837.139	17093.26
837.524	17339.39
837.908	17161.52
838.291	17228.03
838.675	17295.13
839.059	17510.76
839.443	17496.17
839.827	17268.79
840.21	17747.65
840.594	17606.17
840.977	17815.84
841.361	17790.09
841.744	18163.25
842.127	18003.14
842.511	18253.18
842.894	18855.45
843.277	19233.01
843.66	19777.19
844.043	19868.39
844.426	19059.12
844.809	18744.23
845.191	18780.63
845.574	18319.62
845.957	17960.93
846.339	17859.68
846.722	17334.77
847.104	17402.29
847.487	17233.59
847.869	17248.28
848.252	17525.85
848.634	17861.25
849.016	18127.2
849.398	18250.66
849.78	19103.44
850.162	19099.36
850.544	19509.45
850.926	20132.43
851.307	20040.01
851.689	20319.29
852.071	20769.24
852.452	21089.74
852.834	21064.04
853.215	21454.86
853.597	21604.55
853.978	21899.37
854.359	22359.03
854.741	21367.24
855.122	21270.07
855.503	20979.53
855.884	21106.93
856.265	21038.54
856.646	21150.27
857.026	20750.78
857.407	20687.9
857.788	20845.9
858.169	21130.49
858.549	20275.5
858.93	20889.93
859.31	20936.45
859.69	21154.92
860.071	20749.51
860.451	20531.23
860.831	19795.86
861.211	20962.52
861.591	21508.98
861.971	21482.41
862.351	21679.87
862.731	22074.42
863.111	22332.53
863.491	22655.45
863.87	23519.05
864.25	23867.93
864.629	23478.02
865.009	23989.05
865.388	24845.02
865.768	26623.88
866.147	26514.39
866.526	25040.88
866.905	25345.77
867.284	26776.53
867.663	25435.23
868.042	24389.65
868.421	24309.93
868.8	24715.2
869.179	24957.4
869.558	23510.73
869.936	21671.69
870.315	22062.26
870.693	22608.93
871.072	24378.36
871.45	23234.82
871.828	23535.95
872.207	24738.16
872.585	24366.03
872.963	25024.97
873.341	24171.26
873.719	23881.12
874.097	23587.01
874.475	24033.69
874.853	24586.75
875.23	23561.31
875.608	24537.07
875.986	26531.9
876.363	25372.2
876.741	26152.94
877.118	25501.7
877.495	26747.63
877.873	27197.41
878.25	28641.87
878.627	27483.81
879.004	27858.94
879.381	27722.79
879.758	26992.07
880.135	25131.32
880.512	26564.7
880.889	25857.56
881.265	25583.28
881.642	25367.24
882.019	25785.02
882.395	25246.35
882.772	26234.24
883.148	25093.42
883.524	24998.19
883.901	24859.99
884.277	25225.1
884.653	25072.99
885.029	25785.67
885.405	28554.61
885.781	28329.69
886.157	27158.94
886.532	27490.9
886.908	27477.97
887.284	30552.95
887.659	31538.68
888.035	32493.52
888.411	33329.06
888.786	33760.62
889.161	34935.25
889.537	34297.16
889.912	35401.73
890.287	35376.7
890.662	36277.59
891.037	35627.97
891.412	33229.29
891.787	32899.8
892.162	31759.16
892.536	32511.26
892.911	31301.23
893.286	30640.18
893.66	29389.85
894.035	30136.49
894.409	32817.11
894.784	31504.62
895.158	32028.6
895.532	33930.37
895.906	34859.97
896.281	35680.72
896.655	35113.5
897.029	40124.1
897.402	41768.84
897.776	46505.47
898.15	46334.41
898.524	45828.8
898.898	46435.27
899.271	51957.48
899.645	44987.52
900.018	43209.86
900.392	44814.88
900.765	45153.89
901.138	41791.2
901.511	41177.52
901.884	37795.96
902.258	34870.26
902.631	36031
903.003	41474.99
903.376	37435.35
903.749	41985.71
904.122	44948.73
904.495	49490.98
904.867	50135.69
905.24	43512.73
905.612	40479
905.985	41402.33
906.357	43288.2
906.729	41309.53
907.102	35270.37
907.474	33911.4
907.846	34114.18
908.218	33644.28
908.59	29721.49
908.962	28737.49
909.334	30935.8
909.705	32516.68
910.077	31566.27
910.449	32854.02
910.82	33770.57
911.192	37165.2
911.563	38619.38
911.935	41336.49
912.306	41391.9
912.677	42742.11
913.048	42291.51
913.419	45888.54
913.79	46115.01
914.161	49460.81
914.532	47269.31
914.903	43438.45
915.274	41255.95
915.645	40640.19
916.015	35750.12
916.386	34081.83
916.756	36272.99
917.127	37432.69
917.497	33439.03
917.868	36400.56
918.238	34575.77
918.608	35561.09
918.978	36272.4
919.348	38385.12
919.718	39661.61
920.088	38198.39
920.458	39685.59
920.828	41749.33
921.198	39563.25
921.567	42254.09
921.937	32710.56
922.306	33019.28
922.676	35605.24
923.045	29710.12
923.415	28214.98
923.784	25689.03
924.153	26408.11
924.522	26371.63
924.891	24782.36
925.26	26536.08
925.629	25916.03
925.998	29801.61
926.367	29095.62
926.736	27705.48
927.104	32994.48
927.473	35468.78
927.842	42818.52
928.21	42400.87
928.578	44555.24
928.947	42172.14
929.315	42431.05
929.683	49737.78
930.051	50110.02
930.42	58162.93
930.788	49718.68
931.156	49334.38
931.523	46247.31
931.891	42729.85
932.259	41038.56
932.627	47536.19
932.994	67183.15
933.362	55536.43
933.729	48199.97
934.097	46117.22
934.464	39012.71
934.831	44963.56
935.199	44305.85
935.566	42970.16
935.933	43499.06
936.3	52685.56
936.667	41034.16
937.034	36980.78
937.401	36555.85
937.767	31560.1
938.134	28141.24
938.501	39699.34
938.867	42327.79
939.234	71573.46
939.6	61055.97
939.967	67356.91
940.333	45080.35
940.699	38382.71
941.065	30848.18
941.431	40450.49
941.798	38994.2
942.163	51124.35
942.529	31944.45
942.895	29427.05
943.261	19040.36
943.627	24977.12
943.992	21889.74
944.358	21909.22
944.723	21981.97
945.089	21445.27
945.454	19817.72
945.82	21151.28
946.185	20328.72
946.55	23536.78
946.915	21127.32
947.28	24761.52
947.645	21799.17
948.01	20120.08
948.375	21001.92
948.74	25175.66
949.104	29338.42
949.469	42354.48
949.834	74918.02
950.198	71025.35
950.562	42552.54
950.927	35389.72
951.291	42603.94
951.655	36286.39
952.02	34058.66
952.384	25715.8
952.748	22373.58
953.112	21787.33
953.476	18939.48
953.839	17512.93
954.203	17336.53
954.567	21691.11
954.931	34190.89
955.294	29255.5
955.658	29427.6
956.021	50029.33
956.385	84863.74
956.748	125271.72
957.111	194505.17
957.474	218241.57
957.837	245585.92
958.2	185570.34
958.563	66756.02
958.926	45104.15
959.289	68425.33
959.652	76406.21
960.015	57351.38
960.377	82356.39
960.74	94020.83
961.102	162340.41
961.465	174313.55
961.827	93323.31
962.189	179210.74
962.552	124229.4
962.914	99652.89
963.276	64644.79
963.638	53409.51
964	52841.5
964.362	35671.94
964.724	34457
965.085	24550.99
965.447	20138.43
965.809	22964.33
966.17	22973.03
966.532	24849.9
966.893	22787.62
967.255	20729.81
967.616	24480.99
967.977	19597.38
968.338	21427.21
968.699	17606.12
969.061	17632.78
969.421	17736.92
969.782	19904.94
970.143	16835.1
970.504	17423.12
970.865	19802.66
971.225	20247.12
971.586	19824.51
971.946	28258.46
972.307	24514.87
972.667	32068.8
973.027	32983.05
973.388	39992.88
973.748	27193.26
974.108	29608.09
974.468	40074.36
974.828	30874.04
975.188	23780.55
975.548	21850.28
975.907	18353.21
976.267	20586.9
976.627	17290.74
976.986	17918.77
977.346	17087.71
977.705	16417.72
978.064	14955.94
978.424	12454.4
978.783	12879.08
979.142	14681.24
979.501	14027.51
979.86	14817.89
980.219	14270.7
980.578	18380.3
980.937	20593.1
981.296	18347.92
981.654	18884.77
982.013	29400.41
982.371	38053.9
982.73	35565.55
983.088	40295.98
983.447	42995.51
983.805	61441.95
984.163	128463.95
984.521	142658.62
984.879	208684.43
985.237	-339289.43
985.595	326866.75
985.953	80993.78
986.311	46841.09
986.669	27165.32
987.026	23426.51
987.384	31516.07
987.741	32548.04
988.099	23243.66
988.456	18523.68
988.814	17353.4
989.171	15076.75
989.528	14887.93
989.885	15724.74
990.242	12469.22
990.599	15539.42
990.956	12700.95
991.313	8886.58
991.67	7313.55
992.027	7751.62
992.383	6881.57
992.74	6034.19
993.096	6327.26
993.453	6556.33
993.809	6805.41
994.165	9046.25
994.522	8274.76
994.878	9127.88
995.234	11451.68
995.59	11274.93
995.946	10667.23
996.302	12168.8
996.658	14065.56
997.013	15519.88
997.369	18429.83
997.725	23541.13
998.08	15260.98
998.436	23592.25
998.791	32606.51
999.147	32570.05
999.502	35542.08
999.857	25844.18
1000.212	42220.82
1000.567	60191.57
1000.922	34638.47
1001.277	21944
1001.632	16329.43
1001.987	21003.97
1002.342	15055.47
1002.696	12003.32
1003.051	9555.04
1003.406	11569.17
1003.76	11525.64
1004.114	11321.38
1004.469	9503.43
1004.823	7882.33
1005.177	8525.57
1005.531	6729.49
1005.885	5967.34
1006.239	6739.89
1006.593	8441.11
1006.947	11306.49
1007.301	8496.53
1007.655	9265.75
1008.008	6821.71
1008.362	7677.44
1008.715	10950.17
1009.069	9931.68
1009.422	14981.92
1009.776	30099.55
1010.129	19949.54
1010.482	16710.4
1010.835	14131.41
1011.188	29339.99
1011.541	27580.86
1011.894	-168493.6
1012.247	495273.37
1012.6	33647.19
1012.952	21215.09
1013.305	10919.34
1013.657	7860.24
1014.01	7443.17
1014.362	6132.73
1014.715	5457.31
1015.067	4756.06
1015.419	4636.65
1015.771	4115.88
1016.123	3668.09
1016.475	3781.66
1016.827	4035.06
1017.179	4326.86
1017.531	4371.13
1017.883	4470.07
1018.234	4304.91
1018.586	5422.53
1018.938	5745.45
1019.289	7944.79
1019.64	9082.51
1019.992	8459.08
1020.343	7734.58
1020.694	6096.05
1021.045	5373.83
1021.396	6128.31
1021.747	6560.83
1022.098	7885.3
1022.449	5729.26
1022.8	5319.66
1023.151	3708.1
1023.501	3288.95
1023.852	3562.55
1024.202	3712.5
1024.553	4085
1024.903	4018.89
1025.253	3454.05
1025.604	3125.77
1025.954	3884.28
1026.304	4726.79
1026.654	5535.68
1027.004	8134.52
1027.354	13127.49
1027.703	12404.7
1028.053	16225.81
1028.403	23530.17
1028.753	34131.95
1029.102	46446.4
1029.452	238969.82
1029.801	10388.1
1030.15	6722.12
1030.499	5670.88
897.758	2189.69
901.051	2123.63
904.343	2156.29
907.636	2161.97
910.928	2224.4
914.22	2145.74
917.511	2148.27
920.803	2194.98
924.094	2193.25
927.384	2194.63
930.675	2160.58
933.965	2123.88
937.255	2154.11
940.544	2122.96
943.834	2122.58
947.123	2061.57
950.411	2149.25
953.7	2132.19
956.988	2118.3
960.276	2054.01
963.563	2103.49
966.851	2113.81
970.138	2155.56
973.424	2155.59
976.711	2109.81
979.997	2157.37
983.283	2201.79
986.568	2132.15
989.853	2124.05
993.138	2150.8
996.423	2236.13
999.708	2193.81
1002.992	2223.73
1006.275	2142.81
1009.559	2149.37
1012.842	2246.41
1016.125	2202.22
1019.408	2183.12
1022.69	2236.94
1025.972	2272.26
1029.254	2247.25
1032.536	2209.96
1035.817	2219.09
1039.098	2188.22
1042.379	2236.23
1045.659	2263.11
1048.939	2213.35
1052.219	2220.91
1055.498	2212.4
1058.778	2212.7
1062.057	2185.89
1065.335	2210.22
1068.614	2221.39
1071.892	2218.64
1075.17	2272.04
1078.447	2273.29
1081.724	2269.3
1085.001	2295.27
1088.278	2271.34
1091.554	2279.22
1094.83	2272.13
1098.106	2307.96
1101.382	2337.23
1104.657	2339.65
1107.932	2339.52
1111.206	2317.08
1114.481	2273.18
1117.755	2270.95
1121.029	2262.98
1124.302	2322.31
1127.575	2289.54
1130.848	2287.39
1134.121	2256.14
1137.393	2220.25
1140.665	2274.77
1143.937	2252.28
1147.208	2201.38
1150.48	2256.85
1153.75	2244.22
1157.021	2249.48
1160.291	2227.12
1163.561	2279.93
1166.831	2246.28
1170.101	2274.64
1173.37	2232.94
1176.639	2191.63
1179.907	2235.78
1183.176	2259.26
1186.444	2260.7
1189.711	2287.04
1192.979	2309.47
1196.246	2266.28
1199.513	2278.19
1202.78	2284.54
1206.046	2293.1
1209.312	2320.15
1212.578	2338.59
1215.843	2305.38
1219.108	2274.3
1222.373	2296.48
1225.638	2270.47
1228.902	2261.38
1232.166	2217.01
1235.43	2202.92
1238.693	2230.08
1241.956	2220.25
1245.219	2270.77
1248.482	2253.07
1251.744	2251.44
1255.006	2372.45
1258.268	2322.72
1261.529	2278.17
1264.79	2279.11
1268.051	2375.54
1271.312	2387.17
1274.572	2355.28
1277.832	2346.47
1281.092	2328.15
1284.351	2317.9
1287.61	2303.64
1290.869	2236.66
1294.128	2232.44
1297.386	2281.51
1300.644	2274.55
1303.902	2287.32
1307.159	2154.52
1310.416	2207.05
1313.673	2234.19
1316.93	2228.35
1320.186	2260.28
1323.442	2290.73
1326.697	2295.26
1329.953	2269.62
1333.208	2302.87
1336.463	2275.34
1339.717	2235.28
1342.972	2341.05
1346.226	2312.91
1349.479	2261.5
1352.733	2243.01
1355.986	2247.09
1359.238	2230.23
1362.491	2234.7
1365.743	2232.7
1368.995	2227.07
1372.247	2240.73
1375.498	2260.47
1378.749	2302.88
1382	2252.17
1385.251	2287.42
1388.501	2241.6
1391.751	2241.8
1395	2208.59
1398.25	2232.83
1401.499	2254.5
1404.748	2203.34
1407.996	2179.61
1411.244	2167.74
1414.492	2155.27
1417.74	2140.36
1420.987	2143.86
1424.234	2203.11
1427.481	2167.37
1430.728	2222.15
1433.974	2198.21
1437.22	2197.05
1440.465	2194.53
1443.711	2193.91
1446.956	2217.39
1450.201	2188.02
1453.445	2227.52
1456.689	2219.13
1459.933	2227.45
1463.177	2268.65
1466.42	2240.02
1469.663	2223.38
1472.906	2239.53
1476.148	2285.56
1479.391	2259.55
1482.633	2235.11
1485.874	2259.12
1489.115	2266.52
1492.356	2249.13
1495.597	2230.04
1498.838	2221.72
1502.078	2208.91
1505.318	2178.71
1508.557	2213.5
1511.797	2209.64
1515.036	2253.81
1518.274	2226.93
1521.513	2178.66
1524.751	2192.4
1527.989	2216.96
1531.227	2233.64
1534.464	2247.06
1537.701	2242.31
1540.938	2255.59
1544.174	2201.87
1547.41	2193.09
1550.646	2231.05
1553.882	2281.16
1557.117	2339.72
1560.352	2346.03
1563.587	2309.14
1566.821	2276.43
1570.055	2294.26
1573.289	2274.89
1576.523	2331.73
1579.756	2349.55
1582.989	2371.74
1586.222	2330.05
1589.454	2360.04
1592.686	2340.69
1595.918	2371.04
1599.15	2368.31
1602.381	2413.66
1605.612	2393.6
1608.843	2486.6
1612.073	2410.61
1615.303	2394.76
1618.533	2394.2
1621.762	2394.29
1624.992	2366.61
1628.221	2372.12
1631.449	2357.93
1634.678	2389.32
1637.906	2357.01
1641.134	2382.17
1644.361	2345.39
1647.588	2337.68
1650.815	2360.49
1654.042	2324.49
1657.269	2352.24
1660.495	2332.57
1663.72	2318.25
1666.946	2286.31
1670.171	2256.89
1673.396	2228.64
1676.621	2213.77
1679.845	2213.7
1683.069	2218.07
1686.293	2248.82
1689.517	2239.64
1692.74	2191.42
1695.963	2211.87
1699.185	2253.64
1702.408	2227.33
1705.63	2256.82
1708.852	2277.1
1712.073	2246.5
1715.294	2256.28
1718.515	2299.64
1721.736	2257.92
1724.956	2235.6
1728.176	2257.34
1731.396	2280.3
1734.616	2265.23
1737.835	2302.44
1741.054	2272.69
1744.272	2263.24
1747.491	2303.18
1750.709	2327.49
1753.927	2275.82
1757.144	2302.47
1760.361	2360.49
1763.578	2334.54
1766.795	2284.5
1770.011	2273.51
1773.227	2296.79
1776.443	2338.02
1779.658	2381.94
1782.874	2321.28
1786.089	2312.13
1789.303	2314.56
1792.518	2312.4
1795.732	2297.7
1798.945	2314.08
1802.159	2353.24
1805.372	2295.88
1808.585	2292.01
1811.797	2291.45
1815.01	2312.09
1818.222	2333.97
1821.434	2295.37
1824.645	2338.25
1827.856	2345.08
1831.067	2375.36
1834.278	2315.43
1837.488	2298.91
1840.698	2419.05
1843.908	2359.95
1847.117	2329.15
1850.326	2253.95
1853.535	2317.6
1856.744	2349.57
1859.952	2271.91
1863.16	2273.26
1866.368	2287.89
1869.575	2395.63
1872.782	2282.6
1875.989	2215.48
1879.196	2264.27
1882.402	2255.05
1885.608	2290.1
1888.814	2227.68
1892.019	2138.22
1895.224	2187.61
1898.429	2155.94
1901.634	2139.96
1904.838	2114.98
1908.042	2171.72
1911.246	2184.98
1914.449	2148.51
1917.652	2130.67
1920.855	2110.38
1924.058	2136.16
1927.26	2181.05
1930.462	2203.76
1933.664	2241.65
1936.865	2183.95
1940.066	2201.38
1943.267	2142.18
1946.467	2153.95
1949.668	2173.65
1952.868	2241.55
1956.067	2231.73
1959.267	2171.6
1962.466	2195.26
1965.665	2178.41
1968.863	2171.77
1972.061	2175.14
1975.259	2168.52
1978.457	2244.68
1981.654	2205.94
1984.852	2207.35
1988.048	2161.46
1991.245	2151.19
1994.441	2240.31
1997.637	2198.17
2000.833	2179.72
2004.028	2215.45
2007.223	2277.38
2010.418	2265.98
2013.613	2216.11
2016.807	2208.34
2020.001	2204.21
2023.194	2225.7
2026.388	2210.33
2029.581	2154.61
2032.774	2218.02
2035.966	2228.44
2039.158	2175.07
2042.35	2194.13
2045.542	2122.4
2048.733	2201.89
2051.924	2197.77
2055.115	2214.57
2058.306	2180.84
2061.496	2233.98
2064.686	2281.81
2067.875	2187.84
2071.065	2192.01
2074.254	2210.02
2077.442	2165.5
2080.631	2245.34
2083.819	2180.89
2087.007	2170.42
2090.195	2154.41
2093.382	2168.78
2096.569	2153.54
2099.756	2115.36
2102.942	2163.65
2106.128	2176
2109.314	2163.31
2112.5	2148.83
2115.685	2118.99
2118.87	2125.93
2122.055	2183.27
2125.239	2163.03
2128.424	2153.93
2131.608	2215.26
2134.791	2199.21
2137.974	2236.53
2141.157	2226.46
2144.34	2197.84
2147.523	2187.6
2150.705	2211.76
2153.887	2182.14
2157.068	2156.59
2160.25	2138.74
2163.431	2160.92
2166.611	2129.31
2169.792	2151.3
2172.972	2063.32
2176.152	2113.42
2179.331	2141.01
2182.511	2143.3
2185.69	2165.24
2188.868	2169.53
2192.047	2202.38
2195.225	2216.35
2198.403	2165.87
2201.58	2152.7
2204.758	2140.24
2207.935	2214.59
2211.111	2131.73
2214.288	2120.21
2217.464	2155.53
2220.64	2111.79
2223.815	2160.25
2226.991	2094.26
2230.166	2109.7
2233.34	2151.92
2236.515	2164.01
2239.689	2229.98
2242.863	2180.08
2246.036	2230.83
2249.209	2215.18
2252.382	2233.05
2255.555	2242.65
2258.727	2192.45
2261.9	2223.59
2265.071	2215.24
2268.243	2212.3
2271.414	2161.98
2274.585	2144.32
2277.756	2203.15
2280.926	2160.06
2284.096	2191.85
2287.266	2121.65
2290.436	2168.09
2293.605	2187.24
2296.774	2224.05
2299.942	2229.02
2303.111	2243.81
2306.279	2296.52
2309.447	2279.12
2312.614	2251.26
2315.781	2277.71
2318.948	2251.89
2322.115	2289.64
2325.281	2189.35
2328.447	2197.24
2331.613	2168.14
2334.779	2161.03
2337.944	2154.66
2341.109	2156.97
2344.274	2145.7
2347.438	2113.48
2350.602	2131.21
2353.766	2142.22
2356.929	2130.81
2360.092	2168.06
2363.255	2140.05
2366.418	2106.07
2369.58	2170.89
2372.742	2049.45
2375.904	2041.89
2379.066	2028.58
2382.227	2055.17
2385.388	2020.73
2388.548	1971
2391.709	2011.13
2394.869	2002.57
2398.029	2056.82
2401.188	2051.12
2404.347	2014.88
2407.506	2092.69
2410.665	2130.56
2413.823	2118.04
2416.981	2096.98
2420.139	2111.64
2423.296	2149.96
2426.453	2124.56
2429.61	2145.94
2432.767	2114.9
2435.923	2155.89
2439.079	2103.94
2442.235	2135.71
2445.391	2077.39
2448.546	2117.79
2451.701	2150.4
2454.855	2148.41
2458.009	2179.01
2461.163	2167.85
2464.317	2136.04
2467.471	2165.24
2470.624	2192.76
2473.777	2182
2476.929	2200.77
2480.082	2224.1
2483.234	2197.73
2486.385	2141.05
2489.537	2132.72
2492.688	2122.64
2495.839	2137.67
2498.989	2154.19
2502.14	2141.02
2505.29	2132.98
2508.439	2156.82
2511.589	2097.95
2514.738	2097.15
2517.887	2122.05
2521.035	2196.66
2524.183	2155.39
2527.331	2141.79
2530.479	2137.63
2533.627	2138.8
