Data from C_1_DEC_CT_2N_Splice17_11-46-22-504.txt Node
Date: Sat Mar 14 11:46:22 EDT 2020
User: sa697716
Spectrometer: FLMS03696
Trigger mode: 0
Integration Time (sec): 3.180400E-1
Scans to average: 20
Electric dark correction enabled: true
Nonlinearity correction enabled: true
Boxcar width: 5
XAxis mode: Wavelengths
Number of Pixels in Spectrum: 2048
>>>>>Begin Spectral Data<<<<<
187.83	-201517.4
188.298	1598.14
188.766	871.57
189.233	731.25
189.701	1050.69
190.169	1422.49
190.636	547.91
191.104	442.23
191.571	71.11
192.039	-20.05
192.506	25.62
192.974	536.33
193.441	-789.86
193.908	-259.15
194.375	-75.32
194.842	-3.96
195.31	36.71
195.777	124.15
196.244	247.13
196.711	162.65
197.177	142.72
197.644	143.86
198.111	204.9
198.578	249.91
199.045	175.7
199.511	208.36
199.978	166.28
200.445	158.95
200.911	118.9
201.378	76.43
201.844	116.32
202.31	192.85
202.777	214.11
203.243	149.3
203.709	157.74
204.176	180.13
204.642	173.77
205.108	177.15
205.574	129.68
206.04	95.9
206.506	81.35
206.972	54.19
207.438	55.9
207.903	48
208.369	46.67
208.835	41.85
209.301	54.76
209.766	39.92
210.232	30.94
210.697	40.08
211.163	41.69
211.628	-0.64
212.094	19.33
212.559	86.59
213.024	96.58
213.49	126.42
213.955	122.65
214.42	70.53
214.885	79.35
215.35	86.18
215.815	155.43
216.28	197.9
216.745	163.43
217.21	196.51
217.675	131.46
218.14	124.21
218.604	133.59
219.069	139.98
219.534	182.12
219.998	166.33
220.463	179.27
220.927	106.82
221.392	78.65
221.856	89.61
222.32	38.94
222.785	81.5
223.249	97.64
223.713	56.92
224.177	57.37
224.642	-20.01
225.106	2.98
225.57	-7.1
226.034	68.76
226.497	72.04
226.961	132.08
227.425	198.28
227.889	142.31
228.353	127.82
228.816	159.45
229.28	223.6
229.744	182.73
230.207	153.59
230.671	179.06
231.134	146.7
231.597	265.25
232.061	117.8
232.524	53.69
232.987	49.73
233.45	95.73
233.914	91.28
234.377	33.29
234.84	41.9
235.303	2.57
235.766	-4.41
236.229	-45.68
236.691	-50.17
237.154	-52.82
237.617	-23.27
238.08	-32.02
238.542	-86.95
239.005	-40.6
239.468	-32.07
239.93	-24.73
240.393	-16.89
240.855	-11.37
241.317	-11.12
241.78	-29.99
242.242	-14.53
242.704	26.12
243.166	22.66
243.629	72.52
244.091	84.62
244.553	96.81
245.015	113.87
245.477	117.69
245.939	105.69
246.4	124.52
246.862	100.91
247.324	85.11
247.786	11.12
248.247	7.63
248.709	-192.12
249.17	-140.24
249.632	-18.33
250.093	19.5
250.555	39.18
251.016	84.44
251.477	94.42
251.939	108.45
252.4	96.66
252.861	97.37
253.322	129.46
253.783	149.5
254.244	150.21
254.705	48.93
255.166	-5.14
255.627	-9.19
256.088	-38.12
256.549	-62.8
257.009	-52.1
257.47	-59.9
257.931	-62.91
258.391	-50.41
258.852	-39.75
259.312	-35.76
259.773	-92.42
260.233	-17.14
260.694	3.8
261.154	-7.26
261.614	68.66
262.074	73.4
262.534	90.98
262.994	105.72
263.455	112
263.915	109.87
264.374	92.25
264.834	125.22
265.294	110.13
265.754	131.33
266.214	125
266.673	90.06
267.133	79.96
267.593	65.46
268.052	85.34
268.512	79.41
268.971	134.65
269.431	184.44
269.89	138.23
270.349	243.43
270.809	276.13
271.268	252.5
271.727	374.24
272.186	279.78
272.645	202.56
273.104	81.1
273.563	95.32
274.022	-16.28
274.481	16.78
274.94	32.67
275.399	-5.98
275.857	-46.92
276.316	-91.14
276.775	-59.01
277.233	-56.24
277.692	-26.25
278.15	13.42
278.609	71.5
279.067	93.67
279.525	97.66
279.984	83.29
280.442	126.13
280.9	247.06
281.358	175.44
281.816	153.26
282.274	130.46
282.732	80.79
283.19	73.51
283.648	24.61
284.106	10.07
284.564	-9.02
285.021	19.82
285.479	3.83
285.937	-51.43
286.394	-32.33
286.852	-34.14
287.309	-27.52
287.767	30.56
288.224	37.35
288.682	53.81
289.139	83.61
289.596	92.49
290.053	93
290.511	99.31
290.968	170.74
291.425	212.12
291.882	237.36
292.339	204.91
292.796	141.56
293.252	124.13
293.709	128.95
294.166	98.37
294.623	74.21
295.079	41.06
295.536	65.44
295.992	51.15
296.449	48.12
296.905	67.32
297.362	107.54
297.818	111.62
298.274	122.94
298.731	91.6
299.187	86.45
299.643	109.45
300.099	159.13
300.555	175.53
301.011	148.75
301.467	215.01
301.923	162.72
302.379	135.38
302.835	119.43
303.291	128.33
303.746	135.95
304.202	179.17
304.658	146.29
305.113	94.5
305.569	91.23
306.024	68.82
306.479	-30.47
306.935	9.29
307.39	-25.89
307.845	6.45
308.301	20.4
308.756	7.34
309.211	-1.11
309.666	-2.27
310.121	34.87
310.576	2.83
311.031	-0.34
311.486	-1.91
311.94	-53.57
312.395	-95.77
312.85	-364.31
313.305	-2783.24
313.759	-8875.82
314.214	-521.98
314.668	-362.03
315.123	-342.36
315.577	-89.3
316.032	-49.78
316.486	-66.36
316.94	-7.11
317.394	35.15
317.849	71.37
318.303	56.22
318.757	55.68
319.211	47.7
319.665	42.92
320.119	47.85
320.572	59.45
321.026	88.77
321.48	83.67
321.934	62.18
322.387	44.52
322.841	28.79
323.295	92.65
323.748	48.92
324.202	74.13
324.655	121.39
325.108	267.28
325.562	205.99
326.015	204.83
326.468	167.48
326.921	210.48
327.374	236.01
327.827	299.4
328.28	314.97
328.733	245.76
329.186	211.21
329.639	196.31
330.092	133.82
330.545	137.12
330.997	139.06
331.45	176.26
331.903	231.4
332.355	343.23
332.808	260.36
333.26	182.03
333.713	209.06
334.165	175.35
334.617	161.62
335.069	82.14
335.522	50.43
335.974	16.57
336.426	-152.21
336.878	-197.08
337.33	-84.74
337.782	-90.55
338.234	-81.73
338.686	-137.88
339.137	-163.31
339.589	-104.75
340.041	-42.37
340.493	-45.96
340.944	-38.04
341.396	5.81
341.847	48.09
342.299	101.44
342.75	206.76
343.201	161.63
343.653	150.88
344.104	176.43
344.555	114.5
345.006	39.65
345.457	160.09
345.908	106.28
346.359	110.97
346.81	87.79
347.261	60.87
347.712	14.45
348.163	-5.09
348.613	79.34
349.064	104.16
349.515	85.63
349.965	112.84
350.416	78.26
350.866	69.15
351.317	20.34
351.767	-6.76
352.217	-66.33
352.668	-70.47
353.118	-37.19
353.568	-178.54
354.018	-124.8
354.468	-89.49
354.918	-32.8
355.368	-16.48
355.818	-14.08
356.268	-61.16
356.718	228.87
357.168	156.19
357.617	88.25
358.067	69.32
358.517	108.15
358.966	206.49
359.416	303.82
359.865	255.97
360.315	150.6
360.764	80.62
361.213	44.07
361.663	1.73
362.112	-23.63
362.561	-44.19
363.01	-29.38
363.459	-42.83
363.908	-114.53
364.357	-78.27
364.806	-123.32
365.255	-56.93
365.703	-6.32
366.152	24.44
366.601	2.57
367.05	40.57
367.498	45.17
367.947	31.4
368.395	17.98
368.844	17.07
369.292	-25.18
369.74	-8.39
370.189	-51.51
370.637	-65.54
371.085	-83.9
371.533	-94.25
371.981	-142.85
372.429	-82.49
372.877	-78.9
373.325	-41.81
373.773	-56.8
374.221	-75.21
374.669	-130.62
375.116	-100.64
375.564	-114.6
376.012	-99.49
376.459	-47.65
376.907	-59.56
377.354	-126.79
377.801	-122.55
378.249	-135
378.696	-179.7
379.143	-190.4
379.591	-179.26
380.038	-290.32
380.485	-165.32
380.932	-238.28
381.379	-119.23
381.826	3.13
382.273	-11.66
382.72	-18.95
383.166	-10.47
383.613	9.2
384.06	8.07
384.506	11.42
384.953	6.54
385.4	-10.19
385.846	0.58
386.292	-39.09
386.739	-53.49
387.185	-63.75
387.631	-59.65
388.078	-22.26
388.524	-24.74
388.97	-20.27
389.416	-4.58
389.862	10.49
390.308	14.91
390.754	11.39
391.2	13.83
391.645	7.47
392.091	50.84
392.537	63.87
392.983	32.06
393.428	60.83
393.874	58.71
394.319	74.49
394.765	84.03
395.21	70.01
395.655	67.68
396.101	65.95
396.546	59.83
396.991	31.06
397.436	27.18
397.881	21.08
398.326	0.64
398.771	10.83
399.216	-2.7
399.661	-9.59
400.106	2.85
400.551	5.38
400.995	7.42
401.44	8.33
401.885	9.28
402.329	8.18
402.774	13.94
403.218	26.71
403.663	23.88
404.107	27.99
404.551	31.39
404.995	23.28
405.44	18.01
405.884	16.96
406.328	13.31
406.772	11.36
407.216	11.02
407.66	5.16
408.104	-2.42
408.547	-1.37
408.991	-3.19
409.435	-7.02
409.879	-2.06
410.322	1.67
410.766	4.42
411.209	8.22
411.653	9.63
412.096	12.75
412.54	12.23
412.983	10.94
413.426	15.77
413.869	14.65
414.312	19.4
414.756	17.97
415.199	17
415.642	17.88
416.085	18.17
416.527	17.41
416.97	12.74
417.413	15.82
417.856	13.95
418.298	10.31
418.741	7.6
419.184	2.91
419.626	-2.99
420.069	-3.62
420.511	-3.28
420.953	-1.79
421.396	0.28
421.838	1.92
422.28	1.91
422.722	4.13
423.164	1.07
423.606	3.78
424.048	4.09
424.49	7.38
424.932	5.02
425.374	0.87
425.816	-2
426.258	-4.58
426.699	-6.56
427.141	-1.7
427.582	-4.42
428.024	-3.3
428.465	-5.51
428.907	-5.36
429.348	-4.92
429.789	-2.86
430.231	0.48
430.672	0.53
431.113	-0.29
431.554	0.76
431.995	-2.97
432.436	0.82
432.877	3.26
433.318	8.98
433.759	8.5
434.2	9.13
434.64	8.58
435.081	9.1
435.522	10.01
435.962	9.32
436.403	10.38
436.843	5.62
437.284	3.88
437.724	0.7
438.164	-5.8
438.604	-5.46
439.045	-5.37
439.485	-2.53
439.925	-2.86
440.365	-3.04
440.805	-2.03
441.245	-0.09
441.685	1.13
442.125	0.34
442.564	0.31
443.004	2.77
443.444	2.45
443.883	2.3
444.323	-0.77
444.762	-5.84
445.202	-7.3
445.641	-4.74
446.081	-8.08
446.52	-5.74
446.959	-4.6
447.398	-4.46
447.837	-5.52
448.276	-6.69
448.716	-4.6
449.154	-5.85
449.593	-1.7
450.032	-2.05
450.471	-5.37
450.91	-5.05
451.349	-3.52
451.787	-3.53
452.226	-3
452.664	-2.59
453.103	-2.3
453.541	-4.44
453.98	0.01
454.418	-0.5
454.856	1.86
455.295	2.8
455.733	3.47
456.171	0.97
456.609	1.88
457.047	2.43
457.485	5.04
457.923	6.69
458.361	6.15
458.798	3.87
459.236	3.24
459.674	1.79
460.111	1.55
460.549	1.67
460.987	0.96
461.424	-0.09
461.862	0.89
462.299	-0.07
462.736	0.56
463.173	1.46
463.611	5.3
464.048	7.33
464.485	8.45
464.922	9.33
465.359	8.48
465.796	18.97
466.233	19.64
466.67	21.12
467.106	22.42
467.543	20.88
467.98	19.81
468.416	16.4
468.853	14.05
469.29	13.1
469.726	12.59
470.162	11.71
470.599	3.46
471.035	1.98
471.471	0.14
471.907	-2.06
472.344	-1.6
472.78	-1.09
473.216	-1.95
473.652	-1.62
474.088	-2.58
474.523	-1.76
474.959	-1.8
475.395	-1.8
475.831	-0.72
476.266	-0.93
476.702	-0.9
477.138	-1.09
477.573	-1.67
478.008	-1.22
478.444	0.4
478.879	2.73
479.314	2.63
479.75	3.4
480.185	3.14
480.62	2.28
481.055	1.56
481.49	1.88
481.925	2.28
482.36	4.72
482.795	4.47
483.229	3.3
483.664	2.21
484.099	1.85
484.534	2.07
484.968	2.53
485.403	2.61
485.837	2.37
486.271	2.31
486.706	1.78
487.14	-0.16
487.574	0.16
488.009	-0.19
488.443	-0.51
488.877	0.69
489.311	-0.18
489.745	-0.34
490.179	0.62
490.613	3.17
491.046	2.36
491.48	2.52
491.914	2.9
492.348	2.98
492.781	3.59
493.215	3.73
493.648	1.95
494.082	2.32
494.515	2.63
494.948	2.54
495.382	0.54
495.815	1.4
496.248	1.96
496.681	1.52
497.114	0.27
497.547	0.7
497.98	1.94
498.413	3.5
498.846	3.91
499.279	3.28
499.711	2.47
500.144	2.3
500.577	2.83
501.009	1.78
501.442	3.65
501.874	5.17
502.306	4.37
502.739	6.47
503.171	6.03
503.603	6.02
504.036	6.13
504.468	6.07
504.9	5.75
505.332	4.82
505.764	6.29
506.196	5.05
506.627	4.95
507.059	4.73
507.491	1.21
507.923	1.06
508.354	1.67
508.786	1.65
509.217	1.84
509.649	2.18
510.08	2.11
510.512	2.1
510.943	2.36
511.374	2.44
511.805	2.45
512.237	2.63
512.668	2.1
513.099	0.59
513.53	0.4
513.961	0.83
514.391	1.13
514.822	3.13
515.253	2.87
515.684	2.68
516.114	2.1
516.545	2.96
516.975	2.67
517.406	2.6
517.836	2.64
518.267	3.08
518.697	3.39
519.127	2.81
519.558	1.3
519.988	0.49
520.418	-0.37
520.848	-0.88
521.278	-1.53
521.708	22.11
522.138	23
522.567	22.55
522.997	22.06
523.427	21.55
523.857	22.2
524.286	22.25
524.716	22.33
525.145	23.28
525.575	24.08
526.004	23.67
526.433	0.35
526.863	-1
527.292	0.79
527.721	1.82
528.15	1.63
528.579	1.76
529.008	1.69
529.437	1.37
529.866	0.72
530.295	0.07
530.724	1.21
531.152	1.56
531.581	3.46
532.01	2.37
532.438	1.68
532.867	1.37
533.295	1.68
533.723	1.56
534.152	2.17
534.58	2.62
535.008	2.71
535.436	3.02
535.865	2.75
536.293	0.98
536.721	0.72
537.149	0.75
537.576	1.81
538.004	1.53
538.432	1.23
538.86	1.29
539.287	0.6
539.715	0.87
540.143	-0.18
540.57	0.42
540.998	0.48
541.425	2.36
541.852	2.12
542.28	1.37
542.707	0.89
543.134	1.26
543.561	1.04
543.988	1.49
544.415	1.04
544.842	0.78
545.269	0.27
545.696	0.78
546.123	0.17
546.549	0.45
546.976	0.9
547.403	1.17
547.829	0.58
548.256	0.37
548.682	0.28
549.108	1.61
549.535	1.61
549.961	1.32
550.387	1.37
550.813	2.36
551.24	2.41
551.666	1.89
552.092	1.61
552.518	1.65
552.943	2.56
553.369	2.27
553.795	1.76
554.221	2.1
554.646	2.09
555.072	3.53
555.498	1.55
555.923	1.08
556.349	1.13
556.774	1.06
557.199	0.66
557.625	-0.19
558.05	0.27
558.475	-0.42
558.9	-0.1
559.325	1.78
559.75	1.16
560.175	1.78
560.6	2.01
561.025	1.48
561.449	1.63
561.874	2.02
562.299	2.82
562.723	2.85
563.148	2.72
563.572	2.48
563.997	1.26
564.421	-0.06
564.846	-0.84
565.27	-0.75
565.694	-0.58
566.118	-0.87
566.542	-0.22
566.966	-0.26
567.39	-0.31
567.814	0.23
568.238	0.51
568.662	-0.85
569.086	-0.63
569.509	-0.73
569.933	0.62
570.357	1.55
570.78	1.69
571.204	2.52
571.627	1.66
572.05	1.7
572.474	2.42
572.897	1.89
573.32	3.75
573.743	3.54
574.166	4.39
574.589	3.13
575.012	2.53
575.435	2.17
575.858	1.61
576.281	2.04
576.704	1.43
577.126	0.4
577.549	0.45
577.972	-0.77
578.394	-0.45
578.817	1.55
579.239	1.25
579.661	1.65
580.084	2.85
580.506	2.76
580.928	2.55
581.35	3.2
581.772	3.75
582.194	4.01
582.616	3.46
583.038	3.04
583.46	0.74
583.882	0.98
584.303	0.16
584.725	-0.49
585.147	4.35
585.568	4.62
585.99	4.55
586.411	5.03
586.833	5.4
587.254	6.57
587.675	6.51
588.096	7.12
588.518	7.25
588.939	7.67
589.36	8.07
589.781	2.02
590.202	4.44
590.623	4.33
591.043	3.05
591.464	2.85
591.885	3.35
592.305	3.7
592.726	2.81
593.147	2.61
593.567	2.47
593.987	2.32
594.408	2.45
594.828	-0.53
595.248	0.66
595.669	1.67
596.089	1.89
596.509	0.65
596.929	-0.32
597.349	0.42
597.769	0.43
598.189	0.47
598.608	0.1
599.028	0.09
599.448	-0.37
599.867	-1.2
600.287	-1.73
600.706	-1.39
601.126	-0.65
601.545	0.66
601.965	0.54
602.384	0.88
602.803	0.57
603.222	0.78
603.641	0.64
604.061	1.69
604.48	1.59
604.898	0.89
605.317	0.05
605.736	-0.06
606.155	0.79
606.574	0.49
606.992	0.2
607.411	0.42
607.829	-0.41
608.248	-0.69
608.666	-1.4
609.085	-1.35
609.503	-0.41
609.921	0.89
610.339	1.16
610.758	-0.27
611.176	-0.36
611.594	-0.03
612.012	0.2
612.43	1.72
612.847	1.98
613.265	3.58
613.683	3.45
614.101	3.24
614.518	1.87
614.936	1.71
615.353	2.72
615.771	2.69
616.188	3.2
616.606	3.01
617.023	2.66
617.44	2.8
617.857	0.68
618.274	0.6
618.691	1.42
619.108	1.22
619.525	0.85
619.942	0.97
620.359	1.53
620.776	0.79
621.192	1.86
621.609	2.15
622.026	3.03
622.442	4.23
622.859	3.96
623.275	3.19
623.691	3.71
624.108	3.81
624.524	3.16
624.94	3.05
625.356	2.53
625.772	1.19
626.188	0.4
626.604	-0.36
627.02	-0.81
627.436	-0.49
627.852	0.84
628.268	1.37
628.683	1.11
629.099	0.99
629.514	-0.22
629.93	0.46
630.345	0.31
630.761	-0.34
631.176	-0.15
631.591	2.34
632.007	3.35
632.422	1.86
632.837	0.47
633.252	1.59
633.667	1.45
634.082	2.46
634.497	2.83
634.911	5.45
635.326	6.44
635.741	6.64
636.155	5.32
636.57	5.92
636.984	6.43
637.399	8.47
637.813	7.36
638.228	7.55
638.642	7.03
639.056	6.72
639.47	5.2
639.884	5.31
640.298	4.92
640.712	5.03
641.126	3.91
641.54	2.6
641.954	-0.92
642.368	0.13
642.781	2.83
643.195	3.32
643.609	3.49
644.022	3.65
644.436	2.9
644.849	2.52
645.262	0.62
645.676	-0.55
646.089	0.2
646.502	3.35
646.915	1.97
647.328	-0.12
647.741	0.61
648.154	0.76
648.567	2.31
648.98	3.17
649.393	3.22
649.805	4.21
650.218	4.39
650.631	4.48
651.043	4.05
651.456	5.38
651.868	5.13
652.28	3.4
652.693	2.67
653.105	1.32
653.517	0.05
653.929	0.55
654.341	1.08
654.753	2.84
655.165	2.79
655.577	3.01
655.989	2.68
656.401	1.27
656.813	4.53
657.224	4.39
657.636	3.17
658.047	5.29
658.459	5.19
658.87	3.62
659.282	2.9
659.693	4.64
660.104	4.31
660.515	4.05
660.926	4.65
661.338	2.83
661.749	1.91
662.159	2.93
662.57	0.96
662.981	0.71
663.392	1.06
663.803	0.81
664.213	-0.58
664.624	-0.91
665.035	-2.09
665.445	-2.74
665.855	-1.63
666.266	0.44
666.676	0.46
667.086	0.17
667.497	0.89
667.907	1.32
668.317	0.55
668.727	4.04
669.137	3.09
669.547	3.43
669.956	3.01
670.366	2.36
670.776	2.64
671.186	2.05
671.595	3.56
672.005	2.23
672.414	2.7
672.824	4.72
673.233	0.73
673.642	0.98
674.052	3.18
674.461	4.9
674.87	4.65
675.279	4.41
675.688	2.78
676.097	3.39
676.506	4.28
676.915	3.2
677.323	2.57
677.732	3
678.141	3.5
678.549	1.98
678.958	0.94
679.366	-0.43
679.775	-1.55
680.183	1.22
680.592	0.23
681	0.53
681.408	1.06
681.816	0.37
682.224	-0.57
682.632	1.59
683.04	1.59
683.448	1.82
683.856	3.93
684.264	4.95
684.671	3.39
685.079	3.45
685.487	1.99
685.894	1.76
686.302	0.35
686.709	1.38
687.116	-0.7
687.524	0.63
687.931	1.41
688.338	0.35
688.745	-0.69
689.152	-1
689.559	-1.23
689.966	1.48
690.373	1.72
690.78	3.45
691.187	3.34
691.593	3.85
692	2.6
692.407	3.19
692.813	5.84
693.22	6.51
693.626	5.79
694.032	6.48
694.439	6.15
694.845	6.49
695.251	5.25
695.657	5.75
696.063	3.93
696.469	3.38
696.875	2.15
697.281	0.09
697.687	-0.53
698.093	0.22
698.498	-0.02
698.904	-1.7
699.31	-2.18
699.715	0.67
700.12	-0.03
700.526	1.41
700.931	1.66
701.337	3.05
701.742	3.77
702.147	3.93
702.552	4.32
702.957	3.09
703.362	3.05
703.767	3.3
704.172	0.99
704.577	0.7
704.981	-0.71
705.386	-0.02
705.791	-0.08
706.195	-2.3
706.6	-2.32
707.004	-4.98
707.408	-5.37
707.813	-3.58
708.217	-2.29
708.621	-1.8
709.025	-2.21
709.43	0.09
709.834	-0.49
710.237	-1.26
710.641	0.3
711.045	1.48
711.449	4.69
711.853	9.7
712.256	8.47
712.66	7.1
713.064	7.24
713.467	8.16
713.87	7.88
714.274	8.51
714.677	8.84
715.08	9.58
715.484	9.18
715.887	11.88
716.29	6.83
716.693	7.7
717.096	8.87
717.499	9.29
717.901	9.26
718.304	7.89
718.707	8.2
719.109	7.58
719.512	6.03
719.915	8.32
720.317	5.95
720.719	6.24
721.122	5.78
721.524	5.73
721.926	10.2
722.328	10.15
722.731	10.33
723.133	9.3
723.535	8.94
723.937	9.78
724.338	9.82
724.74	10.26
725.142	65.51
725.544	69.75
725.945	82.62
726.347	77.66
726.748	78.37
727.15	79.79
727.551	84.07
727.952	82.79
728.354	79.66
728.755	78.71
729.156	77.1
729.557	22.99
729.958	17.75
730.359	4.64
730.76	4.78
731.161	4.19
731.562	2.53
731.962	-2.13
732.363	-0.4
732.763	0.88
733.164	-2.18
733.564	-1.69
733.965	0.33
734.365	1.99
734.766	2.72
735.166	1.81
735.566	2.27
735.966	3.5
736.366	4.58
736.766	3.85
737.166	3.86
737.566	5.35
737.966	4.99
738.365	5.09
738.765	5.36
739.165	5.76
739.564	6.46
739.964	5.16
740.363	3.46
740.763	1.96
741.162	3.84
741.561	3.74
741.96	3.33
742.36	2.54
742.759	2.25
743.158	0.43
743.557	-0.33
743.955	-1.82
744.354	-1.25
744.753	-1.52
745.152	0.26
745.55	-1.71
745.949	-1.82
746.348	-1.6
746.746	-2.42
747.144	-0.11
747.543	-0.87
747.941	-1.94
748.339	-0.67
748.737	0.26
749.136	1.76
749.534	-0.66
749.932	1.62
750.33	1.79
750.727	1.3
751.125	2.4
751.523	0.24
751.921	5.21
752.318	6.45
752.716	7.9
753.113	7.28
753.511	6.33
753.908	8.56
754.305	13.26
754.703	13.46
755.1	14.63
755.497	15.09
755.894	15.13
756.291	11.71
756.688	11.35
757.085	10.05
757.482	11.29
757.878	14.68
758.275	16.24
758.672	6.35
759.068	5.48
759.465	1.74
759.861	-0.18
760.258	-4.94
760.654	-3.48
761.05	-0.16
761.447	-2.22
761.843	-2.04
762.239	-2.89
762.635	-7.45
763.031	-8.57
763.427	-7.07
763.822	-5.91
764.218	-5.95
764.614	-3.75
765.01	-7.62
765.405	-8.53
765.801	-5.87
766.196	-6.78
766.592	-7.68
766.987	-6.27
767.382	-5.84
767.778	-4.5
768.173	-4.33
768.568	-3.58
768.963	-2.31
769.358	-0.49
769.753	0.88
770.148	1.22
770.542	0.96
770.937	-0.3
771.332	0.53
771.726	-0.07
772.121	2.92
772.515	4.16
772.91	3.91
773.304	2.87
773.699	2.73
774.093	1.96
774.487	1.99
774.881	2.45
775.275	3.39
775.669	2.35
776.063	2.89
776.457	0.62
776.851	0.54
777.245	1.92
777.638	3.1
778.032	2.27
778.425	2.84
778.819	6.64
779.212	10.53
779.606	13.26
779.999	12.73
780.392	15.16
780.786	12.34
781.179	12.33
781.572	12.45
781.965	12.5
782.358	14.02
782.751	12.86
783.143	8.3
783.536	5.12
783.929	2.2
784.322	3.69
784.714	0.56
785.107	3.26
785.499	4.41
785.891	4.29
786.284	3.93
786.676	3.52
787.068	6.22
787.46	7.08
787.852	6.78
788.245	6.87
788.636	5.19
789.028	8.11
789.42	9.57
789.812	9.51
790.204	10.34
790.595	12.1
790.987	12.25
791.378	11.44
791.77	8.72
792.161	7.26
792.553	7.92
792.944	7.66
793.335	4.76
793.726	2.51
794.117	2.93
794.508	-0.41
794.899	-3.21
795.29	-3.81
795.681	-5.83
796.072	-4.2
796.463	20.43
796.853	26.21
797.244	28.04
797.634	29.78
798.025	29.39
798.415	26.41
798.806	30.37
799.196	32.75
799.586	35.36
799.976	36.95
800.366	36.47
800.756	11.07
801.146	4.71
801.536	4.36
801.926	5.49
802.316	7.21
802.706	8.19
803.095	7.57
803.485	5.83
803.874	3.66
804.264	3.69
804.653	4.82
805.043	8.97
805.432	11.96
805.821	14.33
806.21	14.4
806.599	12.41
806.988	12.55
807.377	8.91
807.766	7.76
808.155	7.31
808.544	7.35
808.933	6.31
809.321	6.8
809.71	2.78
810.098	2.76
810.487	-1.42
810.875	-3.83
811.264	-4.47
811.652	9.13
812.04	11.49
812.428	13.01
812.816	8.82
813.204	12.49
813.592	5.63
813.98	6.8
814.368	10.04
814.756	11.84
815.144	15.52
815.531	21.66
815.919	7.88
816.306	7.23
816.694	8
817.081	13.86
817.469	15.35
817.856	14.34
818.243	11.81
818.63	6.27
819.017	8.96
819.404	11.44
819.791	9.12
820.178	6.73
820.565	9.26
820.952	17.33
821.339	18.29
821.725	16.6
822.112	24.11
822.498	26.9
822.885	23.68
823.271	20.73
823.657	14.63
824.044	15.35
824.43	14.48
824.816	23.04
825.202	19.93
825.588	15.34
825.974	17.17
826.36	15.61
826.746	16.82
827.132	17.29
827.517	23.63
827.903	23.36
828.289	29.08
828.674	29.38
829.06	22.27
829.445	16.81
829.83	12.95
830.216	13.69
830.601	16.31
830.986	22.21
831.371	24.65
831.756	26.96
832.141	37.42
832.526	36.05
832.911	39.83
833.295	37.99
833.68	39.63
834.065	46.2
834.449	41.45
834.834	39.05
835.218	36.16
835.603	37.57
835.987	29.74
836.371	25.06
836.755	24.47
837.139	21.13
837.524	19.12
837.908	14.74
838.291	16.7
838.675	14.93
839.059	13.64
839.443	11.32
839.827	6.95
840.21	6.08
840.594	8.57
840.977	6.02
841.361	7.02
841.744	5.1
842.127	9.55
842.511	5.15
842.894	4.07
843.277	2.69
843.66	0.85
844.043	6.18
844.426	11.3
844.809	5.52
845.191	3.94
845.574	5.39
845.957	7.45
846.339	10.45
846.722	13.12
847.104	11.75
847.487	7.74
847.869	11.08
848.252	12.45
848.634	11.56
849.016	11.94
849.398	11.11
849.78	8.96
850.162	10.24
850.544	9.11
850.926	4.4
851.307	7.76
851.689	14.3
852.071	6.96
852.452	5.97
852.834	4.47
853.215	9.65
853.597	13.91
853.978	19.99
854.359	19.91
854.741	21.6
855.122	20.39
855.503	19.25
855.884	15.58
856.265	22.16
856.646	15.55
857.026	21.09
857.407	18.97
857.788	13.5
858.169	6.14
858.549	14.88
858.93	14.11
859.31	17.47
859.69	23.12
860.071	26.36
860.451	24.44
860.831	25.24
861.211	16.95
861.591	11.73
861.971	9.14
862.351	12.27
862.731	-1.83
863.111	-5.13
863.491	0.57
863.87	-4.63
864.25	-8.12
864.629	-3.11
865.009	-1.08
865.388	2.04
865.768	1.27
866.147	12
866.526	14.59
866.905	22.96
867.284	14.84
867.663	3.77
868.042	10.12
868.421	11.58
868.8	4.75
869.179	10.18
869.558	10.58
869.936	15.22
870.315	7.51
870.693	10.55
871.072	4.01
871.45	7.28
871.828	12.95
872.207	7.58
872.585	6.82
872.963	4.4
873.341	9.54
873.719	17.75
874.097	16.16
874.475	19.98
874.853	11.91
875.23	15.8
875.608	19.92
875.986	20.32
876.363	20.76
876.741	33.28
877.118	44.75
877.495	41.63
877.873	35.02
878.25	33.23
878.627	33.17
879.004	38.81
879.381	35.93
879.758	40.53
880.135	39.04
880.512	43.02
880.889	26.5
881.265	16.82
881.642	10
882.019	9.28
882.395	19.62
882.772	25.11
883.148	25.21
883.524	28
883.901	24
884.277	20.01
884.653	15.31
885.029	27.89
885.405	42.9
885.781	46.42
886.157	43.35
886.532	36.63
886.908	34.34
887.284	33.39
887.659	36.77
888.035	35.57
888.411	32.16
888.786	32.56
889.161	20.48
889.537	6.04
889.912	7.38
890.287	10.46
890.662	9.04
891.037	2.66
891.412	4.9
891.787	-1.48
892.162	3.76
892.536	9.61
892.911	10.28
893.286	9.04
893.66	9.09
894.035	8.49
894.409	-0.6
894.784	7.89
895.158	7.73
895.532	10.75
895.906	19.42
896.281	18.86
896.655	27.1
897.029	33
897.402	33.27
897.776	38
898.15	41.08
898.524	51.23
898.898	38
899.271	48.76
899.645	37.27
900.018	25.25
900.392	23.94
900.765	8.26
901.138	11.43
901.511	9.45
901.884	25.5
902.258	19.39
902.631	21.75
903.003	22.12
903.376	18.8
903.749	21.14
904.122	21.63
904.495	14.24
904.867	15.07
905.24	12.31
905.612	11.99
905.985	-10.64
906.357	-14.97
906.729	-13.74
907.102	-0.95
907.474	-3.05
907.846	1.62
908.218	12.82
908.59	30.45
908.962	27.66
909.334	25.64
909.705	42.4
910.077	47.52
910.449	48.4
910.82	50.1
911.192	52.22
911.563	61.23
911.935	52.95
912.306	33.59
912.677	13.55
913.048	39.75
913.419	46.21
913.79	25.19
914.161	21.09
914.532	41.19
914.903	32.3
915.274	21.72
915.645	29.4
916.015	20.62
916.386	26.26
916.756	28.52
917.127	3.12
917.497	1.53
917.868	13.91
918.238	11.42
918.608	5.34
918.978	11.51
919.348	11.9
919.718	-6.41
920.088	3.56
920.458	19.63
920.828	5.34
921.198	14.48
921.567	10.47
921.937	8.9
922.306	-3.89
922.676	-15.41
923.045	10.78
923.415	24.69
923.784	22.59
924.153	33.05
924.522	29.5
924.891	27.97
925.26	29.47
925.629	28.02
925.998	19.07
926.367	37.74
926.736	71.17
927.104	55.88
927.473	35.87
927.842	44.02
928.21	27.95
928.578	1.35
928.947	28.01
929.315	38.95
929.683	67.89
930.051	88.11
930.42	105.46
930.788	59.37
931.156	58.87
931.523	101.19
931.891	102.12
932.259	113.8
932.627	162.7
932.994	203.67
933.362	195.53
933.729	152.31
934.097	145.23
934.464	119.91
934.831	111.07
935.199	104.53
935.566	85.34
935.933	136.5
936.3	153.45
936.667	120.82
937.034	200.66
937.401	181.42
937.767	164.5
938.134	135.13
938.501	182.54
938.867	238.15
939.234	402.63
939.6	295.75
939.967	220.63
940.333	182.2
940.699	133.4
941.065	24.43
941.431	77.26
941.798	148.9
942.163	257.34
942.529	152.39
942.895	120.81
943.261	90.92
943.627	143.85
943.992	132.09
944.358	106.14
944.723	138.36
945.089	143.7
945.454	114.11
945.82	84.9
946.185	67.21
946.55	99.23
946.915	76.47
947.28	81.71
947.645	65.1
948.01	86.42
948.375	113.22
948.74	88.58
949.104	80.6
949.469	18.69
949.834	25.04
950.198	118.64
950.562	106.13
950.927	116.69
951.291	133.05
951.655	99.51
952.02	34.29
952.384	13.69
952.748	60.12
953.112	91.94
953.476	91.96
953.839	82.7
954.203	96.35
954.567	92.82
954.931	85.46
955.294	90.77
955.658	90.01
956.021	163.17
956.385	220.51
956.748	258.29
957.111	82.76
957.474	86.2
957.837	53.46
958.2	-271.59
958.563	-115.52
958.926	-34.48
959.289	-62.39
959.652	-28.22
960.015	23.8
960.377	-2.78
960.74	-50.05
961.102	-104.26
961.465	92.07
961.827	495.49
962.189	963
962.552	740.79
962.914	505.24
963.276	307.52
963.638	253.6
964	207
964.362	184.77
964.724	177.28
965.085	148.08
965.447	119.52
965.809	35.86
966.17	23.48
966.532	18.48
966.893	41.6
967.255	30.9
967.616	26.13
967.977	36.24
968.338	23.07
968.699	40.07
969.061	24.61
969.421	23.15
969.782	15.67
970.143	38.72
970.504	70.2
970.865	84.23
971.225	122.24
971.586	112.89
971.946	124.24
972.307	114.31
972.667	92.45
973.027	113.2
973.388	120.22
973.748	98.91
974.108	102.31
974.468	27.71
974.828	95.45
975.188	47
975.548	59.32
975.907	69.65
976.267	89.86
976.627	107.37
976.986	101.31
977.346	102.71
977.705	100.78
978.064	94.17
978.424	95.38
978.783	56.38
979.142	55.22
979.501	52.27
979.86	56.51
980.219	38.68
980.578	8.47
980.937	-7.4
981.296	14.75
981.654	14.99
982.013	-49.85
982.371	-52.85
982.73	-22.26
983.088	-14.87
983.447	-10.06
983.805	12.56
984.163	-6.66
984.521	28.76
984.879	67.34
985.237	-78.7
985.595	589.08
985.953	198.04
986.311	56.22
986.669	52.24
987.026	31.59
987.384	-22.08
987.741	-57.88
988.099	33.05
988.456	33.56
988.814	61.07
989.171	49.13
989.528	-4.55
989.885	-9.82
990.242	24.92
990.599	1.93
990.956	-1.12
991.313	9.68
991.67	14.53
992.027	53.33
992.383	49.6
992.74	45.17
993.096	45.6
993.453	49.32
993.809	47.85
994.165	39.82
994.522	98.81
994.878	122.92
995.234	169.36
995.59	151.28
995.946	61.45
996.302	80.65
996.658	75.29
997.013	74.05
997.369	163.63
997.725	253.78
998.08	181.66
998.436	41.08
998.791	1.6
999.147	2.3
999.502	44.53
999.857	3.81
1000.212	-52.18
1000.567	-8.68
1000.922	7.27
1001.277	-35.49
1001.632	-39.01
1001.987	-49.66
1002.342	3.71
1002.696	39.11
1003.051	49.5
1003.406	57.29
1003.76	63.33
1004.114	81.03
1004.469	71.29
1004.823	63.04
1005.177	45.69
1005.531	40.91
1005.885	50.17
1006.239	75.75
1006.593	105.35
1006.947	124.06
1007.301	90.81
1007.655	83.76
1008.008	72.43
1008.362	84.49
1008.715	120.86
1009.069	126.32
1009.422	282.5
1009.776	440.55
1010.129	246.79
1010.482	144.23
1010.835	76.85
1011.188	108.12
1011.541	126.03
1011.894	97.39
1012.247	514.93
1012.6	-30.62
1012.952	42.08
1013.305	-71.26
1013.657	-18.99
1014.01	-33.96
1014.362	-21.41
1014.715	52.12
1015.067	66.34
1015.419	53.73
1015.771	66.94
1016.123	59.23
1016.475	76.31
1016.827	76.26
1017.179	109.06
1017.531	88.3
1017.883	87.26
1018.234	144.6
1018.586	154.05
1018.938	217.63
1019.289	349.4
1019.64	340.99
1019.992	301.42
1020.343	235.95
1020.694	214.55
1021.045	176.67
1021.396	214.13
1021.747	282.68
1022.098	238.77
1022.449	175.44
1022.8	119.76
1023.151	106.26
1023.501	138.6
1023.852	148.21
1024.202	178.99
1024.553	165.16
1024.903	203.56
1025.253	211.64
1025.604	195.92
1025.954	225.01
1026.304	240.45
1026.654	269.8
1027.004	322.88
1027.354	374.34
1027.703	432.07
1028.053	383.12
1028.403	774.76
1028.753	557.87
1029.102	14.22
1029.452	-2954.3
1029.801	-156.07
1030.15	-104.33
1030.499	-127.1
897.758	1939.13
901.051	1861.89
904.343	1894.6
907.636	1905.05
910.928	1963.14
914.22	1887.64
917.511	1892.23
920.803	1933.8
924.094	1921.32
927.384	1930.83
930.675	1892.9
933.965	1861.28
937.255	1899.16
940.544	1873.29
943.834	1856.57
947.123	1803.35
950.411	1884.42
953.7	1868.83
956.988	1858.17
960.276	1795.4
963.563	1830.07
966.851	1844.99
970.138	1878.03
973.424	1878.91
976.711	1832.36
979.997	1880.73
983.283	1917.01
986.568	1860.39
989.853	1841.88
993.138	1862.22
996.423	1946.51
999.708	1911.82
1002.992	1937.22
1006.275	1851.31
1009.559	1854.69
1012.842	1940.72
1016.125	1900.77
1019.408	1882.33
1022.69	1922.76
1025.972	1957.4
1029.254	1936.28
1032.536	1908.2
1035.817	1909.87
1039.098	1880.76
1042.379	1925.01
1045.659	1946.15
1048.939	1902.21
1052.219	1903.47
1055.498	1887.58
1058.778	1887.12
1062.057	1859.48
1065.335	1881.56
1068.614	1885.83
1071.892	1887.51
1075.17	1927.16
1078.447	1933.75
1081.724	1928
1085.001	1944.17
1088.278	1925.64
1091.554	1928.77
1094.83	1921.24
1098.106	1957.03
1101.382	1978.76
1104.657	1977.73
1107.932	1975.87
1111.206	1960.42
1114.481	1912.05
1117.755	1913.15
1121.029	1911.12
1124.302	1964.16
1127.575	1938.72
1130.848	1940.33
1134.121	1912.16
1137.393	1880.19
1140.665	1930.33
1143.937	1912.37
1147.208	1859.54
1150.48	1918.77
1153.75	1908.18
1157.021	1899.3
1160.291	1882.06
1163.561	1930.56
1166.831	1894.07
1170.101	1917.47
1173.37	1873.88
1176.639	1839.84
1179.907	1875.67
1183.176	1902.26
1186.444	1900.86
1189.711	1921.07
1192.979	1948.54
1196.246	1907.97
1199.513	1916.82
1202.78	1924.02
1206.046	1932.05
1209.312	1962.11
1212.578	1973.23
1215.843	1946.51
1219.108	1918.37
1222.373	1940.73
1225.638	1919.78
1228.902	1915.28
1232.166	1876.1
1235.43	1867.41
1238.693	1895.32
1241.956	1885.67
1245.219	1934.32
1248.482	1915.06
1251.744	1915.6
1255.006	2017.16
1258.268	1966.48
1261.529	1931.09
1264.79	1927.11
1268.051	2009.38
1271.312	2018.14
1274.572	1989.23
1277.832	1976.05
1281.092	1954.74
1284.351	1952.75
1287.61	1940.37
1290.869	1888.28
1294.128	1891.08
1297.386	1918.56
1300.644	1913.2
1303.902	1925.54
1307.159	1807.39
1310.416	1852.79
1313.673	1880.27
1316.93	1883.14
1320.186	1905.92
1323.442	1934.48
1326.697	1937.58
1329.953	1910.72
1333.208	1950.3
1336.463	1927.46
1339.717	1898.28
1342.972	1991.39
1346.226	1965.67
1349.479	1927.84
1352.733	1911.55
1355.986	1915.12
1359.238	1900.23
1362.491	1906.95
1365.743	1907.99
1368.995	1903.2
1372.247	1917.15
1375.498	1933.6
1378.749	1982.62
1382	1940.14
1385.251	1968.49
1388.501	1925.72
1391.751	1935.21
1395	1901.96
1398.25	1927.29
1401.499	1957.02
1404.748	1917.31
1407.996	1896.49
1411.244	1890.32
1414.492	1878.07
1417.74	1867
1420.987	1869.37
1424.234	1927.53
1427.481	1885.86
1430.728	1939.92
1433.974	1915.86
1437.22	1910.65
1440.465	1904.12
1443.711	1914.02
1446.956	1930.64
1450.201	1899.15
1453.445	1936.12
1456.689	1928.96
1459.933	1934.86
1463.177	1974.47
1466.42	1949.03
1469.663	1933.43
1472.906	1951.61
1476.148	1990.07
1479.391	1945.56
1482.633	1925.96
1485.874	1952.32
1489.115	1962.09
1492.356	1938.79
1495.597	1921.29
1498.838	1908.67
1502.078	1899.7
1505.318	1878.74
1508.557	1903.43
1511.797	1902.79
1515.036	1952.51
1518.274	1917.5
1521.513	1863.72
1524.751	1869.4
1527.989	1891.85
1531.227	1907.16
1534.464	1923.63
1537.701	1910
1540.938	1917.82
1544.174	1867.55
1547.41	1852.7
1550.646	1887.19
1553.882	1932.06
1557.117	1985.42
1560.352	1988.61
1563.587	1956.38
1566.821	1927.99
1570.055	1932.93
1573.289	1914.1
1576.523	1959.25
1579.756	1975.74
1582.989	1995.51
1586.222	1957.9
1589.454	1977.95
1592.686	1965.43
1595.918	1990.44
1599.15	1987.9
1602.381	2022.06
1605.612	2013.57
1608.843	2095.69
1612.073	2028.92
1615.303	2017.59
1618.533	2017.1
1621.762	2012.28
1624.992	1988.83
1628.221	1993.48
1631.449	1983.21
1634.678	1996.91
1637.906	1968.65
1641.134	1991.41
1644.361	1960.68
1647.588	1953.5
1650.815	1974.72
1654.042	1934.84
1657.269	1960.85
1660.495	1950.35
1663.72	1928.88
1666.946	1901.71
1670.171	1890.96
1673.396	1864.04
1676.621	1847.65
1679.845	1838.9
1683.069	1838.11
1686.293	1862.55
1689.517	1861.79
1692.74	1824.53
1695.963	1840.42
1699.185	1883.94
1702.408	1861.16
1705.63	1882.2
1708.852	1904.34
1712.073	1875.68
1715.294	1896.2
1718.515	1933.01
1721.736	1898.61
1724.956	1878.43
1728.176	1897.96
1731.396	1918.03
1734.616	1906.33
1737.835	1942.96
1741.054	1913.52
1744.272	1907.09
1747.491	1947.54
1750.709	1960.23
1753.927	1928.54
1757.144	1945.67
1760.361	2003.07
1763.578	1974.6
1766.795	1933.03
1770.011	1920.51
1773.227	1939.15
1776.443	1981.82
1779.658	2019.79
1782.874	1962.38
1786.089	1961.39
1789.303	1963.26
1792.518	1961.06
1795.732	1949.88
1798.945	1967.57
1802.159	2004.95
1805.372	1963.82
1808.585	1959.92
1811.797	1961.41
1815.01	1972.71
1818.222	2005.22
1821.434	1959.27
1824.645	1994.48
1827.856	2007.93
1831.067	2032.91
1834.278	1974.3
1837.488	1961.38
1840.698	2063.6
1843.908	2020.25
1847.117	1993.88
1850.326	1941.63
1853.535	1983.3
1856.744	2026.44
1859.952	1962.36
1863.16	1968.23
1866.368	1983.1
1869.575	2092.27
1872.782	1986.38
1875.989	1927.75
1879.196	1965.62
1882.402	1963.93
1885.608	1992.7
1888.814	1956.43
1892.019	1879.01
1895.224	1927.66
1898.429	1891.23
1901.634	1880.83
1904.838	1861.23
1908.042	1919.49
1911.246	1934.37
1914.449	1910.15
1917.652	1886.31
1920.855	1869.51
1924.058	1885.31
1927.26	1932.26
1930.462	1950.54
1933.664	1994.96
1936.865	1942.97
1940.066	1960.67
1943.267	1905.27
1946.467	1913.5
1949.668	1927.06
1952.868	1994.45
1956.067	1990.68
1959.267	1936.23
1962.466	1955.79
1965.665	1937.69
1968.863	1933.93
1972.061	1929.22
1975.259	1920.17
1978.457	1990.07
1981.654	1952.62
1984.852	1956.48
1988.048	1919.1
1991.245	1902.63
1994.441	1985.84
1997.637	1936.39
2000.833	1921.11
2004.028	1949.53
2007.223	2012.33
2010.418	2003.22
2013.613	1952.48
2016.807	1954.62
2020.001	1947.14
2023.194	1960.84
2026.388	1947.47
2029.581	1894.52
2032.774	1960.49
2035.966	1970.46
2039.158	1925.68
2042.35	1940.24
2045.542	1871.08
2048.733	1943.14
2051.924	1924.75
2055.115	1935.47
2058.306	1910.09
2061.496	1960.54
2064.686	2000.81
2067.875	1908.71
2071.065	1906.34
2074.254	1920.45
2077.442	1880.09
2080.631	1954.28
2083.819	1904.65
2087.007	1899.3
2090.195	1888.46
2093.382	1894.77
2096.569	1882.73
2099.756	1849.45
2102.942	1902.59
2106.128	1921.3
2109.314	1907.4
2112.5	1899.98
2115.685	1868
2118.87	1874.06
2122.055	1931.19
2125.239	1916.48
2128.424	1911.74
2131.608	1951.41
2134.791	1936.74
2137.974	1964.76
2141.157	1954.57
2144.34	1936.52
2147.523	1917.19
2150.705	1946.45
2153.887	1910.45
2157.068	1893.52
2160.25	1865.31
2163.431	1883.33
2166.611	1862.13
2169.792	1885.96
2172.972	1806.95
2176.152	1847.75
2179.331	1869.47
2182.511	1881.31
2185.69	1899.32
2188.868	1910.18
2192.047	1934.17
2195.225	1961.71
2198.403	1909.1
2201.58	1896.28
2204.758	1882.15
2207.935	1951.04
2211.111	1879.14
2214.288	1869.93
2217.464	1901
2220.64	1852.54
2223.815	1895.88
2226.991	1837.2
2230.166	1851.04
2233.34	1898.14
2236.515	1907.35
2239.689	1962.28
2242.863	1918.07
2246.036	1967.57
2249.209	1946.17
2252.382	1958.58
2255.555	1974.98
2258.727	1932.87
2261.9	1955.47
2265.071	1948.82
2268.243	1946.81
2271.414	1904.63
2274.585	1897.94
2277.756	1953.34
2280.926	1913.69
2284.096	1935.62
2287.266	1879.35
2290.436	1921.62
2293.605	1937.2
2296.774	1978.89
2299.942	1976.17
2303.111	1989.73
2306.279	2040.42
2309.447	2025.71
2312.614	1997.49
2315.781	2020.55
2318.948	2003.52
2322.115	2036.97
2325.281	1941.49
2328.447	1945.28
2331.613	1918.42
2334.779	1917.77
2337.944	1909.35
2341.109	1912.51
2344.274	1903.85
2347.438	1874.38
2350.602	1893.57
2353.766	1901.35
2356.929	1891.81
2360.092	1927.3
2363.255	1905.31
2366.418	1882.53
2369.58	1925.96
2372.742	1848.53
2375.904	1832
2379.066	1822.57
2382.227	1843.71
2385.388	1807.26
2388.548	1769.15
2391.709	1803.49
2394.869	1798.04
2398.029	1833.32
2401.188	1822.32
2404.347	1800.63
2407.506	1846.35
2410.665	1894.08
2413.823	1870.05
2416.981	1858.24
2420.139	1868.31
2423.296	1903.73
2426.453	1878.17
2429.61	1894.77
2432.767	1881.97
2435.923	1922.56
2439.079	1863.16
2442.235	1890.07
2445.391	1835.69
2448.546	1884.62
2451.701	1911.09
2454.855	1915.59
2458.009	1932.82
2461.163	1919.63
2464.317	1898.46
2467.471	1919.4
2470.624	1942.38
2473.777	1943.99
2476.929	1961.03
2480.082	1983.23
2483.234	1960.05
2486.385	1899.79
2489.537	1894.39
2492.688	1896.95
2495.839	1908.78
2498.989	1924.21
2502.14	1913.36
2505.29	1909.8
2508.439	1930.72
2511.589	1880.84
2514.738	1873.46
2517.887	1892.6
2521.035	1971.15
2524.183	1922.35
2527.331	1912.15
2530.479	1915.36
2533.627	1913.98
