Data from C_1_DEC_OH_4N_Splice17_11-56-18-349.txt Node
Date: Sat Mar 14 11:56:18 EDT 2020
User: sa697716
Spectrometer: FLMS03696
Trigger mode: 0
Integration Time (sec): 3.180400E-1
Scans to average: 20
Electric dark correction enabled: true
Nonlinearity correction enabled: true
Boxcar width: 5
XAxis mode: Wavelengths
Number of Pixels in Spectrum: 2048
>>>>>Begin Spectral Data<<<<<
187.83	-248683.84
188.298	1922.74
188.766	1057.99
189.233	966.21
189.701	1334.54
190.169	1773.56
190.636	679.53
191.104	517.34
191.571	69.99
192.039	-65.78
192.506	-64.29
192.974	613.63
193.441	-1103.92
193.908	-236.21
194.375	-39.45
194.842	-0.83
195.31	-19.67
195.777	103.73
196.244	297.29
196.711	413.57
197.177	564.08
197.644	813.38
198.111	1446.51
198.578	2092.26
199.045	1625.72
199.511	2669.22
199.978	3133.54
200.445	2659.72
200.911	2954.52
201.378	3305.3
201.844	3003.12
202.31	5116.81
202.777	5319.17
203.243	2940.34
203.709	2782.38
204.176	3357.18
204.642	2768.26
205.108	2578.61
205.574	2126.05
206.04	1950.72
206.506	1827.55
206.972	1712.89
207.438	1654.87
207.903	1895.16
208.369	1673.72
208.835	1678.32
209.301	1751.11
209.766	1788.53
210.232	1778.08
210.697	2212.57
211.163	2731.28
211.628	4147.15
212.094	3527.37
212.559	4318.62
213.024	2696.52
213.49	3286.53
213.955	3216.24
214.42	3141.84
214.885	2919.99
215.35	2796.15
215.815	2670.26
216.28	2826.42
216.745	2318.8
217.21	2504.88
217.675	2315.14
218.14	2619.17
218.604	2955.59
219.069	3394.88
219.534	3598.32
219.998	4238.45
220.463	5176.15
220.927	6418.95
221.392	6083.73
221.856	6169.73
222.32	7819.92
222.785	9723.76
223.249	12298.38
223.713	13731.72
224.177	13749.9
224.642	17665.72
225.106	21749.34
225.57	23794.02
226.034	17725.76
226.497	27019.72
226.961	24419.33
227.425	28450.39
227.889	31567.49
228.353	31566.04
228.816	65283.23
229.28	62487.04
229.744	52714.12
230.207	32060.32
230.671	31527.13
231.134	52243.42
231.597	60290.24
232.061	60280.25
232.524	58880.8
232.987	40495.84
233.45	36438.54
233.914	32664.3
234.377	33500.08
234.84	30694.02
235.303	36211.73
235.766	40456.64
236.229	41748.4
236.691	26293.84
237.154	29561.68
237.617	22210.99
238.08	22761.71
238.542	26635.49
239.005	19048.17
239.468	18879.45
239.93	17783.51
240.393	16127.27
240.855	14153.44
241.317	14494.1
241.78	17606.76
242.242	18194.03
242.704	19627.47
243.166	17075.32
243.629	15520.67
244.091	17881.46
244.553	19602.95
245.015	21066.87
245.477	27256.82
245.939	39967.64
246.4	42417.95
246.862	41243.16
247.324	38871.6
247.786	43530.59
248.247	57115.61
248.709	58962.84
249.17	44118.72
249.632	41583.03
250.093	48188.56
250.555	41671.65
251.016	25415.92
251.477	24121.69
251.939	26062.39
252.4	27383.02
252.861	32587.24
253.322	30342.56
253.783	36128.73
254.244	46849.46
254.705	36957.21
255.166	32884.6
255.627	32389.19
256.088	45684.95
256.549	48521.05
257.009	41763.64
257.47	50611.09
257.931	41209.35
258.391	30844.33
258.852	31778.72
259.312	33347.2
259.773	41215.9
260.233	34831.23
260.694	29392.6
261.154	33358.89
261.614	26794.22
262.074	24006.83
262.534	24971.3
262.994	23553.1
263.455	31408.02
263.915	26480.8
264.374	24969.52
264.834	27290.77
265.294	30270.54
265.754	31369.1
266.214	29728.83
266.673	27891.54
267.133	35203.24
267.593	34968.46
268.052	42799.73
268.512	37288.9
268.971	44980.45
269.431	49323.39
269.89	44182.71
270.349	66298.68
270.809	73958.18
271.268	66477.26
271.727	149085.08
272.186	96568.75
272.645	72486.93
273.104	52322.66
273.563	75707.61
274.022	59619.89
274.481	50740.85
274.94	39114.42
275.399	29094.71
275.857	33889.54
276.316	45899.73
276.775	40892.86
277.233	40307.17
277.692	37721.44
278.15	42702.63
278.609	43950.26
279.067	40660.99
279.525	37755.71
279.984	48752.82
280.442	58571.71
280.9	57767.25
281.358	37964.07
281.816	35363.47
282.274	34626.65
282.732	35785.55
283.19	35975.87
283.648	31070.11
284.106	33128.16
284.564	33733.76
285.021	31277.06
285.479	23289.74
285.937	21190.51
286.394	18581.19
286.852	19123.65
287.309	20112.85
287.767	19413.25
288.224	18461.08
288.682	20267.33
289.139	22229.41
289.596	20328.8
290.053	21136.23
290.511	26724.5
290.968	32426.61
291.425	44073.08
291.882	36680.39
292.339	31897.57
292.796	31693.23
293.252	29881.51
293.709	23711.31
294.166	21262.85
294.623	23494.62
295.079	22544.78
295.536	22644.33
295.992	20537.92
296.449	20322.5
296.905	21121.29
297.362	20225.45
297.818	21276.79
298.274	22066.51
298.731	22530.15
299.187	22306.73
299.643	23976.81
300.099	28997.51
300.555	31771.07
301.011	26562.13
301.467	25597.58
301.923	29974.71
302.379	29324.79
302.835	28783.34
303.291	28798.16
303.746	32714.48
304.202	41290.02
304.658	41460.93
305.113	27882.85
305.569	27318.5
306.024	29130.92
306.479	27721.18
306.935	23372.37
307.39	25510.27
307.845	23569.37
308.301	23720.39
308.756	23125.45
309.211	22281.87
309.666	22804.08
310.121	28298.62
310.576	28737.47
311.031	28490.88
311.486	32630.74
311.94	32609.41
312.395	43596.46
312.85	81908.83
313.305	401970.35
313.759	2078163.91
314.214	150586.39
314.668	119309.18
315.123	100322.7
315.577	35964.25
316.032	31977.39
316.486	40017.71
316.94	31500.95
317.394	21949.55
317.849	17050.66
318.303	16153.75
318.757	15231.39
319.211	16824.52
319.665	14721.18
320.119	14897.08
320.572	21387.63
321.026	19979.21
321.48	16630.43
321.934	18146.85
322.387	18170.61
322.841	19617.2
323.295	17614.51
323.748	20314.64
324.202	20598.52
324.655	24733.87
325.108	34507.91
325.562	24350.64
326.015	28947.32
326.468	21886.24
326.921	24487.33
327.374	22833.78
327.827	23764.92
328.28	26915.76
328.733	18002.56
329.186	15846.41
329.639	15083.42
330.092	12721.55
330.545	12117.55
330.997	12221.1
331.45	13348.44
331.903	15618.39
332.355	26858.67
332.808	26107.31
333.26	21542.84
333.713	23393.99
334.165	23532.17
334.617	31449.53
335.069	25417.66
335.522	45902.7
335.974	50804.31
336.426	46378.86
336.878	32153.76
337.33	16313.97
337.782	15907.52
338.234	19893.34
338.686	23807.73
339.137	28234.59
339.589	26588.08
340.041	20821.07
340.493	17891.29
340.944	18336.05
341.396	19749.16
341.847	16587.23
342.299	19513.33
342.75	23848.41
343.201	20857.44
343.653	23962.02
344.104	29439.33
344.555	23168.4
345.006	36082.22
345.457	27629.83
345.908	21937.99
346.359	20619.53
346.81	16790.46
347.261	17702.43
347.712	17432.06
348.163	18679.16
348.613	18958.7
349.064	17665.9
349.515	15459.35
349.965	15871.14
350.416	19099.63
350.866	20957.09
351.317	23722.21
351.767	39302.35
352.217	49774.03
352.668	41250.23
353.118	37809.22
353.568	36412.79
354.018	28816.73
354.468	30352.05
354.918	21745.53
355.368	19034.29
355.818	26881.2
356.268	77410.69
356.718	323988.43
357.168	80594.5
357.617	40527.71
358.067	45083.29
358.517	42235.72
358.966	49523.09
359.416	55623.25
359.865	60099.45
360.315	71531.85
360.764	33381.54
361.213	18666.65
361.663	17661.2
362.112	21799.86
362.561	35172.14
363.01	26496.92
363.459	22286.47
363.908	24105.71
364.357	20442.62
364.806	34499.96
365.255	23739.26
365.703	21728.17
366.152	21762.27
366.601	17668.53
367.05	14328.38
367.498	12993.51
367.947	13580.63
368.395	14103.78
368.844	12491.64
369.292	15073.05
369.74	10406.42
370.189	15919.53
370.637	18626.31
371.085	16061.68
371.533	19536.99
371.981	18796.21
372.429	17907.21
372.877	18662.69
373.325	15625.72
373.773	15895.97
374.221	14139.03
374.669	17552.03
375.116	15170.47
375.564	15292.17
376.012	17095.87
376.459	14090.38
376.907	16842.12
377.354	20355.06
377.801	18917.73
378.249	21707.53
378.696	27760.8
379.143	33553.75
379.591	35663.59
380.038	60304.24
380.485	43593.87
380.932	46938.56
381.379	42844.32
381.826	31530.75
382.273	22406.16
382.72	19555.03
383.166	19051.71
383.613	12342.88
384.06	11132.75
384.506	12885.91
384.953	9454.07
385.4	9496.26
385.846	8327.09
386.292	8120.15
386.739	7913.11
387.185	7811.43
387.631	7826.88
388.078	7572.52
388.524	8087.06
388.97	7453.71
389.416	6200.11
389.862	6572.66
390.308	6217.67
390.754	6299.5
391.2	6804.45
391.645	6958.23
392.091	6647.97
392.537	6400.46
392.983	6410.28
393.428	6298.35
393.874	6735.43
394.319	6755.26
394.765	6392.55
395.21	6557.89
395.655	6128.99
396.101	5739.05
396.546	5179.45
396.991	5216.86
397.436	4843.68
397.881	4663.75
398.326	4403.48
398.771	4166.16
399.216	3639.44
399.661	3275.89
400.106	3264.36
400.551	3341.95
400.995	2997.41
401.44	2960.62
401.885	2775.72
402.329	2803.96
402.774	2690.82
403.218	2606.48
403.663	2500.53
404.107	2563.03
404.551	2576.88
404.995	2359.9
405.44	2273.1
405.884	2302.47
406.328	2227.68
406.772	2220.57
407.216	2019.89
407.66	1948.46
408.104	1847.51
408.547	1729.73
408.991	1673.33
409.435	1609.31
409.879	1585.56
410.322	1564
410.766	1510.25
411.209	1430.74
411.653	1370.61
412.096	1338.38
412.54	1335.48
412.983	1322.59
413.426	1324.34
413.869	1320.58
414.312	1295.88
414.756	1247.01
415.199	1185.77
415.642	1148.92
416.085	1151.75
416.527	1143.01
416.97	1158.27
417.413	1100.56
417.856	1089.26
418.298	1077.81
418.741	1069.93
419.184	1064.54
419.626	1105.9
420.069	1107.37
420.511	1113.18
420.953	1086.88
421.396	1077.59
421.838	1050.96
422.28	1074.18
422.722	1079.19
423.164	1092.78
423.606	1076.23
424.048	1074.97
424.49	1025.83
424.932	1018.65
425.374	1002.09
425.816	1021.1
426.258	1037.29
426.699	1050.54
427.141	1034.07
427.582	1051.19
428.024	1046.23
428.465	1037.48
428.907	1008.98
429.348	992.83
429.789	990.58
430.231	970.82
430.672	982.5
431.113	959.39
431.554	944.77
431.995	921.93
432.436	886.6
432.877	867.31
433.318	854.17
433.759	850.32
434.2	850.4
434.64	842.21
435.081	845
435.522	800.48
435.962	773.24
436.403	754.68
436.843	763.91
437.284	746.7
437.724	725.13
438.164	725.87
438.604	709.93
439.045	682.53
439.485	655.45
439.925	640.61
440.365	624.66
440.805	615.68
441.245	607.96
441.685	585.27
442.125	581.3
442.564	583.54
443.004	570.12
443.444	568.16
443.883	568.06
444.323	562.46
444.762	561.3
445.202	567
445.641	575.52
446.081	570.46
446.52	574.59
446.959	567.06
447.398	553.14
447.837	544.97
448.276	534.51
448.716	539.96
449.154	543.44
449.593	531.3
450.032	529.28
450.471	516.75
450.91	516.79
451.349	515.65
451.787	511.79
452.226	518.04
452.664	517.67
453.103	516.53
453.541	512.92
453.98	511.33
454.418	513.42
454.856	504.68
455.295	504.13
455.733	508.32
456.171	509.23
456.609	510.77
457.047	510.77
457.485	518.18
457.923	520.66
458.361	514.27
458.798	515.72
459.236	515.22
459.674	519.06
460.111	522.85
460.549	517.58
460.987	516.53
461.424	514.76
461.862	513.01
462.299	504.07
462.736	502.74
463.173	503.74
463.611	499.15
464.048	497.92
464.485	503.25
464.922	498
465.359	494.34
465.796	489.49
466.233	486.35
466.67	483.05
467.106	482.93
467.543	479.2
467.98	474.13
468.416	461.95
468.853	458.63
469.29	443.64
469.726	439.29
470.162	428.34
470.599	420.65
471.035	416.52
471.471	404.07
471.907	400.35
472.344	396.91
472.78	397.61
473.216	401.29
473.652	395.8
474.088	392.9
474.523	390.93
474.959	394.21
475.395	389.56
475.831	386.39
476.266	388.36
476.702	386.66
477.138	382.38
477.573	380.52
478.008	378.03
478.444	379.29
478.879	384.18
479.314	385.19
479.75	383.87
480.185	385.21
480.62	387.8
481.055	390.01
481.49	393.06
481.925	397.66
482.36	404.48
482.795	416.02
483.229	425.9
483.664	432.89
484.099	434.27
484.534	441.13
484.968	445.46
485.403	446.17
485.837	444.78
486.271	442.9
486.706	442.85
487.14	436.97
487.574	429.93
488.009	425.6
488.443	421.62
488.877	425.39
489.311	426.42
489.745	431.58
490.179	435.18
490.613	444.1
491.046	447.19
491.48	450.78
491.914	451.27
492.348	454.2
492.781	457.26
493.215	458.33
493.648	459.45
494.082	462.56
494.515	462.68
494.948	468.97
495.382	471.28
495.815	475.37
496.248	479.36
496.681	487.99
497.114	496.05
497.547	503.62
497.98	514.41
498.413	519.68
498.846	527.62
499.279	535.11
499.711	539.03
500.144	542.38
500.577	551.34
501.009	560.52
501.442	569.27
501.874	571.54
502.306	574.18
502.739	582.07
503.171	594.92
503.603	599.14
504.036	607.8
504.468	614.28
504.9	624.59
505.332	632.94
505.764	639.81
506.196	648.34
506.627	663.21
507.059	677.32
507.491	686.31
507.923	688.46
508.354	703.76
508.786	715.87
509.217	734.27
509.649	751.07
510.08	769.95
510.512	787.49
510.943	804.2
511.374	817.42
511.805	838.51
512.237	858.4
512.668	889.94
513.099	917.32
513.53	945.01
513.961	966.77
514.391	997.39
514.822	1029.15
515.253	1064.33
515.684	1091.68
516.114	1122.09
516.545	1145.72
516.975	1175.23
517.406	1196.87
517.836	1206.35
518.267	1217.32
518.697	1239.9
519.127	1250.15
519.558	1263.44
519.988	1272.53
520.418	1287.84
520.848	1310.49
521.278	1324.41
521.708	1346.08
522.138	1361.6
522.567	1393.42
522.997	1422.32
523.427	1440.53
523.857	1460.42
524.286	1474.04
524.716	1492.19
525.145	1512.66
525.575	1525.41
526.004	1542.25
526.433	1540.7
526.863	1543.75
527.292	1538.33
527.721	1545.76
528.15	1553.76
528.579	1556.57
529.008	1569.78
529.437	1594.07
529.866	1609.73
530.295	1628.99
530.724	1642.79
531.152	1669.6
531.581	1686.12
532.01	1704.56
532.438	1715.1
532.867	1730.37
533.295	1749.8
533.723	1755.92
534.152	1754.85
534.58	1756.21
535.008	1741.81
535.436	1745.29
535.865	1753.53
536.293	1768.21
536.721	1784.52
537.149	1808.86
537.576	1812.68
538.004	1826.05
538.432	1835.99
538.86	1835.1
539.287	1842.8
539.715	1857.82
540.143	1861.37
540.57	1859.13
540.998	1856.21
541.425	1834.5
541.852	1815.47
542.28	1814.24
542.707	1800.02
543.134	1786.52
543.561	1782.17
543.988	1774.69
544.415	1773.46
544.842	1768.81
545.269	1761.87
545.696	1763.12
546.123	1775.82
546.549	1765.5
546.976	1753.26
547.403	1751.76
547.829	1753.35
548.256	1755.66
548.682	1751.25
549.108	1743.38
549.535	1741.37
549.961	1742.36
550.387	1729.22
550.813	1723.31
551.24	1728.99
551.666	1728.58
552.092	1719.13
552.518	1711.73
552.943	1705.49
553.369	1711.91
553.795	1716.51
554.221	1715.49
554.646	1711.9
555.072	1721.78
555.498	1724.81
555.923	1732.35
556.349	1745.29
556.774	1750.51
557.199	1749.76
557.625	1752.76
558.05	1745.65
558.475	1753.52
558.9	1750.95
559.325	1740.4
559.75	1731.43
560.175	1722.21
560.6	1713.66
561.025	1709.87
561.449	1708.82
561.874	1711.8
562.299	1713.36
562.723	1717.08
563.148	1704.9
563.572	1706.94
563.997	1712.24
564.421	1714.68
564.846	1713.16
565.27	1712.88
565.694	1707.88
566.118	1716.16
566.542	1719.15
566.966	1710.22
567.39	1701.91
567.814	1688.37
568.238	1683.47
568.662	1685.98
569.086	1684.46
569.509	1687.35
569.933	1670.61
570.357	1659.57
570.78	1635.99
571.204	1620.96
571.627	1607.21
572.05	1602.97
572.474	1598.79
572.897	1584.39
573.32	1573.87
573.743	1560.81
574.166	1541.44
574.589	1538.24
575.012	1528.83
575.435	1524.63
575.858	1513.38
576.281	1500.91
576.704	1483.79
577.126	1469.98
577.549	1457.7
577.972	1445.72
578.394	1433.7
578.817	1424.8
579.239	1404.82
579.661	1390.36
580.084	1373.96
580.506	1360.16
580.928	1354.64
581.35	1343.18
581.772	1337.02
582.194	1322.47
582.616	1309.81
583.038	1295.32
583.46	1284.13
583.882	1278.96
584.303	1279.62
584.725	1274.24
585.147	1274.65
585.568	1280.72
585.99	1288.35
586.411	1293.13
586.833	1303.58
587.254	1302.52
587.675	1312.93
588.096	1321.38
588.518	1315.26
588.939	1300.12
589.36	1297.25
589.781	1286.15
590.202	1260.87
590.623	1252.22
591.043	1248.3
591.464	1236.95
591.885	1233.14
592.305	1228.3
592.726	1216.03
593.147	1216.49
593.567	1211.74
593.987	1204.66
594.408	1200.09
594.828	1198.19
595.248	1192.36
595.669	1176.54
596.089	1169.92
596.509	1163.75
596.929	1150.65
597.349	1149.32
597.769	1141.08
598.189	1134.97
598.608	1134.97
599.028	1134.63
599.448	1133.79
599.867	1123.04
600.287	1118.52
600.706	1114
601.126	1105.09
601.545	1103.85
601.965	1101.83
602.384	1096.29
602.803	1097.16
603.222	1091.95
603.641	1085.13
604.061	1081.16
604.48	1075.54
604.898	1080.36
605.317	1082.66
605.736	1082.34
606.155	1079.16
606.574	1070.32
606.992	1071.74
607.411	1065.87
607.829	1057.25
608.248	1052.7
608.666	1049.09
609.085	1046.99
609.503	1037.67
609.921	1030.85
610.339	1030.78
610.758	1028.01
611.176	1023.24
611.594	1014.94
612.012	1010.65
612.43	1011.83
612.847	1015.27
613.265	1013.6
613.683	1015.78
614.101	1015.36
614.518	1010.8
614.936	1000.42
615.353	986.89
615.771	982.74
616.188	980.71
616.606	976.51
617.023	968.63
617.44	956.1
617.857	948.78
618.274	940.35
618.691	934.91
619.108	926.33
619.525	921.46
619.942	924.99
620.359	925.78
620.776	921.12
621.192	916.07
621.609	915.52
622.026	919.59
622.442	923.49
622.859	925.18
623.275	918.41
623.691	922.06
624.108	930.16
624.524	940.25
624.94	939.44
625.356	947.07
625.772	957.55
626.188	964.7
626.604	966.11
627.02	962.46
627.436	961.46
627.852	966.69
628.268	976.09
628.683	968.92
629.099	962.52
629.514	958.83
629.93	961.42
630.345	963.88
630.761	961.49
631.176	963.35
631.591	960.23
632.007	955.72
632.422	954.28
632.837	944.64
633.252	943.23
633.667	935.44
634.082	928.19
634.497	916.83
634.911	901.94
635.326	896.55
635.741	883.84
636.155	873.39
636.57	872.1
636.984	870.08
637.399	869.36
637.813	864.68
638.228	861.85
638.642	862.17
639.056	852.24
639.47	849.65
639.884	841.73
640.298	832.79
640.712	829.56
641.126	818.12
641.54	808.93
641.954	801.33
642.368	791.63
642.781	783.65
643.195	768.18
643.609	766.68
644.022	760.05
644.436	754.2
644.849	744.81
645.262	734.31
645.676	732.24
646.089	726.52
646.502	715.61
646.915	710.11
647.328	696.94
647.741	693.44
648.154	682.07
648.567	679.51
648.98	669.57
649.393	668.37
649.805	666.97
650.218	661.9
650.631	650.62
651.043	646.2
651.456	641.02
651.868	639.66
652.28	649.63
652.693	658.15
653.105	660.28
653.517	665.85
653.929	664.32
654.341	665.5
654.753	656.16
655.165	660.76
655.577	657.46
655.989	654.96
656.401	649.33
656.813	626.66
657.224	613.27
657.636	593.62
658.047	581.91
658.459	569.28
658.87	562.24
659.282	554.96
659.693	541.67
660.104	532.57
660.515	522.73
660.926	520.27
661.338	518.82
661.749	514.83
662.159	510.18
662.57	507.05
662.981	505.04
663.392	500.92
663.803	503.3
664.213	501.89
664.624	499.3
665.035	502.47
665.445	495.3
665.855	492.07
666.266	487.94
666.676	487.57
667.086	482.67
667.497	482.72
667.907	479.69
668.317	474.53
668.727	474.23
669.137	476.2
669.547	475.6
669.956	477.77
670.366	479.5
670.776	482.08
671.186	486
671.595	489.82
672.005	493.4
672.414	495.29
672.824	496.28
673.233	498.88
673.642	501.24
674.052	504.32
674.461	507.4
674.87	511.7
675.279	511.11
675.688	513
676.097	515.9
676.506	515.14
676.915	525.2
677.323	528.78
677.732	529.33
678.141	530.44
678.549	523.63
678.958	524.38
679.366	524.21
679.775	528.14
680.183	535.12
680.592	538.55
681	543.21
681.408	539.4
681.816	544.06
682.224	549.06
682.632	555.85
683.04	577.13
683.448	593.35
683.856	614.1
684.264	638.48
684.671	660.66
685.079	687.91
685.487	718.1
685.894	760.03
686.302	794.88
686.709	824.87
687.116	859.48
687.524	889.95
687.931	919.05
688.338	943.46
688.745	965.09
689.152	993.14
689.559	1030.16
689.966	1067.24
690.373	1089.62
690.78	1128.66
691.187	1185.55
691.593	1233.33
692	1274.29
692.407	1332.87
692.813	1406.17
693.22	1469
693.626	1532.18
694.032	1587.43
694.439	1665.36
694.845	1731.02
695.251	1809.76
695.657	1882.35
696.063	1984.13
696.469	2067.19
696.875	2144.89
697.281	2198.42
697.687	2256.94
698.093	2310.88
698.498	2395.87
698.904	2466.63
699.31	2564.13
699.715	2637.28
700.12	2740.35
700.526	2773.9
700.931	2855.55
701.337	2921.43
701.742	2966.76
702.147	3064.64
702.552	3110
702.957	3184.5
703.362	3218.75
703.767	3261.46
704.172	3319.5
704.577	3285.04
704.981	3344.48
705.386	3373.66
705.791	3378.12
706.195	3466.44
706.6	3486.03
707.004	3577.46
707.408	3558
707.813	3596.2
708.217	3596.38
708.621	3607.57
709.025	3718.81
709.43	3729.87
709.834	3801.24
710.237	3883.61
710.641	3878.42
711.045	3912.33
711.449	3917.13
711.853	3956.59
712.256	4011.32
712.66	4061.11
713.064	4148.85
713.467	4201.96
713.87	4331.57
714.274	4389.1
714.677	4513.8
715.08	4692.59
715.484	4880.77
715.887	5104.51
716.29	5326.25
716.693	5555.71
717.096	5824.01
717.499	5971.2
717.901	6006.98
718.304	6045.58
718.707	6082.25
719.109	5979.67
719.512	5955.74
719.915	5815.5
720.317	5763.54
720.719	5818.32
721.122	5793.33
721.524	5742.15
721.926	5705.55
722.328	5823.29
722.731	5817.67
723.133	5853.8
723.535	6069.5
723.937	6099.59
724.338	6161.14
724.74	6210.19
725.142	6126.09
725.544	6128.59
725.945	6159.8
726.347	6160.56
726.748	6154.13
727.15	6174.17
727.551	6136.18
727.952	6111.55
728.354	6081.38
728.755	6087.88
729.156	6047.49
729.557	6057.1
729.958	5928.18
730.359	5872.88
730.76	5856.76
731.161	5794.96
731.562	5769.33
731.962	5777.62
732.363	5707.69
732.763	5639.42
733.164	5679.05
733.564	5606.4
733.965	5502.82
734.365	5467.3
734.766	5499.89
735.166	5459.21
735.566	5400.2
735.966	5373.01
736.366	5367.12
736.766	5301.75
737.166	5338.64
737.566	5295.8
737.966	5267.61
738.365	5310.58
738.765	5304.78
739.165	5222.57
739.564	5194.1
739.964	5246.59
740.363	5197.37
740.763	5196.46
741.162	5185.1
741.561	5150.5
741.96	5100.27
742.36	5122.24
742.759	5131.05
743.158	5175.54
743.557	5194.24
743.955	5239.26
744.354	5186.8
744.753	5250.57
745.152	5204.69
745.55	5268.56
745.949	5261.21
746.348	5263.43
746.746	5283.69
747.144	5237.17
747.543	5211.07
747.941	5266.62
748.339	5188.18
748.737	5180.26
749.136	5172.33
749.534	5246.29
749.932	5212.23
750.33	5237.55
750.727	5300.6
751.125	5272.29
751.523	5255.45
751.921	5304.71
752.318	5265.21
752.716	5331.07
753.113	5349.92
753.511	5376.32
753.908	5378.38
754.305	5360.1
754.703	5429.09
755.1	5497.79
755.497	5564.02
755.894	5777.31
756.291	5977.23
756.688	6342.87
757.085	6828.74
757.482	7510.16
757.878	8256.02
758.275	8930.91
758.672	9862.39
759.068	10619.24
759.465	11700.75
759.861	13098.36
760.258	14716.03
760.654	15546.09
761.05	15422.24
761.447	14717.78
761.843	13699.99
762.239	12654.22
762.635	12175.71
763.031	11720.24
763.427	11065.64
763.822	10376.65
764.218	9699.46
764.614	8814.41
765.01	8224.57
765.405	7840.37
765.801	7556.6
766.196	7190.61
766.592	6985.9
766.987	6638.72
767.382	6402.44
767.778	6308.03
768.173	6161.09
768.568	6079.16
768.963	5939.91
769.358	5958.78
769.753	5909.44
770.148	5812.24
770.542	5808.49
770.937	5771.48
771.332	5871.08
771.726	5894.64
772.121	5822.71
772.515	5884.95
772.91	5871.03
773.304	5950.99
773.699	5880.77
774.093	5938.71
774.487	5999.71
774.881	6047.93
775.275	6047.17
775.669	6001.95
776.063	6052.46
776.457	6094.36
776.851	6010.65
777.245	6002.18
777.638	6037.02
778.032	6162.23
778.425	6124.22
778.819	6171.04
779.212	6124.14
779.606	6075.85
779.999	6099
780.392	6077.98
780.786	6165.9
781.179	6186
781.572	6228.71
781.965	6242.29
782.358	6179.4
782.751	6240.82
783.143	6188.11
783.536	6271.18
783.929	6321.42
784.322	6445.64
784.714	6479.46
785.107	6473.56
785.499	6554.85
785.891	6530.53
786.284	6512.23
786.676	6666.84
787.068	6641.03
787.46	6697.16
787.852	6713.77
788.245	6807.81
788.636	6840.6
789.028	6915.2
789.42	6960.27
789.812	6970.84
790.204	7080.93
790.595	7189.46
790.987	6971.18
791.378	7000.53
791.77	7146.59
792.161	7299.21
792.553	7354.95
792.944	7233.37
793.335	7159.25
793.726	7238.29
794.117	7337.83
794.508	7487.62
794.899	7456.85
795.29	7610.86
795.681	7673.13
796.072	7511.96
796.463	7303
796.853	7315.62
797.244	7483.32
797.634	7516.77
798.025	7519.13
798.415	7531.37
798.806	7626.45
799.196	7716.11
799.586	7774.77
799.976	7733.22
800.366	7991.18
800.756	8262.58
801.146	8221.63
801.536	8257.49
801.926	8342.85
802.316	8371.56
802.706	8450.89
803.095	8315.61
803.485	8426.86
803.874	8472.49
804.264	8759.49
804.653	8728.08
805.043	8883.12
805.432	8997.33
805.821	8996.75
806.21	9015.14
806.599	9140.45
806.988	9189.66
807.377	9311.77
807.766	9454.62
808.155	9762.97
808.544	9469.95
808.933	9485.04
809.321	9462.74
809.71	9789.81
810.098	9960.52
810.487	10466.9
810.875	10993.93
811.264	11015.21
811.652	11327.05
812.04	11488.45
812.428	11669.67
812.816	12509.28
813.204	12965.74
813.592	13566.26
813.98	13931.43
814.368	13821.93
814.756	14342.6
815.144	14255.98
815.531	14769.9
815.919	14686.29
816.306	15015
816.694	14668.39
817.081	14722.86
817.469	15097.67
817.856	15098.19
818.243	15398.93
818.63	15833.65
819.017	15369.58
819.404	15427.94
819.791	15846.07
820.178	16517.41
820.565	16789.81
820.952	17816.13
821.339	17282.97
821.725	17486.84
822.112	16675.08
822.498	16627.82
822.885	16778.7
823.271	16684.49
823.657	17154.37
824.044	17157.84
824.43	17240.57
824.816	17203.72
825.202	16724.46
825.588	17836.15
825.974	17859.09
826.36	18425.74
826.746	18460.36
827.132	18845.43
827.517	18816.16
827.903	17953.95
828.289	17992.89
828.674	17147.93
829.06	17040.61
829.445	17475.35
829.83	17864.3
830.216	18388.2
830.601	18785.76
830.986	18341.27
831.371	18192.47
831.756	18802.95
832.141	18338.66
832.526	18336.36
832.911	18642.32
833.295	18519.52
833.68	19041.04
834.065	18367.73
834.449	17361.94
834.834	17282.07
835.218	17285.57
835.603	17657.8
835.987	17434.85
836.371	18353.76
836.755	18239.54
837.139	18690.14
837.524	18954.69
837.908	18760.77
838.291	18835.34
838.675	18912.53
839.059	19157.23
839.443	19144.2
839.827	18901.9
840.21	19435.53
840.594	19268.16
840.977	19496.66
841.361	19475.81
841.744	19896.27
842.127	19720.96
842.511	19980.82
842.894	20649.92
843.277	21062.07
843.66	21660.24
844.043	21754.52
844.426	20859.51
844.809	20524.08
845.191	20571.92
845.574	20056.53
845.957	19652.48
846.339	19537.54
846.722	18961.72
847.104	19028.28
847.487	18834.98
847.869	18844.89
848.252	19152.91
848.634	19512.62
849.016	19799.51
849.398	19939.17
849.78	20876.18
850.162	20877.46
850.544	21334.29
850.926	22029.39
851.307	21936.47
851.689	22240.3
852.071	22741.61
852.452	23084.73
852.834	23066.61
853.215	23496.94
853.597	23654.85
853.978	23977.77
854.359	24483.44
854.741	23386.12
855.122	23279.37
855.503	22954.86
855.884	23102.57
856.265	23031.69
856.646	23165.23
857.026	22731.64
857.407	22659.97
857.788	22828.19
858.169	23135.14
858.549	22193.92
858.93	22876.64
859.31	22923.64
859.69	23150.73
860.071	22706.17
860.451	22476.91
860.831	21662.1
861.211	22933.69
861.591	23541.12
861.971	23510.53
862.351	23726.41
862.731	24159.39
863.111	24446.24
863.491	24808.15
863.87	25779.01
864.25	26167.5
864.629	25717.72
865.009	26284.1
865.388	27217.05
865.768	29161.22
866.147	29052.44
866.526	27447.6
866.905	27765.08
867.284	29334.71
867.663	27861.86
868.042	26708.51
868.421	26634
868.8	27088.43
869.179	27358.51
869.558	25766.67
869.936	23750.47
870.315	24174.86
870.693	24755.87
871.072	26710.28
871.45	25440.5
871.828	25756.24
872.207	27076.63
872.585	26651.36
872.963	27363.82
873.341	26414.53
873.719	26107.91
874.097	25800.73
874.475	26298.52
874.853	26919.15
875.23	25796.59
875.608	26878.76
875.986	29076.58
876.363	27794.69
876.741	28651.9
877.118	27929.39
877.495	29304.11
877.873	29786.2
878.25	31339.35
878.627	30044.94
879.004	30466.33
879.381	30317.65
879.758	29524.25
880.135	27499.42
880.512	29097.33
880.889	28319.34
881.265	28035.59
881.642	27800.08
882.019	28272.51
882.395	27694.93
882.772	28792.75
883.148	27527.49
883.524	27418.66
883.901	27249.39
884.277	27643.03
884.653	27454.73
885.029	28242.61
885.405	31272.24
885.781	31024.54
886.157	29740.35
886.532	30100.59
886.908	30084.22
887.284	33460.81
887.659	34556.63
888.035	35626.39
888.411	36549.42
888.786	37034.92
889.161	38315.06
889.537	37613.55
889.912	38828.97
890.287	38805.62
890.662	39813.95
891.037	39106.92
891.412	36456.36
891.787	36088.95
892.162	34839.56
892.536	35649.95
892.911	34305.35
893.286	33599.54
893.66	32249.24
894.035	33061.59
894.409	36004.73
894.784	34552.74
895.158	35126.28
895.532	37215.35
895.906	38219.18
896.281	39117.23
896.655	38494.44
897.029	43991.19
897.402	45794.8
897.776	50965.54
898.15	50808.28
898.524	50237.45
898.898	50888.48
899.271	56958.33
899.645	49336.31
900.018	47399.81
900.392	49162.72
900.765	49566.67
901.138	45863.06
901.511	45169.9
901.884	41462.28
902.258	38242.93
902.631	39510.81
903.003	45480.76
903.376	41044.14
903.749	46019.9
904.122	49273.9
904.495	54236.66
904.867	54912.21
905.24	47678.34
905.612	44380.49
905.985	45382.2
906.357	47431.98
906.729	45290.88
907.102	38696.4
907.474	37207.12
907.846	37431.35
908.218	36914.53
908.59	32613.14
908.962	31539.66
909.334	33957.18
909.705	35666.73
910.077	34634.67
910.449	36054.05
910.82	37044.48
911.192	40725.15
911.563	42303.9
911.935	45283.38
912.306	45341.75
912.677	46846.16
913.048	46388.11
913.419	50321.88
913.79	50594.62
914.161	54229.69
914.532	51824.22
914.903	47623.97
915.274	45240.48
915.645	44582.27
916.015	39194.91
916.386	37364.37
916.756	39749.31
917.127	40978.61
917.497	36624.39
917.868	39865.57
918.238	37882.19
918.608	38961.51
918.978	39755.71
919.348	42114.34
919.718	43518
920.088	41925.2
920.458	43567.04
920.828	45840.49
921.198	43448.07
921.567	46399.42
921.937	35936.99
922.306	36278.35
922.676	39136.74
923.045	32653.23
923.415	31018.47
923.784	28237.11
924.153	29039.37
924.522	29000.57
924.891	27253.84
925.26	29201.9
925.629	28509.25
925.998	32755.81
926.367	31970.53
926.736	30423.94
927.104	36218.74
927.473	38929.02
927.842	47022.66
928.21	46592.99
928.578	48961.67
928.947	46294.43
929.315	46576.62
929.683	54619.98
930.051	55056.4
930.42	63931.55
930.788	54653.48
931.156	54249.88
931.523	50846.69
931.891	46962.62
932.259	45084.26
932.627	52242.39
932.994	73936.37
933.362	61097.72
933.729	53030.47
934.097	50738.02
934.464	42926.29
934.831	49544.39
935.199	48855.95
935.566	47375.09
935.933	47991.41
936.3	58105.06
936.667	45263.84
937.034	40807.05
937.401	40345.57
937.767	34824.64
938.134	31028.6
938.501	43786.2
938.867	46643.83
939.234	78824.87
939.6	67218.75
939.967	74099.18
940.333	49630.34
940.699	42259.27
941.065	33938.68
941.431	44549.92
941.798	42953.42
942.163	56382.02
942.529	35222.77
942.895	32463.83
943.261	21000.62
943.627	27557.71
943.992	24137.76
944.358	24171.53
944.723	24246.11
945.089	23647.44
945.454	21832.06
945.82	23339.2
946.185	22425.05
946.55	25973.5
946.915	23308.89
947.28	27372.99
947.645	24100.74
948.01	22237.95
948.375	23174.2
948.74	27747.94
949.104	32358.14
949.469	46770.79
949.834	82564.62
950.198	78258.59
950.562	46920.79
950.927	39037.16
951.291	46935.19
951.655	39980.76
952.02	37583.24
952.384	28441.26
952.748	24775.24
953.112	24132.8
953.476	20974.59
953.839	19402.89
954.203	19187.89
954.567	23979.68
954.931	37726.17
955.294	32270.88
955.658	32454.11
956.021	55138.68
956.385	93494.39
956.748	137998.95
957.111	213975.73
957.474	240213.13
957.837	270122.64
958.2	204635.36
958.563	73712.62
958.926	49882.8
959.289	75753.98
959.652	84638.45
960.015	63522.97
960.377	91107.37
960.74	103982.9
961.102	179682.98
961.465	192752.16
961.827	103193.08
962.189	197807.1
962.552	136956.62
962.914	109812.75
963.276	71144.03
963.638	58836.17
964	58248.91
964.362	39387.37
964.724	38051.51
965.085	27112.88
965.447	22245.29
965.809	25371.85
966.17	25407.81
966.532	27472.64
966.893	25201.78
967.255	22944.34
967.616	27038.67
967.977	21628.5
968.338	23603.85
968.699	19392.27
969.061	19379.74
969.421	19500.81
969.782	21905.27
970.143	18520.76
970.504	19181.95
970.865	21800.53
971.225	22277.7
971.586	21812.9
971.946	31130.34
972.307	27027.64
972.667	35355.59
973.027	36435.32
973.388	44163.75
973.748	30027.47
974.108	32660.48
974.468	44250.53
974.828	34081.39
975.188	26231.2
975.548	24084.92
975.907	20214.17
976.267	22664.8
976.627	19031.9
976.986	19745.69
977.346	18820.66
977.705	18109.9
978.064	16501.16
978.424	13724.53
978.783	14208.72
979.142	16221.47
979.501	15508.89
979.86	16369.99
980.219	15778.29
980.578	20364.84
980.937	22764.61
981.296	20262.05
981.654	20822.45
982.013	32448.71
982.371	42060.22
982.73	39260.13
983.088	44443.92
983.447	47495.05
983.805	67953.14
984.163	142011.26
984.521	157440.48
984.879	230890.22
985.237	-375834.9
985.595	362065.15
985.953	89952.07
986.311	51992.16
986.669	30182.25
987.026	26053.89
987.384	35038.41
987.741	36176.44
988.099	25832.44
988.456	20569.48
988.814	19261.6
989.171	16732.44
989.528	16528.59
989.885	17413.79
990.242	13761.18
990.599	17129.89
990.956	14013.8
991.313	9783.05
991.67	8029.1
992.027	8500.73
992.383	7559.18
992.74	6621.28
993.096	6937.45
993.453	7176.26
993.809	7436.38
994.165	9919.59
994.522	9087.54
994.878	10008.87
995.234	12567.77
995.59	12412.95
995.946	11760.68
996.302	13426.92
996.658	15554.84
997.013	17146.22
997.369	20366.18
997.725	26096.51
998.08	16874.82
998.436	26063.64
998.791	35964.8
999.147	35876.1
999.502	39096.03
999.857	28410.79
1000.212	46150.95
1000.567	65659.95
1000.922	37919.91
1001.277	24052.93
1001.632	17825.11
1001.987	23008.76
1002.342	16502.46
1002.696	13183.67
1003.051	10541.78
1003.406	12762.44
1003.76	12696.97
1004.114	12559.51
1004.469	10553.65
1004.823	8736.02
1005.177	9425.8
1005.531	7483.34
1005.885	6632.1
1006.239	7470.91
1006.593	9367.91
1006.947	12508.73
1007.301	9399.31
1007.655	10260
1008.008	7514.18
1008.362	8428.29
1008.715	12018.36
1009.069	10893.24
1009.422	16349.14
1009.776	32781.49
1010.129	21737.29
1010.482	18161.13
1010.835	15385.25
1011.188	32016.03
1011.541	30159.79
1011.894	-184258.84
1012.247	542866.99
1012.6	37016.87
1012.952	23474.05
1013.305	12133.58
1013.657	8722.55
1014.01	8268.75
1014.362	6810.67
1014.715	6034.1
1015.067	5248.91
1015.419	5131.1
1015.771	4558.49
1016.123	4053.71
1016.475	4165.19
1016.827	4431.44
1017.179	4765.08
1017.531	4821.49
1017.883	4934.83
1018.234	4772.79
1018.586	6028.66
1018.938	6375.28
1019.289	8796.31
1019.64	10085.75
1019.992	9374.4
1020.343	8569.62
1020.694	6782.44
1021.045	5964.62
1021.396	6805.23
1021.747	7279.72
1022.098	8762.43
1022.449	6366.27
1022.8	5910.53
1023.151	4113.16
1023.501	3643.26
1023.852	3980.57
1024.202	4131.8
1024.553	4546.96
1024.903	4462.56
1025.253	3806.5
1025.604	3416.72
1025.954	4234.24
1026.304	5190.15
1026.654	6076.68
1027.004	8891.6
1027.354	14387.87
1027.703	13511.35
1028.053	17805.84
1028.403	25775.73
1028.753	37307.22
1029.102	50951.54
1029.452	263252.12
1029.801	11342.83
1030.15	7290.1
1030.499	6167.46
897.758	2188.17
901.051	2123.34
904.343	2158.13
907.636	2163.46
910.928	2226.74
914.22	2147.25
917.511	2151.02
920.803	2199.74
924.094	2198.11
927.384	2200.55
930.675	2166.83
933.965	2130.14
937.255	2159.71
940.544	2126.94
943.834	2129.34
947.123	2068.32
950.411	2157.1
953.7	2139.33
956.988	2124.21
960.276	2059.44
963.563	2109.6
966.851	2116.8
970.138	2159.37
973.424	2162.13
976.711	2115.2
979.997	2161.98
983.283	2204.78
986.568	2134.88
989.853	2127.6
993.138	2153.78
996.423	2240.36
999.708	2197.63
1002.992	2230.6
1006.275	2148.57
1009.559	2152.99
1012.842	2251.25
1016.125	2206.22
1019.408	2187.6
1022.69	2242.11
1025.972	2277.59
1029.254	2253.77
1032.536	2215.72
1035.817	2226.15
1039.098	2194.58
1042.379	2243.85
1045.659	2270.32
1048.939	2221.01
1052.219	2228.6
1055.498	2221
1058.778	2221.02
1062.057	2195.09
1065.335	2218.97
1068.614	2229.59
1071.892	2226.31
1075.17	2282.57
1078.447	2283.82
1081.724	2281.22
1085.001	2306.42
1088.278	2281.03
1091.554	2289.34
1094.83	2283.97
1098.106	2318.03
1101.382	2348.86
1104.657	2350.76
1107.932	2350.49
1111.206	2325.75
1114.481	2280.96
1117.755	2279.82
1121.029	2273.99
1124.302	2334.54
1127.575	2300.37
1130.848	2296.57
1134.121	2268.98
1137.393	2231.24
1140.665	2288.49
1143.937	2265.89
1147.208	2212.8
1150.48	2270.4
1153.75	2257.91
1157.021	2262.3
1160.291	2238.84
1163.561	2293.5
1166.831	2259.56
1170.101	2286.21
1173.37	2245.68
1176.639	2203.06
1179.907	2247.03
1183.176	2271.59
1186.444	2272.67
1189.711	2298.44
1192.979	2319.92
1196.246	2277.23
1199.513	2288.61
1202.78	2295.52
1206.046	2303.87
1209.312	2331.85
1212.578	2349.27
1215.843	2316.73
1219.108	2284.83
1222.373	2308.15
1225.638	2282.39
1228.902	2273.44
1232.166	2228.58
1235.43	2217.38
1238.693	2243.25
1241.956	2233.59
1245.219	2282.56
1248.482	2266.11
1251.744	2265.3
1255.006	2388.28
1258.268	2335.42
1261.529	2289.85
1264.79	2290.21
1268.051	2391.16
1271.312	2399.94
1274.572	2369.88
1277.832	2358.94
1281.092	2341.56
1284.351	2332.35
1287.61	2315.23
1290.869	2249.59
1294.128	2246.16
1297.386	2296.08
1300.644	2290.41
1303.902	2298.52
1307.159	2167.4
1310.416	2219.36
1313.673	2248.96
1316.93	2241.7
1320.186	2273.96
1323.442	2307.25
1326.697	2308.76
1329.953	2282.33
1333.208	2316.6
1336.463	2288.4
1339.717	2249.22
1342.972	2354.52
1346.226	2326.11
1349.479	2273.44
1352.733	2255.63
1355.986	2259.69
1359.238	2240.47
1362.491	2245.64
1365.743	2245.91
1368.995	2239.22
1372.247	2251.16
1375.498	2271.09
1378.749	2312.22
1382	2262.25
1385.251	2299.09
1388.501	2249.13
1391.751	2250.08
1395	2215.97
1398.25	2241.65
1401.499	2261.6
1404.748	2209.84
1407.996	2189.05
1411.244	2177.32
1414.492	2163.72
1417.74	2146.25
1420.987	2150.81
1424.234	2213.21
1427.481	2175.31
1430.728	2232.63
1433.974	2207.44
1437.22	2208.71
1440.465	2204.46
1443.711	2202.06
1446.956	2226.35
1450.201	2197.25
1453.445	2238.92
1456.689	2228.12
1459.933	2237.77
1463.177	2276.91
1466.42	2250.47
1469.663	2233.43
1472.906	2247.25
1476.148	2297.66
1479.391	2271.38
1482.633	2247.49
1485.874	2271.34
1489.115	2279.6
1492.356	2263.94
1495.597	2245.82
1498.838	2237.71
1502.078	2222.64
1505.318	2193.76
1508.557	2227.83
1511.797	2223.37
1515.036	2269.17
1518.274	2241.34
1521.513	2193.99
1524.751	2205.62
1527.989	2229.06
1531.227	2245.1
1534.464	2260.83
1537.701	2256.01
1540.938	2269.66
1544.174	2217.71
1547.41	2207.32
1550.646	2244.92
1553.882	2295.92
1557.117	2353.57
1560.352	2362.14
1563.587	2325.66
1566.821	2292.57
1570.055	2309.38
1573.289	2290.63
1576.523	2347.73
1579.756	2364.67
1582.989	2386.62
1586.222	2347.28
1589.454	2376.07
1592.686	2360.72
1595.918	2388.52
1599.15	2387.23
1602.381	2431.91
1605.612	2413.86
1608.843	2507.39
1612.073	2429.96
1615.303	2416.27
1618.533	2415.85
1621.762	2411.57
1624.992	2385.54
1628.221	2389.35
1631.449	2377.32
1634.678	2405.42
1637.906	2376.14
1641.134	2401.21
1644.361	2364.88
1647.588	2353.69
1650.815	2375.66
1654.042	2338.98
1657.269	2370.54
1660.495	2350.23
1663.72	2335
1666.946	2303.53
1670.171	2274.67
1673.396	2244.6
1676.621	2228.87
1679.845	2229.47
1683.069	2238.39
1686.293	2268.21
1689.517	2259.27
1692.74	2209.83
1695.963	2230.11
1699.185	2271.62
1702.408	2244
1705.63	2272.85
1708.852	2292.47
1712.073	2263.67
1715.294	2272.43
1718.515	2314.67
1721.736	2273.49
1724.956	2252.63
1728.176	2274.2
1731.396	2297.8
1734.616	2281.96
1737.835	2320.09
1741.054	2291.64
1744.272	2280.74
1747.491	2319.66
1750.709	2343.94
1753.927	2292.41
1757.144	2318.22
1760.361	2376.07
1763.578	2351.22
1766.795	2300.01
1770.011	2288.59
1773.227	2313.31
1776.443	2355.53
1779.658	2401.22
1782.874	2339.12
1786.089	2330.57
1789.303	2332.79
1792.518	2329.58
1795.732	2314.2
1798.945	2329.95
1802.159	2370.13
1805.372	2313.55
1808.585	2308.56
1811.797	2307.84
1815.01	2329.32
1818.222	2351.67
1821.434	2310.67
1824.645	2354.5
1827.856	2363.53
1831.067	2393.72
1834.278	2329.32
1837.488	2314.78
1840.698	2436.35
1843.908	2375.93
1847.117	2344.6
1850.326	2268.23
1853.535	2331.82
1856.744	2365.44
1859.952	2287.47
1863.16	2289.38
1866.368	2304.11
1869.575	2415.3
1872.782	2297.09
1875.989	2228.05
1879.196	2278.62
1882.402	2266.98
1885.608	2301.36
1888.814	2239.35
1892.019	2148.09
1895.224	2196.57
1898.429	2161.54
1901.634	2144.59
1904.838	2119.84
1908.042	2175.44
1911.246	2190.63
1914.449	2152.16
1917.652	2134.63
1920.855	2115.39
1924.058	2140.6
1927.26	2184.67
1930.462	2206.87
1933.664	2245.39
1936.865	2188.39
1940.066	2204.63
1943.267	2149.07
1946.467	2160.47
1949.668	2179.43
1952.868	2247.95
1956.067	2237.83
1959.267	2176.73
1962.466	2200.48
1965.665	2183.69
1968.863	2178.24
1972.061	2182.16
1975.259	2174.49
1978.457	2250.99
1981.654	2210.46
1984.852	2211.87
1988.048	2166.35
1991.245	2155.96
1994.441	2245.12
1997.637	2204.06
2000.833	2186.04
2004.028	2221.61
2007.223	2281.53
2010.418	2271.82
2013.613	2219.47
2016.807	2212.4
2020.001	2207.37
2023.194	2230.67
2026.388	2212.89
2029.581	2158.24
2032.774	2222.01
2035.966	2232.32
2039.158	2177.47
2042.35	2197.77
2045.542	2124.17
2048.733	2206.05
2051.924	2202.35
2055.115	2220.3
2058.306	2184.3
2061.496	2239.65
2064.686	2286.87
2067.875	2192.34
2071.065	2196.72
2074.254	2215.81
2077.442	2170.35
2080.631	2253.39
2083.819	2186.58
2087.007	2175.27
2090.195	2161.28
2093.382	2176.08
2096.569	2160.74
2099.756	2122.72
2102.942	2170.59
2106.128	2184.38
2109.314	2170.84
2112.5	2157.8
2115.685	2126.08
2118.87	2132.7
2122.055	2191.88
2125.239	2170.56
2128.424	2160.62
2131.608	2222.38
2134.791	2209.12
2137.974	2246.11
2141.157	2234.3
2144.34	2206.4
2147.523	2196.54
2150.705	2222.38
2153.887	2192.02
2157.068	2164.96
2160.25	2146.8
2163.431	2169.55
2166.611	2136.45
2169.792	2156.03
2172.972	2067.98
2176.152	2118.16
2179.331	2147.55
2182.511	2149.82
2185.69	2170.05
2188.868	2176.27
2192.047	2209.39
2195.225	2222.67
2198.403	2173.89
2201.58	2161.73
2204.758	2148.87
2207.935	2222.61
2211.111	2141.25
2214.288	2127.7
2217.464	2159.98
2220.64	2120.85
2223.815	2168.07
2226.991	2102.36
2230.166	2117.85
2233.34	2159.45
2236.515	2172.58
2239.689	2236.97
2242.863	2185.48
2246.036	2236.95
2249.209	2222.74
2252.382	2243.79
2255.555	2248
2258.727	2198.23
2261.9	2228.32
2265.071	2221.67
2268.243	2217.37
2271.414	2166.42
2274.585	2149.29
2277.756	2212.45
2280.926	2166.67
2284.096	2195.59
2287.266	2123.79
2290.436	2170.92
2293.605	2189.85
2296.774	2228.06
2299.942	2231.3
2303.111	2246.43
2306.279	2298.57
2309.447	2282.49
2312.614	2252.05
2315.781	2280.57
2318.948	2254.96
2322.115	2292.75
2325.281	2194.05
2328.447	2202.01
2331.613	2171.4
2334.779	2164.27
2337.944	2159.34
2341.109	2159.37
2344.274	2148.43
2347.438	2117.46
2350.602	2135.1
2353.766	2143.93
2356.929	2132.75
2360.092	2171.31
2363.255	2143.07
2366.418	2108.74
2369.58	2174.95
2372.742	2051.78
2375.904	2046.1
2379.066	2032.51
2382.227	2059.07
2385.388	2021.64
2388.548	1976.53
2391.709	2016.12
2394.869	2005.03
2398.029	2059.16
2401.188	2054.2
2404.347	2016.71
2407.506	2095.79
2410.665	2134.64
2413.823	2120.42
2416.981	2099.26
2420.139	2115.86
2423.296	2153.59
2426.453	2128.36
2429.61	2149.64
2432.767	2119.16
2435.923	2160.45
2439.079	2109.92
2442.235	2140.1
2445.391	2080.69
2448.546	2124
2451.701	2157.5
2454.855	2153.9
2458.009	2184.07
2461.163	2173.85
2464.317	2144.69
2467.471	2171.99
2470.624	2198.73
2473.777	2187.28
2476.929	2207.44
2480.082	2229.91
2483.234	2202.76
2486.385	2144.44
2489.537	2137.33
2492.688	2127.07
2495.839	2141.28
2498.989	2156.28
2502.14	2142.81
2505.29	2136.76
2508.439	2159.96
2511.589	2100.48
2514.738	2101.74
2517.887	2125.06
2521.035	2200.7
2524.183	2158.58
2527.331	2147.09
2530.479	2143.21
2533.627	2144.34
