Data from C_1_DEC_NC_4N_Splice17_11-43-51-133.txt Node
Date: Sat Mar 14 11:43:51 EDT 2020
User: sa697716
Spectrometer: FLMS03696
Trigger mode: 0
Integration Time (sec): 3.180400E-1
Scans to average: 20
Electric dark correction enabled: true
Nonlinearity correction enabled: true
Boxcar width: 5
XAxis mode: Wavelengths
Number of Pixels in Spectrum: 2048
>>>>>Begin Spectral Data<<<<<
187.83	-102811.52
188.298	782.93
188.766	516.99
189.233	478.02
189.701	639.33
190.169	841.63
190.636	301.07
191.104	299.99
191.571	36.45
192.039	-102.1
192.506	-97.15
192.974	401.18
193.441	-773.9
193.908	-299.24
194.375	-59.16
194.842	-60.88
195.31	-66.22
195.777	89.58
196.244	354.81
196.711	676.76
197.177	903.29
197.644	1380.16
198.111	2378
198.578	3342
199.045	2680.14
199.511	4394.54
199.978	5157.03
200.445	4283.95
200.911	4752.23
201.378	5357.71
201.844	4712.91
202.31	7977.28
202.777	8186.83
203.243	4468.92
203.709	4229.04
204.176	5003.76
204.642	4073.89
205.108	3779.82
205.574	3101.3
206.04	2834.06
206.506	2633.29
206.972	2501.32
207.438	2395.92
207.903	2716.96
208.369	2386.75
208.835	2337.75
209.301	2418.63
209.766	2460.06
210.232	2386.58
210.697	2914.83
211.163	3549.79
211.628	5299.68
212.094	4358.62
212.559	5232.54
213.024	3201.31
213.49	3807.79
213.955	3680.09
214.42	3568.78
214.885	3274.02
215.35	3111.51
215.815	2907.08
216.28	3006.5
216.745	2368.43
217.21	2434.25
217.675	2118.17
218.14	2225.35
218.604	2283.41
219.069	2373.99
219.534	2275.97
219.998	2417.79
220.463	2667.43
220.927	2967.72
221.392	2543.62
221.856	2375.59
222.32	2749.51
222.785	3158.04
223.249	3716.3
223.713	3926.89
224.177	3738.43
224.642	4538.43
225.106	5298.98
225.57	5498.19
226.034	3961.34
226.497	5800.07
226.961	5054.38
227.425	5771.54
227.889	6180.98
228.353	5941.59
228.816	11827.3
229.28	10971.66
229.744	8937.23
230.207	5335.82
230.671	5138.25
231.134	8232.18
231.597	9286.69
232.061	9038.39
232.524	8500.93
232.987	5749.73
233.45	5111.93
233.914	4520.2
234.377	4515.69
234.84	4071.17
235.303	4708.64
235.766	5186.21
236.229	5262.29
236.691	3277.07
237.154	3653.39
237.617	2749.89
238.08	2795.99
238.542	3230.05
239.005	2325.64
239.468	2308.77
239.93	2170.68
240.393	1967.96
240.855	1724.48
241.317	1748.65
241.78	2104.84
242.242	2181.85
242.704	2366.8
243.166	2044.67
243.629	1871.78
244.091	2130.91
244.553	2320.75
245.015	2506.14
245.477	3199.22
245.939	4621.32
246.4	4905.06
246.862	4711.73
247.324	4378.39
247.786	4806.63
248.247	6229.91
248.709	6309.88
249.17	4673.63
249.632	4470.1
250.093	5200.89
250.555	4509.43
251.016	2779.21
251.477	2630.48
251.939	2858.19
252.4	3002.03
252.861	3567.38
253.322	3364.68
253.783	3985.63
254.244	5181.33
254.705	4037.1
255.166	3530.06
255.627	3462.14
256.088	4870.89
256.549	5171.86
257.009	4406.82
257.47	5298.89
257.931	4267.72
258.391	3171.68
258.852	3250.59
259.312	3366.69
259.773	4093.22
260.233	3475.62
260.694	2913.21
261.154	3256.01
261.614	2611.92
262.074	2303.64
262.534	2400.59
262.994	2258.08
263.455	2936.28
263.915	2461.93
264.374	2288.78
264.834	2475.76
265.294	2673.5
265.754	2751.92
266.214	2573.35
266.673	2386.56
267.133	2982.89
267.593	2883.3
268.052	3499.54
268.512	3037.36
268.971	3676
269.431	4026.2
269.89	3572.08
270.349	5363.96
270.809	5956.6
271.268	5338.2
271.727	11751.79
272.186	7634.78
272.645	5713.23
273.104	4055.1
273.563	5822.23
274.022	4506.29
274.481	3861.7
274.94	2993.58
275.399	2220.97
275.857	2575.83
276.316	3497.88
276.775	3155.94
277.233	3127.34
277.692	2989.27
278.15	3427.5
278.609	3630.26
279.067	3413.9
279.525	3219.5
279.984	4187.68
280.442	5058.89
280.9	5096.59
281.358	3404.23
281.816	3226.61
282.274	3201.2
282.732	3332.37
283.19	3416.24
283.648	2974.58
284.106	3188.35
284.564	3256.06
285.021	3105.64
285.479	2372.69
285.937	2167.92
286.394	1939.3
286.852	1991.87
287.309	2120.54
287.767	2099.43
288.224	2016.05
288.682	2213.46
289.139	2443.5
289.596	2258.37
290.053	2323.12
290.511	2870.09
290.968	3479.4
291.425	4645.47
291.882	3927.87
292.339	3387.18
292.796	3303.19
293.252	3079.21
293.709	2459.02
294.166	2189.76
294.623	2387.93
295.079	2273.84
295.536	2326.04
295.992	2115.46
296.449	2091.92
296.905	2154.2
297.362	2090.15
297.818	2180.26
298.274	2285.66
298.731	2304.66
299.187	2291.69
299.643	2460.68
300.099	2973.63
300.555	3257.49
301.011	2738.03
301.467	2711.23
301.923	3140.75
302.379	3084.35
302.835	3052.83
303.291	3077.58
303.746	3525.44
304.202	4493.99
304.658	4567.3
305.113	3120.81
305.569	3071.01
306.024	3269.9
306.479	3076.48
306.935	2656.87
307.39	2901.6
307.845	2688.03
308.301	2741.34
308.756	2693.8
309.211	2628.06
309.666	2722.47
310.121	3447.38
310.576	3548.75
311.031	3534.8
311.486	4048.06
311.94	4043.04
312.395	5452.34
312.85	10459.46
313.305	51291.25
313.759	271704.64
314.214	19770.85
314.668	15842.97
315.123	13452.21
315.577	4866.06
316.032	4404.77
316.486	5554.63
316.94	4460.57
317.394	3133.42
317.849	2432.51
318.303	2294.05
318.757	2175.3
319.211	2407.22
319.665	2097.67
320.119	2091.01
320.572	2970.11
321.026	2767.84
321.48	2316.5
321.934	2498.64
322.387	2488.61
322.841	2696.87
323.295	2460.9
323.748	2786.28
324.202	2829.68
324.655	3432.84
325.108	4915.2
325.562	3503.98
326.015	4165.24
326.468	3175.26
326.921	3580.01
327.374	3399.51
327.827	3589.52
328.28	4076.47
328.733	2789.14
329.186	2479.47
329.639	2370.65
330.092	1992.77
330.545	1922.25
330.997	1966.33
331.45	2177.14
331.903	2588.02
332.355	4408.7
332.808	4303.54
333.26	3576.64
333.713	3896.62
334.165	3970
334.617	5337.75
335.069	4292.53
335.522	7755.98
335.974	8656.95
336.426	7914.42
336.878	5421.21
337.33	2804.15
337.782	2751.45
338.234	3490.7
338.686	4175.24
339.137	4939.99
339.589	4647.74
340.041	3702.48
340.493	3195.26
340.944	3269.61
341.396	3538.07
341.847	3031.95
342.299	3591.73
342.75	4409.89
343.201	3787.17
343.653	4330.62
344.104	5252.52
344.555	4108.2
345.006	6259.16
345.457	4838.34
345.908	3817.03
346.359	3608.22
346.81	2915.41
347.261	3022.2
347.712	2938.92
348.163	3167.12
348.613	3279.87
349.064	3085.67
349.515	2716.89
349.965	2823.45
350.416	3349.76
350.866	3689.63
351.317	4139.92
351.767	6906.76
352.217	8765.12
352.668	7324.34
353.118	6761.18
353.568	6425.06
354.018	5179.81
354.468	5534.05
354.918	4007.71
355.368	3557.45
355.818	5049.65
356.268	14460.64
356.718	61323.74
357.168	15515.74
357.617	7849.11
358.067	8763.49
358.517	8291.78
358.966	9824.6
359.416	11095.14
359.865	12006.94
360.315	14333.7
360.764	6766.18
361.213	3857.62
361.663	3632.79
362.112	4479.6
362.561	7264.24
363.01	5497.26
363.459	4623.44
363.908	4922.34
364.357	4229.96
364.806	7159.27
365.255	4960.57
365.703	4576
366.152	4615.38
366.601	3779.33
367.05	3096.77
367.498	2836.37
367.947	2962.89
368.395	3087.59
368.844	2790.45
369.292	3328.16
369.74	2318.78
370.189	3529.69
370.637	4135.28
371.085	3603.35
371.533	4376.13
371.981	4218.76
372.429	4073.29
372.877	4278.73
373.325	3644.94
373.773	3704.2
374.221	3325.06
374.669	4143.45
375.116	3637.5
375.564	3690.79
376.012	4107.9
376.459	3444.97
376.907	4165.99
377.354	5021.23
377.801	4754.49
378.249	5555.54
378.696	7180.63
379.143	8825.18
379.591	9576.81
380.038	16355.46
380.485	12116.56
380.932	13535.66
381.379	12883.32
381.826	9932.37
382.273	7405.14
382.72	6819.73
383.166	6995.78
383.613	4839.09
384.06	4653.8
384.506	5774.56
384.953	4595.42
385.4	5024.5
385.846	4811.7
386.292	5181.93
386.739	5621.38
387.185	6219.86
387.631	6951.37
388.078	7577.32
388.524	8995.43
388.97	9096.14
389.416	8149.51
389.862	9128.09
390.308	9075.82
390.754	9742.13
391.2	11356.36
391.645	12668.27
392.091	13180.72
392.537	13795.41
392.983	14735.1
393.428	15158.08
393.874	17106.06
394.319	18403.92
394.765	19109.5
395.21	21704.66
395.655	22315.05
396.101	22584.89
396.546	21773.14
396.991	23445.52
397.436	23097.7
397.881	23769.34
398.326	24195.54
398.771	24371.02
399.216	22646.24
399.661	21451.54
400.106	22205.97
400.551	23510.73
400.995	21751.29
401.44	22092.11
401.885	21198.56
402.329	21808.17
402.774	21223.89
403.218	20724.39
403.663	20309.43
404.107	21191.91
404.551	21683.45
404.995	20288.73
405.44	19967.92
405.884	20675.9
406.328	20395.19
406.772	20687.36
407.216	19190.77
407.66	18953
408.104	18477.44
408.547	17624.87
408.991	17332.41
409.435	16916.12
409.879	16820.05
410.322	16767.64
410.766	16333.83
411.209	15704.55
411.653	15300.5
412.096	15170.01
412.54	15393.55
412.983	15481.46
413.426	15666.5
413.869	15857.2
414.312	15735.53
414.756	15406.66
415.199	14909.07
415.642	14661.24
416.085	14858.81
416.527	14927.64
416.97	15344.22
417.413	14648.31
417.856	14568.6
418.298	14458.55
418.741	14380.43
419.184	14366.21
419.626	15003.67
420.069	14989.51
420.511	15085.08
420.953	14761.03
421.396	14667.57
421.838	14363.66
422.28	14744.34
422.722	14913.66
423.164	15328.11
423.606	15255.82
424.048	15425.8
424.49	14755.27
424.932	14840.63
425.374	14776.48
425.816	15161.33
426.258	15450.58
426.699	15514.6
427.141	15089.6
427.582	15193.29
428.024	15018.02
428.465	14938.76
428.907	14621.44
429.348	14570.88
429.789	14635.42
430.231	14370.83
430.672	14604.17
431.113	14387.18
431.554	14393.09
431.995	14416.65
432.436	14153.55
432.877	14086.35
433.318	13984.46
433.759	14102.71
434.2	14230.65
434.64	14226.4
435.081	14404.64
435.522	13831.18
435.962	13510.64
436.403	13396.75
436.843	13771.65
437.284	13671.8
437.724	13476.76
438.164	13698.74
438.604	13502.34
439.045	13029.26
439.485	12521.66
439.925	12362.03
440.365	12141.43
440.805	12057.35
441.245	11899.13
441.685	11481.31
442.125	11422.67
442.564	11499.93
443.004	11205.48
443.444	11182.24
443.883	11213.72
444.323	11213.85
444.762	11327.14
445.202	11510.57
445.641	11693.56
446.081	11722.05
446.52	11792.15
446.959	11677.8
447.398	11399.87
447.837	11293.4
448.276	11118.25
448.716	11230.88
449.154	11338.61
449.593	10999.51
450.032	10903.66
450.471	10693.99
450.91	10643.97
451.349	10534.77
451.787	10441.34
452.226	10517.27
452.664	10437.57
453.103	10368.24
453.541	10271.57
453.98	10092.01
454.418	10058.32
454.856	9770.72
455.295	9661.46
455.733	9608.25
456.171	9577.79
456.609	9477.01
457.047	9359.91
457.485	9382.85
457.923	9309.4
458.361	9136.35
458.798	9150.47
459.236	9101.63
459.674	9191.3
460.111	9217.28
460.549	9142.22
460.987	9144.85
461.424	9138.62
461.862	9133.51
462.299	9023.74
462.736	9017.14
463.173	9079.75
463.611	8959.52
464.048	8959.84
464.485	9050.64
464.922	9016.55
465.359	9028.68
465.796	8803.34
466.233	8788.42
466.67	8724.41
467.106	8739.55
467.543	8730.61
467.98	8671.85
468.416	8544.24
468.853	8543.36
469.29	8340.93
469.726	8287.46
470.162	8094.37
470.599	8129.88
471.035	8085.28
471.471	7921.45
471.907	7915.93
472.344	7873.98
472.78	7866.48
473.216	7947.72
473.652	7812.96
474.088	7763.29
474.523	7674.43
474.959	7699.33
475.395	7578.54
475.831	7461.57
476.266	7442.32
476.702	7358.14
477.138	7201.98
477.573	7112.64
478.008	7006.23
478.444	6945.6
478.879	6906.36
479.314	6858.72
479.75	6770.41
480.185	6727.77
480.62	6709.78
481.055	6662.22
481.49	6613.62
481.925	6613.54
482.36	6594.89
482.795	6670.18
483.229	6745.15
483.664	6772.77
484.099	6693.15
484.534	6686.14
484.968	6653.11
485.403	6587.95
485.837	6511.74
486.271	6431.37
486.706	6377.27
487.14	6286.3
487.574	6152.04
488.009	6067.08
488.443	5986.27
488.877	5996.62
489.311	5980.55
489.745	6004.96
490.179	6013.56
490.613	6059.42
491.046	6073.35
491.48	6080.84
491.914	6045.2
492.348	6051.06
492.781	6051.46
493.215	6040.61
493.648	6042.69
494.082	6067.22
494.515	6044.69
494.948	6074.38
495.382	6098.75
495.815	6099.73
496.248	6106.98
496.681	6180.21
497.114	6242.05
497.547	6277.47
497.98	6325.93
498.413	6307.1
498.846	6326.21
499.279	6348.26
499.711	6344.19
500.144	6318.72
500.577	6344.77
501.009	6383.83
501.442	6398.91
501.874	6353.66
502.306	6337.71
502.739	6337.41
503.171	6428.08
503.603	6415.59
504.036	6441.65
504.468	6434.73
504.9	6465.67
505.332	6469.47
505.764	6449.13
506.196	6454.51
506.627	6502.76
507.059	6534.03
507.491	6557.35
507.923	6466.83
508.354	6502.23
508.786	6510.17
509.217	6562.19
509.649	6592.8
510.08	6647.83
510.512	6676.33
510.943	6695.97
511.374	6692.58
511.805	6741.03
512.237	6785
512.668	6912.06
513.099	6995.01
513.53	7059.92
513.961	7075.64
514.391	7155.08
514.822	7226.45
515.253	7324.83
515.684	7362.52
516.114	7423.86
516.545	7432.95
516.975	7469.3
517.406	7459.98
517.836	7380.62
518.267	7327.81
518.697	7336.03
519.127	7277.86
519.558	7238.39
519.988	7176.85
520.418	7149.92
520.848	7151.78
521.278	7112.42
521.708	6927.81
522.138	6911.13
522.567	6974.6
522.997	7008.99
523.427	7002.19
523.857	6997.52
524.286	6972.43
524.716	6968.59
525.145	6977.92
525.575	6961.72
526.004	6967.13
526.433	7044.36
526.863	6992.96
527.292	6895.51
527.721	6871.63
528.15	6858.09
528.579	6823.74
529.008	6833.88
529.437	6892.95
529.866	6915.25
530.295	6949.3
530.724	6956.77
531.152	7027
531.581	7043.83
532.01	7083.92
532.438	7088.67
532.867	7119.12
533.295	7165.21
533.723	7163.46
534.152	7132.11
534.58	7108.13
535.008	7028.21
535.436	7017.69
535.865	7032.17
536.293	7076.05
536.721	7124.25
537.149	7205.8
537.576	7203.04
538.004	7246.09
538.432	7271.24
538.86	7258.85
539.287	7287.09
539.715	7338.12
540.143	7358.29
540.57	7352.51
540.998	7350.68
541.425	7262.63
541.852	7199.8
542.28	7207.82
542.707	7163.2
543.134	7123.87
543.561	7121.76
543.988	7106.88
544.415	7124.36
544.842	7120.21
545.269	7104.79
545.696	7122.99
546.123	7199.96
546.549	7173.84
546.976	7134.97
547.403	7143.68
547.829	7168.16
548.256	7196
548.682	7194.69
549.108	7176.08
549.535	7190.42
549.961	7213.36
550.387	7173.36
550.813	7157.64
551.24	7195.74
551.666	7214.53
552.092	7187.39
552.518	7175.92
552.943	7157.68
553.369	7205.15
553.795	7242.42
554.221	7251.6
554.646	7249.63
555.072	7291.73
555.498	7323.49
555.923	7367.93
556.349	7432.6
556.774	7473.66
557.199	7481.22
557.625	7520.76
558.05	7496.61
558.475	7543.15
558.9	7542.69
559.325	7510.06
559.75	7493.57
560.175	7473.66
560.6	7455.1
561.025	7449.55
561.449	7458.26
561.874	7481.83
562.299	7490.19
562.723	7521.95
563.148	7474.49
563.572	7488.15
563.997	7526.56
564.421	7546.38
564.846	7541.97
565.27	7542.57
565.694	7525.96
566.118	7555.09
566.542	7570.32
566.966	7532.5
567.39	7494.31
567.814	7436.81
568.238	7425.71
568.662	7439.67
569.086	7443.27
569.509	7476.96
569.933	7417.57
570.357	7404.56
570.78	7339.82
571.204	7304.89
571.627	7292.79
572.05	7324.93
572.474	7363.68
572.897	7362.17
573.32	7378.93
573.743	7398.76
574.166	7371.64
574.589	7437.08
575.012	7461.26
575.435	7523.85
575.858	7551.67
576.281	7570.26
576.704	7568.28
577.126	7584.79
577.549	7598.02
577.972	7623.93
578.394	7637.97
578.817	7658.22
579.239	7635.03
579.661	7631.91
580.084	7606.37
580.506	7605.48
580.928	7647.71
581.35	7652.57
581.772	7684.42
582.194	7669.39
582.616	7651.61
583.038	7632.01
583.46	7634.94
583.882	7657.72
584.303	7724.37
584.725	7750.62
585.147	7761.71
585.568	7831.75
585.99	7899.38
586.411	7937.13
586.833	8016.96
587.254	8033.2
587.675	8118.99
588.096	8198.25
588.518	8184.82
588.939	8107.39
589.36	8105.96
589.781	8101.5
590.202	7954.99
590.623	7937.22
591.043	7952.4
591.464	7904.69
591.885	7894.54
592.305	7870.11
592.726	7798.29
593.147	7798.27
593.567	7764.04
593.987	7714.1
594.408	7673.31
594.828	7665.49
595.248	7606.15
595.669	7477.02
596.089	7413.62
596.509	7358.37
596.929	7254.81
597.349	7225.64
597.769	7140.89
598.189	7069.45
598.608	7040.56
599.028	7010.66
599.448	6977.12
599.867	6886.1
600.287	6845.34
600.706	6794.38
601.126	6717.18
601.545	6686.96
601.965	6663.88
602.384	6624.93
602.803	6630.45
603.222	6594.84
603.641	6560.59
604.061	6535.99
604.48	6519.81
604.898	6560.91
605.317	6594.6
605.736	6614.71
606.155	6609.93
606.574	6576.92
606.992	6616.04
607.411	6605.75
607.829	6590.66
608.248	6596.62
608.666	6610.88
609.085	6627.46
609.503	6606.21
609.921	6595.66
610.339	6627.81
610.758	6651.06
611.176	6651.53
611.594	6629.83
612.012	6638.94
612.43	6671.55
612.847	6724.85
613.265	6740.44
613.683	6783.78
614.101	6810.84
614.518	6818.74
614.936	6792.23
615.353	6739.88
615.771	6745.95
616.188	6770.95
616.606	6776.1
617.023	6766.99
617.44	6717.11
617.857	6715.04
618.274	6696.19
618.691	6683.19
619.108	6652.74
619.525	6637.18
619.942	6681.42
620.359	6704.81
620.776	6685.54
621.192	6663.93
621.609	6652.85
622.026	6683.82
622.442	6711.39
622.859	6727.9
623.275	6691.36
623.691	6720.59
624.108	6780.8
624.524	6859.3
624.94	6857.31
625.356	6907
625.772	6979.46
626.188	7043.82
626.604	7051.63
627.02	7029.64
627.436	7016.01
627.852	7045.94
628.268	7103.7
628.683	7057.62
629.099	7012.71
629.514	6998.13
629.93	7027.88
630.345	7061.43
630.761	7051.32
631.176	7083.18
631.591	7056.57
632.007	7039.25
632.422	7056.03
632.837	7017.76
633.252	7018.55
633.667	6987.9
634.082	6960.12
634.497	6912.88
634.911	6824.84
635.326	6835.62
635.741	6774.12
636.155	6760.1
636.57	6794.06
636.984	6823.69
637.399	6859.9
637.813	6901.2
638.228	6932.56
638.642	6998.5
639.056	6982.68
639.47	7033.86
639.884	7027.84
640.298	7036.04
640.712	7072.22
641.126	7051.58
641.54	7057.16
641.954	7093.45
642.368	7067.54
642.781	7054.14
643.195	6996.92
643.609	7046.86
644.022	7058.6
644.436	7080.26
644.849	7052.61
645.262	7024.55
645.676	7083.04
646.089	7085.29
646.502	7012.5
646.915	7017.84
647.328	6962.39
647.741	6985.11
648.154	6939
648.567	6934.83
648.98	6875.78
649.393	6914.16
649.805	6924.64
650.218	6907.36
650.631	6826.35
651.043	6821.34
651.456	6805.46
651.868	6834.67
652.28	6972.38
652.693	7070.8
653.105	7119.97
653.517	7173.56
653.929	7159.15
654.341	7192.53
654.753	7107.41
655.165	7172.21
655.577	7177.34
655.989	7182.41
656.401	7172.61
656.813	6955.86
657.224	6877.93
657.636	6764.5
658.047	6716.46
658.459	6660.85
658.87	6682.55
659.282	6675.26
659.693	6577.36
660.104	6523.81
660.515	6478.48
660.926	6517.45
661.338	6557.13
661.749	6565.46
662.159	6534.13
662.57	6561.92
662.981	6574.71
663.392	6559
663.803	6635.17
664.213	6668.6
664.624	6686.11
665.035	6755.81
665.445	6687.19
665.855	6657.27
666.266	6614.88
666.676	6630.33
667.086	6581.37
667.497	6594.35
667.907	6562.45
668.317	6502.81
668.727	6457.25
669.137	6479.11
669.547	6466.98
669.956	6499.25
670.366	6521.81
670.776	6539.08
671.186	6578.88
671.595	6602.61
672.005	6637.19
672.414	6619.83
672.824	6591.85
673.233	6657.51
673.642	6663.87
674.052	6669.67
674.461	6664.22
674.87	6697.82
675.279	6654.63
675.688	6663.76
676.097	6650.38
676.506	6602.49
676.915	6714.81
677.323	6724.93
677.732	6691.41
678.141	6674.23
678.549	6577.09
678.958	6560.34
679.366	6536.61
679.775	6571.24
680.183	6601.59
680.592	6626.17
681	6641.97
681.408	6543.94
681.816	6564.25
682.224	6593.04
682.632	6598.49
683.04	6763.82
683.448	6868.24
683.856	6985.01
684.264	7110.08
684.671	7221.81
685.079	7363.29
685.487	7516.54
685.894	7776.78
686.302	7938.05
686.709	8003.61
687.116	8111.45
687.524	8136.54
687.931	8126.28
688.338	8099
688.745	8058.73
689.152	8025.95
689.559	8042.6
689.966	8031.9
690.373	7898.09
690.78	7860.39
691.187	7929.8
691.593	7913.17
692	7866.16
692.407	7906.27
692.813	7990.15
693.22	8014.96
693.626	8061.82
694.032	8048.01
694.439	8148.81
694.845	8191.34
695.251	8292.68
695.657	8356.49
696.063	8544.1
696.469	8630.62
696.875	8695.04
697.281	8660.51
697.687	8645.89
698.093	8597.56
698.498	8674.54
698.904	8695.5
699.31	8807.81
699.715	8834.82
700.12	8971.55
700.526	8894.66
700.931	8983.42
701.337	9022.19
701.742	9015.31
702.147	9160.56
702.552	9155.07
702.957	9239.63
703.362	9214.36
703.767	9221.04
704.172	9267.97
704.577	9070.17
704.981	9128.58
705.386	9099.1
705.791	9008.39
706.195	9139.62
706.6	9096.56
707.004	9246.09
707.408	9106.28
707.813	9114.87
708.217	9021.65
708.621	8968.29
709.025	9155.99
709.43	9098.87
709.834	9192.98
710.237	9314.79
710.641	9223.01
711.045	9224.17
711.449	9153.83
711.853	9156.49
712.256	9201.75
712.66	9234.48
713.064	9344.56
713.467	9352.03
713.87	9499.7
714.274	9466.89
714.677	9553.88
715.08	9735.63
715.484	9908.99
715.887	10121.59
716.29	10331.79
716.693	10526.11
717.096	10777.79
717.499	10834.38
717.901	10744.54
718.304	10738.33
718.707	10790.98
719.109	10641.26
719.512	10656.62
719.915	10458.1
720.317	10425.99
720.719	10566.97
721.122	10561.07
721.524	10498.4
721.926	10423.36
722.328	10604
722.731	10526.66
723.133	10503.81
723.535	10789.74
723.937	10730.61
724.338	10747.8
724.74	10749.05
725.142	10485.67
725.544	10455.04
725.945	10461.1
726.347	10444.37
726.748	10417.69
727.15	10433.41
727.551	10340.14
727.952	10272
728.354	10205.62
728.755	10216.55
729.156	10169.88
729.557	10275.35
729.958	10093.18
730.359	10067.75
730.76	10097.5
731.161	10055.27
731.562	10080.08
731.962	10162.22
732.363	10102.38
732.763	10038.6
733.164	10155.98
733.564	10053.1
733.965	9884.07
734.365	9830.89
734.766	9897.55
735.166	9821.23
735.566	9702.38
735.966	9639.45
736.366	9618.36
736.766	9493.86
737.166	9559.11
737.566	9482.47
737.966	9432.08
738.365	9507.93
738.765	9489.64
739.165	9340.17
739.564	9289.62
739.964	9387.91
740.363	9307.41
740.763	9319.69
741.162	9302.37
741.561	9244.56
741.96	9156.22
742.36	9210.61
742.759	9234.91
743.158	9330.4
743.557	9370.21
743.955	9459.96
744.354	9373.1
744.753	9493.97
745.152	9403.78
745.55	9520.18
745.949	9505.01
746.348	9504.2
746.746	9527.35
747.144	9426.67
747.543	9364.41
747.941	9441.43
748.339	9281.36
748.737	9245.83
749.136	9200.73
749.534	9309.61
749.932	9221.81
750.33	9246.79
750.727	9333.61
751.125	9262.6
751.523	9216.96
751.921	9271.86
752.318	9184.06
752.716	9270.59
753.113	9273.61
753.511	9296.36
753.908	9269.38
754.305	9205.78
754.703	9293.82
755.1	9377.72
755.497	9461.09
755.894	9761.54
756.291	9971.51
756.688	10329.99
757.085	10715.53
757.482	11217.68
757.878	11646.81
758.275	11894.8
758.672	12445.65
759.068	12718.66
759.465	13269.1
759.861	13991.47
760.258	14808.92
760.654	14896.65
761.05	14367.46
761.447	13711.26
761.843	13059.52
762.239	12502.17
762.635	12484.11
763.031	12414.58
763.427	12091.93
763.822	11742.69
764.218	11427.64
764.614	10843.58
765.01	10565.08
765.405	10497.86
765.801	10494.32
766.196	10319.63
766.592	10324.81
766.987	10068.14
767.382	9934.64
767.778	9966.31
768.173	9884.35
768.568	9869.75
768.963	9730.04
769.358	9833.15
769.753	9801.18
770.148	9691.17
770.542	9728.92
770.937	9700.07
771.332	9888.85
771.726	9934.37
772.121	9813.5
772.515	9923.37
772.91	9904.03
773.304	10048.6
773.699	9929.55
774.093	10030.44
774.487	10130.07
774.881	10204.28
775.275	10188.37
775.669	10104.99
776.063	10184.94
776.457	10253.07
776.851	10104.78
777.245	10075.23
777.638	10120.13
778.032	10317.03
778.425	10231.39
778.819	10290.71
779.212	10196.82
779.606	10106.36
779.999	10130.01
780.392	10078.7
780.786	10216.33
781.179	10231.48
781.572	10288.54
781.965	10292.7
782.358	10166.11
782.751	10249.63
783.143	10142.53
783.536	10249.53
783.929	10301.01
784.322	10469.42
784.714	10488.53
785.107	10435.26
785.499	10521.36
785.891	10432.44
786.284	10346.91
786.676	10537.82
787.068	10438.33
787.46	10468.31
787.852	10444.68
788.245	10530.26
788.636	10524.98
789.028	10581.37
789.42	10590.32
789.812	10555.46
790.204	10673.02
790.595	10791.83
790.987	10429.44
791.378	10436.51
791.77	10620.28
792.161	10806.19
792.553	10861.05
792.944	10643.57
793.335	10497.21
793.726	10578.54
794.117	10684.25
794.508	10874.79
794.899	10794.18
795.29	10988.08
795.681	11047.18
796.072	10782.4
796.463	10425.24
796.853	10396.86
797.244	10600.22
797.634	10606.22
798.025	10565.33
798.415	10536.27
798.806	10614.38
799.196	10685.8
799.586	10692.87
799.976	10566.76
800.366	10844.81
800.756	11165.4
801.146	11045.83
801.536	11025.7
801.926	11083.01
802.316	11067.87
802.706	11124.16
803.095	10900.32
803.485	11006.83
803.874	11026.46
804.264	11357.52
804.653	11276.48
805.043	11426.38
805.432	11517.75
805.821	11453.96
806.21	11408.59
806.599	11489.56
806.988	11454.32
807.377	11502.44
807.766	11562.51
808.155	11818.05
808.544	11332.34
808.933	11215.18
809.321	11048.29
809.71	11275.14
810.098	11303.45
810.487	11676.2
810.875	12033.01
811.264	11819.9
811.652	11885.03
812.04	11777.48
812.428	11670.06
812.816	12196.79
813.204	12300.13
813.592	12523.42
813.98	12524.79
814.368	12119.99
814.756	12301.64
815.144	11979.4
815.531	12188.4
815.919	11942.9
816.306	12048.3
816.694	11645.74
817.081	11612.89
817.469	11891.46
817.856	11908.35
818.243	12179.36
818.63	12556.8
819.017	12188.37
819.404	12186.17
819.791	12383.34
820.178	12729.47
820.565	12784.02
820.952	13432.84
821.339	12926.38
821.725	12971.64
822.112	12257.46
822.498	12096.67
822.885	12076.99
823.271	11925.83
823.657	12245.11
824.044	12301.75
824.43	12420.72
824.816	12403
825.202	12030.86
825.588	12741.95
825.974	12637.28
826.36	12890.16
826.746	12780.19
827.132	12915
827.517	12749.97
827.903	12025.29
828.289	11917.71
828.674	11240.41
829.06	11084.42
829.445	11281.4
829.83	11452.28
830.216	11705.63
830.601	11884.95
830.986	11531.94
831.371	11383.93
831.756	11721.13
832.141	11388.76
832.526	11347.46
832.911	11518.17
833.295	11420.04
833.68	11723.76
834.065	11290.24
834.449	10673.8
834.834	10626.93
835.218	10616.77
835.603	10833.63
835.987	10668.33
836.371	11194.42
836.755	11103.63
837.139	11342.1
837.524	11471.38
837.908	11320.35
838.291	11329.39
838.675	11324.7
839.059	11414.38
839.443	11358.23
839.827	11155.16
840.21	11412.18
840.594	11266.5
840.977	11334.94
841.361	11254.14
841.744	11422.81
842.127	11266.34
842.511	11363.64
842.894	11679.01
843.277	11862.29
843.66	12137.39
844.043	12130.84
844.426	11582.81
844.809	11337.09
845.191	11306.05
845.574	10977.14
845.957	10705.2
846.339	10554.73
846.722	10155.6
847.104	10102.37
847.487	9900.26
847.869	9818.34
848.252	9884.71
848.634	9985.05
849.016	10049.42
849.398	10031.61
849.78	10417.45
850.162	10332.09
850.544	10461.18
850.926	10678.97
851.307	10503.13
851.689	10518.73
852.071	10627.29
852.452	10688
852.834	10584.05
853.215	10693.86
853.597	10684.06
853.978	10749.59
854.359	10906.39
854.741	10398.36
855.122	10355.19
855.503	10246.77
855.884	10353.54
856.265	10353.82
856.646	10410.8
857.026	10198.49
857.407	10140.91
857.788	10193.28
858.169	10301.96
858.549	9855.79
858.93	10115.79
859.31	10097.22
859.69	10153.37
860.071	9914.6
860.451	9758.37
860.831	9366.22
861.211	9863.07
861.591	10068.68
861.971	9991.12
862.351	10009.06
862.731	10090.61
863.111	10094.11
863.491	10110.44
863.87	10359.71
864.25	10371.87
864.629	10074.01
865.009	10174.98
865.388	10431.12
865.768	11062.2
866.147	10925.99
866.526	10242.31
866.905	10309.61
867.284	10866.68
867.663	10322.71
868.042	9892.89
868.421	9865.27
868.8	10025.19
869.179	10114.53
869.558	9508.32
869.936	8750.58
870.315	8887.26
870.693	9082.02
871.072	9772.12
871.45	9275.9
871.828	9358.94
872.207	9806.69
872.585	9613.66
872.963	9828.89
873.341	9443.67
873.719	9293.99
874.097	9141.33
874.475	9271.65
874.853	9438.22
875.23	9002.07
875.608	9336.9
875.986	10054.37
876.363	9568.13
876.741	9816.81
877.118	9524.92
877.495	9944.5
877.873	10042.04
878.25	10508.66
878.627	10020.6
879.004	10109.65
879.381	10008.23
879.758	9704.02
880.135	8989.1
880.512	9463.58
880.889	9164.6
881.265	9032.91
881.642	8922.33
882.019	9049.92
882.395	8845.04
882.772	9171.49
883.148	8735.81
883.524	8666.5
883.901	8571.28
884.277	8650.75
884.653	8552.25
885.029	8765.47
885.405	9666.36
885.781	9541.68
886.157	9103.88
886.532	9161.6
886.908	9103.27
887.284	10078.31
887.659	10363.31
888.035	10638.79
888.411	10874.93
888.786	10968.22
889.161	11286.96
889.537	11004.43
889.912	11276
890.287	11186.68
890.662	11384.78
891.037	11069.79
891.412	10211.85
891.787	9980.13
892.162	9506.51
892.536	9581.76
892.911	9059.62
893.286	8693.25
893.66	8169.64
894.035	8199.31
894.409	8710.43
894.784	8165.27
895.158	8108.62
895.532	8376.19
895.906	8384.24
896.281	8347.7
896.655	8005.15
897.029	8925.04
897.402	9095.66
897.776	9910.69
898.15	9684.74
898.524	9419.6
898.898	9388.37
899.271	10358.19
899.645	8879.56
900.018	8466.81
900.392	8775.96
900.765	8874.64
901.138	8269.83
901.511	8210.78
901.884	7645.53
902.258	7161.98
902.631	7518.27
903.003	8765.92
903.376	8021.19
903.749	9102.12
904.122	9837.46
904.495	10871.88
904.867	11000.49
905.24	9508.65
905.612	8787.04
905.985	8869.73
906.357	9135.28
906.729	8573.35
907.102	7192.59
907.474	6789.95
907.846	6707.36
908.218	6511.77
908.59	5684.88
908.962	5430.21
909.334	5793.23
909.705	6042.72
910.077	5830.32
910.449	6025.9
910.82	6153.4
911.192	6735.32
911.563	6990.12
911.935	7439.37
912.306	7418.31
912.677	7616.16
913.048	7500.38
913.419	8068.76
913.79	8044.57
914.161	8589.84
914.532	8183.26
914.903	7484.14
915.274	7083.25
915.645	6932.95
916.015	6086.74
916.386	5808.59
916.756	6190.56
917.127	6417.03
917.497	5795.63
917.868	6382.57
918.238	6116.44
918.608	6347.71
918.978	6565.72
919.348	7043.46
919.718	7383.86
920.088	7205.53
920.458	7572.59
920.828	8020.57
921.198	7640.04
921.567	8152.86
921.937	6305.42
922.306	6350.76
922.676	6822.5
923.045	5681.18
923.415	5377.9
923.784	4863.21
924.153	4978.04
924.522	4930.26
924.891	4599.53
925.26	4885.55
925.629	4719.38
925.998	5353.65
926.367	5162.76
926.736	4862.22
927.104	5665.67
927.473	5943.84
927.842	6980.67
928.21	6677.96
928.578	6761.41
928.947	6144.78
929.315	5923.32
929.683	6649.74
930.051	6384.57
930.42	7019.91
930.788	5639.84
931.156	5262.69
931.523	4674.77
931.891	4075.49
932.259	3702.92
932.627	4063.77
932.994	5433.72
933.362	4282.31
933.729	3549.52
934.097	3259.79
934.464	2661.3
934.831	2991.65
935.199	2897.61
935.566	2768.76
935.933	2768.63
936.3	3365.79
936.667	2653.83
937.034	2548.64
937.401	2604.57
937.767	2335.6
938.134	2178.13
938.501	3202.43
938.867	3603.4
939.234	6416.25
939.6	5714.85
939.967	6697.57
940.333	4688.56
940.699	4137.59
941.065	3330.88
941.431	4474.45
941.798	4449.05
942.163	5909.98
942.529	3725.67
942.895	3412.64
943.261	2209.59
943.627	2902.15
943.992	2517.08
944.358	2492.24
944.723	2493.7
945.089	2417.26
945.454	2208.89
945.82	2316.92
946.185	2201.73
946.55	2553.33
946.915	2291.25
947.28	2671.16
947.645	2341.36
948.01	2187.04
948.375	2293.5
948.74	2729.05
949.104	3179.21
949.469	4535.11
949.834	8030.2
950.198	7713.55
950.562	4642.85
950.927	3866.93
951.291	4677.13
951.655	3987.2
952.02	3679.49
952.384	2776.87
952.748	2450.64
953.112	2425.79
953.476	2118.12
953.839	1936.91
954.203	1915.48
954.567	2381.42
954.931	3708.79
955.294	3189.96
955.658	3183.71
956.021	5436.96
956.385	9168.05
956.748	13493.97
957.111	20730.67
957.474	23270.57
957.837	26314.12
958.2	19969.97
958.563	7220.39
958.926	4970.49
959.289	7526.16
959.652	8512.14
960.015	6418.2
960.377	9239.21
960.74	10578.38
961.102	18157.53
961.465	19843
961.827	11130.7
962.189	21380.03
962.552	14946.1
962.914	11992.91
963.276	7848.08
963.638	6545.65
964	6531.94
964.362	4480.77
964.724	4336.11
965.085	3127.44
965.447	2583.12
965.809	2874.82
966.17	2896.33
966.532	3174.61
966.893	2961.26
967.255	2739.75
967.616	3280.23
967.977	2679.66
968.338	2980.49
968.699	2532.01
969.061	2595.21
969.421	2674.98
969.782	3072.7
970.143	2681.76
970.504	2847.8
970.865	3294.37
971.225	3420.75
971.586	3384.3
971.946	4849.42
972.307	4234.8
972.667	5499.43
973.027	5687
973.388	6826.75
973.748	4638.12
974.108	4985.35
974.468	6615.31
974.828	5100.93
975.188	3899.9
975.548	3561.03
975.907	2986.28
976.267	3323.79
976.627	2815.4
976.986	2885.58
977.346	2750.01
977.705	2653.6
978.064	2430.87
978.424	2049.58
978.783	2110.81
979.142	2414.94
979.501	2324.45
979.86	2471.38
980.219	2402.91
980.578	3098.57
980.937	3516
981.296	3168.15
981.654	3291.22
982.013	5121.86
982.371	6717.91
982.73	6333.03
983.088	7242.61
983.447	7820.57
983.805	11307.76
984.163	23873.2
984.521	26656.34
984.879	39067.73
985.237	-64075.6
985.595	62324.91
985.953	15617.66
986.311	9035.69
986.669	5315.73
987.026	4587.54
987.384	6181.16
987.741	6375.87
988.099	4650.45
988.456	3759.46
988.814	3572.58
989.171	3120.49
989.528	3061.33
989.885	3269.42
990.242	2625.23
990.599	3269.89
990.956	2708.24
991.313	1923.13
991.67	1603.01
992.027	1728.46
992.383	1543.8
992.74	1366.28
993.096	1457.14
993.453	1523.82
993.809	1581.12
994.165	2095.75
994.522	1974.46
994.878	2174.42
995.234	2732.39
995.59	2697.01
995.946	2497.84
996.302	2859.57
996.658	3297.76
997.013	3620.42
997.369	4335.52
997.725	5580.65
998.08	3641.86
998.436	5465.89
998.791	7651.57
999.147	7636.24
999.502	8407.31
999.857	6123.11
1000.212	9966.67
1000.567	14275.17
1000.922	8303.92
1001.277	5289.93
1001.632	3963.76
1001.987	5113.51
1002.342	3698.08
1002.696	2964.94
1003.051	2387.97
1003.406	2883.41
1003.76	2903.74
1004.114	2877.43
1004.469	2426.78
1004.823	2019.51
1005.177	2167.14
1005.531	1721.27
1005.885	1550.96
1006.239	1774.81
1006.593	2238.85
1006.947	3010.1
1007.301	2264.65
1007.655	2470.2
1008.008	1831.32
1008.362	2066.25
1008.715	2969.63
1009.069	2741.04
1009.422	4204.21
1009.776	8381.42
1010.129	5525.31
1010.482	4638.54
1010.835	3914.14
1011.188	8180.89
1011.541	7701.01
1011.894	-47137.93
1012.247	140870.04
1012.6	9509.25
1012.952	6076.4
1013.305	3112.76
1013.657	2292.12
1014.01	2174.4
1014.362	1787.34
1014.715	1652.81
1015.067	1477.09
1015.419	1463.14
1015.771	1307.59
1016.123	1179.85
1016.475	1218.32
1016.827	1288.61
1017.179	1404.57
1017.531	1410.52
1017.883	1462.99
1018.234	1458.88
1018.586	1834.42
1018.938	1983.02
1019.289	2748.14
1019.64	3126.53
1019.992	2866.56
1020.343	2624.28
1020.694	2147.29
1021.045	1922.39
1021.396	2216.89
1021.747	2419.27
1022.098	2869.94
1022.449	2062.46
1022.8	1896.89
1023.151	1347.28
1023.501	1212.04
1023.852	1332.25
1024.202	1422
1024.553	1541.02
1024.903	1505.85
1025.253	1314.92
1025.604	1180.76
1025.954	1469.14
1026.304	1796.81
1026.654	2099.39
1027.004	3061.46
1027.354	5031.43
1027.703	4854.41
1028.053	6337.92
1028.403	9400.5
1028.753	13597.21
1029.102	17982.79
1029.452	91338.21
1029.801	3906.95
1030.15	2540.49
1030.499	2124.24
897.758	1878.58
901.051	1804.79
904.343	1839.38
907.636	1846.63
910.928	1901.82
914.22	1831.8
917.511	1835.43
920.803	1872.96
924.094	1862.53
927.384	1872.62
930.675	1834.25
933.965	1805.63
937.255	1840.69
940.544	1814.26
943.834	1800.38
947.123	1749.33
950.411	1826.56
953.7	1810.84
956.988	1802.8
960.276	1738.17
963.563	1774.01
966.851	1787.77
970.138	1820.26
973.424	1821.42
976.711	1777.34
979.997	1823.9
983.283	1858.38
986.568	1801.12
989.853	1785.11
993.138	1805.65
996.423	1887.74
999.708	1853.32
1002.992	1877.82
1006.275	1793.72
1009.559	1796.62
1012.842	1877.22
1016.125	1841.73
1019.408	1822.49
1022.69	1865.59
1025.972	1894.69
1029.254	1873.94
1032.536	1846.92
1035.817	1847.84
1039.098	1820.74
1042.379	1865.04
1045.659	1886.34
1048.939	1842.17
1052.219	1839.55
1055.498	1828.97
1058.778	1825.72
1062.057	1802.54
1065.335	1823.85
1068.614	1829.67
1071.892	1829.97
1075.17	1868.08
1078.447	1873.84
1081.724	1867.49
1085.001	1885.84
1088.278	1867.28
1091.554	1868.02
1094.83	1862.61
1098.106	1896.16
1101.382	1917.41
1104.657	1914.87
1107.932	1913.71
1111.206	1896.88
1114.481	1850.19
1117.755	1853.99
1121.029	1851.04
1124.302	1904.47
1127.575	1879.11
1130.848	1877.32
1134.121	1852.29
1137.393	1821.14
1140.665	1869.59
1143.937	1851.82
1147.208	1803.65
1150.48	1860.07
1153.75	1847.41
1157.021	1839.77
1160.291	1821.89
1163.561	1867.82
1166.831	1834.41
1170.101	1853.55
1173.37	1815.61
1176.639	1782.65
1179.907	1818.22
1183.176	1841.2
1186.444	1842.04
1189.711	1861.06
1192.979	1885.81
1196.246	1848.14
1199.513	1858.38
1202.78	1863.91
1206.046	1873.44
1209.312	1898.17
1212.578	1908.42
1215.843	1883.16
1219.108	1858.47
1222.373	1877.17
1225.638	1859.18
1228.902	1855.1
1232.166	1815.39
1235.43	1807.49
1238.693	1833.56
1241.956	1824.63
1245.219	1871.42
1248.482	1854.11
1251.744	1853.08
1255.006	1950.58
1258.268	1904.02
1261.529	1868.26
1264.79	1866.44
1268.051	1946.54
1271.312	1955.01
1274.572	1928.96
1277.832	1916.62
1281.092	1897.81
1284.351	1895.59
1287.61	1883.61
1290.869	1829.75
1294.128	1832.27
1297.386	1859.33
1300.644	1854.29
1303.902	1864.22
1307.159	1751.5
1310.416	1793.68
1313.673	1820.02
1316.93	1820.29
1320.186	1843.85
1323.442	1870.88
1326.697	1877.63
1329.953	1852
1333.208	1891.29
1336.463	1865.57
1339.717	1839.99
1342.972	1928.09
1346.226	1904.88
1349.479	1868.47
1352.733	1854.27
1355.986	1855.05
1359.238	1841.27
1362.491	1847.03
1365.743	1847.94
1368.995	1839.12
1372.247	1856.57
1375.498	1873.4
1378.749	1919.04
1382	1876.52
1385.251	1903.82
1388.501	1862.51
1391.751	1872.76
1395	1842.62
1398.25	1865.51
1401.499	1893.31
1404.748	1856.34
1407.996	1836.9
1411.244	1829.86
1414.492	1819.42
1417.74	1810.02
1420.987	1813.48
1424.234	1867.85
1427.481	1828.63
1430.728	1879.5
1433.974	1860.09
1437.22	1852.98
1440.465	1847.75
1443.711	1855.5
1446.956	1871.07
1450.201	1839.37
1453.445	1876.39
1456.689	1867.11
1459.933	1872.74
1463.177	1909.36
1466.42	1886.3
1469.663	1870.73
1472.906	1889.18
1476.148	1927.95
1479.391	1886.13
1482.633	1867.1
1485.874	1893.28
1489.115	1900.49
1492.356	1879.94
1495.597	1863.9
1498.838	1851.86
1502.078	1841.32
1505.318	1818.44
1508.557	1843.92
1511.797	1842.24
1515.036	1890.48
1518.274	1854.57
1521.513	1805.31
1524.751	1811.85
1527.989	1833.46
1531.227	1848.52
1534.464	1863.57
1537.701	1851.62
1540.938	1859.08
1544.174	1810.93
1547.41	1797.58
1550.646	1830.04
1553.882	1874.36
1557.117	1925.13
1560.352	1925.96
1563.587	1895.86
1566.821	1868.54
1570.055	1872.92
1573.289	1858.14
1576.523	1901.14
1579.756	1915.56
1582.989	1933.64
1586.222	1895.34
1589.454	1922.03
1592.686	1907.3
1595.918	1932.63
1599.15	1927.91
1602.381	1961.72
1605.612	1953.97
1608.843	2027.96
1612.073	1964.85
1615.303	1957.07
1618.533	1953.95
1621.762	1954.84
1624.992	1925.8
1628.221	1930.3
1631.449	1920.27
1634.678	1935.66
1637.906	1907.87
1641.134	1927.52
1644.361	1900.06
1647.588	1894.88
1650.815	1912.51
1654.042	1878.94
1657.269	1898.29
1660.495	1889.77
1663.72	1868.65
1666.946	1842.42
1670.171	1830.38
1673.396	1808.12
1676.621	1792.41
1679.845	1786.64
1683.069	1784.32
1686.293	1807.23
1689.517	1805.18
1692.74	1771.32
1695.963	1785.68
1699.185	1826.61
1702.408	1806.26
1705.63	1826.91
1708.852	1843.62
1712.073	1816.42
1715.294	1831.85
1718.515	1869.72
1721.736	1837.75
1724.956	1816.22
1728.176	1835.04
1731.396	1853.17
1734.616	1843.78
1737.835	1878.39
1741.054	1852.24
1744.272	1845.96
1747.491	1887.78
1750.709	1900.08
1753.927	1867.37
1757.144	1882.79
1760.361	1939.77
1763.578	1911.3
1766.795	1871.64
1770.011	1859.04
1773.227	1876.64
1776.443	1914.69
1779.658	1951.37
1782.874	1898.7
1786.089	1897.82
1789.303	1900.15
1792.518	1897.9
1795.732	1886.16
1798.945	1905.59
1802.159	1939.89
1805.372	1900.5
1808.585	1896.03
1811.797	1897.84
1815.01	1912.08
1818.222	1939.84
1821.434	1897.86
1824.645	1929.24
1827.856	1946.09
1831.067	1969.53
1834.278	1913.31
1837.488	1901.19
1840.698	2001.1
1843.908	1959.15
1847.117	1933.57
1850.326	1880.83
1853.535	1925.43
1856.744	1964.63
1859.952	1904.08
1863.16	1905.45
1866.368	1922.33
1869.575	2027.29
1872.782	1926.67
1875.989	1870.17
1879.196	1907.45
1882.402	1904.23
1885.608	1933.04
1888.814	1892.76
1892.019	1819.93
1895.224	1866.98
1898.429	1832.45
1901.634	1821.8
1904.838	1799.63
1908.042	1855.28
1911.246	1870.07
1914.449	1845.78
1917.652	1827.5
1920.855	1809.5
1924.058	1825.8
1927.26	1868.95
1930.462	1887.14
1933.664	1931.48
1936.865	1880.88
1940.066	1898.88
1943.267	1846.59
1946.467	1855.27
1949.668	1868.31
1952.868	1931.46
1956.067	1928.01
1959.267	1876.86
1962.466	1896.41
1965.665	1876.25
1968.863	1871.48
1972.061	1867.87
1975.259	1857.85
1978.457	1924.99
1981.654	1888.1
1984.852	1892.77
1988.048	1855.36
1991.245	1841.2
1994.441	1921.29
1997.637	1872.02
2000.833	1860.79
2004.028	1887.71
2007.223	1946.38
2010.418	1938.11
2013.613	1891.54
2016.807	1893.89
2020.001	1883.22
2023.194	1898.15
2026.388	1885.12
2029.581	1833.98
2032.774	1898.27
2035.966	1907.53
2039.158	1864.2
2042.35	1881.87
2045.542	1814.92
2048.733	1882.07
2051.924	1864.63
2055.115	1876.58
2058.306	1850.97
2061.496	1898.16
2064.686	1938.65
2067.875	1851.99
2071.065	1849.61
2074.254	1862.18
2077.442	1821.95
2080.631	1896.03
2083.819	1847.74
2087.007	1841.73
2090.195	1833.74
2093.382	1839.54
2096.569	1828.86
2099.756	1795.55
2102.942	1845.56
2106.128	1861.12
2109.314	1851.31
2112.5	1842.69
2115.685	1814.15
2118.87	1819.96
2122.055	1874.39
2125.239	1857.24
2128.424	1852.17
2131.608	1891.07
2134.791	1877.46
2137.974	1905.53
2141.157	1896.14
2144.34	1876.69
2147.523	1861.14
2150.705	1886.64
2153.887	1851.66
2157.068	1836.46
2160.25	1812.45
2163.431	1829.47
2166.611	1809.35
2169.792	1832.14
2172.972	1754.91
2176.152	1794.56
2179.331	1816.02
2182.511	1824.82
2185.69	1841.95
2188.868	1851.74
2192.047	1876.14
2195.225	1900.91
2198.403	1851.09
2201.58	1838.28
2204.758	1821.76
2207.935	1888.9
2211.111	1821.55
2214.288	1812.1
2217.464	1841.38
2220.64	1796.21
2223.815	1838.22
2226.991	1781.17
2230.166	1793.32
2233.34	1837.06
2236.515	1847.89
2239.689	1903.07
2242.863	1860.4
2246.036	1904.21
2249.209	1886.6
2252.382	1898.05
2255.555	1914.43
2258.727	1875.32
2261.9	1897.51
2265.071	1891.63
2268.243	1891
2271.414	1848.09
2274.585	1841.11
2277.756	1892.53
2280.926	1856.15
2284.096	1877.15
2287.266	1823.09
2290.436	1862.3
2293.605	1877.52
2296.774	1916.58
2299.942	1915.46
2303.111	1927.33
2306.279	1977.27
2309.447	1961.46
2312.614	1936.64
2315.781	1959.5
2318.948	1942.52
2322.115	1974.68
2325.281	1882.71
2328.447	1885.45
2331.613	1857.41
2334.779	1855.95
2337.944	1850.67
2341.109	1853.68
2344.274	1846.53
2347.438	1816.41
2350.602	1836.76
2353.766	1843.24
2356.929	1835.94
2360.092	1866.58
2363.255	1846.4
2366.418	1824.83
2369.58	1865.07
2372.742	1796.56
2375.904	1776.77
2379.066	1768.61
2382.227	1789.75
2385.388	1755.15
2388.548	1715.92
2391.709	1746.92
2394.869	1745.6
2398.029	1777.94
2401.188	1767.32
2404.347	1749.95
2407.506	1786
2410.665	1831.66
2413.823	1810.52
2416.981	1798.93
2420.139	1806.18
2423.296	1843.79
2426.453	1820.39
2429.61	1836.21
2432.767	1825.07
2435.923	1862.75
2439.079	1805.3
2442.235	1832.34
2445.391	1784.44
2448.546	1829.39
2451.701	1855.31
2454.855	1861.23
2458.009	1876.97
2461.163	1864.27
2464.317	1842.43
2467.471	1860.37
2470.624	1885.03
2473.777	1885.26
2476.929	1901.74
2480.082	1920.72
2483.234	1898.59
2486.385	1841.13
2489.537	1834.52
2492.688	1836.76
2495.839	1850.53
2498.989	1866.13
2502.14	1856.32
2505.29	1853.17
2508.439	1871.3
2511.589	1822.3
2514.738	1818.56
2517.887	1837.1
2521.035	1909.95
2524.183	1864.62
2527.331	1855.04
2530.479	1855.55
2533.627	1854.65
