Data from C_1_DEC_NC_4N_Splice17_11-44-08-940.txt Node
Date: Sat Mar 14 11:44:08 EDT 2020
User: sa697716
Spectrometer: FLMS03696
Trigger mode: 0
Integration Time (sec): 3.180400E-1
Scans to average: 20
Electric dark correction enabled: true
Nonlinearity correction enabled: true
Boxcar width: 5
XAxis mode: Wavelengths
Number of Pixels in Spectrum: 2048
>>>>>Begin Spectral Data<<<<<
187.83	-200201.5
188.298	1507.51
188.766	801.03
189.233	731.76
189.701	1032.96
190.169	1355.49
190.636	459.94
191.104	405.24
191.571	49.26
192.039	-70.83
192.506	-111.19
192.974	375.4
193.441	-730.27
193.908	-323.37
194.375	-109.65
194.842	-16.53
195.31	-8.27
195.777	65.35
196.244	200.73
196.711	110.25
197.177	94.12
197.644	74.78
198.111	97.37
198.578	112.63
199.045	75.29
199.511	76.62
199.978	-17.46
200.445	-8.19
200.911	-65.52
201.378	-172.08
201.844	-104.2
202.31	-234.86
202.777	-291.48
203.243	-153.66
203.709	-125.37
204.176	-169.26
204.642	-122.51
205.108	-81.88
205.574	-80.04
206.04	-89.15
206.506	-69.22
206.972	-110.67
207.438	-114.01
207.903	-124.22
208.369	-77.11
208.835	-80.13
209.301	-72.07
209.766	-106.2
210.232	-119.14
210.697	-166.67
211.163	-200.56
211.628	-347.14
212.094	-253.41
212.559	-202.84
213.024	-119.27
213.49	-149.49
213.955	-150.71
214.42	-185.17
214.885	-139.62
215.35	-100.59
215.815	12.75
216.28	13.18
216.745	5.51
217.21	38.06
217.675	-6.76
218.14	-1.62
218.604	-18.28
219.069	-22.53
219.534	18.1
219.998	5.16
220.463	-23.69
220.927	-128.82
221.392	-100.79
221.856	-69.98
222.32	-145.13
222.785	-140.57
223.249	-184.31
223.713	-186.73
224.177	-172.03
224.642	-271.72
225.106	-368.29
225.57	-382.96
226.034	-208.74
226.497	-304.14
226.961	-210.75
227.425	-177.16
227.889	-248.03
228.353	-266.59
228.816	-678.99
229.28	-555.22
229.744	-468.49
230.207	-156.16
230.671	-165.71
231.134	-453.17
231.597	-433.22
232.061	-519.8
232.524	-579.23
232.987	-363.3
233.45	-248.82
233.914	-183.7
234.377	-252.6
234.84	-242.99
235.303	-348.57
235.766	-389.67
236.229	-341.93
236.691	-251.76
237.154	-302.57
237.617	-185.62
238.08	-220.39
238.542	-281.16
239.005	-187.4
239.468	-154.93
239.93	-123.53
240.393	-95.96
240.855	-70
241.317	-92.05
241.78	-124.2
242.242	-99.64
242.704	-79.65
243.166	-39.47
243.629	-8.51
244.091	-10.95
244.553	-20.73
245.015	-9.85
245.477	-32.88
245.939	-75.52
246.4	-45.41
246.862	-59.39
247.324	-81.07
247.786	-152.4
248.247	-282.04
248.709	-452.44
249.17	-326.69
249.632	-214.41
250.093	-230.05
250.555	-180.7
251.016	-63.32
251.477	-60.33
251.939	-45.14
252.4	-61.24
252.861	-108.88
253.322	-65.24
253.783	-82.77
254.244	-151.07
254.705	-167.76
255.166	-206.77
255.627	-211.86
256.088	-305.74
256.549	-340.38
257.009	-325.48
257.47	-421.58
257.931	-353.28
258.391	-247.46
258.852	-248.36
259.312	-259.34
259.773	-330.73
260.233	-178.72
260.694	-128.76
261.154	-184.27
261.614	-67.87
262.074	-56.47
262.534	-26
262.994	-2.37
263.455	-32.1
263.915	1.57
264.374	6.36
264.834	12.68
265.294	-41
265.754	-29.63
266.214	-12.17
266.673	-36.63
267.133	-59.31
267.593	-92.95
268.052	-118.94
268.512	-118.32
268.971	-91.37
269.431	-73.79
269.89	-85.72
270.349	-103.84
270.809	-98.52
271.268	-88.53
271.727	-401.83
272.186	-226.74
272.645	-165.36
273.104	-151.94
273.563	-213.75
274.022	-264.46
274.481	-212.48
274.94	-143.57
275.399	-132.63
275.857	-202.66
276.316	-294.87
276.775	-241.38
277.233	-236.06
277.692	-179.35
278.15	-186.2
278.609	-141.2
279.067	-129.46
279.525	-120.22
279.984	-188.33
280.442	-199.63
280.9	-90.93
281.358	-63.89
281.816	-37.76
282.274	-50.91
282.732	-96.76
283.19	-95.77
283.648	-120.64
284.106	-123.7
284.564	-146.71
285.021	-110.86
285.479	-93.45
285.937	-133.54
286.394	-94.68
286.852	-137.24
287.309	-139
287.767	-99.1
288.224	-86.34
288.682	-90.2
289.139	-89.23
289.596	-52.47
290.053	-71.31
290.511	-97.82
290.968	-91.3
291.425	-157.31
291.882	-37.84
292.339	-0.04
292.796	-26.74
293.252	-31.96
293.709	20.01
294.166	26.05
294.623	-11.71
295.079	-27.39
295.536	-17.77
295.992	-6.88
296.449	-6.63
296.905	-19.66
297.362	-5.46
297.818	-13.8
298.274	-1.87
298.731	-40.62
299.187	-53.02
299.643	-42.37
300.099	-39.52
300.555	-48.48
301.011	-43.5
301.467	34.18
301.923	-12.16
302.379	-32.26
302.835	-58.57
303.291	-48.51
303.746	-58.43
304.202	-90.34
304.658	-110.04
305.113	-70.99
305.569	-47.03
306.024	-90.61
306.479	-184.75
306.935	-102.74
307.39	-131.26
307.845	-106.79
308.301	-98.31
308.756	-124.35
309.211	-110.85
309.666	-120.28
310.121	-113.42
310.576	-150.97
311.031	-158.56
311.486	-188.31
311.94	-234.03
312.395	-339.14
312.85	-663.06
313.305	-4422.64
313.759	-15201.45
314.214	-1171.04
314.668	-870.39
315.123	-709.75
315.577	-189.24
316.032	-133.13
316.486	-177.99
316.94	-123.95
317.394	-54.2
317.849	-33.23
318.303	-30.67
318.757	-43.68
319.211	-56.98
319.665	-41.87
320.119	-52.88
320.572	-117.3
321.026	-94.68
321.48	-69.9
321.934	-91.51
322.387	-101.29
322.841	-106.14
323.295	-42.66
323.748	-82.55
324.202	-57.33
324.655	-62.88
325.108	-11.33
325.562	25.69
326.015	14.12
326.468	18.4
326.921	9.91
327.374	29.01
327.827	60.45
328.28	51.78
328.733	54.14
329.186	48.48
329.639	38.62
330.092	17.07
330.545	27.73
330.997	40.04
331.45	58.74
331.903	107
332.355	115.29
332.808	76.39
333.26	32.82
333.713	55.1
334.165	25.85
334.617	-16.93
335.069	-87.56
335.522	-288.43
335.974	-348.35
336.426	-402.17
336.878	-380.07
337.33	-165.53
337.782	-178.53
338.234	-183.47
338.686	-296.67
339.137	-337.16
339.589	-296.24
340.041	-198.43
340.493	-168.53
340.944	-182.13
341.396	-178.85
341.847	-119.84
342.299	-100.88
342.75	-47.29
343.201	-89.51
343.653	-69.03
344.104	-115.46
344.555	-98.25
345.006	-237.75
345.457	-82.08
345.908	-81.5
346.359	-47.97
346.81	-38.46
347.261	-88.61
347.712	-140.18
348.163	-153.62
348.613	-103.43
349.064	-76.43
349.515	-55.24
349.965	-27.78
350.416	-67.36
350.866	-82.32
351.317	-158.16
351.767	-240.57
352.217	-266.15
352.668	-140.27
353.118	-133.33
353.568	-240.65
354.018	-168.47
354.468	-158.99
354.918	-109.52
355.368	-99.93
355.818	-126.81
356.268	-351.03
356.718	-1211.78
357.168	-209.94
357.617	-161.04
358.067	-239.67
358.517	-217.18
358.966	-212.32
359.416	-155.31
359.865	-262.72
360.315	-457.98
360.764	-212.58
361.213	-105.19
361.663	-131.7
362.112	-198.92
362.561	-309.51
363.01	-168.84
363.459	-156.81
363.908	-233.2
364.357	-181.32
364.806	-323.31
365.255	-187.44
365.703	-146.53
366.152	-161.73
366.601	-136.09
367.05	-91.2
367.498	-76.92
367.947	-99.84
368.395	-122.3
368.844	-87.82
369.292	-157.37
369.74	-80.35
370.189	-152.01
370.637	-179.46
371.085	-166.68
371.533	-211.4
371.981	-242.96
372.429	-196.14
372.877	-211.11
373.325	-125.55
373.773	-153.42
374.221	-151.71
374.669	-206.19
375.116	-180.51
375.564	-183.03
376.012	-206.51
376.459	-161.93
376.907	-188.64
377.354	-293.06
377.801	-221.65
378.249	-267.33
378.696	-382.02
379.143	-429.92
379.591	-442.78
380.038	-661.19
380.485	-449.79
380.932	-444.76
381.379	-273.3
381.826	-114.21
382.273	-79.45
382.72	-115.39
383.166	-115.84
383.613	-25.81
384.06	-25.78
384.506	-38.06
384.953	-30.47
385.4	-34.94
385.846	-28.6
386.292	-63.99
386.739	-85.55
387.185	-83.66
387.631	-87.49
388.078	-60.47
388.524	-82.63
388.97	-77.71
389.416	-58.08
389.862	-53.61
390.308	-57.68
390.754	-51.07
391.2	-55.62
391.645	-52.97
392.091	-15.53
392.537	-9.23
392.983	-33.69
393.428	4.79
393.874	4.24
394.319	18.53
394.765	30.77
395.21	29.42
395.655	29.03
396.101	33.03
396.546	30.22
396.991	6.87
397.436	7.36
397.881	14.01
398.326	-10.28
398.771	-2.69
399.216	-11.78
399.661	-17.5
400.106	-9.42
400.551	-8.28
400.995	-6.22
401.44	-2.61
401.885	-1.44
402.329	-1.88
402.774	-1
403.218	15.12
403.663	11.96
404.107	15.2
404.551	18.17
404.995	14.68
405.44	6.47
405.884	4.15
406.328	-1.53
406.772	-4.08
407.216	-2.24
407.66	-4.34
408.104	-15.6
408.547	-13.81
408.991	-14.75
409.435	-15.92
409.879	-15.04
410.322	-12.32
410.766	-10.11
411.209	-7.06
411.653	-5.68
412.096	-4.13
412.54	-7.26
412.983	-6.69
413.426	-3.39
413.869	-3.41
414.312	0.42
414.756	-1.62
415.199	-2.48
415.642	-0.07
416.085	-0.24
416.527	-1.48
416.97	-3.45
417.413	-0.47
417.856	-1.44
418.298	-3.54
418.741	-7.87
419.184	-12.93
419.626	-19.41
420.069	-18.65
420.511	-18.47
420.953	-14.19
421.396	-12.18
421.838	-12.58
422.28	-13.71
422.722	-11.53
423.164	-12.72
423.606	-9.88
424.048	-10.6
424.49	-3.46
424.932	-6.71
425.374	-8.69
425.816	-14.03
426.258	-16.14
426.699	-15.74
427.141	-10
427.582	-12.4
428.024	-13.8
428.465	-14.55
428.907	-14.6
429.348	-16.91
429.789	-11.83
430.231	-7.99
430.672	-5.76
431.113	-3.43
431.554	-3.25
431.995	-8.67
432.436	-3.59
432.877	-1.37
433.318	0.65
433.759	0.38
434.2	0.12
434.64	-0.93
435.081	-1.66
435.522	-0.91
435.962	-1.72
436.403	0.99
436.843	-0.43
437.284	-3.56
437.724	-7.46
438.164	-10.47
438.604	-9.05
439.045	-5.67
439.485	-2.16
439.925	-3.21
440.365	-4.04
440.805	-4.35
441.245	-3.11
441.685	-2.02
442.125	-3.46
442.564	-2.64
443.004	-2.25
443.444	-2.5
443.883	-2.28
444.323	-7.98
444.762	-11.78
445.202	-13.07
445.641	-11.9
446.081	-15.35
446.52	-13.68
446.959	-12.6
447.398	-9.87
447.837	-9.55
448.276	-9.06
448.716	-9.1
449.154	-7.61
449.593	-3.99
450.032	-3.48
450.471	-6.01
450.91	-6.86
451.349	-5.5
451.787	-6.14
452.226	-7.06
452.664	-6.33
453.103	-6.29
453.541	-7.45
453.98	-4.72
454.418	-4.95
454.856	-2.48
455.295	-1.18
455.733	0.08
456.171	-1.52
456.609	1.18
457.047	1.31
457.485	2.25
457.923	3.44
458.361	2.79
458.798	1.53
459.236	1.83
459.674	0.09
460.111	1.16
460.549	1.57
460.987	-0.41
461.424	-2.14
461.862	-1.94
462.299	-2.11
462.736	-1.32
463.173	-1.02
463.611	2.75
464.048	3.31
464.485	4.08
464.922	2.1
465.359	0.82
465.796	10.95
466.233	12.26
466.67	14.02
467.106	16.34
467.543	14.32
467.98	13.89
468.416	10.59
468.853	8.98
469.29	8.24
469.726	8.71
470.162	8.76
470.599	2.26
471.035	0.07
471.471	-0.15
471.907	-3.08
472.344	-2.98
472.78	-2.26
473.216	-3.08
473.652	-2.37
474.088	-3.15
474.523	-2.48
474.959	-3.02
475.395	-3.18
475.831	-2.2
476.266	-2.7
476.702	-2.29
477.138	-1.98
477.573	-2.59
478.008	-2
478.444	-1.39
478.879	0.49
479.314	0.09
479.75	0.67
480.185	-0.03
480.62	-0.62
481.055	-1.19
481.49	-0.64
481.925	-0.36
482.36	1.93
482.795	0.69
483.229	-0.44
483.664	-1.14
484.099	-0.4
484.534	0.79
484.968	2.1
485.403	2.47
485.837	1.68
486.271	1.03
486.706	0.24
487.14	-1.39
487.574	-0.19
488.009	-0.03
488.443	-0.33
488.877	0.05
489.311	-1.11
489.745	-1.54
490.179	-1.48
490.613	1.42
491.046	1.43
491.48	1.46
491.914	1.8
492.348	1.48
492.781	2.03
493.215	2.03
493.648	0.66
494.082	0.78
494.515	0.79
494.948	1.04
495.382	-1.72
495.815	-1.56
496.248	-0.74
496.681	-1.31
497.114	-2.28
497.547	-2.48
497.98	-1.79
498.413	-0.25
498.846	-0.17
499.279	-0.51
499.711	-0.69
500.144	-0.62
500.577	0.21
501.009	-0.32
501.442	0.86
501.874	2.01
502.306	1.79
502.739	4.19
503.171	3.92
503.603	4.69
504.036	4.19
504.468	4.13
504.9	4.49
505.332	4.02
505.764	4.63
506.196	4.01
506.627	3.84
507.059	3.85
507.491	0.21
507.923	-0.11
508.354	-0.3
508.786	0.06
509.217	0.11
509.649	0.44
510.08	0.07
510.512	0.38
510.943	0.37
511.374	0.26
511.805	-0.04
512.237	0.09
512.668	-0.35
513.099	-1.48
513.53	-1.6
513.961	-1.45
514.391	-1.69
514.822	0.2
515.253	0.18
515.684	-0.08
516.114	0.4
516.545	1.38
516.975	1.26
517.406	1.13
517.836	1.36
518.267	2.48
518.697	3.31
519.127	3.59
519.558	2.13
519.988	1.44
520.418	0.98
520.848	-0.02
521.278	-0.92
521.708	32.41
522.138	33.8
522.567	33.22
522.997	32.36
523.427	31.46
523.857	31.21
524.286	31.14
524.716	31.42
525.145	32.24
525.575	33.21
526.004	32.57
526.433	0.17
526.863	-0.97
527.292	0.72
527.721	1.06
528.15	1
528.579	1.44
529.008	1.75
529.437	0.73
529.866	0.32
530.295	-0.63
530.724	0.79
531.152	0.81
531.581	1.6
532.01	1.28
532.438	0.74
532.867	0.36
533.295	0.34
533.723	0.21
534.152	0.82
534.58	1.3
535.008	1.73
535.436	2.45
535.865	2.49
536.293	1.11
536.721	0.37
537.149	0.85
537.576	2.21
538.004	2.34
538.432	1.36
538.86	1.4
539.287	0.39
539.715	0.35
540.143	-0.91
540.57	-0.56
540.998	-0.02
541.425	1.79
541.852	1.83
542.28	1.24
542.707	1.06
543.134	1.79
543.561	2.14
543.988	3.24
544.415	3
544.842	3.27
545.269	3.03
545.696	3.58
546.123	2.96
546.549	3.34
546.976	3.11
547.403	3.1
547.829	2.36
548.256	1.88
548.682	1.59
549.108	2.77
549.535	2.48
549.961	1.92
550.387	1.56
550.813	2.37
551.24	2.25
551.666	2.09
552.092	1.73
552.518	2.12
552.943	3.02
553.369	2.84
553.795	2.27
554.221	2.48
554.646	2.7
555.072	3.93
555.498	2.3
555.923	1.33
556.349	1.08
556.774	0.8
557.199	0.35
557.625	-0.9
558.05	-0.93
558.475	-1.5
558.9	-1.53
559.325	-0.49
559.75	-1.1
560.175	-0.9
560.6	-0.67
561.025	-0.92
561.449	-0.94
561.874	-1.11
562.299	0.14
562.723	-0.06
563.148	-0.35
563.572	-0.76
563.997	-1.94
564.421	-2.67
564.846	-3.11
565.27	-2.88
565.694	-2.63
566.118	-2.16
566.542	-0.68
566.966	-0.68
567.39	-0.3
567.814	0.37
568.238	0.42
568.662	0.36
569.086	0.4
569.509	0.25
569.933	1.53
570.357	1.22
570.78	0.94
571.204	1.58
571.627	0.89
572.05	0.81
572.474	1.68
572.897	1.66
573.32	2.36
573.743	1.83
574.166	2.51
574.589	1.55
575.012	1.5
575.435	1.38
575.858	0.75
576.281	1.03
576.704	0.32
577.126	-1.3
577.549	-1.5
577.972	-2.17
578.394	-1.46
578.817	0.5
579.239	0.41
579.661	1.25
580.084	2.25
580.506	2.31
580.928	1.96
581.35	2.38
581.772	3.56
582.194	3.99
582.616	3.73
583.038	2.84
583.46	0.79
583.882	0.81
584.303	-0.71
584.725	-1.5
585.147	2.61
585.568	3.02
585.99	3.97
586.411	4.49
586.833	5.05
587.254	6.01
587.675	6.21
588.096	6.24
588.518	6.02
588.939	6.77
589.36	7.21
589.781	1.43
590.202	3.87
590.623	2.88
591.043	1.44
591.464	0.54
591.885	0.67
592.305	0.42
592.726	0.05
593.147	0.3
593.567	1.02
593.987	0.62
594.408	0.77
594.828	-2.36
595.248	-1.19
595.669	-0.39
596.089	0.05
596.509	-0.59
596.929	-0.72
597.349	-0.18
597.769	-0.35
598.189	-0.63
598.608	-0.43
599.028	0.07
599.448	0.25
599.867	-0.23
600.287	-0.68
600.706	-0.03
601.126	0.06
601.545	1.11
601.965	0.82
602.384	0.68
602.803	0.5
603.222	0.93
603.641	0.47
604.061	1.09
604.48	0.67
604.898	0.5
605.317	-0.31
605.736	-0.23
606.155	-0.12
606.574	-0.05
606.992	-0.04
607.411	0.43
607.829	-1.26
608.248	-1.2
608.666	-1.9
609.085	-1.52
609.503	-1.09
609.921	-0.43
610.339	-0.53
610.758	-1.22
611.176	-1.13
611.594	-0.93
612.012	-1.22
612.43	0.19
612.847	-0.05
613.265	0.99
613.683	1.38
614.101	1.2
614.518	0.25
614.936	0.52
615.353	1.41
615.771	1.71
616.188	1.87
616.606	1.58
617.023	1.65
617.44	1.83
617.857	0.36
618.274	-0.6
618.691	-0.08
619.108	0.51
619.525	-0.05
619.942	-0.65
620.359	-1.26
620.776	-1.13
621.192	0.04
621.609	0.08
622.026	0.38
622.442	1.07
622.859	0.88
623.275	0.08
623.691	-0.5
624.108	-0.18
624.524	-0.08
624.94	0.06
625.356	-0.93
625.772	-2.24
626.188	-2.78
626.604	-3.21
627.02	-3.49
627.436	-3.1
627.852	-2.08
628.268	-1.7
628.683	-2.04
629.099	-1.99
629.514	-2.25
629.93	-2.06
630.345	-2.05
630.761	-2.46
631.176	-2.07
631.591	-0.14
632.007	0.78
632.422	-0.58
632.837	-1.18
633.252	0.16
633.667	-0.07
634.082	0.22
634.497	1.02
634.911	2.95
635.326	3.37
635.741	3.27
636.155	2.26
636.57	2.25
636.984	3.1
637.399	5.11
637.813	3.9
638.228	3.82
638.642	3.69
639.056	3.2
639.47	2.45
639.884	3.44
640.298	4
640.712	4.41
641.126	3.72
641.54	2.98
641.954	-0.56
642.368	0.24
642.781	2.87
643.195	3.01
643.609	3.42
644.022	2.65
644.436	1.28
644.849	-0.29
645.262	-1.4
645.676	-1.94
646.089	-1.47
646.502	1.63
646.915	0.4
647.328	-1.43
647.741	-1.15
648.154	-1.68
648.567	1.04
648.98	2.4
649.393	3.04
649.805	3.67
650.218	3.61
650.631	4
651.043	3.54
651.456	4.65
651.868	3.94
652.28	2.7
652.693	1.92
653.105	-0.52
653.517	-1.14
653.929	-1.13
654.341	-1.69
654.753	-0.76
655.165	-1.66
655.577	-2.64
655.989	-2.7
656.401	-3.34
656.813	-0.59
657.224	-0.39
657.636	-0.87
658.047	-0.08
658.459	0.28
658.87	-0.76
659.282	-1.19
659.693	0.09
660.104	1.16
660.515	0.5
660.926	0.31
661.338	-0.75
661.749	-1.13
662.159	0.27
662.57	-1.31
662.981	-1.25
663.392	-0.71
663.803	-0.7
664.213	-1.83
664.624	-2.67
665.035	-3.48
665.445	-2.85
665.855	-2.12
666.266	-0.64
666.676	-1.69
667.086	-2.08
667.497	-2.16
667.907	-2.2
668.317	-2.45
668.727	1.43
669.137	0.93
669.547	1.78
669.956	0.55
670.366	-0.65
670.776	-0.48
671.186	-1.32
671.595	-0.72
672.005	-1.67
672.414	-0.93
672.824	0.31
673.233	-4.27
673.642	-4.51
674.052	-4.03
674.461	-1.93
674.87	-2.18
675.279	-1.67
675.688	-1.95
676.097	-1.37
676.506	-0.59
676.915	-1.72
677.323	-2.5
677.732	-1.85
678.141	-1.23
678.549	-1.71
678.958	-2.76
679.366	-3.3
679.775	-4.91
680.183	-2.45
680.592	-2.42
681	-2.67
681.408	-2.29
681.816	-3.06
682.224	-3.91
682.632	-2.27
683.04	-2.44
683.448	-3.61
683.856	-2.39
684.264	-1.09
684.671	-3.64
685.079	-5.41
685.487	-5.48
685.894	-4.98
686.302	-5.29
686.709	-3.69
687.116	-5.05
687.524	-3.7
687.931	-1.4
688.338	-1.69
688.745	-2.63
689.152	-2.16
689.559	0.47
689.966	2.26
690.373	2.14
690.78	3.05
691.187	2.84
691.593	3.22
692	1.91
692.407	1.97
692.813	4.38
693.22	4.65
693.626	3.31
694.032	3.3
694.439	3.05
694.845	3.37
695.251	2.96
695.657	3.75
696.063	2.28
696.469	1.51
696.875	1.76
697.281	-1.13
697.687	-1.67
698.093	-0.29
698.498	-0.49
698.904	-2.5
699.31	-2.82
699.715	-0.76
700.12	-1.76
700.526	-0.52
700.931	-0.09
701.337	0.14
701.742	2.32
702.147	2.06
702.552	2.72
702.957	0.92
703.362	1.11
703.767	0.32
704.172	-1.57
704.577	-1.01
704.981	-2.92
705.386	-2.35
705.791	-2.33
706.195	-3.96
706.6	-3.83
707.004	-5.87
707.408	-5.25
707.813	-3.72
708.217	-2.6
708.621	-2.34
709.025	-3.58
709.43	-1.15
709.834	-0.54
710.237	-1.43
710.641	-0.92
711.045	0.2
711.449	2.63
711.853	6.48
712.256	4.71
712.66	4.16
713.064	4.34
713.467	5.87
713.87	6.28
714.274	6.46
714.677	7.72
715.08	6.86
715.484	6.99
715.887	8.44
716.29	4.7
716.693	6.88
717.096	7.66
717.499	7.33
717.901	5.47
718.304	2.85
718.707	1.83
719.109	0.56
719.512	0.14
719.915	3.3
720.317	2.85
720.719	1.68
721.122	0.53
721.524	0.6
721.926	5.72
722.328	7.02
722.731	6.63
723.133	6.96
723.535	8.27
723.937	8.96
724.338	8.27
724.74	8.64
725.142	63.84
725.544	68.79
725.945	81.18
726.347	77.01
726.748	76.83
727.15	79.26
727.551	82.04
727.952	79.12
728.354	77.57
728.755	75.15
729.156	72.7
729.557	19.9
729.958	14.71
730.359	3.12
730.76	2.41
731.161	1.56
731.562	-0.87
731.962	-3.98
732.363	-3.33
732.763	-1.87
733.164	-3.66
733.564	-3.17
733.965	-1.63
734.365	-0.61
734.766	-0.54
735.166	0.47
735.566	2.06
735.966	3.61
736.366	4.37
736.766	4.15
737.166	2.52
737.566	3.73
737.966	3.2
738.365	1.93
738.765	2.58
739.165	2.1
739.564	0.35
739.964	-1.24
740.363	-2.42
740.763	-4.21
741.162	-1.73
741.561	-1.23
741.96	-0.78
742.36	-1.09
742.759	-0.45
743.158	-1.76
743.557	-2.71
743.955	-2.9
744.354	-2.8
744.753	-2.67
745.152	-1.02
745.55	-3.73
745.949	-4.05
746.348	-3.8
746.746	-4.41
747.144	-1.99
747.543	-3.13
747.941	-3.76
748.339	-2.97
748.737	-1.72
749.136	-1.05
749.534	-2.82
749.932	-1.16
750.33	-0.63
750.727	-2.59
751.125	-1.54
751.523	-4.58
751.921	-0.11
752.318	1.21
752.716	3.38
753.113	3.13
753.511	2.53
753.908	3.29
754.305	8.23
754.703	9.33
755.1	11.04
755.497	10.8
755.894	10.62
756.291	7.17
756.688	6.62
757.085	3.53
757.482	4.19
757.878	7.26
758.275	9.89
758.672	0.85
759.068	-0.2
759.465	-2.58
759.861	-5.12
760.258	-4.94
760.654	-6.64
761.05	-2.96
761.447	-3.11
761.843	-4.93
762.239	-7.58
762.635	-14.09
763.031	-15.73
763.427	-15.73
763.822	-13.46
764.218	-12.3
764.614	-11.61
765.01	-11.06
765.405	-11.91
765.801	-10.6
766.196	-10.73
766.592	-11.54
766.987	-8.21
767.382	-7.41
767.778	-7.21
768.173	-7.9
768.568	-8.15
768.963	-6.75
769.358	-5.23
769.753	-2.82
770.148	-1.57
770.542	-2.96
770.937	-1.87
771.332	-1.97
771.726	-1.76
772.121	1.67
772.515	1.94
772.91	2.94
773.304	2.01
773.699	1.42
774.093	-0.23
774.487	-0.71
774.881	0.28
775.275	-0.49
775.669	-1.41
776.063	-1.05
776.457	-3.15
776.851	-3.28
777.245	-2.01
777.638	-2.4
778.032	-4.04
778.425	-2.91
778.819	0.79
779.212	4.65
779.606	8.4
779.999	7.27
780.392	8.36
780.786	5.73
781.179	6.18
781.572	5.92
781.965	6.1
782.358	6.55
782.751	4.9
783.143	0.69
783.536	-0.87
783.929	-4.54
784.322	-2.37
784.714	-4.33
785.107	-1.76
785.499	0.36
785.891	1.22
786.284	2.32
786.676	1.78
787.068	4.07
787.46	5.11
787.852	3.64
788.245	2.73
788.636	0.95
789.028	3.1
789.42	4.84
789.812	4.45
790.204	3.35
790.595	4.8
790.987	7.27
791.378	7.11
791.77	6.11
792.161	5.08
792.553	5.68
792.944	5.14
793.335	2.5
793.726	2.07
794.117	2.31
794.508	-1.13
794.899	-4.9
795.29	-7.24
795.681	-8.96
796.072	-10.44
796.463	12.1
796.853	16.23
797.244	17.72
797.634	19.34
798.025	18.35
798.415	14.49
798.806	18.2
799.196	22.35
799.586	26.56
799.976	27.16
800.366	28.32
800.756	3.41
801.146	1.56
801.536	-0.46
801.926	-0.48
802.316	0.05
802.706	2.63
803.095	1.13
803.485	-1.74
803.874	-5.36
804.264	-6.5
804.653	-6.12
805.043	-1.93
805.432	0.66
805.821	7.02
806.21	7.22
806.599	7.46
806.988	8.26
807.377	5.01
807.766	4.42
808.155	4.13
808.544	4.39
808.933	5.41
809.321	6.93
809.71	2.1
810.098	-0.61
810.487	-5.86
810.875	-10.84
811.264	-11.37
811.652	4.06
812.04	4.28
812.428	8.84
812.816	6.59
813.204	8.51
813.592	2.77
813.98	3.74
814.368	9.12
814.756	14.39
815.144	18.52
815.531	24.24
815.919	9.52
816.306	11.71
816.694	10.22
817.081	15.48
817.469	16.76
817.856	14.39
818.243	8.79
818.63	0.29
819.017	3.86
819.404	6.04
819.791	-0
820.178	-1.22
820.565	-0.18
820.952	5.18
821.339	7.18
821.725	5.72
822.112	12.02
822.498	17.09
822.885	16.13
823.271	10.84
823.657	1.07
824.044	3.43
824.43	5.33
824.816	14.75
825.202	12.73
825.588	8.53
825.974	10.25
826.36	11.28
826.746	9.57
827.132	10.86
827.517	16.59
827.903	21.25
828.289	24.66
828.674	25.22
829.06	16.42
829.445	10.94
829.83	9.3
830.216	7.09
830.601	8.13
830.986	18.64
831.371	19.66
831.756	21.05
832.141	29.45
832.526	27.96
832.911	28.39
833.295	26.57
833.68	25.11
834.065	27.62
834.449	28.36
834.834	26.17
835.218	21.67
835.603	24.24
835.987	18.79
836.371	12.73
836.755	11.32
837.139	7.05
837.524	4.31
837.908	5.09
838.291	7.98
838.675	5.87
839.059	5.35
839.443	0.45
839.827	-4.63
840.21	-5.87
840.594	-2.87
840.977	-2.18
841.361	1.95
841.744	0.55
842.127	2.19
842.511	-2.46
842.894	-6.29
843.277	-7.11
843.66	-8.12
844.043	-3.68
844.426	3.09
844.809	-4.36
845.191	-2.2
845.574	-4.12
845.957	-1.26
846.339	-0.31
846.722	4.41
847.104	2.65
847.487	-3.19
847.869	0.75
848.252	0.18
848.634	0.37
849.016	0.97
849.398	-3.74
849.78	-5.22
850.162	-2.67
850.544	-0.81
850.926	-7.04
851.307	-4.75
851.689	2.07
852.071	-7.12
852.452	-5.58
852.834	-11.33
853.215	-4.94
853.597	-6.02
853.978	-0.01
854.359	1.9
854.741	1.56
855.122	0.27
855.503	0.14
855.884	-5.63
856.265	-0.68
856.646	-8.11
857.026	-2.45
857.407	-2.29
857.788	-0.32
858.169	-8.61
858.549	-1.29
858.93	-3.48
859.31	-2.28
859.69	4.78
860.071	9.66
860.451	10.22
860.831	10.29
861.211	1.23
861.591	-4.09
861.971	-7.77
862.351	-5.77
862.731	-18.35
863.111	-19.04
863.491	-14.72
863.87	-23.78
864.25	-24.73
864.629	-18.78
865.009	-19.34
865.388	-13.67
865.768	-19.92
866.147	-17.47
866.526	-16.27
866.905	-8.89
867.284	-13.59
867.663	-16.6
868.042	-18.95
868.421	-18.53
868.8	-25.52
869.179	-16.77
869.558	-15.16
869.936	-8.55
870.315	-11.02
870.693	-5.98
871.072	-14.45
871.45	-14.88
871.828	-13.34
872.207	-8.14
872.585	-7.84
872.963	-5.21
873.341	-1.76
873.719	6.05
874.097	7.65
874.475	8.57
874.853	2.43
875.23	7.78
875.608	14.13
875.986	14.71
876.363	15.93
876.741	29.36
877.118	32.24
877.495	35.08
877.873	28.2
878.25	22.37
878.627	23.21
879.004	24.13
879.381	18.53
879.758	20.06
880.135	20.91
880.512	13.73
880.889	-3.14
881.265	-3.83
881.642	-12.42
882.019	-14.7
882.395	0.4
882.772	9.4
883.148	12.26
883.524	17.35
883.901	14.77
884.277	9.48
884.653	14.4
885.029	25.8
885.405	38.95
885.781	41.14
886.157	38.6
886.532	29.22
886.908	19.72
887.284	15.23
887.659	18.55
888.035	13.42
888.411	10.32
888.786	11.43
889.161	5.32
889.537	-9.29
889.912	-13.37
890.287	-10.21
890.662	-15.3
891.037	-16.2
891.412	-15.6
891.787	-23.62
892.162	-13.94
892.536	-7.09
892.911	-3.34
893.286	-12.28
893.66	-9.93
894.035	-4.61
894.409	-12.2
894.784	-4.48
895.158	-1.69
895.532	6.24
895.906	10.05
896.281	4.86
896.655	10.36
897.029	2.43
897.402	23.88
897.776	20.03
898.15	11.75
898.524	8.76
898.898	8.18
899.271	1.34
899.645	3.09
900.018	-0.72
900.392	2.32
900.765	-16.01
901.138	-10.27
901.511	-34.47
901.884	-11.88
902.258	-5.03
902.631	9.99
903.003	0.41
903.376	0.54
903.749	-5.23
904.122	-6.42
904.495	-26.45
904.867	-23.5
905.24	-16.71
905.612	-15.78
905.985	-46.94
906.357	-55.02
906.729	-64.8
907.102	-41.32
907.474	-34.88
907.846	-34.16
908.218	-33.54
908.59	-12.73
908.962	-5.32
909.334	-3.08
909.705	8.02
910.077	13.61
910.449	9.61
910.82	22.41
911.192	14.96
911.563	23.5
911.935	13.08
912.306	1.85
912.677	-10.74
913.048	-20.29
913.419	-23.32
913.79	-27.76
914.161	-33.58
914.532	-4.16
914.903	-19.41
915.274	-17.09
915.645	-26.62
916.015	-26.51
916.386	-15.51
916.756	-4.06
917.127	-0.61
917.497	0.62
917.868	0.33
918.238	8.02
918.608	-19.6
918.978	-20.56
919.348	-33.63
919.718	-30.66
920.088	-18.3
920.458	-13.88
920.828	-36.99
921.198	-29.38
921.567	-32.34
921.937	-26.86
922.306	-38.47
922.676	-43.44
923.045	-16.33
923.415	-4.15
923.784	-3.39
924.153	7.78
924.522	14.29
924.891	16.77
925.26	12.56
925.629	0.84
925.998	-5.62
926.367	0.14
926.736	30.8
927.104	17.01
927.473	3.28
927.842	-2.3
928.21	-30.89
928.578	-67.48
928.947	-49.65
929.315	-47.99
929.683	-35.14
930.051	-25.7
930.42	-39.6
930.788	-54.53
931.156	-47.08
931.523	-12.07
931.891	-10.91
932.259	8.53
932.627	38.79
932.994	28.59
933.362	61.24
933.729	46.62
934.097	33.86
934.464	35.67
934.831	14.75
935.199	2.73
935.566	-5.29
935.933	48.4
936.3	53.95
936.667	32.09
937.034	129.83
937.401	99.85
937.767	102.44
938.134	93.23
938.501	123.08
938.867	151.59
939.234	240.55
939.6	179.8
939.967	92.85
940.333	61.33
940.699	43.5
941.065	-67.28
941.431	-60.16
941.798	-45.05
942.163	-51.2
942.529	-26.9
942.895	-35.07
943.261	-4.3
943.627	-4.67
943.992	-6.92
944.358	-5.35
944.723	37.5
945.089	34.18
945.454	30.09
945.82	15.42
946.185	19.02
946.55	34.21
946.915	34.77
947.28	35.9
947.645	37.14
948.01	70.36
948.375	78.25
948.74	28.36
949.104	10.01
949.469	-72.97
949.834	-121.84
950.198	10.8
950.562	19.68
950.927	25.91
951.291	28.44
951.655	17.11
952.02	-70.75
952.384	-48.39
952.748	-1.24
953.112	63.43
953.476	79.39
953.839	61.39
954.203	67.99
954.567	67.28
954.931	40.31
955.294	43.33
955.658	44.27
956.021	148.39
956.385	179.3
956.748	242.67
957.111	-194.38
957.474	-386.03
957.837	-484.65
958.2	-699.26
958.563	-228.88
958.926	-69.96
959.289	-136.07
959.652	-121.95
960.015	-111.65
960.377	-152.6
960.74	-204.19
961.102	-291.04
961.465	-119.31
961.827	425.32
962.189	844.73
962.552	500.81
962.914	355.38
963.276	252.97
963.638	202.52
964	177.26
964.362	136.31
964.724	106.58
965.085	85.38
965.447	72.34
965.809	-18.59
966.17	-24.5
966.532	-42.12
966.893	-54.47
967.255	-72.66
967.616	-99.75
967.977	-73.11
968.338	-90.65
968.699	-46.76
969.061	-42.8
969.421	-37.07
969.782	-44.5
970.143	-14.42
970.504	31.46
970.865	68.61
971.225	109.99
971.586	124.57
971.946	147.82
972.307	124.79
972.667	111.02
973.027	100.27
973.388	62.75
973.748	59.99
974.108	64.6
974.468	-2.31
974.828	52.82
975.188	24.58
975.548	-1.1
975.907	23.85
976.267	27.51
976.627	47.11
976.986	36.85
977.346	35.45
977.705	28.06
978.064	17.98
978.424	23.09
978.783	-17.64
979.142	-23.28
979.501	-8.71
979.86	-9.63
980.219	-9.38
980.578	-29.94
980.937	-33.77
981.296	-23.5
981.654	-22.28
982.013	-90.63
982.371	-101.06
982.73	-80.49
983.088	-85.25
983.447	-118.08
983.805	-161.81
984.163	-343.09
984.521	-589.73
984.879	-1081.43
985.237	1772.06
985.595	-1614.66
985.953	-313.52
986.311	-226.46
986.669	-123.94
987.026	-134.09
987.384	-255.71
987.741	-324.34
988.099	-179.94
988.456	-102.56
988.814	-65.29
989.171	-38.36
989.528	-74.91
989.885	-106.12
990.242	-46.91
990.599	-105.83
990.956	-76.99
991.313	-30.54
991.67	-12.02
992.027	25.6
992.383	19.9
992.74	25.05
993.096	35.42
993.453	44.29
993.809	41.45
994.165	31.97
994.522	99.63
994.878	100.97
995.234	114.4
995.59	100.91
995.946	18.47
996.302	35.66
996.658	22.69
997.013	-30.66
997.369	-17.45
997.725	45.99
998.08	29.7
998.436	-187.68
998.791	-266.06
999.147	-196.5
999.502	-203.99
999.857	-177.78
1000.212	-363.4
1000.567	-530.36
1000.922	-289.88
1001.277	-191.71
1001.632	-163.75
1001.987	-191.18
1002.342	-71.13
1002.696	-40.69
1003.051	-9.69
1003.406	-9.62
1003.76	-31.48
1004.114	-55.67
1004.469	-40.87
1004.823	-17.26
1005.177	-26.93
1005.531	-11.9
1005.885	-0.1
1006.239	4.72
1006.593	13.74
1006.947	-2.72
1007.301	-14.64
1007.655	-11.28
1008.008	12.15
1008.362	12.14
1008.715	13.21
1009.069	9.62
1009.422	54.78
1009.776	-3.81
1010.129	-49.96
1010.482	-95.92
1010.835	-139.14
1011.188	-305.24
1011.541	-253.33
1011.894	1852.71
1012.247	-5839.47
1012.6	-465.64
1012.952	-227.18
1013.305	-145.09
1013.657	-72.33
1014.01	-71.51
1014.362	-56.92
1014.715	37.9
1015.067	70.99
1015.419	58.79
1015.771	66.91
1016.123	83.97
1016.475	89.02
1016.827	81.1
1017.179	101.62
1017.531	84.55
1017.883	89.29
1018.234	145.66
1018.586	112.96
1018.938	129.77
1019.289	217.43
1019.64	203.4
1019.992	140.55
1020.343	116.21
1020.694	153.79
1021.045	117.39
1021.396	117.9
1021.747	158.66
1022.098	88.23
1022.449	64.86
1022.8	31.84
1023.151	37.67
1023.501	66.45
1023.852	55.03
1024.202	69.7
1024.553	21.99
1024.903	66.03
1025.253	94.22
1025.604	82.71
1025.954	79.95
1026.304	75.56
1026.654	65.85
1027.004	70.26
1027.354	-61.47
1027.703	63.57
1028.053	-47.2
1028.403	263.98
1028.753	-210.6
1029.102	-832.26
1029.452	-6234.47
1029.801	-246.16
1030.15	-145.49
1030.499	-135.86
897.758	1886.3
901.051	1814.02
904.343	1848.15
907.636	1856.83
910.928	1910.75
914.22	1839.86
917.511	1844.12
920.803	1882.12
924.094	1873.62
927.384	1883.45
930.675	1845.28
933.965	1815.98
937.255	1849.45
940.544	1822.75
943.834	1809.59
947.123	1759.01
950.411	1837.73
953.7	1820.76
956.988	1814.02
960.276	1748.43
963.563	1784.23
966.851	1797.17
970.138	1829.89
973.424	1832.33
976.711	1787.74
979.997	1831.47
983.283	1865.96
986.568	1808.16
989.853	1792.89
993.138	1812.32
996.423	1893.4
999.708	1859.61
1002.992	1885.04
1006.275	1802.07
1009.559	1803.89
1012.842	1887.16
1016.125	1850.35
1019.408	1833.01
1022.69	1874.41
1025.972	1904.77
1029.254	1883.47
1032.536	1857.64
1035.817	1857.33
1039.098	1831.12
1042.379	1872.39
1045.659	1894.52
1048.939	1849
1052.219	1851.47
1055.498	1838.72
1058.778	1836.24
1062.057	1811.97
1065.335	1834.15
1068.614	1838.57
1071.892	1840
1075.17	1876.79
1078.447	1884.2
1081.724	1878.15
1085.001	1896.52
1088.278	1876.46
1091.554	1876.98
1094.83	1872.14
1098.106	1904.04
1101.382	1925.99
1104.657	1925.51
1107.932	1922.32
1111.206	1906.38
1114.481	1860.26
1117.755	1862.52
1121.029	1858.89
1124.302	1909.74
1127.575	1886.61
1130.848	1885.39
1134.121	1861.07
1137.393	1830.22
1140.665	1877.26
1143.937	1860.59
1147.208	1811.69
1150.48	1868.81
1153.75	1856.09
1157.021	1849.69
1160.291	1832.99
1163.561	1880.2
1166.831	1844.13
1170.101	1864.79
1173.37	1824.83
1176.639	1792.05
1179.907	1827.91
1183.176	1852.26
1186.444	1851.88
1189.711	1872.43
1192.979	1896.72
1196.246	1857.77
1199.513	1866.61
1202.78	1875.09
1206.046	1883.18
1209.312	1909.9
1212.578	1920.49
1215.843	1895.31
1219.108	1868.32
1222.373	1888.93
1225.638	1869.65
1228.902	1864.83
1232.166	1826
1235.43	1818.49
1238.693	1844.44
1241.956	1836.25
1245.219	1882.65
1248.482	1865.23
1251.744	1863.9
1255.006	1961.15
1258.268	1914.07
1261.529	1879.26
1264.79	1877.78
1268.051	1958.38
1271.312	1965.56
1274.572	1936.98
1277.832	1923.66
1281.092	1904.1
1284.351	1901.72
1287.61	1890.29
1290.869	1839.45
1294.128	1839.82
1297.386	1868.53
1300.644	1861.56
1303.902	1872.54
1307.159	1759.9
1310.416	1804.18
1313.673	1829.99
1316.93	1831.79
1320.186	1853.91
1323.442	1880.02
1326.697	1886.96
1329.953	1860.93
1333.208	1899.28
1336.463	1875.85
1339.717	1849.85
1342.972	1939.7
1346.226	1914.78
1349.479	1879.44
1352.733	1864.66
1355.986	1867.5
1359.238	1853.69
1362.491	1857.33
1365.743	1858.48
1368.995	1850.09
1372.247	1867.44
1375.498	1883.77
1378.749	1927.56
1382	1886.2
1385.251	1913.56
1388.501	1872.05
1391.751	1880.58
1395	1852.96
1398.25	1875.6
1401.499	1903.86
1404.748	1866.16
1407.996	1847.64
1411.244	1840.09
1414.492	1829.33
1417.74	1819.96
1420.987	1821.94
1424.234	1876.57
1427.481	1838.18
1430.728	1887.34
1433.974	1868.73
1437.22	1860.69
1440.465	1856.27
1443.711	1862.58
1446.956	1879.87
1450.201	1848.61
1453.445	1885.84
1456.689	1878.6
1459.933	1885.35
1463.177	1921
1466.42	1898
1469.663	1882.25
1472.906	1903.23
1476.148	1942.25
1479.391	1899.57
1482.633	1879.35
1485.874	1904.8
1489.115	1911.27
1492.356	1891.1
1495.597	1873.33
1498.838	1862.09
1502.078	1851.05
1505.318	1828.7
1508.557	1853.05
1511.797	1849.51
1515.036	1897.6
1518.274	1863.58
1521.513	1814.63
1524.751	1822.04
1527.989	1841.9
1531.227	1857.34
1534.464	1872.89
1537.701	1861.28
1540.938	1868.42
1544.174	1821.37
1547.41	1807.89
1550.646	1839.62
1553.882	1883.32
1557.117	1933.48
1560.352	1936.18
1563.587	1904.43
1566.821	1877.16
1570.055	1883.58
1573.289	1866.93
1576.523	1911.47
1579.756	1923.64
1582.989	1942.99
1586.222	1905.94
1589.454	1930.21
1592.686	1916.55
1595.918	1940.17
1599.15	1937.86
1602.381	1970.82
1605.612	1961.1
1608.843	2037.68
1612.073	1973.71
1615.303	1966.23
1618.533	1963.29
1621.762	1962.02
1624.992	1935.19
1628.221	1940.99
1631.449	1929.16
1634.678	1944.61
1637.906	1916.69
1641.134	1937.43
1644.361	1908.92
1647.588	1901.65
1650.815	1920.38
1654.042	1887.26
1657.269	1908.25
1660.495	1898.09
1663.72	1877.51
1666.946	1852.69
1670.171	1840.38
1673.396	1817.67
1676.621	1801.23
1679.845	1794
1683.069	1794.63
1686.293	1817.36
1689.517	1814.51
1692.74	1780.46
1695.963	1794.87
1699.185	1835.65
1702.408	1813.63
1705.63	1835.77
1708.852	1854.29
1712.073	1826.63
1715.294	1844.42
1718.515	1880.2
1721.736	1847.61
1724.956	1827.4
1728.176	1846.55
1731.396	1865.63
1734.616	1854.97
1737.835	1891.19
1741.054	1861.52
1744.272	1856.8
1747.491	1897.87
1750.709	1907.85
1753.927	1875.38
1757.144	1893.53
1760.361	1948.63
1763.578	1919.83
1766.795	1880.72
1770.011	1868.23
1773.227	1886.09
1776.443	1926.67
1779.658	1961.13
1782.874	1908.76
1786.089	1909.67
1789.303	1912.4
1792.518	1906.74
1795.732	1896.04
1798.945	1913.77
1802.159	1948.79
1805.372	1908.38
1808.585	1903.46
1811.797	1905.71
1815.01	1918.7
1818.222	1946.9
1821.434	1905.08
1824.645	1936.41
1827.856	1953.97
1831.067	1978.59
1834.278	1922.53
1837.488	1910.45
1840.698	2010.79
1843.908	1970.08
1847.117	1941.89
1850.326	1889.24
1853.535	1934.88
1856.744	1974.98
1859.952	1913.97
1863.16	1915.89
1866.368	1930.94
1869.575	2036.18
1872.782	1935.89
1875.989	1878.65
1879.196	1916.3
1882.402	1915.02
1885.608	1944.65
1888.814	1903.23
1892.019	1828.99
1895.224	1875.91
1898.429	1844.31
1901.634	1832.79
1904.838	1812.05
1908.042	1867.04
1911.246	1882.69
1914.449	1857.13
1917.652	1837.46
1920.855	1820.21
1924.058	1835.23
1927.26	1879.07
1930.462	1898.19
1933.664	1938.43
1936.865	1889.14
1940.066	1906.87
1943.267	1854.01
1946.467	1862.82
1949.668	1875.68
1952.868	1940.63
1956.067	1935.86
1959.267	1885.48
1962.466	1905.27
1965.665	1885.61
1968.863	1881.85
1972.061	1878.85
1975.259	1870.55
1978.457	1936.75
1981.654	1900.39
1984.852	1904.64
1988.048	1866.44
1991.245	1853.11
1994.441	1932.05
1997.637	1882.61
2000.833	1869.86
2004.028	1897.49
2007.223	1955.37
2010.418	1946.02
2013.613	1900.7
2016.807	1901.84
2020.001	1892.22
2023.194	1907.41
2026.388	1893.9
2029.581	1844.5
2032.774	1909.2
2035.966	1919.32
2039.158	1875.17
2042.35	1891.57
2045.542	1823.79
2048.733	1893.01
2051.924	1874.7
2055.115	1888.02
2058.306	1861.15
2061.496	1908.75
2064.686	1948.28
2067.875	1860.94
2071.065	1856.48
2074.254	1870.28
2077.442	1830.28
2080.631	1904.3
2083.819	1853.98
2087.007	1849.39
2090.195	1838.22
2093.382	1845.99
2096.569	1834.61
2099.756	1802.81
2102.942	1852.39
2106.128	1870.03
2109.314	1859.07
2112.5	1851.67
2115.685	1821.17
2118.87	1827.12
2122.055	1882.68
2125.239	1868.22
2128.424	1862.12
2131.608	1901.73
2134.791	1886.12
2137.974	1915.42
2141.157	1906.65
2144.34	1887.65
2147.523	1869.85
2150.705	1897.39
2153.887	1861.93
2157.068	1845.01
2160.25	1820
2163.431	1837.22
2166.611	1816.83
2169.792	1840.36
2172.972	1763.34
2176.152	1801.93
2179.331	1823.71
2182.511	1833.78
2185.69	1850.86
2188.868	1860.94
2192.047	1884.28
2195.225	1909.44
2198.403	1859.61
2201.58	1846.43
2204.758	1829.7
2207.935	1895.24
2211.111	1828.27
2214.288	1819.05
2217.464	1848.8
2220.64	1803.71
2223.815	1846.79
2226.991	1789.53
2230.166	1801.81
2233.34	1846.73
2236.515	1855.13
2239.689	1913.16
2242.863	1871.11
2246.036	1916.34
2249.209	1896.17
2252.382	1907.86
2255.555	1923.92
2258.727	1882.53
2261.9	1904.04
2265.071	1899.28
2268.243	1896.16
2271.414	1856.73
2274.585	1847.58
2277.756	1899.95
2280.926	1861.94
2284.096	1883.59
2287.266	1829.91
2290.436	1869.1
2293.605	1885.51
2296.774	1926.28
2299.942	1922.94
2303.111	1936.79
2306.279	1985.12
2309.447	1970.18
2312.614	1945.33
2315.781	1967.42
2318.948	1950.79
2322.115	1982.32
2325.281	1891.7
2328.447	1894.11
2331.613	1866.01
2334.779	1864.96
2337.944	1859.29
2341.109	1861.89
2344.274	1854.66
2347.438	1824.04
2350.602	1845.49
2353.766	1852.33
2356.929	1844.92
2360.092	1874.45
2363.255	1853.21
2366.418	1833.2
2369.58	1874.38
2372.742	1804.25
2375.904	1785.51
2379.066	1777.06
2382.227	1798.19
2385.388	1764.14
2388.548	1725.32
2391.709	1757.18
2394.869	1754.91
2398.029	1788.37
2401.188	1776.72
2404.347	1758.07
2407.506	1795.3
2410.665	1842.84
2413.823	1820.54
2416.981	1807.72
2420.139	1815.58
2423.296	1851.79
2426.453	1828.26
2429.61	1846.15
2432.767	1833.6
2435.923	1871.5
2439.079	1815.84
2442.235	1842.91
2445.391	1792.99
2448.546	1838.78
2451.701	1865.21
2454.855	1870.78
2458.009	1886.6
2461.163	1872.51
2464.317	1850.21
2467.471	1871.51
2470.624	1894.74
2473.777	1893.62
2476.929	1910.08
2480.082	1928.99
2483.234	1907.09
2486.385	1848.78
2489.537	1842.1
2492.688	1843.22
2495.839	1858.05
2498.989	1872.26
2502.14	1862.21
2505.29	1860.36
2508.439	1878.12
2511.589	1829.44
2514.738	1825.75
2517.887	1844.63
2521.035	1921.32
2524.183	1873.07
2527.331	1865.86
2530.479	1866.15
2533.627	1866.82
