Data from C_1_DIV_OH_2N_Splice17_11-49-50-266.txt Node
Date: Sat Mar 14 11:49:50 EDT 2020
User: sa697716
Spectrometer: FLMS03696
Trigger mode: 0
Integration Time (sec): 3.180400E-1
Scans to average: 20
Electric dark correction enabled: true
Nonlinearity correction enabled: true
Boxcar width: 5
XAxis mode: Wavelengths
Number of Pixels in Spectrum: 2048
>>>>>Begin Spectral Data<<<<<
187.83	-225249.57
188.298	1467.64
188.766	857.84
189.233	776.88
189.701	1098.9
190.169	1413.87
190.636	480.94
191.104	449.69
191.571	36.72
192.039	-106.32
192.506	-150.59
192.974	253.62
193.441	-821.12
193.908	-331.07
194.375	-83.12
194.842	-18.25
195.31	-49.87
195.777	75.29
196.244	234.11
196.711	237.4
197.177	264.62
197.644	361.87
198.111	669.04
198.578	952.48
199.045	789.04
199.511	1298.02
199.978	1464.67
200.445	1255.23
200.911	1348.84
201.378	1489.77
201.844	1368.19
202.31	2318.96
202.777	2432.89
203.243	1314.91
203.709	1236.64
204.176	1453.23
204.642	1171
205.108	1108.78
205.574	884.55
206.04	806.38
206.506	759.15
206.972	689.87
207.438	667.15
207.903	745.29
208.369	672.75
208.835	684.64
209.301	700.92
209.766	700.33
210.232	673.69
210.697	847.35
211.163	1002.95
211.628	1466.2
212.094	1240.83
212.559	1574.26
213.024	984.96
213.49	1204.44
213.955	1156.43
214.42	1127.34
214.885	1055.37
215.35	1010.82
215.815	998.96
216.28	1072.72
216.745	841.27
217.21	893.29
217.675	744.68
218.14	777.8
218.604	773.65
219.069	805.49
219.534	794.03
219.998	826.89
220.463	923.5
220.927	960.68
221.392	812.42
221.856	799.28
222.32	888.75
222.785	1089.74
223.249	1294.45
223.713	1398.01
224.177	1354.57
224.642	1625.5
225.106	1935.36
225.57	2045.55
226.034	1538.12
226.497	2286
226.961	2051.16
227.425	2390.7
227.889	2486.2
228.353	2438.42
228.816	4860.73
229.28	4634.71
229.744	3839.35
230.207	2396.69
230.671	2300.11
231.134	3599.46
231.597	4230.91
232.061	4050.83
232.524	3827.77
232.987	2653.69
233.45	2423.24
233.914	2175.21
234.377	2170.89
234.84	1964.02
235.303	2236.03
235.766	2507.28
236.229	2613.29
236.691	1588.63
237.154	1773.57
237.617	1364.02
238.08	1376.95
238.542	1585.16
239.005	1143.33
239.468	1130.84
239.93	1072.49
240.393	979.23
240.855	857.49
241.317	850.43
241.78	1022.34
242.242	1067.3
242.704	1184.17
243.166	1047
243.629	986.67
244.091	1137.54
244.553	1253.22
245.015	1361.97
245.477	1732.73
245.939	2500.6
246.4	2690.56
246.862	2635.52
247.324	2458.48
247.786	2669.16
248.247	3409.82
248.709	3381.63
249.17	2541.95
249.632	2487.91
250.093	2955.85
250.555	2592.7
251.016	1620.5
251.477	1556.25
251.939	1674.33
252.4	1746.33
252.861	2064.14
253.322	1977.76
253.783	2320.11
254.244	2975.37
254.705	2278.91
255.166	1962.19
255.627	1918.67
256.088	2727.04
256.549	2887.59
257.009	2484.63
257.47	3030.4
257.931	2473.38
258.391	1831.16
258.852	1907.24
259.312	1987.73
259.773	2453.34
260.233	2156.97
260.694	1848.69
261.154	2072.04
261.614	1706.67
262.074	1506.63
262.534	1577.17
262.994	1490.08
263.455	1952.62
263.915	1658.45
264.374	1550.22
264.834	1691.29
265.294	1824.48
265.754	1862.41
266.214	1761.02
266.673	1628.52
267.133	2046.73
267.593	2004.86
268.052	2453.15
268.512	2132.61
268.971	2617.99
269.431	2886.73
269.89	2550.1
270.349	3843.81
270.809	4300.78
271.268	3881.88
271.727	8543.67
272.186	5585.67
272.645	4178.69
273.104	2943.52
273.563	4241.21
274.022	3211.33
274.481	2768.95
274.94	2173.62
275.399	1590.43
275.857	1838.37
276.316	2447.32
276.775	2196.42
277.233	2173.73
277.692	2080.09
278.15	2415.4
278.609	2555.28
279.067	2400.81
279.525	2273.23
279.984	2908.99
280.442	3509.21
280.9	3549.35
281.358	2356.25
281.816	2213.12
282.274	2159.24
282.732	2184.46
283.19	2167.93
283.648	1860.62
284.106	2004.78
284.564	2017.95
285.021	1915.58
285.479	1443.56
285.937	1294.58
286.394	1165.36
286.852	1193.91
287.309	1261.47
287.767	1273.76
288.224	1232.2
288.682	1358.53
289.139	1498.69
289.596	1378.64
290.053	1408.86
290.511	1749.49
290.968	2143.06
291.425	2856.52
291.882	2433.99
292.339	2139.27
292.796	2082.01
293.252	1950.28
293.709	1587.39
294.166	1412.5
294.623	1547.11
295.079	1469.33
295.536	1521.79
295.992	1387.41
296.449	1376.19
296.905	1435.58
297.362	1397.39
297.818	1467.25
298.274	1545.56
298.731	1542.83
299.187	1522.45
299.643	1641.9
300.099	2000.13
300.555	2155.38
301.011	1794.3
301.467	1798.45
301.923	2048.73
302.379	2001.09
302.835	1975.68
303.291	1977.41
303.746	2254.22
304.202	2871.16
304.658	2867.31
305.113	1942.49
305.569	1926.05
306.024	2040.86
306.479	1871.67
306.935	1636.98
307.39	1768.12
307.845	1657.01
308.301	1676.5
308.756	1621.59
309.211	1580.11
309.666	1644.05
310.121	2087.58
310.576	2083.94
311.031	2051.31
311.486	2325.25
311.94	2271.22
312.395	3009.5
312.85	5546.87
313.305	26564.7
313.759	143544.86
314.214	10305.86
314.668	8152.54
315.123	6886.1
315.577	2541.52
316.032	2309.83
316.486	2937.25
316.94	2367.22
317.394	1702.11
317.849	1342.95
318.303	1271.82
318.757	1197.75
319.211	1326.87
319.665	1152.73
320.119	1161.72
320.572	1639.94
321.026	1547.49
321.48	1290.49
321.934	1364.55
322.387	1336.82
322.841	1441.26
323.295	1358.92
323.748	1501.76
324.202	1536.04
324.655	1846.03
325.108	2662.18
325.562	1904.8
326.015	2238.37
326.468	1686.42
326.921	1918.85
327.374	1820.37
327.827	1924.83
328.28	2166.57
328.733	1481.26
329.186	1296.1
329.639	1264.69
330.092	1057.62
330.545	1019.45
330.997	1046.01
331.45	1182.33
331.903	1414.28
332.355	2380.95
332.808	2281.81
333.26	1861.66
333.713	2037
334.165	2071.94
334.617	2692.48
335.069	2102.18
335.522	3714.16
335.974	4165.98
336.426	3742.17
336.878	2500.24
337.33	1312.61
337.782	1300.53
338.234	1656.34
338.686	1974.22
339.137	2325.63
339.589	2216.21
340.041	1786.79
340.493	1561.82
340.944	1576.28
341.396	1694.89
341.847	1472.96
342.299	1758.04
342.75	2162.18
343.201	1839.88
343.653	2105.61
344.104	2532.16
344.555	1973.95
345.006	2985.03
345.457	2369.67
345.908	1844.89
346.359	1746.16
346.81	1401.74
347.261	1447.39
347.712	1406.15
348.163	1510.93
348.613	1599.77
349.064	1531.88
349.515	1355.87
349.965	1413.58
350.416	1648.52
350.866	1827.12
351.317	2039.72
351.767	3412.05
352.217	4298.19
352.668	3575.55
353.118	3325.04
353.568	3065.45
354.018	2474.87
354.468	2642.74
354.918	1897.62
355.368	1678.89
355.818	2387.76
356.268	6813.11
356.718	29045.79
357.168	7372.57
357.617	3704.35
358.067	4042.3
358.517	3862.92
358.966	4555.03
359.416	5170.41
359.865	5640.84
360.315	6613.86
360.764	3117.37
361.213	1786.92
361.663	1651.62
362.112	2000.05
362.561	3220.84
363.01	2471.59
363.459	2103.58
363.908	2230.12
364.357	1944.48
364.806	3208.18
365.255	2200.72
365.703	2058.77
366.152	2067.32
366.601	1696.63
367.05	1422.97
367.498	1315.48
367.947	1354.81
368.395	1385.18
368.844	1251.06
369.292	1433.52
369.74	1022.13
370.189	1573.45
370.637	1801.73
371.085	1535.3
371.533	1892.34
371.981	1774.7
372.429	1730.86
372.877	1813.54
373.325	1550.55
373.773	1552.41
374.221	1386.23
374.669	1663.97
375.116	1442.16
375.564	1462.84
376.012	1625.56
376.459	1323.72
376.907	1575.52
377.354	1845.73
377.801	1780.3
378.249	2031.76
378.696	2576.74
379.143	3200.51
379.591	3417.85
380.038	5897.94
380.485	4372.58
380.932	4822.75
381.379	4605.11
381.826	3586.03
382.273	2621.19
382.72	2282.51
383.166	2303.31
383.613	1555.47
384.06	1441.14
384.506	1740.94
384.953	1304.35
385.4	1349.67
385.846	1240.96
386.292	1259.98
386.739	1286.26
387.185	1350.1
387.631	1455.41
388.078	1554.29
388.524	1793.04
388.97	1782.33
389.416	1579.24
389.862	1767.2
390.308	1738.61
390.754	1863.52
391.2	2149.13
391.645	2361.13
392.091	2473.67
392.537	2577.8
392.983	2705.53
393.428	2788.68
393.874	3115.31
394.319	3355.07
394.765	3491.17
395.21	3973.75
395.655	4135.65
396.101	4273.77
396.546	4231.85
396.991	4649.03
397.436	4706.98
397.881	4983.53
398.326	5210.9
398.771	5406.71
399.216	5161.39
399.661	5014.61
400.106	5343.49
400.551	5798.41
400.995	5480.33
401.44	5677.2
401.885	5558.99
402.329	5829.22
402.774	5775.3
403.218	5744.06
403.663	5718.84
404.107	6057.67
404.551	6306.3
404.995	6001.18
405.44	6016.89
405.884	6349.59
406.328	6376.34
406.772	6560.55
407.216	6169.25
407.66	6184.47
408.104	6136.52
408.547	5970.14
408.991	5987.51
409.435	5950.1
409.879	6016.22
410.322	6078.02
410.766	6005.83
411.209	5853.61
411.653	5786.83
412.096	5821.58
412.54	5984.04
412.983	6076.45
413.426	6200.11
413.869	6319.53
414.312	6306.49
414.756	6197.92
415.199	6022.49
415.642	5946.35
416.085	6039.54
416.527	6079.15
416.97	6261.17
417.413	5988.51
417.856	5984.81
418.298	5975.17
418.741	5965.99
419.184	5980.23
419.626	6256.91
420.069	6278.95
420.511	6339.74
420.953	6244.42
421.396	6233.81
421.838	6134.44
422.28	6332.06
422.722	6411.77
423.164	6596.91
423.606	6572.97
424.048	6673.83
424.49	6415.4
424.932	6469.85
425.374	6456.56
425.816	6613.6
426.258	6718.03
426.699	6708.15
427.141	6466.76
427.582	6451.1
428.024	6327.54
428.465	6293.04
428.907	6196.61
429.348	6242.19
429.789	6333.62
430.231	6270.73
430.672	6436.57
431.113	6407.5
431.554	6512.16
431.995	6631.55
432.436	6656.15
432.877	6754.54
433.318	6807.59
433.759	6921.91
434.2	7020.52
434.64	7040.09
435.081	7155.5
435.522	6883.85
435.962	6760.68
436.403	6714.35
436.843	6926.3
437.284	6881.25
437.724	6778.12
438.164	6884.56
438.604	6789.11
439.045	6582.45
439.485	6380.47
439.925	6349.99
440.365	6295.34
440.805	6293.87
441.245	6280.03
441.685	6089.68
442.125	6091.97
442.564	6159.51
443.004	6028.53
443.444	6033.87
443.883	6070.06
444.323	6086
444.762	6165.93
445.202	6290.45
445.641	6418.78
446.081	6438.39
446.52	6528.28
446.959	6507.11
447.398	6400.46
447.837	6401.19
448.276	6360.47
448.716	6467.49
449.154	6549.01
449.593	6364.38
450.032	6324.83
450.471	6221.65
450.91	6218.02
451.349	6174.74
451.787	6133.63
452.226	6201.23
452.664	6168.24
453.103	6145.96
453.541	6131.89
453.98	6083.2
454.418	6134.47
454.856	6020.2
455.295	5994.06
455.733	6011.97
456.171	6032.14
456.609	6004.88
457.047	5988.21
457.485	6039.92
457.923	6024.22
458.361	5933.63
458.798	5959.38
459.236	5947.59
459.674	6017.02
460.111	6065.96
460.549	6026.18
460.987	6034.74
461.424	6050.88
461.862	6038.69
462.299	5976.37
462.736	5987.17
463.173	6026.63
463.611	5945
464.048	5932.73
464.485	5993.18
464.922	5975.98
465.359	5998.94
465.796	5879.38
466.233	5875.75
466.67	5849.83
467.106	5868.25
467.543	5872.23
467.98	5855.01
468.416	5798.53
468.853	5841.4
469.29	5747.69
469.726	5742.79
470.162	5639.13
470.599	5700.77
471.035	5714.42
471.471	5650.59
471.907	5698.74
472.344	5713.63
472.78	5754.35
473.216	5858.11
473.652	5796.77
474.088	5799.32
474.523	5791.66
474.959	5868.57
475.395	5828.26
475.831	5790.28
476.266	5821.16
476.702	5805.81
477.138	5739.77
477.573	5724.54
478.008	5694.87
478.444	5708.48
478.879	5734.67
479.314	5738.57
479.75	5710.15
480.185	5715.21
480.62	5740.3
481.055	5733.29
481.49	5723.2
481.925	5747.31
482.36	5736.45
482.795	5788.04
483.229	5820.23
483.664	5818.19
484.099	5738.65
484.534	5731.14
484.968	5704.88
485.403	5661
485.837	5605.5
486.271	5553.88
486.706	5540.33
487.14	5503.93
487.574	5445.86
488.009	5435.3
488.443	5414.05
488.877	5457.46
489.311	5467.93
489.745	5514.73
490.179	5539.36
490.613	5602.59
491.046	5630.78
491.48	5646.49
491.914	5625.92
492.348	5642.69
492.781	5651.03
493.215	5650.79
493.648	5670.66
494.082	5710.21
494.515	5695.52
494.948	5729.07
495.382	5749.32
495.815	5748.82
496.248	5752.07
496.681	5813.21
497.114	5856.78
497.547	5877.56
497.98	5907.96
498.413	5873.02
498.846	5869.76
499.279	5878.97
499.711	5869.72
500.144	5847.13
500.577	5864.44
501.009	5889.61
501.442	5895.71
501.874	5860.4
502.306	5853.74
502.739	5873.74
503.171	5969.43
503.603	5978.75
504.036	6017.42
504.468	6014.57
504.9	6045.96
505.332	6058.24
505.764	6054.03
506.196	6074.75
506.627	6129.81
507.059	6163.95
507.491	6187.78
507.923	6118.86
508.354	6161.75
508.786	6179.76
509.217	6246.06
509.649	6287.18
510.08	6350.04
510.512	6375.64
510.943	6389.84
511.374	6379.51
511.805	6427.57
512.237	6472.86
512.668	6587.46
513.099	6650.16
513.53	6682.15
513.961	6656.9
514.391	6697.1
514.822	6736.34
515.253	6810.06
515.684	6835.64
516.114	6900.82
516.545	6928.68
516.975	6984.97
517.406	7011.48
517.836	6986.82
518.267	7007.58
518.697	7106.21
519.127	7139.82
519.558	7186.12
519.988	7204.31
520.418	7258.64
520.848	7340.94
521.278	7374.56
521.708	7270.03
522.138	7309.56
522.567	7428.18
522.997	7498.5
523.427	7498.85
523.857	7495.84
524.286	7471.54
524.716	7483.9
525.145	7518.2
525.575	7521
526.004	7548.37
526.433	7632.34
526.863	7593.32
527.292	7512.3
527.721	7528.49
528.15	7572.79
528.579	7596.41
529.008	7652.57
529.437	7744.11
529.866	7772.1
530.295	7806.77
530.724	7806.54
531.152	7875.66
531.581	7892.48
532.01	7935.57
532.438	7940.97
532.867	7969.26
533.295	8011.07
533.723	8004.52
534.152	7969.68
534.58	7954.24
535.008	7874.17
535.436	7865.74
535.865	7885.65
536.293	7925.97
536.721	7957.3
537.149	8008.69
537.576	7958.89
538.004	7968.29
538.432	7975.27
538.86	7947.44
539.287	7962.14
539.715	8000.45
540.143	8005.75
540.57	7982.14
540.998	7970.74
541.425	7882.65
541.852	7824.64
542.28	7855.61
542.707	7820.05
543.134	7786.53
543.561	7791.66
543.988	7777.44
544.415	7793.48
544.842	7782.62
545.269	7764.66
545.696	7783.03
546.123	7857.21
546.549	7827.55
546.976	7785.31
547.403	7797.23
547.829	7818.66
548.256	7845.04
548.682	7843.51
549.108	7822.77
549.535	7839.66
549.961	7862.08
550.387	7814.78
550.813	7795.58
551.24	7833.73
551.666	7852.91
552.092	7822.97
552.518	7806.44
552.943	7780.13
553.369	7813.38
553.795	7834.62
554.221	7829.56
554.646	7809.77
555.072	7841.9
555.498	7850.24
555.923	7860.7
556.349	7888.99
556.774	7892.8
557.199	7870.63
557.625	7884.63
558.05	7849.41
558.475	7887.21
558.9	7872.04
559.325	7827.44
559.75	7798.89
560.175	7775.11
560.6	7757.62
561.025	7759.41
561.449	7771.96
561.874	7796.75
562.299	7797.47
562.723	7809.79
563.148	7745.23
563.572	7750.69
563.997	7782.56
564.421	7798.59
564.846	7784.51
565.27	7778.94
565.694	7744.87
566.118	7768.58
566.542	7773.19
566.966	7732.92
567.39	7697
567.814	7635.83
568.238	7616.63
568.662	7631.08
569.086	7636.07
569.509	7676.91
569.933	7624.87
570.357	7619.92
570.78	7560.71
571.204	7531.9
571.627	7513.57
572.05	7536.19
572.474	7566.21
572.897	7546.59
573.32	7535.89
573.743	7520.9
574.166	7457.75
574.589	7480.38
575.012	7457.65
575.435	7461.69
575.858	7434.67
576.281	7403.99
576.704	7358.38
577.126	7338.48
577.549	7320.77
577.972	7308.4
578.394	7287.58
578.817	7275
579.239	7221.22
579.661	7196
580.084	7159.05
580.506	7137.57
580.928	7157.14
581.35	7138.03
581.772	7140.88
582.194	7093.42
582.616	7044.31
583.038	6983.4
583.46	6944.79
583.882	6926.32
584.303	6942.24
584.725	6913.32
585.147	6872.48
585.568	6865.97
585.99	6846.98
586.411	6788.85
586.833	6778.19
587.254	6726.19
587.675	6743.2
588.096	6753.85
588.518	6691.46
588.939	6581.86
589.36	6543.07
589.781	6510.56
590.202	6391.43
590.623	6385.43
591.043	6420.18
591.464	6396.82
591.885	6394
592.305	6374.49
592.726	6321.07
593.147	6331.78
593.567	6313.8
593.987	6285.05
594.408	6260.77
594.828	6260.67
595.248	6227.15
595.669	6140.65
596.089	6112.15
596.509	6093.41
596.929	6038.99
597.349	6037.16
597.769	5987.92
598.189	5949.28
598.608	5938.89
599.028	5931.65
599.448	5921.27
599.867	5862.54
600.287	5844.57
600.706	5824.03
601.126	5778.71
601.545	5769.28
601.965	5764.95
602.384	5741.19
602.803	5755.45
603.222	5736.27
603.641	5714.06
604.061	5696.99
604.48	5679.71
604.898	5705.9
605.317	5718.03
605.736	5716.02
606.155	5689.99
606.574	5639.33
606.992	5647.16
607.411	5612.25
607.829	5569.58
608.248	5545.35
608.666	5526.66
609.085	5511.8
609.503	5467.52
609.921	5429.43
610.339	5425.84
610.758	5415.24
611.176	5386.57
611.594	5342.35
612.012	5324.29
612.43	5328.41
612.847	5340.47
613.265	5325.02
613.683	5328.28
614.101	5320.09
614.518	5302.05
614.936	5261.96
615.353	5205.08
615.771	5196.44
616.188	5199.78
616.606	5188.39
617.023	5166.33
617.44	5123.06
617.857	5116.8
618.274	5096.01
618.691	5079.27
619.108	5046.53
619.525	5020.42
619.942	5040.82
620.359	5041.07
620.776	5012.23
621.192	4978.41
621.609	4949.46
622.026	4949.34
622.442	4944.84
622.859	4937.94
623.275	4892.26
623.691	4895.07
624.108	4920.84
624.524	4956.2
624.94	4932.91
625.356	4947.2
625.772	4980.35
626.188	5010.06
626.604	4998.7
627.02	4967.13
627.436	4939.83
627.852	4945.44
628.268	4971.17
628.683	4919.7
629.099	4875.02
629.514	4855.43
629.93	4868.84
630.345	4881.68
630.761	4866.15
631.176	4882.06
631.591	4859.5
632.007	4842.63
632.422	4845.8
632.837	4811.27
633.252	4808
633.667	4779.93
634.082	4755.28
634.497	4712.62
634.911	4646.4
635.326	4645.68
635.741	4593.54
636.155	4572.23
636.57	4583.28
636.984	4591.15
637.399	4601.93
637.813	4614.78
638.228	4620.96
638.642	4646.59
639.056	4619.36
639.47	4636
639.884	4614.97
640.298	4604.26
640.712	4611.83
641.126	4584.63
641.54	4571.99
641.954	4582.54
642.368	4552.75
642.781	4532.08
643.195	4476.7
643.609	4489.17
644.022	4473.63
644.436	4462.16
644.849	4417.33
645.262	4378.33
645.676	4389.27
646.089	4364.11
646.502	4291.3
646.915	4271.6
647.328	4213.64
647.741	4214.8
648.154	4175.22
648.567	4164.55
648.98	4120.03
649.393	4137.48
649.805	4135
650.218	4120.22
650.631	4073.27
651.043	4068.6
651.456	4054.99
651.868	4064.84
652.28	4131.31
652.693	4166.49
653.105	4162.06
653.517	4157.63
653.929	4114.86
654.341	4105.16
654.753	4030.9
655.165	4047.4
655.577	4036.62
655.989	4025.03
656.401	4010.65
656.813	3889.23
657.224	3855.13
657.636	3806.7
658.047	3801.78
658.459	3790.2
658.87	3815.33
659.282	3821.29
659.693	3768.56
660.104	3737.13
660.515	3709.92
660.926	3728.67
661.338	3745.94
661.749	3743.79
662.159	3720.68
662.57	3727.84
662.981	3727.7
663.392	3708.9
663.803	3739.61
664.213	3746.79
664.624	3744.89
665.035	3772.66
665.445	3724.59
665.855	3699.92
666.266	3668.13
666.676	3669.43
667.086	3635.46
667.497	3635.15
667.907	3608.82
668.317	3568.02
668.727	3536.23
669.137	3540.59
669.547	3523.04
669.956	3531.47
670.366	3532.7
670.776	3530.92
671.186	3539.98
671.595	3542.04
672.005	3550.83
672.414	3530.83
672.824	3508.16
673.233	3531.51
673.642	3526.79
674.052	3526.52
674.461	3515.32
674.87	3522.24
675.279	3493
675.688	3489.86
676.097	3474.83
676.506	3440.63
676.915	3494.32
677.323	3490.58
677.732	3465.57
678.141	3446.57
678.549	3383.35
678.958	3362.8
679.366	3343.01
679.775	3350.61
680.183	3357.74
680.592	3360.49
681	3357.66
681.408	3295.73
681.816	3297.42
682.224	3300.79
682.632	3296.54
683.04	3371.98
683.448	3404
683.856	3430.13
684.264	3447.42
684.671	3455.38
685.079	3479.17
685.487	3510.89
685.894	3596.73
686.302	3635.58
686.709	3632.36
687.116	3649.78
687.524	3636.43
687.931	3630.59
688.338	3632.45
688.745	3642.77
689.152	3660.99
689.559	3697.23
689.966	3720.28
690.373	3679.61
690.78	3679.87
691.187	3730.62
691.593	3737.26
692	3730.08
692.407	3760.38
692.813	3813.56
693.22	3839.28
693.626	3874.65
694.032	3889.98
694.439	3962.44
694.845	4004.12
695.251	4077.24
695.657	4132.46
696.063	4245.28
696.469	4305.38
696.875	4351.54
697.281	4343.67
697.687	4344.45
698.093	4327.59
698.498	4366.68
698.904	4373
699.31	4429.77
699.715	4446.92
700.12	4518.17
700.526	4486.31
700.931	4539.61
701.337	4575.12
701.742	4589.05
702.147	4678.81
702.552	4692
702.957	4751.63
703.362	4755.46
703.767	4775.52
704.172	4811.78
704.577	4720.75
704.981	4763.42
705.386	4759.65
705.791	4720.46
706.195	4795.99
706.6	4780.57
707.004	4865.62
707.408	4798.04
707.813	4809.08
708.217	4769.14
708.621	4747.92
709.025	4855.69
709.43	4829.37
709.834	4884.05
710.237	4950.17
710.641	4903.68
711.045	4907.72
711.449	4870.96
711.853	4872.56
712.256	4894.68
712.66	4903.59
713.064	4951.22
713.467	4939.45
713.87	4994.37
714.274	4941
714.677	4943.95
715.08	4987.49
715.484	5020.45
715.887	5070.94
716.29	5109.19
716.693	5137.14
717.096	5189.04
717.499	5151.8
717.901	5057.79
718.304	5027.96
718.707	5053.18
719.109	5003.19
719.512	5036.25
719.915	4972.96
720.317	4976.58
720.719	5064.03
721.122	5075.26
721.524	5062.67
721.926	5038.41
722.328	5133.75
722.731	5090.03
723.133	5063.99
723.535	5178.16
723.937	5125.44
724.338	5110.12
724.74	5098.12
725.142	5003.76
725.544	4989.58
725.945	5001.1
726.347	4992.96
726.748	4977.86
727.15	4991.77
727.551	4954.47
727.952	4922.96
728.354	4893.46
728.755	4899.84
729.156	4884.49
729.557	4913.59
729.958	4838.81
730.359	4837.64
730.76	4874.55
731.161	4882.21
731.562	4916.46
731.962	4976.24
732.363	4970.08
732.763	4959.98
733.164	5035.86
733.564	5000.81
733.965	4924.17
734.365	4907.13
734.766	4945.34
735.166	4909.12
735.566	4846.43
735.966	4812.05
736.366	4798.07
736.766	4734.13
737.166	4764.28
737.566	4727.19
737.966	4705.05
738.365	4745.58
738.765	4737.15
739.165	4657.54
739.564	4629.94
739.964	4678.3
740.363	4638.85
740.763	4643.69
741.162	4636.19
741.561	4608.06
741.96	4563.2
742.36	4584.88
742.759	4594.01
743.158	4634.42
743.557	4651.93
743.955	4694.41
744.354	4647.14
744.753	4698.73
745.152	4652.11
745.55	4701.71
745.949	4687.08
746.348	4676.77
746.746	4678.04
747.144	4624.4
747.543	4587.32
747.941	4619.25
748.339	4530.43
748.737	4505.66
749.136	4480.33
749.534	4526.68
749.932	4481.88
750.33	4487.3
750.727	4529.35
751.125	4496.51
751.523	4470.31
751.921	4503.23
752.318	4460.79
752.716	4509.46
753.113	4511.34
753.511	4523.9
753.908	4511.52
754.305	4483.56
754.703	4529.71
755.1	4568.98
755.497	4603.39
755.894	4739.83
756.291	4818.97
756.688	4958.21
757.085	5090.51
757.482	5265.25
757.878	5384.05
758.275	5401.81
758.672	5528.78
759.068	5527.37
759.465	5631.03
759.861	5784.05
760.258	5946.06
760.654	5816.42
761.05	5509.1
761.447	5219.59
761.843	4984.79
762.239	4812.58
762.635	4850.01
763.031	4872.5
763.427	4781.07
763.822	4683.24
764.218	4602.3
764.614	4418.61
765.01	4357.55
765.405	4373.2
765.801	4417.29
766.196	4380.51
766.592	4413.76
766.987	4330.96
767.382	4294.7
767.778	4330.06
768.173	4306.42
768.568	4308.14
768.963	4250.95
769.358	4295.74
769.753	4280.61
770.148	4228.47
770.542	4238.91
770.937	4218.97
771.332	4294.59
771.726	4305.58
772.121	4244.99
772.515	4282.04
772.91	4263.28
773.304	4315.38
773.699	4256.41
774.093	4288.54
774.487	4319.73
774.881	4340.51
775.275	4323.18
775.669	4276.73
776.063	4300.81
776.457	4317.57
776.851	4246.92
777.245	4225.74
777.638	4235.28
778.032	4305.67
778.425	4263.04
778.819	4282.43
779.212	4236.36
779.606	4191.77
779.999	4191.59
780.392	4161.2
780.786	4207.69
781.179	4202.89
781.572	4221.04
781.965	4214.07
782.358	4153.93
782.751	4179.55
783.143	4122.88
783.536	4157.11
783.929	4166.86
784.322	4224.74
784.714	4224.11
785.107	4191.84
785.499	4219.99
785.891	4173.34
786.284	4125.26
786.676	4189.36
787.068	4139.53
787.46	4137.41
787.852	4112.68
788.245	4136.15
788.636	4126.15
789.028	4135.87
789.42	4134.83
789.812	4110.36
790.204	4145.03
790.595	4186.47
790.987	4039.16
791.378	4035.88
791.77	4100.54
792.161	4171.52
792.553	4186.18
792.944	4092.93
793.335	4026.67
793.726	4045.09
794.117	4079.88
794.508	4143.85
794.899	4106.95
795.29	4174.37
795.681	4188.31
796.072	4081.87
796.463	3951.68
796.853	3937.18
797.244	4007.56
797.634	4007.78
798.025	3986.55
798.415	3967.2
798.806	3990.33
799.196	4008.16
799.586	4007.13
799.976	3952.57
800.366	4047.66
800.756	4141.74
801.146	4087.35
801.536	4074.83
801.926	4086.6
802.316	4076.16
802.706	4093
803.095	4007.93
803.485	4043.01
803.874	4044.22
804.264	4160.14
804.653	4128.51
805.043	4182.87
805.432	4216.17
805.821	4192.85
806.21	4178.04
806.599	4200.67
806.988	4181.39
807.377	4187.91
807.766	4203.07
808.155	4286.8
808.544	4106.44
808.933	4054.46
809.321	3988.39
809.71	4057.26
810.098	4051.59
810.487	4168.18
810.875	4288.37
811.264	4201.33
811.652	4225.52
812.04	4174.07
812.428	4124.43
812.816	4287.62
813.204	4317.2
813.592	4374.26
813.98	4359.51
814.368	4218.97
814.756	4271.69
815.144	4151.72
815.531	4219.34
815.919	4116.47
816.306	4151.34
816.694	4011.51
817.081	4011.28
817.469	4108.67
817.856	4124.04
818.243	4226.12
818.63	4354.99
819.017	4239.01
819.404	4240.76
819.791	4306.25
820.178	4421.57
820.565	4440.72
820.952	4674.01
821.339	4497.75
821.725	4512.97
822.112	4261.89
822.498	4205.64
822.885	4196.76
823.271	4139.97
823.657	4251.48
824.044	4279.75
824.43	4329.59
824.816	4335.77
825.202	4203.33
825.588	4449.01
825.974	4412.02
826.36	4504.18
826.746	4459.18
827.132	4505.01
827.517	4457.31
827.903	4206.48
828.289	4169.28
828.674	3936.54
829.06	3874.91
829.445	3944.35
829.83	4004.81
830.216	4097.38
830.601	4162.53
830.986	4054.49
831.371	4002.67
831.756	4121.15
832.141	4012.34
832.526	4001.66
832.911	4060.6
833.295	4025.81
833.68	4132.27
834.065	3988.4
834.449	3767.18
834.834	3750.65
835.218	3746.18
835.603	3828.65
835.987	3763.6
836.371	3948.15
836.755	3914.43
837.139	3998.86
837.524	4042.02
837.908	3987.68
838.291	3986.52
838.675	3988.1
839.059	4020.24
839.443	4000.61
839.827	3928.31
840.21	4024.15
840.594	3972.1
840.977	4000.94
841.361	3974.77
841.744	4041.66
842.127	3991.36
842.511	4030.46
842.894	4145.15
843.277	4209.01
843.66	4303.57
844.043	4302.66
844.426	4111.06
844.809	4024.31
845.191	4013.3
845.574	3898.66
845.957	3805.68
846.339	3759.68
846.722	3615.59
847.104	3593.85
847.487	3521.78
847.869	3495.71
848.252	3523.78
848.634	3565.34
849.016	3590.2
849.398	3583.48
849.78	3723.2
850.162	3693.2
850.544	3741.94
850.926	3825.31
851.307	3765.84
851.689	3778.31
852.071	3814.98
852.452	3839
852.834	3797.33
853.215	3843.34
853.597	3841.19
853.978	3871.2
854.359	3932.78
854.741	3744.83
855.122	3732.56
855.503	3696.78
855.884	3737.81
856.265	3743.94
856.646	3761.4
857.026	3692.69
857.407	3674.63
857.788	3695.08
858.169	3728.14
858.549	3569.39
858.93	3665.24
859.31	3654.13
859.69	3682.23
860.071	3590.3
860.451	3531.7
860.831	3391.48
861.211	3564.57
861.591	3633.73
861.971	3609.42
862.351	3619.82
862.731	3640.92
863.111	3645.49
863.491	3661.43
863.87	3746.94
864.25	3757.29
864.629	3662.41
865.009	3700.24
865.388	3799.85
865.768	4028.43
866.147	3975.07
866.526	3735.19
866.905	3769.54
867.284	3968.35
867.663	3764.97
868.042	3618.83
868.421	3608.54
868.8	3658.81
869.179	3698.7
869.558	3478.88
869.936	3209.09
870.315	3261.65
870.693	3334.78
871.072	3581.87
871.45	3403.22
871.828	3439.59
872.207	3598.87
872.585	3533.58
872.963	3607.54
873.341	3473.01
873.719	3419.85
874.097	3362.88
874.475	3410.17
874.853	3465.63
875.23	3317.39
875.608	3444.45
875.986	3710.92
876.363	3535.66
876.741	3641.42
877.118	3560.61
877.495	3718.72
877.873	3761.62
878.25	3939.49
878.627	3764.26
879.004	3808.79
879.381	3765.87
879.758	3652.55
880.135	3379.71
880.512	3560.71
880.889	3436.77
881.265	3375.28
881.642	3323.92
882.019	3367.11
882.395	3297.3
882.772	3420.91
883.148	3257.05
883.524	3231.69
883.901	3199.44
884.277	3230.45
884.653	3190.89
885.029	3276.3
885.405	3622.6
885.781	3584.2
886.157	3423.13
886.532	3443.32
886.908	3420.16
887.284	3787.41
887.659	3897.88
888.035	4007.43
888.411	4096.49
888.786	4136.25
889.161	4258.49
889.537	4146.01
889.912	4253.15
890.287	4218.57
890.662	4291.28
891.037	4181.8
891.412	3863.16
891.787	3779.82
892.162	3599.61
892.536	3637.61
892.911	3451.42
893.286	3321.54
893.66	3137.86
894.035	3160.51
894.409	3364.32
894.784	3173.67
895.158	3162.85
895.532	3287.99
895.906	3312.61
896.281	3324.67
896.655	3208.54
897.029	3590.03
897.402	3677.83
897.776	4013.09
898.15	3942.7
898.524	3861.03
898.898	3855.62
899.271	4285.42
899.645	3677.4
900.018	3510.59
900.392	3635.51
900.765	3673.2
901.138	3423.81
901.511	3389.38
901.884	3162.92
902.258	2949.36
902.631	3099.79
903.003	3605.1
903.376	3276.67
903.749	3705.8
904.122	3989.99
904.495	4386.58
904.867	4420.71
905.24	3816.33
905.612	3522.8
905.985	3543.74
906.357	3655.23
906.729	3424.67
907.102	2891
907.474	2734.14
907.846	2714.98
908.218	2652.55
908.59	2341.87
908.962	2248.3
909.334	2410.42
909.705	2523.67
910.077	2439.18
910.449	2528.63
910.82	2591.93
911.192	2838.15
911.563	2947.07
911.935	3127.77
912.306	3110.35
912.677	3187.85
913.048	3157.91
913.419	3399.61
913.79	3388.39
914.161	3609.92
914.532	3464.44
914.903	3162.7
915.274	2994.18
915.645	2944.96
916.015	2586.92
916.386	2465.1
916.756	2634.69
917.127	2716.9
917.497	2457.28
917.868	2708.18
918.238	2610.04
918.608	2684.83
918.978	2777.4
919.348	2969.84
919.718	3106.08
920.088	3036.52
920.458	3200.37
920.828	3357.78
921.198	3209.4
921.567	3416.61
921.937	2651.77
922.306	2660.08
922.676	2856.09
923.045	2395.74
923.415	2280.11
923.784	2062.08
924.153	2119.38
924.522	2099.23
924.891	1972.34
925.26	2088.86
925.629	2019.8
925.998	2295.9
926.367	2221.71
926.736	2121.71
927.104	2464.98
927.473	2583.11
927.842	3054.96
928.21	2928.23
928.578	2993.78
928.947	2751.98
929.315	2703.88
929.683	3082.85
930.051	3002.47
930.42	3370.17
930.788	2754.52
931.156	2626.65
931.523	2415.49
931.891	2158.17
932.259	2015.39
932.627	2278.53
932.994	3131.81
933.362	2556.93
933.729	2177.93
934.097	2031.07
934.464	1704.7
934.831	1928.24
935.199	1884.49
935.566	1796.14
935.933	1886.57
936.3	2313.57
936.667	1809.68
937.034	1734.94
937.401	1711.32
937.767	1508.49
938.134	1372.11
938.501	1958.77
938.867	2160.89
939.234	3740.62
939.6	3224.4
939.967	3524.19
940.333	2434.11
940.699	2108.32
941.065	1636.63
941.431	2202.85
941.798	2188.66
942.163	2947.16
942.529	1832.19
942.895	1651.83
943.261	1079.6
943.627	1422.95
943.992	1245.23
944.358	1228.82
944.723	1249.33
945.089	1207.68
945.454	1111.37
945.82	1161.73
946.185	1097.65
946.55	1288.48
946.915	1171.52
947.28	1370.04
947.645	1217.89
948.01	1152.04
948.375	1221.93
948.74	1434.17
949.104	1666.83
949.469	2311.98
949.834	4112.45
950.198	4018.12
950.562	2451.16
950.927	2053.56
951.291	2439.38
951.655	2082.65
952.02	1890.18
952.384	1412.16
952.748	1267.85
953.112	1271.57
953.476	1138.24
953.839	1038.94
954.203	1023.71
954.567	1258.28
954.931	1929.21
955.294	1695.71
955.658	1691.94
956.021	2919.54
956.385	4892.8
956.748	7241.31
957.111	10912.76
957.474	11937.97
957.837	13411.32
958.2	10055.75
958.563	3623.74
958.926	2509.44
959.289	3740.84
959.652	4217.8
960.015	3137.27
960.377	4509
960.74	5112.45
961.102	8702.29
961.465	9582.59
961.827	5577.03
962.189	10675.86
962.552	7477.12
962.914	6005.53
963.276	3942.46
963.638	3244.06
964	3193.31
964.362	2192.05
964.724	2086.89
965.085	1531.96
965.447	1275.94
965.809	1360.98
966.17	1362.91
966.532	1494.09
966.893	1389.7
967.255	1281.12
967.616	1532.3
967.977	1274.33
968.338	1397.93
968.699	1189.57
969.061	1195.49
969.421	1224.68
969.782	1404.35
970.143	1221.92
970.504	1304.43
970.865	1498.08
971.225	1557.21
971.586	1534.58
971.946	2161.99
972.307	1881.04
972.667	2409.44
973.027	2504.55
973.388	3002.19
973.748	2043.82
974.108	2216.23
974.468	2886.18
974.828	2282.89
975.188	1723.91
975.548	1579.65
975.907	1332.15
976.267	1492.15
976.627	1305.11
976.986	1340.92
977.346	1258.62
977.705	1200.76
978.064	1099.31
978.424	924.07
978.783	920.25
979.142	1064.37
979.501	1035.21
979.86	1104.66
980.219	1065.96
980.578	1347.74
980.937	1490.67
981.296	1371.94
981.654	1428.95
982.013	2195.16
982.371	2933.73
982.73	2772.26
983.088	3139.09
983.447	3377.87
983.805	4886.49
984.163	10204.58
984.521	11220.76
984.879	16619.05
985.237	-26868.2
985.595	26315.27
985.953	6607.45
986.311	3752.49
986.669	2186.58
987.026	1890.94
987.384	2475.75
987.741	2508.82
988.099	1886.23
988.456	1518.61
988.814	1451.76
989.171	1274.75
989.528	1226.86
989.885	1281.58
990.242	1039.74
990.599	1278.8
990.956	1058.88
991.313	763.87
991.67	632.58
992.027	710.82
992.383	639.58
992.74	570.01
993.096	611.18
993.453	638.69
993.809	666.01
994.165	871.93
994.522	862.78
994.878	950.49
995.234	1177.65
995.59	1170.94
995.946	1035.49
996.302	1195.14
996.658	1368.48
997.013	1466.59
997.369	1802.15
997.725	2362.47
998.08	1548.44
998.436	2208.69
998.791	3019.61
999.147	3060.86
999.502	3351.36
999.857	2433.43
1000.212	4009.61
1000.567	5639.01
1000.922	3373.29
1001.277	2110
1001.632	1527.24
1001.987	1963.97
1002.342	1437.82
1002.696	1200.65
1003.051	971.06
1003.406	1197.01
1003.76	1187.67
1004.114	1146.12
1004.469	987.65
1004.823	803.11
1005.177	847.68
1005.531	685.93
1005.885	626.18
1006.239	727.02
1006.593	910.92
1006.947	1237.01
1007.301	919.9
1007.655	999.02
1008.008	743.57
1008.362	834.61
1008.715	1192.24
1009.069	1092.52
1009.422	1747.78
1009.776	3497.02
1010.129	2282.69
1010.482	1861.68
1010.835	1493.27
1011.188	3066.44
1011.541	2951.31
1011.894	-18380.27
1012.247	55224.38
1012.6	3785.99
1012.952	2501.51
1013.305	1206
1013.657	870.07
1014.01	822.44
1014.362	674.04
1014.715	696.01
1015.067	641.53
1015.419	620.99
1015.771	546.32
1016.123	514.48
1016.475	535.52
1016.827	557.55
1017.179	637.27
1017.531	638.55
1017.883	640.12
1018.234	680.48
1018.586	831.79
1018.938	912.86
1019.289	1260.3
1019.64	1461.09
1019.992	1300.13
1020.343	1168.86
1020.694	992.71
1021.045	844.74
1021.396	971.93
1021.747	1101.34
1022.098	1241.67
1022.449	892.02
1022.8	816.48
1023.151	602.4
1023.501	553.79
1023.852	598.05
1024.202	658.62
1024.553	681.29
1024.903	704.26
1025.253	629.46
1025.604	569.33
1025.954	690.7
1026.304	817.82
1026.654	956.48
1027.004	1357.64
1027.354	2093.32
1027.703	2101.86
1028.053	2651.01
1028.403	4023.6
1028.753	5415.36
1029.102	6791.31
1029.452	33105.28
1029.801	1435.15
1030.15	927.49
1030.499	717.65
897.758	2057.01
901.051	1985.99
904.343	2019.11
907.636	2029.38
910.928	2089.77
914.22	2012.06
917.511	2017.35
920.803	2061.57
924.094	2055.44
927.384	2063.27
930.675	2026.99
933.965	1993.3
937.255	2030.21
940.544	2002.48
943.834	1990.02
947.123	1933.14
950.411	2020.62
953.7	2002.37
956.988	1990.35
960.276	1927.9
963.563	1969.78
966.851	1981.35
970.138	2021.02
973.424	2019.73
976.711	1972.87
979.997	2026.75
983.283	2066.32
986.568	2003.15
989.853	1990.12
993.138	2015.46
996.423	2102.03
999.708	2066.86
1002.992	2096.16
1006.275	2012.16
1009.559	2017.36
1012.842	2113.95
1016.125	2067.96
1019.408	2052.28
1022.69	2101.52
1025.972	2137.66
1029.254	2114.82
1032.536	2081.84
1035.817	2087.16
1039.098	2057.84
1042.379	2104.45
1045.659	2132.43
1048.939	2083.52
1052.219	2089.62
1055.498	2076.6
1058.778	2075.45
1062.057	2050.89
1065.335	2075.99
1068.614	2084.16
1071.892	2084.48
1075.17	2132.35
1078.447	2139.39
1081.724	2133.18
1085.001	2157.22
1088.278	2135.84
1091.554	2142.07
1094.83	2136.94
1098.106	2174.79
1101.382	2200.8
1104.657	2201.63
1107.932	2200.71
1111.206	2185.22
1114.481	2136.26
1117.755	2135.65
1121.029	2132.08
1124.302	2194.56
1127.575	2164.94
1130.848	2162.79
1134.121	2136.27
1137.393	2102.62
1140.665	2158.53
1143.937	2138.84
1147.208	2082.09
1150.48	2143.79
1153.75	2135.85
1157.021	2130.93
1160.291	2110.04
1163.561	2164
1166.831	2128.6
1170.101	2153.15
1173.37	2107.9
1176.639	2069.27
1179.907	2107.96
1183.176	2135.36
1186.444	2136.84
1189.711	2157.14
1192.979	2185.76
1196.246	2141.86
1199.513	2153.22
1202.78	2159.52
1206.046	2167.3
1209.312	2198.4
1212.578	2214.01
1215.843	2186.36
1219.108	2150.66
1222.373	2172.74
1225.638	2150.98
1228.902	2141.4
1232.166	2096.41
1235.43	2083.9
1238.693	2110.33
1241.956	2100.16
1245.219	2150.71
1248.482	2130.17
1251.744	2128.81
1255.006	2248.24
1258.268	2191.72
1261.529	2150.46
1264.79	2150.78
1268.051	2244.84
1271.312	2255.64
1274.572	2227.73
1277.832	2215.59
1281.092	2192.64
1284.351	2189.28
1287.61	2176.71
1290.869	2113.19
1294.128	2117.41
1297.386	2155.4
1300.644	2149.3
1303.902	2159.86
1307.159	2031.25
1310.416	2080.53
1313.673	2110.11
1316.93	2109.24
1320.186	2135.42
1323.442	2164.05
1326.697	2170.86
1329.953	2139.5
1333.208	2178.87
1336.463	2147.8
1339.717	2113.42
1342.972	2212.69
1346.226	2183.73
1349.479	2136.1
1352.733	2118.87
1355.986	2121.29
1359.238	2104.07
1362.491	2106.24
1365.743	2105.81
1368.995	2095.64
1372.247	2110.09
1375.498	2129.99
1378.749	2173.13
1382	2122.89
1385.251	2155.18
1388.501	2108.18
1391.751	2111.95
1395	2079.06
1398.25	2104.06
1401.499	2130.85
1404.748	2085
1407.996	2060.8
1411.244	2050.41
1414.492	2038.5
1417.74	2025.92
1420.987	2028.94
1424.234	2086.7
1427.481	2047.82
1430.728	2102.77
1433.974	2078.62
1437.22	2071.93
1440.465	2067.04
1443.711	2073.15
1446.956	2095.08
1450.201	2064.43
1453.445	2104.18
1456.689	2098.55
1459.933	2107.57
1463.177	2147.23
1466.42	2122.05
1469.663	2106.02
1472.906	2128.37
1476.148	2174.77
1479.391	2137.25
1482.633	2113.48
1485.874	2143.74
1489.115	2154.11
1492.356	2132.98
1495.597	2116.78
1498.838	2108
1502.078	2095.64
1505.318	2072.08
1508.557	2102.39
1511.797	2099.11
1515.036	2154.05
1518.274	2121.12
1521.513	2069.83
1524.751	2079.53
1527.989	2103.47
1531.227	2122.25
1534.464	2141.41
1537.701	2132.78
1540.938	2142.7
1544.174	2091.72
1547.41	2081.47
1550.646	2115.66
1553.882	2169.53
1557.117	2226.45
1560.352	2234.54
1563.587	2201.45
1566.821	2168.36
1570.055	2179.79
1573.289	2161.45
1576.523	2217.02
1579.756	2232.41
1582.989	2255.2
1586.222	2218.21
1589.454	2241.47
1592.686	2232.01
1595.918	2256.68
1599.15	2255.63
1602.381	2297.15
1605.612	2283.3
1608.843	2374.7
1612.073	2299.7
1615.303	2291.41
1618.533	2290.27
1621.762	2285.04
1624.992	2260.44
1628.221	2262.65
1631.449	2253.22
1634.678	2272.77
1637.906	2239.64
1641.134	2266.77
1644.361	2232.7
1647.588	2224.47
1650.815	2244.6
1654.042	2205.67
1657.269	2235.81
1660.495	2220.98
1663.72	2199.01
1666.946	2170.52
1670.171	2150.44
1673.396	2124.96
1676.621	2104.81
1679.845	2098.71
1683.069	2100.59
1686.293	2129.15
1689.517	2121.96
1692.74	2076.43
1695.963	2096.06
1699.185	2141.85
1702.408	2114.89
1705.63	2142.52
1708.852	2162
1712.073	2131.77
1715.294	2147.9
1718.515	2186.75
1721.736	2149.38
1724.956	2126.82
1728.176	2148.13
1731.396	2168.73
1734.616	2152.72
1737.835	2189.49
1741.054	2157.21
1744.272	2149.95
1747.491	2192.52
1750.709	2209.81
1753.927	2168.88
1757.144	2186.73
1760.361	2249.51
1763.578	2218.97
1766.795	2173.21
1770.011	2159.47
1773.227	2178.96
1776.443	2221.25
1779.658	2263.71
1782.874	2200.12
1786.089	2195.78
1789.303	2197.06
1792.518	2193.36
1795.732	2179.43
1798.945	2196.8
1802.159	2233.03
1805.372	2184.17
1808.585	2182.71
1811.797	2184.02
1815.01	2197.64
1818.222	2226.34
1821.434	2179.18
1824.645	2219.75
1827.856	2231.92
1831.067	2261.45
1834.278	2196.44
1837.488	2180.74
1840.698	2293.69
1843.908	2239.52
1847.117	2208.95
1850.326	2144.91
1853.535	2195.04
1856.744	2235.03
1859.952	2159.52
1863.16	2160.86
1866.368	2172.87
1869.575	2283.39
1872.782	2166.51
1875.989	2102.99
1879.196	2144.16
1882.402	2136.48
1885.608	2164.64
1888.814	2113.9
1892.019	2025.56
1895.224	2074.54
1898.429	2037.2
1901.634	2021.7
1904.838	1997.77
1908.042	2056.37
1911.246	2065.9
1914.449	2033.91
1917.652	2014.14
1920.855	1996.5
1924.058	2014.13
1927.26	2059.58
1930.462	2078.38
1933.664	2119.66
1936.865	2065.06
1940.066	2082
1943.267	2026.83
1946.467	2037.93
1949.668	2054.8
1952.868	2120.7
1956.067	2113.3
1959.267	2058.92
1962.466	2080.16
1965.665	2063.2
1968.863	2059.15
1972.061	2058.22
1975.259	2051.77
1978.457	2122.47
1981.654	2083.69
1984.852	2087.08
1988.048	2045.69
1991.245	2032.49
1994.441	2118.76
1997.637	2073.64
2000.833	2058.59
2004.028	2089.31
2007.223	2152.64
2010.418	2141.31
2013.613	2093.37
2016.807	2091.58
2020.001	2085.36
2023.194	2102.36
2026.388	2089.5
2029.581	2032.66
2032.774	2096.83
2035.966	2107.2
2039.158	2058.66
2042.35	2075.69
2045.542	2004.58
2048.733	2080.86
2051.924	2067.18
2055.115	2080.28
2058.306	2050.55
2061.496	2102.73
2064.686	2150.59
2067.875	2058.52
2071.065	2056.67
2074.254	2073.79
2077.442	2031.17
2080.631	2110.4
2083.819	2051.58
2087.007	2044.28
2090.195	2032.21
2093.382	2041.31
2096.569	2025.65
2099.756	1992.81
2102.942	2042.55
2106.128	2059.5
2109.314	2048.19
2112.5	2036.1
2115.685	2003.74
2118.87	2011.65
2122.055	2071.74
2125.239	2053.13
2128.424	2047.21
2131.608	2095.23
2134.791	2077.54
2137.974	2110.87
2141.157	2099.96
2144.34	2075.3
2147.523	2060.88
2150.705	2088.54
2153.887	2054.85
2157.068	2032.92
2160.25	2007.32
2163.431	2029.12
2166.611	2003.7
2169.792	2026.71
2172.972	1943.78
2176.152	1986.86
2179.331	2012.81
2182.511	2019.31
2185.69	2037.62
2188.868	2044.24
2192.047	2073.94
2195.225	2098.63
2198.403	2044.67
2201.58	2032.1
2204.758	2015.27
2207.935	2087.45
2211.111	2012.17
2214.288	1999.89
2217.464	2032.66
2220.64	1986.46
2223.815	2031.09
2226.991	1968.38
2230.166	1982.23
2233.34	2027.13
2236.515	2038.4
2239.689	2101.55
2242.863	2051.56
2246.036	2102.28
2249.209	2084.99
2252.382	2099.56
2255.555	2111.95
2258.727	2067.84
2261.9	2093.02
2265.071	2085.18
2268.243	2081.89
2271.414	2035.5
2274.585	2021.79
2277.756	2081.55
2280.926	2036.66
2284.096	2060.63
2287.266	1999.29
2290.436	2044.23
2293.605	2060.05
2296.774	2099.64
2299.942	2100.7
2303.111	2115.77
2306.279	2166.48
2309.447	2152.81
2312.614	2121.86
2315.781	2148.75
2318.948	2129.46
2322.115	2163.47
2325.281	2065.83
2328.447	2071.57
2331.613	2039.34
2334.779	2035.59
2337.944	2027.48
2341.109	2030.38
2344.274	2020.34
2347.438	1989.45
2350.602	2009.11
2353.766	2015.15
2356.929	2005.74
2360.092	2039.78
2363.255	2015.36
2366.418	1989.28
2369.58	2043.31
2372.742	1944.37
2375.904	1930.63
2379.066	1916.69
2382.227	1941.52
2385.388	1904.93
2388.548	1862.54
2391.709	1899.34
2394.869	1893.55
2398.029	1937.65
2401.188	1928.93
2404.347	1900.98
2407.506	1961.42
2410.665	2004.58
2413.823	1985.74
2416.981	1969.77
2420.139	1984.13
2423.296	2020.67
2426.453	1993.93
2429.61	2013.55
2432.767	1992.17
2435.923	2034.47
2439.079	1975.21
2442.235	2005.54
2445.391	1951.29
2448.546	1996.04
2451.701	2025.85
2454.855	2025.57
2458.009	2048.17
2461.163	2036.71
2464.317	2009.8
2467.471	2034.12
2470.624	2059.24
2473.777	2055.23
2476.929	2071.66
2480.082	2093.4
2483.234	2071.35
2486.385	2009.52
2489.537	2004.55
2492.688	2000.49
2495.839	2015.59
2498.989	2030.92
2502.14	2019.98
2505.29	2015.46
2508.439	2038.39
2511.589	1984.46
2514.738	1982.84
2517.887	2000.95
2521.035	2078.53
2524.183	2035.08
2527.331	2023.57
2530.479	2021.79
2533.627	2023.42
