Data from C_1_HIR_IL_4N_Splice17_11-52-03-831.txt Node
Date: Sat Mar 14 11:52:03 EDT 2020
User: sa697716
Spectrometer: FLMS03696
Trigger mode: 0
Integration Time (sec): 3.180400E-1
Scans to average: 20
Electric dark correction enabled: true
Nonlinearity correction enabled: true
Boxcar width: 5
XAxis mode: Wavelengths
Number of Pixels in Spectrum: 2048
>>>>>Begin Spectral Data<<<<<
187.83	-227925.05
188.298	1706.06
188.766	931
189.233	802.49
189.701	1138.18
190.169	1495.38
190.636	576.5
191.104	496.48
191.571	88.8
192.039	-50.48
192.506	23.18
192.974	530.75
193.441	-848.11
193.908	-196.31
194.375	-59.05
194.842	8.64
195.31	-18.54
195.777	109.63
196.244	327.02
196.711	448.2
197.177	604.99
197.644	896.88
198.111	1544.03
198.578	2195.53
199.045	1747.22
199.511	2868.11
199.978	3349.01
200.445	2863.19
200.911	3154.52
201.378	3542.26
201.844	3200.48
202.31	5465
202.777	5710.13
203.243	3187.35
203.709	3025.57
204.176	3587.74
204.642	2944.52
205.108	2740.11
205.574	2236.06
206.04	2064.09
206.506	1932
206.972	1845.55
207.438	1782.12
207.903	2013.06
208.369	1755.64
208.835	1751.64
209.301	1843.4
209.766	1886.36
210.232	1872.58
210.697	2328.49
211.163	2867.59
211.628	4336.07
212.094	3630.27
212.559	4459.73
213.024	2787.65
213.49	3416.83
213.955	3317.26
214.42	3245.62
214.885	3025.91
215.35	2905.58
215.815	2774.13
216.28	2935
216.745	2401.55
217.21	2584.48
217.675	2361.53
218.14	2664.59
218.604	2966.48
219.069	3399.17
219.534	3578.23
219.998	4189.17
220.463	5103.13
220.927	6320.23
221.392	5972.13
221.856	6042.95
222.32	7644.73
222.785	9484.72
223.249	11985.47
223.713	13432.82
224.177	13450.34
224.642	17294.07
225.106	21334.18
225.57	23373.02
226.034	17365.79
226.497	26503.42
226.961	23980.49
227.425	27981.98
227.889	31174.99
228.353	31175.76
228.816	64524.03
229.28	61942.12
229.744	52410.28
230.207	31909.56
230.671	31450.84
231.134	52247.16
231.597	60301.13
232.061	60517.85
232.524	59284.06
232.987	40929.24
233.45	36932.06
233.914	33199.79
234.377	34101.36
234.84	31237.89
235.303	36943.07
235.766	41308.29
236.229	42798.2
236.691	27041.22
237.154	30442.12
237.617	22895.8
238.08	23489.97
238.542	27557.43
239.005	19727.12
239.468	19606.25
239.93	18507.38
240.393	16824.21
240.855	14799.99
241.317	15183.37
241.78	18521.6
242.242	19167.98
242.704	20738.42
243.166	18049.92
243.629	16409.35
244.091	18945.35
244.553	20809.73
245.015	22413.74
245.477	29079.34
245.939	42679.98
246.4	45345.06
246.862	44126.99
247.324	41693.22
247.786	46726.42
248.247	61419.87
248.709	63537.07
249.17	47595.32
249.632	44859.88
250.093	52053.66
250.555	44971.41
251.016	27458.38
251.477	26078.61
251.939	28155.37
252.4	29552.28
252.861	35186.52
253.322	32722.66
253.783	38954.71
254.244	50520.1
254.705	39864.57
255.166	35481.79
255.627	34972.76
256.088	49302.89
256.549	52395.58
257.009	45163.53
257.47	54860.64
257.931	44659.46
258.391	33487.87
258.852	34580.85
259.312	36294.59
259.773	44865.58
260.233	37938.46
260.694	31989.1
261.154	36331.11
261.614	29146.05
262.074	26066.28
262.534	27086.09
262.994	25553.55
263.455	34080.55
263.915	28690.54
264.374	27068.46
264.834	29619.35
265.294	32859.45
265.754	34048.69
266.214	32244.56
266.673	30245.9
267.133	38241.39
267.593	37954.6
268.052	46481.89
268.512	40471.77
268.971	48876.14
269.431	53616.19
269.89	48007.11
270.349	71973.61
270.809	80320.86
271.268	72249.67
271.727	162128.44
272.186	104958.5
272.645	78805.84
273.104	56852.29
273.563	82297.02
274.022	64735.37
274.481	54993.75
274.94	42322.62
275.399	31465.9
275.857	36674.48
276.316	49626.09
276.775	44175.44
277.233	43502.98
277.692	40682.59
278.15	46044.16
278.609	47357.57
279.067	43854.47
279.525	40777.96
279.984	52753.3
280.442	63396.92
280.9	62424.98
281.358	41081.08
281.816	38292.89
282.274	37520.28
282.732	38821.16
283.19	39040.37
283.648	33734.22
284.106	35932.02
284.564	36569.68
285.021	33877.12
285.479	25253.47
285.937	22978.3
286.394	20151.59
286.852	20758.02
287.309	21833.61
287.767	21081.15
288.224	20051.16
288.682	22016.67
289.139	24146.55
289.596	22087.97
290.053	22981.95
290.511	29054.48
290.968	35307.29
291.425	48008.37
291.882	39950.75
292.339	34772.53
292.796	34560.02
293.252	32603.29
293.709	25888.48
294.166	23250.12
294.623	25724.22
295.079	24713.39
295.536	24809.82
295.992	22520.97
296.449	22265.27
296.905	23129.13
297.362	22160.51
297.818	23295.66
298.274	24157.82
298.731	24640.26
299.187	24407.46
299.643	26202.11
300.099	31691.54
300.555	34792.61
301.011	29093.59
301.467	28049.35
301.923	32902.87
302.379	32199.83
302.835	31648.78
303.291	31720.75
303.746	36133.61
304.202	45609.41
304.658	45861.23
305.113	30855.77
305.569	30241.71
306.024	32266.32
306.479	30777.69
306.935	25945.67
307.39	28324.79
307.845	26194.02
308.301	26339.99
308.756	25679.18
309.211	24767.07
309.666	25367.71
310.121	31480.35
310.576	31995.39
311.031	31758.15
311.486	36374.92
311.94	36370.71
312.395	48681.68
312.85	91447.62
313.305	449997.12
313.759	2325247.58
314.214	168407.72
314.668	133493.46
315.123	112333.81
315.577	40236.39
316.032	35771.6
316.486	44816.49
316.94	35325.39
317.394	24600.32
317.849	19135.79
318.303	18130.51
318.757	17133.47
319.211	18975.63
319.665	16625.7
320.119	16839.71
320.572	24179.76
321.026	22616.63
321.48	18823.42
321.934	20552.35
322.387	20616.57
322.841	22263.66
323.295	19960.89
323.748	23018.64
324.202	23335.23
324.655	28020.5
325.108	39113.74
325.562	27668.04
326.015	32877.15
326.468	24858.92
326.921	27821.81
327.374	25959.18
327.827	27068.72
328.28	30706.29
328.733	20586.41
329.186	18099.14
329.639	17272.27
330.092	14572.53
330.545	13858.69
330.997	13974.23
331.45	15280.86
331.903	17902.64
332.355	30843.25
332.808	29988.39
333.26	24767.85
333.713	26921.52
334.165	27164.9
334.617	36254.23
335.069	29347.99
335.522	53166.67
335.974	58903.59
336.426	53839.52
336.878	37307.41
337.33	18895.48
337.782	18448.71
338.234	23088.83
338.686	27583.8
339.137	32638.31
339.589	30791.75
340.041	24143.53
340.493	20734.8
340.944	21260.04
341.396	22907.02
341.847	19238.74
342.299	22689.45
342.75	27709.07
343.201	24228.2
343.653	27868.53
344.104	34292.36
344.555	26984.01
345.006	42036.75
345.457	32208.96
345.908	25616.64
346.359	24110.7
346.81	19679.78
347.261	20728.38
347.712	20412.9
348.163	21943.83
348.613	22243.99
349.064	20784.03
349.515	18197.99
349.965	18640.06
350.416	22432.27
350.866	24619.9
351.317	27834.92
351.767	46114.96
352.217	58351.86
352.668	48369.97
353.118	44226.64
353.568	42645.29
354.018	33698.34
354.468	35559.98
354.918	25500.01
355.368	22316.81
355.818	31472.03
356.268	90613.6
356.718	378588.38
357.168	94162.2
357.617	47310.67
358.067	52698.94
358.517	49322.35
358.966	57788.68
359.416	64642.11
359.865	69918.02
360.315	83304.48
360.764	38970.76
361.213	21808.36
361.663	20688.43
362.112	25577.78
362.561	41266.04
363.01	31093.27
363.459	26201.64
363.908	28403.33
364.357	24147.17
364.806	40807.85
365.255	28084.24
365.703	25676.27
366.152	25741.53
366.601	20859.08
367.05	16903.69
367.498	15374.31
367.947	16078.65
368.395	16703.84
368.844	14784.59
369.292	17841.13
369.74	12325.94
370.189	18867.28
370.637	22187.37
371.085	19154
371.533	23394.77
371.981	22613.25
372.429	21592.49
372.877	22513.76
373.325	18894.41
373.773	19303.48
374.221	17230.9
374.669	21449.34
375.116	18617.73
375.564	18812.88
376.012	21088.07
376.459	17402.63
376.907	20857.62
377.354	25255.95
377.801	23587.13
378.249	27160.42
378.696	34768.94
379.143	42209.54
379.591	45057.68
380.038	76403.02
380.485	55303.05
380.932	59896.27
381.379	54806.26
381.826	40354.13
382.273	28783.45
382.72	25279.15
383.166	24680.99
383.613	16048.74
384.06	14483
384.506	16767.26
384.953	12337.52
385.4	12439.08
385.846	10899.76
386.292	10667.31
386.739	10466.35
387.185	10355.68
387.631	10350.22
388.078	10037.81
388.524	10745.51
388.97	9929.65
389.416	8285.69
389.862	8795.97
390.308	8336.08
390.754	8459.8
391.2	9186.99
391.645	9406.11
392.091	8986.64
392.537	8688.36
392.983	8706.97
393.428	8547.75
393.874	9151.36
394.319	9169.75
394.765	8669.32
395.21	8893.96
395.655	8336.78
396.101	7785.33
396.546	7004.35
396.991	7054.05
397.436	6532.69
397.881	6304.92
398.326	5959
398.771	5623.21
399.216	4909.32
399.661	4420.38
400.106	4391.57
400.551	4480.86
400.995	4004.78
401.44	3955.18
401.885	3709.52
402.329	3735.98
402.774	3568.12
403.218	3441.85
403.663	3301.98
404.107	3381.09
404.551	3390.86
404.995	3099.33
405.44	2980.72
405.884	3019.19
406.328	2911.08
406.772	2890.01
407.216	2625.41
407.66	2533.69
408.104	2401
408.547	2245.55
408.991	2167.67
409.435	2082.39
409.879	2048.65
410.322	2012.19
410.766	1937.91
411.209	1835.4
411.653	1755.92
412.096	1716.8
412.54	1713.19
412.983	1699.39
413.426	1700.32
413.869	1695.72
414.312	1659.93
414.756	1595.96
415.199	1522.77
415.642	1476.18
416.085	1478
416.527	1467.97
416.97	1487.87
417.413	1409.22
417.856	1391.22
418.298	1372.8
418.741	1362.11
419.184	1357.7
419.626	1412.43
420.069	1408.26
420.511	1413.15
420.953	1380.3
421.396	1367.44
421.838	1330.44
422.28	1358.39
422.722	1362.83
423.164	1380.46
423.606	1355.75
424.048	1349.54
424.49	1282.09
424.932	1274.1
425.374	1253.99
425.816	1275.96
426.258	1295.15
426.699	1307.9
427.141	1286.9
427.582	1304.34
428.024	1296.25
428.465	1284.02
428.907	1250.7
429.348	1232.7
429.789	1228.43
430.231	1201.05
430.672	1212.99
431.113	1183.39
431.554	1165.07
431.995	1135.81
432.436	1092.89
432.877	1068.49
433.318	1049.21
433.759	1043.29
434.2	1044.13
434.64	1034.1
435.081	1035.77
435.522	980.57
435.962	944.97
436.403	924
436.843	935.01
437.284	915.86
437.724	889.24
438.164	893.91
438.604	874.7
439.045	840.48
439.485	805.92
439.925	787.86
440.365	767.82
440.805	755.7
441.245	744.14
441.685	714.64
442.125	707.8
442.564	712.24
443.004	693.53
443.444	691.13
443.883	688.02
444.323	679.48
444.762	680.48
445.202	685.32
445.641	697.26
446.081	691.47
446.52	695.74
446.959	686.03
447.398	665.73
447.837	656.18
448.276	642.84
448.716	648.24
449.154	652.35
449.593	635.58
450.032	634.56
450.471	619.66
450.91	617.53
451.349	614.85
451.787	611.58
452.226	619.71
452.664	617.59
453.103	616.58
453.541	613.61
453.98	612.09
454.418	614.61
454.856	603.49
455.295	602.2
455.733	607
456.171	608.97
456.609	610.56
457.047	611.09
457.485	620.29
457.923	622.63
458.361	614.52
458.798	616.48
459.236	615.55
459.674	618.67
460.111	621.96
460.549	616.43
460.987	615.93
461.424	613.15
461.862	609.89
462.299	600.21
462.736	597.32
463.173	599.66
463.611	594.39
464.048	592.05
464.485	597.59
464.922	591.95
465.359	588.02
465.796	579.98
466.233	575.74
466.67	569.89
467.106	568.2
467.543	563.9
467.98	557.35
468.416	542.52
468.853	539.02
469.29	522.99
469.726	516.36
470.162	503.31
470.599	495.46
471.035	489.93
471.471	479.41
471.907	476.02
472.344	472.06
472.78	472.85
473.216	477.53
473.652	471.22
474.088	468.81
474.523	467.27
474.959	471.51
475.395	467.11
475.831	463.98
476.266	464.43
476.702	462.86
477.138	457.2
477.573	454.43
478.008	452.53
478.444	453.39
478.879	456.81
479.314	458.32
479.75	456.67
480.185	457.9
480.62	461.8
481.055	463.09
481.49	466.21
481.925	472.8
482.36	480.34
482.795	492.69
483.229	505.12
483.664	515.25
484.099	516.44
484.534	523.68
484.968	528.11
485.403	528.1
485.837	527.21
486.271	525.95
486.706	526.07
487.14	519.91
487.574	511.4
488.009	506.71
488.443	502.15
488.877	507.22
489.311	507.66
489.745	513.31
490.179	518.15
490.613	528.24
491.046	531.32
491.48	533.8
491.914	533.63
492.348	536.8
492.781	538.58
493.215	539.34
493.648	539.17
494.082	542.66
494.515	543.13
494.948	548.21
495.382	550.93
495.815	554.21
496.248	558.72
496.681	567.84
497.114	575.68
497.547	583.62
497.98	593.4
498.413	598.58
498.846	606.17
499.279	611.35
499.711	614.6
500.144	615.63
500.577	623.32
501.009	630.6
501.442	638.96
501.874	639.99
502.306	641.51
502.739	647.78
503.171	659.29
503.603	662.14
504.036	669.82
504.468	675.11
504.9	685.24
505.332	691.44
505.764	696.75
506.196	701.97
506.627	714.63
507.059	726.88
507.491	734.44
507.923	733.71
508.354	747.74
508.786	757.99
509.217	774.07
509.649	787.34
510.08	804.85
510.512	819.99
510.943	834.94
511.374	847.19
511.805	865.51
512.237	883.86
512.668	912.3
513.099	936.65
513.53	961.62
513.961	980.9
514.391	1009.47
514.822	1039.06
515.253	1072.48
515.684	1097.4
516.114	1124.45
516.545	1146.23
516.975	1171.47
517.406	1191.58
517.836	1197.79
518.267	1207.13
518.697	1226.52
519.127	1235.56
519.558	1246
519.988	1252.13
520.418	1264.89
520.848	1284.87
521.278	1296.37
521.708	1317.46
522.138	1332.61
522.567	1363.75
522.997	1390.25
523.427	1408.02
523.857	1426.41
524.286	1439.09
524.716	1456.88
525.145	1477.08
525.575	1489.88
526.004	1505.08
526.433	1500.55
526.863	1502.85
527.292	1497.04
527.721	1504.18
528.15	1511.22
528.579	1514.4
529.008	1527.29
529.437	1549.81
529.866	1563.71
530.295	1581.79
530.724	1595.43
531.152	1622.74
531.581	1637.71
532.01	1655.56
532.438	1665.27
532.867	1680.98
533.295	1698.57
533.723	1705.3
534.152	1704.01
534.58	1705.54
535.008	1691.88
535.436	1694.17
535.865	1703.33
536.293	1717.86
536.721	1732.87
537.149	1758.67
537.576	1761.97
538.004	1775.12
538.432	1782.96
538.86	1783.45
539.287	1791.58
539.715	1803.97
540.143	1808.09
540.57	1805.77
540.998	1803.49
541.425	1783.55
541.852	1763.26
542.28	1762.27
542.707	1746.46
543.134	1733.76
543.561	1729.24
543.988	1720.69
544.415	1721.47
544.842	1717.09
545.269	1708.2
545.696	1709.57
546.123	1720.37
546.549	1709.9
546.976	1696.8
547.403	1696.16
547.829	1698.22
548.256	1700.63
548.682	1698.17
549.108	1690.82
549.535	1689.24
549.961	1691.68
550.387	1679.04
550.813	1673.13
551.24	1679.14
551.666	1680.1
552.092	1671.02
552.518	1663.73
552.943	1656.69
553.369	1661.84
553.795	1665.91
554.221	1665.12
554.646	1660.31
555.072	1668.83
555.498	1672.35
555.923	1679.9
556.349	1692.78
556.774	1699.44
557.199	1700.26
557.625	1704.22
558.05	1698.72
558.475	1706
558.9	1704.05
559.325	1694.93
559.75	1685.34
560.175	1676.97
560.6	1668.06
561.025	1662.35
561.449	1660.61
561.874	1661.76
562.299	1661.86
562.723	1665.16
563.148	1654.08
563.572	1654.52
563.997	1661.32
564.421	1664.96
564.846	1662.35
565.27	1663.51
565.694	1659.89
566.118	1666.98
566.542	1670.54
566.966	1663.06
567.39	1655.58
567.814	1642.59
568.238	1639.59
568.662	1641.25
569.086	1640
569.509	1644.18
569.933	1626.1
570.357	1616.1
570.78	1594.59
571.204	1580.88
571.627	1567.25
572.05	1561.77
572.474	1557.59
572.897	1543.79
573.32	1533.48
573.743	1521.94
574.166	1502.97
574.589	1500.84
575.012	1491.14
575.435	1487.18
575.858	1476.44
576.281	1465.01
576.704	1449.05
577.126	1435.6
577.549	1422.79
577.972	1411.06
578.394	1399.67
578.817	1392.47
579.239	1373.46
579.661	1358.9
580.084	1343.64
580.506	1328.24
580.928	1321.46
581.35	1309.76
581.772	1303.85
582.194	1291.03
582.616	1279.51
583.038	1264.59
583.46	1252.22
583.882	1249.06
584.303	1250.92
584.725	1245.34
585.147	1246.69
585.568	1254.87
585.99	1263.5
586.411	1268.44
586.833	1277.97
587.254	1277.4
587.675	1288.5
588.096	1297.1
588.518	1290.66
588.939	1276.14
589.36	1274.09
589.781	1263.52
590.202	1240.36
590.623	1231.62
591.043	1227.78
591.464	1216.85
591.885	1213.28
592.305	1207.5
592.726	1195.52
593.147	1194.92
593.567	1190.2
593.987	1182.3
594.408	1177.35
594.828	1173.6
595.248	1168.61
595.669	1154.26
596.089	1148.15
596.509	1140.84
596.929	1128.71
597.349	1128.52
597.769	1119.96
598.189	1114.6
598.608	1116.32
599.028	1117.71
599.448	1117.43
599.867	1106.39
600.287	1101.52
600.706	1097.7
601.126	1090.2
601.545	1088.84
601.965	1087.58
602.384	1082.93
602.803	1083.62
603.222	1077.77
603.641	1071.54
604.061	1067.44
604.48	1063.84
604.898	1068.93
605.317	1071.71
605.736	1071.94
606.155	1069.75
606.574	1060.75
606.992	1063.18
607.411	1057.84
607.829	1049.98
608.248	1045.83
608.666	1042.47
609.085	1041.21
609.503	1032.5
609.921	1025.93
610.339	1026.29
610.758	1023.32
611.176	1018.3
611.594	1010.44
612.012	1005.97
612.43	1007.53
612.847	1010.52
613.265	1010.15
613.683	1010.96
614.101	1011.7
614.518	1007.94
614.936	998.71
615.353	986.67
615.771	983.43
616.188	981.72
616.606	978.11
617.023	971.74
617.44	960.57
617.857	954.05
618.274	946.56
618.691	941.03
619.108	932.67
619.525	927.58
619.942	931.7
620.359	933.36
620.776	929.81
621.192	926.95
621.609	924.68
622.026	929.47
622.442	933.02
622.859	935.53
623.275	929.37
623.691	932.77
624.108	940.98
624.524	951.16
624.94	950.08
625.356	956.73
625.772	966.07
626.188	973.94
626.604	974.64
627.02	972.06
627.436	969.15
627.852	974.45
628.268	984.25
628.683	975.69
629.099	968.39
629.514	964.97
629.93	966.47
630.345	969.12
630.761	966.5
631.176	968.9
631.591	964.23
632.007	959.5
632.422	957.27
632.837	947.48
633.252	946.51
633.667	938.75
634.082	930.26
634.497	920.63
634.911	905.6
635.326	900.71
635.741	886.59
636.155	878.38
636.57	878.8
636.984	877.62
637.399	877.76
637.813	875.63
638.228	873
638.642	874.01
639.056	865.15
639.47	864.01
639.884	858.4
640.298	852.47
640.712	849.71
641.126	838.63
641.54	830.84
641.954	826.04
642.368	816.91
642.781	812.08
643.195	800.33
643.609	799.76
644.022	794.72
644.436	790.23
644.849	781.13
645.262	772.26
645.676	773.37
646.089	769.46
646.502	759.5
646.915	755.69
647.328	742.42
647.741	740.7
648.154	731.33
648.567	729.06
648.98	719.14
649.393	719.86
649.805	717.94
650.218	712.93
650.631	702.11
651.043	696.75
651.456	692.58
651.868	692.87
652.28	704.67
652.693	713.47
653.105	717.91
653.517	725.62
653.929	725.01
654.341	728.25
654.753	719.18
655.165	722.83
655.577	720.39
655.989	716.98
656.401	710.56
656.813	685.76
657.224	672.9
657.636	652.99
658.047	640.18
658.459	626.7
658.87	621.16
659.282	614.4
659.693	602.11
660.104	593.66
660.515	584.31
660.926	583.46
661.338	582.94
661.749	579.08
662.159	574.54
662.57	572.77
662.981	571.87
663.392	567.33
663.803	570.93
664.213	570.06
664.624	567.41
665.035	571.42
665.445	564.37
665.855	560.81
666.266	557.07
666.676	556.28
667.086	550.68
667.497	551.43
667.907	548.61
668.317	543.61
668.727	543.17
669.137	545.45
669.547	545.29
669.956	547.68
670.366	549.07
670.776	551.71
671.186	555.94
671.595	560.75
672.005	564.3
672.414	565.76
672.824	565.82
673.233	569.4
673.642	572.41
674.052	575.18
674.461	579.16
674.87	584.47
675.279	583.18
675.688	584.73
676.097	586.18
676.506	584.58
676.915	595.12
677.323	598.69
677.732	597.88
678.141	597.64
678.549	589.95
678.958	588.35
679.366	587.04
679.775	591.16
680.183	600.41
680.592	604.25
681	607.51
681.408	602.93
681.816	607.29
682.224	611.89
682.632	618.27
683.04	638.98
683.448	654.63
683.856	675.34
684.264	699.04
684.671	717.58
685.079	743.18
685.487	771.49
685.894	810.78
686.302	841.81
686.709	867.77
687.116	899.09
687.524	923.27
687.931	945.18
688.338	963.89
688.745	977.56
689.152	996.98
689.559	1026.49
689.966	1055.03
690.373	1069.67
690.78	1098.87
691.187	1145.33
691.593	1182.11
692	1215.5
692.407	1266.3
692.813	1326.09
693.22	1378.58
693.626	1432.16
694.032	1476.13
694.439	1543.35
694.845	1598.88
695.251	1667.95
695.657	1731.55
696.063	1821.11
696.469	1894.74
696.875	1964.27
697.281	2011.5
697.687	2066.9
698.093	2116.49
698.498	2197.81
698.904	2265.04
699.31	2357.27
699.715	2429.6
700.12	2526.87
700.526	2561.38
700.931	2640.07
701.337	2704.35
701.742	2753.92
702.147	2846.24
702.552	2893.57
702.957	2966.42
703.362	3004.96
703.767	3050.61
704.172	3104.77
704.577	3079.44
704.981	3142.03
705.386	3175.43
705.791	3185.45
706.195	3274.64
706.6	3299.52
707.004	3391.81
707.408	3377.67
707.813	3420.01
708.217	3424.81
708.621	3446.63
709.025	3560.76
709.43	3578.51
709.834	3656.09
710.237	3743.12
710.641	3744.67
711.045	3784.81
711.449	3797.31
711.853	3843.97
712.256	3901.92
712.66	3957.92
713.064	4050.28
713.467	4107.94
713.87	4240.39
714.274	4303.39
714.677	4432.14
715.08	4616.16
715.484	4807.81
715.887	5035.75
716.29	5263.4
716.693	5500.73
717.096	5773.57
717.499	5927.74
717.901	5973.06
718.304	6018.06
718.707	6058.41
719.109	5965.45
719.512	5947.04
719.915	5815.58
720.317	5771.2
720.719	5831.98
721.122	5811.57
721.524	5767.53
721.926	5736.38
722.328	5858.16
722.731	5860.63
723.133	5905.91
723.535	6129.44
723.937	6160.32
724.338	6228.34
724.74	6282.24
725.142	6206.07
725.544	6215.12
725.945	6252.42
726.347	6260.23
726.748	6259.92
727.15	6283.81
727.551	6248.36
727.952	6225.95
728.354	6203.5
728.755	6216.61
729.156	6178.79
729.557	6189.32
729.958	6058.74
730.359	6005.01
730.76	5989.08
731.161	5927.38
731.562	5904.77
731.962	5917.29
732.363	5851.13
732.763	5785.44
733.164	5828.55
733.564	5755.15
733.965	5649.7
734.365	5616.51
734.766	5653.37
735.166	5612.92
735.566	5555.92
735.966	5531.01
736.366	5527.26
736.766	5458.2
737.166	5497.66
737.566	5454.41
737.966	5428.48
738.365	5478.86
738.765	5473.74
739.165	5391.76
739.564	5364.6
739.964	5420.08
740.363	5368.71
740.763	5368
741.162	5360.88
741.561	5328.35
741.96	5277.85
742.36	5302.98
742.759	5310.03
743.158	5360.32
743.557	5380.49
743.955	5427.67
744.354	5376.11
744.753	5446.61
745.152	5401.85
745.55	5465.12
745.949	5459.72
746.348	5462.7
746.746	5482.66
747.144	5436.09
747.543	5408.76
747.941	5466.16
748.339	5385.33
748.737	5378.11
749.136	5366.23
749.534	5441.71
749.932	5409.24
750.33	5435.31
750.727	5501.37
751.125	5476.33
751.523	5459.82
751.921	5507.37
752.318	5466.11
752.716	5534.19
753.113	5550.29
753.511	5580.98
753.908	5580.02
754.305	5561.85
754.703	5632.7
755.1	5701.66
755.497	5768.26
755.894	5990.81
756.291	6198.92
756.688	6580.27
757.085	7090.62
757.482	7801.09
757.878	8575.19
758.275	9281.32
758.672	10249.76
759.068	11042.43
759.465	12170.64
759.861	13630.16
760.258	15307.01
760.654	16177.45
761.05	16052.59
761.447	15316.42
761.843	14260.87
762.239	13173
762.635	12679.49
763.031	12204.85
763.427	11518.21
763.822	10804.6
764.218	10098.1
764.614	9180.01
765.01	8566.36
765.405	8167.3
765.801	7865.2
766.196	7478.71
766.592	7265.29
766.987	6903.09
767.382	6656.51
767.778	6555.6
768.173	6404.64
768.568	6316.63
768.963	6172.17
769.358	6194.97
769.753	6141.12
770.148	6042.76
770.542	6043.72
770.937	6006.21
771.332	6109.6
771.726	6135.62
772.121	6061.76
772.515	6123.28
772.91	6109.78
773.304	6190.88
773.699	6114.41
774.093	6176.47
774.487	6245.27
774.881	6297.4
775.275	6294.03
775.669	6247.7
776.063	6298.02
776.457	6338.85
776.851	6252.47
777.245	6245.14
777.638	6286.77
778.032	6418.53
778.425	6375.98
778.819	6420.6
779.212	6368.4
779.606	6323.89
779.999	6345.92
780.392	6324.43
780.786	6423.21
781.179	6445.85
781.572	6490.21
781.965	6502.28
782.358	6434.06
782.751	6500.74
783.143	6448.2
783.536	6532.12
783.929	6580.33
784.322	6711.53
784.714	6749.13
785.107	6739.28
785.499	6822.28
785.891	6797.9
786.284	6776.22
786.676	6940.56
787.068	6913.65
787.46	6969.59
787.852	6996.3
788.245	7092.56
788.636	7128.61
789.028	7203.89
789.42	7251.47
789.812	7262.32
790.204	7373.61
790.595	7486.83
790.987	7262.26
791.378	7289.37
791.77	7440.76
792.161	7597.94
792.553	7663.78
792.944	7531.09
793.335	7453.11
793.726	7535.55
794.117	7635.21
794.508	7796.14
794.899	7762.97
795.29	7923.44
795.681	7993.14
796.072	7828.74
796.463	7604.64
796.853	7614.89
797.244	7795.57
797.634	7833.35
798.025	7830.07
798.415	7848.48
798.806	7949.9
799.196	8045.24
799.586	8101.83
799.976	8052.32
800.366	8317.07
800.756	8597.73
801.146	8553.2
801.536	8589.36
801.926	8672.45
802.316	8703.83
802.706	8784.46
803.095	8638
803.485	8755.37
803.874	8802.62
804.264	9103.75
804.653	9068.97
805.043	9229.01
805.432	9351.56
805.821	9351.48
806.21	9377.13
806.599	9513.49
806.988	9564.41
807.377	9692.44
807.766	9837.92
808.155	10161.58
808.544	9859.59
808.933	9875.38
809.321	9854.82
809.71	10190.1
810.098	10367.56
810.487	10896.38
810.875	11441.17
811.264	11466.2
811.652	11782.26
812.04	11945.81
812.428	12126.36
812.816	12995.22
813.204	13472.97
813.592	14106.16
813.98	14491.17
814.368	14380.25
814.756	14918.84
815.144	14825.17
815.531	15354.96
815.919	15272.97
816.306	15630.05
816.694	15285.37
817.081	15339.77
817.469	15727.41
817.856	15723.55
818.243	16027.64
818.63	16474.38
819.017	15992.95
819.404	16069.93
819.791	16505.46
820.178	17212.78
820.565	17490.59
820.952	18547.15
821.339	17978.92
821.725	18189.75
822.112	17337.08
822.498	17297.17
822.885	17447.83
823.271	17342.77
823.657	17816.46
824.044	17818.17
824.43	17899.4
824.816	17861.12
825.202	17365
825.588	18534.19
825.974	18555.11
826.36	19143.31
826.746	19173.1
827.132	19576.99
827.517	19541.61
827.903	18649.51
828.289	18699.19
828.674	17815.19
829.06	17707.99
829.445	18162.65
829.83	18568.26
830.216	19112.28
830.601	19535.88
830.986	19076.41
831.371	18925.42
831.756	19571.06
832.141	19073.6
832.526	19058.54
832.911	19388.8
833.295	19247.92
833.68	19785.26
834.065	19089.42
834.449	18049.39
834.834	17964.78
835.218	17961.82
835.603	18346.76
835.987	18108.21
836.371	19061.26
836.755	18954.42
837.139	19411.02
837.524	19696.43
837.908	19498.22
838.291	19558.19
838.675	19645.96
839.059	19888.7
839.443	19878.01
839.827	19624.85
840.21	20173.81
840.594	20008.17
840.977	20239.84
841.361	20216.81
841.744	20645.16
842.127	20465.52
842.511	20753.18
842.894	21434.89
843.277	21874.78
843.66	22504.1
844.043	22603.58
844.426	21689.02
844.809	21344.68
845.191	21386.82
845.574	20860.81
845.957	20441.57
846.339	20312.36
846.722	19711.26
847.104	19786.69
847.487	19587.88
847.869	19601.39
848.252	19919.6
848.634	20301.41
849.016	20597.26
849.398	20733.74
849.78	21713.61
850.162	21725.62
850.544	22205.76
850.926	22929.96
851.307	22830.16
851.689	23141.05
852.071	23647.86
852.452	24014.31
852.834	23983.83
853.215	24435.84
853.597	24613.55
853.978	24936.24
854.359	25441.34
854.741	24310.96
855.122	24191.22
855.503	23862.17
855.884	24025.55
856.265	23952.15
856.646	24085.21
857.026	23632.63
857.407	23559.73
857.788	23736.96
858.169	24071.2
858.549	23108.48
858.93	23819.89
859.31	23874.69
859.69	24109.25
860.071	23641.18
860.451	23403.91
860.831	22557.59
861.211	23881.05
861.591	24502.52
861.971	24474.46
862.351	24695.02
862.731	25129.77
863.111	25427.69
863.491	25801.53
863.87	26802.66
864.25	27200.97
864.629	26737.72
865.009	27316.95
865.388	28291.71
865.768	30322.35
866.147	30200.92
866.526	28514.84
866.905	28862.02
867.284	30471.64
867.663	28940.72
868.042	27736.1
868.421	27642.28
868.8	28101.99
869.179	28378.28
869.558	26726.98
869.936	24637.61
870.315	25080.21
870.693	25692.54
871.072	27712
871.45	26419.47
871.828	26753.83
872.207	28136.82
872.585	27727.78
872.963	28494.73
873.341	27517.19
873.719	27189.5
874.097	26865.31
874.475	27378.85
874.853	28016.68
875.23	26841.68
875.608	27947.24
875.986	30240.28
876.363	28910.65
876.741	29780.45
877.118	29034.1
877.495	30454.65
877.873	30954.77
878.25	32578.55
878.627	31265
879.004	31703.59
879.381	31562.59
879.758	30740.43
880.135	28611.28
880.512	30264.06
880.889	29455.75
881.265	29133.83
881.642	28906.68
882.019	29396.72
882.395	28787.41
882.772	29906.8
883.148	28600.78
883.524	28496.85
883.901	28333.57
884.277	28760.51
884.653	28570.82
885.029	29394.05
885.405	32561.68
885.781	32294.49
886.157	30964.21
886.532	31337.66
886.908	31332.55
887.284	34853.08
887.659	35960.71
888.035	37063.45
888.411	38010.9
888.786	38508.44
889.161	39866.08
889.537	39139.33
889.912	40404.53
890.287	40374.81
890.662	41422.24
891.037	40672.32
891.412	37925.46
891.787	37554.2
892.162	36249.96
892.536	37099.27
892.911	35719.2
893.286	34945.25
893.66	33533.94
894.035	34383.38
894.409	37455.82
894.784	35944.76
895.158	36538.87
895.532	38705.61
895.906	39777.45
896.281	40715.12
896.655	40067.95
897.029	45778.35
897.402	47681.3
897.776	53065.74
898.15	52889.9
898.524	52289.11
898.898	52996.37
899.271	59335.19
899.645	51392.82
900.018	49336.87
900.392	51189.87
900.765	51600.28
901.138	47762.39
901.511	47062.09
901.884	43204.83
902.258	39854.56
902.631	41187.01
903.003	47397.37
903.376	42766.55
903.749	47932.17
904.122	51345.87
904.495	56516.41
904.867	57235.96
905.24	49681.28
905.612	46221.62
905.985	47282.95
906.357	49433.92
906.729	47205.96
907.102	40311.84
907.474	38769.63
907.846	39008.93
908.218	38478.31
908.59	33987.67
908.962	32855.54
909.334	35367.46
909.705	37153.01
910.077	36073.32
910.449	37546.14
910.82	38576.67
911.192	42456.65
911.563	44111.22
911.935	47231.82
912.306	47296.96
912.677	48849.83
913.048	48368.21
913.419	52475.19
913.79	52762.97
914.161	56541.05
914.532	54019.43
914.903	49641
915.274	47133.57
915.645	46450.18
916.015	40872.97
916.386	38963.6
916.756	41459.27
917.127	42776.91
917.497	38207.94
917.868	41586.78
918.238	39533.59
918.608	40671.25
918.978	41498.02
919.348	43946.6
919.718	45407.3
920.088	43730.87
920.458	45418.83
920.828	47797.18
921.198	45295.24
921.567	48398.4
921.937	37490.22
922.306	37834.91
922.676	40790.76
923.045	34021.16
923.415	32311.56
923.784	29424.38
924.153	30259.84
924.522	30230.02
924.891	28415.29
925.26	30445.71
925.629	29738.91
925.998	34173.28
926.367	33356.2
926.736	31769.45
927.104	37853.38
927.473	40712.94
927.842	49139.21
928.21	48645.41
928.578	51158.8
928.947	48377.62
929.315	48670.13
929.683	57047.71
930.051	57506.45
930.42	66743.98
930.788	57059.57
931.156	56623.69
931.523	53038.76
931.891	49014.61
932.259	47077.31
932.627	54504.46
932.994	77147.14
933.362	63763.45
933.729	55369.25
934.097	53008.03
934.464	44876.74
934.831	51805.92
935.199	51077.37
935.566	49537.07
935.933	50273.93
936.3	60899.09
936.667	47467.92
937.034	42756.89
937.401	42251.49
937.767	36460.48
938.134	32475.66
938.501	45794.72
938.867	48740.19
939.234	82428.44
939.6	70420.23
939.967	77485.48
940.333	51852.44
940.699	44139.15
941.065	35478.71
941.431	46571.7
941.798	44902.31
942.163	58946.06
942.529	36847.58
942.895	33956.88
943.261	21956.26
943.627	28800.83
943.992	25188.19
944.358	25260.68
944.723	25331.45
945.089	24697.9
945.454	22819.57
945.82	24389.81
946.185	23408.97
946.55	27132.84
946.915	24347.59
947.28	28570.73
947.645	25160.17
948.01	23223.52
948.375	24208.75
948.74	29033.89
949.104	33866.52
949.469	48919.09
949.834	86425.3
950.198	81952.75
950.562	49091.31
950.927	40878.94
951.291	49213.2
951.655	41924.92
952.02	39417.65
952.384	29795.63
952.748	25924.06
953.112	25262.27
953.476	21959.92
953.839	20290.81
954.203	20085.35
954.567	25110.43
954.931	39588.89
955.294	33837.54
955.658	33998.39
956.021	57792.36
956.385	97976.59
956.748	144472.3
957.111	224206.56
957.474	251783.08
957.837	283774.73
958.2	214820.97
958.563	77325.54
958.926	52209.3
959.289	79207.37
959.652	88544.36
960.015	66413.24
960.377	95346.4
960.74	108983.32
961.102	187999.99
961.465	201757.69
961.827	107876.8
962.189	206999.59
962.552	143449.55
962.914	115126.59
963.276	74737.16
963.638	61757.31
964	61210.69
964.362	41361.21
964.724	39977.11
965.085	28526
965.447	23409.19
965.809	26730.86
966.17	26787.15
966.532	29008.99
966.893	26590.65
967.255	24216.54
967.616	28598.01
967.977	22879.51
968.338	25017.33
968.699	20561.98
969.061	20556.66
969.421	20682.07
969.782	23194.89
970.143	19546.07
970.504	20227.76
970.865	23005.13
971.225	23466.63
971.586	22956.85
971.946	32732.75
972.307	28410.34
972.667	37134.65
973.027	38251.11
973.388	46375.22
973.748	31571.51
974.108	34439.13
974.468	46608.23
974.828	35909.62
975.188	27672.23
975.548	25429.87
975.907	21354.47
976.267	23925.39
976.627	20096.28
976.986	20832.98
977.346	19870.43
977.705	19106.63
978.064	17400.9
978.424	14481.42
978.783	14987.35
979.142	17110.27
979.501	16360
979.86	17272.67
980.219	16666.81
980.578	21491.69
980.937	24068.71
981.296	21451.87
981.654	22068.25
982.013	34314.92
982.371	44567.1
982.73	41646.21
983.088	47096.92
983.447	50321.81
983.805	72005.79
984.163	150286.26
984.521	166721.35
984.879	244511.05
985.237	-397762.83
985.595	383530.58
985.953	95363.37
986.311	55003.95
986.669	31927.9
987.026	27593.72
987.384	37050.38
987.741	38285.46
988.099	27331.76
988.456	21799.9
988.814	20392.93
989.171	17730.76
989.528	17491.43
989.885	18483.64
990.242	14635.61
990.599	18208.52
990.956	14895.66
991.313	10415.15
991.67	8551.17
992.027	9050.69
992.383	8038.46
992.74	7043.59
993.096	7359.96
993.453	7624.33
993.809	7894.55
994.165	10522.76
994.522	9626.63
994.878	10593.39
995.234	13301.14
995.59	13122.78
995.946	12446.6
996.302	14187.77
996.658	16422.05
997.013	18136.9
997.369	21493.27
997.725	27506.69
998.08	17800.53
998.436	27538.56
998.791	38041.86
999.147	38030.76
999.502	41423.64
999.857	30120.48
1000.212	49144.88
1000.567	70037.35
1000.922	40436.22
1001.277	25672.38
1001.632	19072.57
1001.987	24618.12
1002.342	17629.77
1002.696	14094.59
1003.051	11230.34
1003.406	13614.62
1003.76	13572.88
1004.114	13383.99
1004.469	11238.4
1004.823	9289.8
1005.177	10054.81
1005.531	7964.59
1005.885	7045.33
1006.239	7943.81
1006.593	9952.28
1006.947	13330.65
1007.301	10028.61
1007.655	10920.86
1008.008	7992.48
1008.362	8987.87
1008.715	12853.62
1009.069	11674.27
1009.422	17518.57
1009.776	35179.85
1010.129	23414.31
1010.482	19587.88
1010.835	16524.98
1011.188	34303.45
1011.541	32213.24
1011.894	-197134.08
1012.247	578936.04
1012.6	39347.94
1012.952	24766.62
1013.305	12826.55
1013.657	9228.92
1014.01	8742.15
1014.362	7210.39
1014.715	6397.52
1015.067	5566.5
1015.419	5454.13
1015.771	4842.48
1016.123	4314.96
1016.475	4434.67
1016.827	4729.59
1017.179	5068.06
1017.531	5114.56
1017.883	5217.34
1018.234	5020.52
1018.586	6341.55
1018.938	6696.41
1019.289	9216.47
1019.64	10567.84
1019.992	9818.12
1020.343	8971.18
1020.694	7070.8
1021.045	6244.72
1021.396	7119.69
1021.747	7617.01
1022.098	9151.21
1022.449	6646.63
1022.8	6168.32
1023.151	4306.97
1023.501	3804.21
1023.852	4161.62
1024.202	4312.26
1024.553	4759.63
1024.903	4644.14
1025.253	3985.16
1025.604	3602.82
1025.954	4475.52
1026.304	5459.53
1026.654	6400.27
1027.004	9385.48
1027.354	15210.03
1027.703	14152.91
1028.053	18673.87
1028.403	26896.92
1028.753	38883.2
1029.102	52822.09
1029.452	270674.15
1029.801	11690.44
1030.15	7551.67
1030.499	6374.29
897.758	2110.67
901.051	2040.22
904.343	2074.06
907.636	2082.58
910.928	2143.28
914.22	2065.58
917.511	2069.34
920.803	2116.35
924.094	2111.01
927.384	2118.79
930.675	2082.66
933.965	2046.13
937.255	2080.47
940.544	2050.9
943.834	2043.94
947.123	1986.55
950.411	2072.16
953.7	2054.88
956.988	2041.01
960.276	1979.27
963.563	2024.64
966.851	2034.34
970.138	2074.74
973.424	2077.3
976.711	2030.21
979.997	2080.59
983.283	2120.95
986.568	2056.24
989.853	2045.65
993.138	2072.29
996.423	2158.4
999.708	2117.77
1002.992	2149.29
1006.275	2069.33
1009.559	2073.16
1012.842	2169.23
1016.125	2125.25
1019.408	2108.72
1022.69	2160.35
1025.972	2196.3
1029.254	2171.88
1032.536	2137.32
1035.817	2147.42
1039.098	2117.13
1042.379	2161.21
1045.659	2188.22
1048.939	2140.56
1052.219	2145.74
1055.498	2136.61
1058.778	2136.45
1062.057	2110.89
1065.335	2135.37
1068.614	2145.46
1071.892	2144.98
1075.17	2197.82
1078.447	2200.98
1081.724	2195.98
1085.001	2221.08
1088.278	2200.44
1091.554	2205.45
1094.83	2198.3
1098.106	2236.7
1101.382	2264.34
1104.657	2265.34
1107.932	2263.32
1111.206	2240.1
1114.481	2196.56
1117.755	2196.35
1121.029	2191.06
1124.302	2253.28
1127.575	2220.57
1130.848	2220.06
1134.121	2187.92
1137.393	2153.72
1140.665	2208.74
1143.937	2189.58
1147.208	2138.49
1150.48	2197.52
1153.75	2187.48
1157.021	2182.55
1160.291	2160.82
1163.561	2215.23
1166.831	2180.32
1170.101	2209.17
1173.37	2165.45
1176.639	2125.2
1179.907	2166.72
1183.176	2190.59
1186.444	2192.29
1189.711	2214.35
1192.979	2242.88
1196.246	2198.41
1199.513	2211.74
1202.78	2217.53
1206.046	2225.28
1209.312	2254.14
1212.578	2271.79
1215.843	2241.17
1219.108	2206.1
1222.373	2228.27
1225.638	2204.13
1228.902	2196.63
1232.166	2151.08
1235.43	2138.94
1238.693	2166.12
1241.956	2154.88
1245.219	2206.56
1248.482	2186.56
1251.744	2185.21
1255.006	2302.91
1258.268	2250.05
1261.529	2207.24
1264.79	2206.3
1268.051	2304.82
1271.312	2313.03
1274.572	2284.95
1277.832	2275.59
1281.092	2252.82
1284.351	2246.28
1287.61	2230.49
1290.869	2171.12
1294.128	2171.2
1297.386	2212.75
1300.644	2208.08
1303.902	2215.77
1307.159	2086.81
1310.416	2136.18
1313.673	2164.72
1316.93	2163.36
1320.186	2193.13
1323.442	2225.81
1326.697	2228.47
1329.953	2197.45
1333.208	2236.83
1336.463	2206.17
1339.717	2170.6
1342.972	2272.08
1346.226	2242.53
1349.479	2193.5
1352.733	2176.19
1355.986	2178.75
1359.238	2158.92
1362.491	2163.55
1365.743	2164.09
1368.995	2153.31
1372.247	2165.75
1375.498	2185.37
1378.749	2229.42
1382	2179.78
1385.251	2214.43
1388.501	2163.42
1391.751	2166.78
1395	2131.52
1398.25	2157.25
1401.499	2181.92
1404.748	2135.86
1407.996	2111.61
1411.244	2100.93
1414.492	2087.67
1417.74	2072.43
1420.987	2073.82
1424.234	2135.71
1427.481	2094.49
1430.728	2151.91
1433.974	2125.04
1437.22	2122.59
1440.465	2116.39
1443.711	2120.22
1446.956	2141.38
1450.201	2109.92
1453.445	2151.78
1456.689	2143.69
1459.933	2151.32
1463.177	2194.04
1466.42	2168.56
1469.663	2153.52
1472.906	2169.69
1476.148	2218.78
1479.391	2185.38
1482.633	2163.03
1485.874	2192.8
1489.115	2200.97
1492.356	2180.94
1495.597	2162.85
1498.838	2156.04
1502.078	2142.01
1505.318	2117.12
1508.557	2150.1
1511.797	2146.78
1515.036	2198.81
1518.274	2166.68
1521.513	2115.79
1524.751	2127.09
1527.989	2154.74
1531.227	2174.03
1534.464	2189.37
1537.701	2181.78
1540.938	2194.14
1544.174	2140.74
1547.41	2131.79
1550.646	2167.11
1553.882	2220.12
1557.117	2279.16
1560.352	2285.76
1563.587	2249.89
1566.821	2218.5
1570.055	2231.58
1573.289	2214.06
1576.523	2268.75
1579.756	2285.9
1582.989	2307.61
1586.222	2271.01
1589.454	2297.52
1592.686	2281.75
1595.918	2310.28
1599.15	2309.82
1602.381	2351.71
1605.612	2336.26
1608.843	2428.41
1612.073	2350.93
1615.303	2341.37
1618.533	2339.92
1621.762	2335.91
1624.992	2310.45
1628.221	2316.69
1631.449	2304.91
1634.678	2326.18
1637.906	2293.63
1641.134	2319.4
1644.361	2287.06
1647.588	2277.38
1650.815	2298.52
1654.042	2258.74
1657.269	2289.01
1660.495	2271.05
1663.72	2251.05
1666.946	2220.85
1670.171	2199.51
1673.396	2170.86
1676.621	2154.2
1679.845	2147.99
1683.069	2155.56
1686.293	2183.04
1689.517	2178.61
1692.74	2130.31
1695.963	2151.55
1699.185	2196.09
1702.408	2169.37
1705.63	2196.25
1708.852	2219.38
1712.073	2187.83
1715.294	2201.74
1718.515	2239.84
1721.736	2201.59
1724.956	2177.44
1728.176	2199.25
1731.396	2219.82
1734.616	2204.23
1737.835	2241.07
1741.054	2210.88
1744.272	2202.12
1747.491	2242.43
1750.709	2260.23
1753.927	2215.33
1757.144	2237.85
1760.361	2298.52
1763.578	2270.38
1766.795	2221.28
1770.011	2208.76
1773.227	2231.57
1776.443	2272.76
1779.658	2314.65
1782.874	2253.28
1786.089	2250.29
1789.303	2252.19
1792.518	2248.08
1795.732	2232.27
1798.945	2250.17
1802.159	2289.17
1805.372	2236.46
1808.585	2232.02
1811.797	2233.99
1815.01	2247.64
1818.222	2274.01
1821.434	2227.61
1824.645	2267.83
1827.856	2280.29
1831.067	2312.31
1834.278	2246.86
1837.488	2231.57
1840.698	2348.38
1843.908	2292.83
1847.117	2259.85
1850.326	2195.08
1853.535	2251.16
1856.744	2289.07
1859.952	2214.23
1863.16	2214.5
1866.368	2224.67
1869.575	2338.1
1872.782	2217.45
1875.989	2152.65
1879.196	2195.23
1882.402	2186.74
1885.608	2215.28
1888.814	2158.82
1892.019	2068.96
1895.224	2117.17
1898.429	2079.79
1901.634	2063.56
1904.838	2037.53
1908.042	2095.01
1911.246	2106.19
1914.449	2072.75
1917.652	2053.3
1920.855	2034.91
1924.058	2054.96
1927.26	2100.34
1930.462	2122.79
1933.664	2163.47
1936.865	2107.32
1940.066	2126.29
1943.267	2071.07
1946.467	2080.64
1949.668	2096.12
1952.868	2166.22
1956.067	2157.47
1959.267	2100.4
1962.466	2122.78
1965.665	2104.19
1968.863	2098.93
1972.061	2102.01
1975.259	2090.93
1978.457	2166.79
1981.654	2126.99
1984.852	2132.04
1988.048	2086.28
1991.245	2075.83
1994.441	2164.35
1997.637	2120.25
2000.833	2101.59
2004.028	2136.23
2007.223	2198.28
2010.418	2190.44
2013.613	2139.91
2016.807	2138.16
2020.001	2131.5
2023.194	2152.51
2026.388	2136.46
2029.581	2081.71
2032.774	2145.96
2035.966	2158.42
2039.158	2106.2
2042.35	2123.4
2045.542	2051.51
2048.733	2127.59
2051.924	2115.75
2055.115	2132.19
2058.306	2098.1
2061.496	2153.51
2064.686	2200.85
2067.875	2106.9
2071.065	2106.71
2074.254	2123.83
2077.442	2079.76
2080.631	2156.84
2083.819	2096.64
2087.007	2092.13
2090.195	2076.19
2093.382	2091.84
2096.569	2075.14
2099.756	2037.67
2102.942	2088.4
2106.128	2104.61
2109.314	2092.21
2112.5	2081.29
2115.685	2050.2
2118.87	2056.61
2122.055	2115.12
2125.239	2097.54
2128.424	2084.53
2131.608	2138.63
2134.791	2125.14
2137.974	2159.54
2141.157	2148.46
2144.34	2124.11
2147.523	2110.61
2150.705	2138.48
2153.887	2104.92
2157.068	2080.16
2160.25	2059.86
2163.431	2082.24
2166.611	2054.4
2169.792	2076.07
2172.972	1990.89
2176.152	2035.66
2179.331	2062.81
2182.511	2068.13
2185.69	2088.29
2188.868	2094.55
2192.047	2126.97
2195.225	2145.67
2198.403	2093.72
2201.58	2080.82
2204.758	2064.64
2207.935	2135.93
2211.111	2060.03
2214.288	2047.44
2217.464	2081.3
2220.64	2035.1
2223.815	2084.06
2226.991	2017.18
2230.166	2030.65
2233.34	2076.65
2236.515	2087.44
2239.689	2150.87
2242.863	2104.43
2246.036	2153.9
2249.209	2134.74
2252.382	2151.45
2255.555	2164.48
2258.727	2117.88
2261.9	2143.81
2265.071	2136.73
2268.243	2130.98
2271.414	2084.87
2274.585	2069.68
2277.756	2127.91
2280.926	2085.12
2284.096	2114.13
2287.266	2046.23
2290.436	2089.01
2293.605	2106.91
2296.774	2146.34
2299.942	2150.85
2303.111	2165.79
2306.279	2215.63
2309.447	2201.63
2312.614	2170.6
2315.781	2196.04
2318.948	2173.72
2322.115	2211.98
2325.281	2113.41
2328.447	2117.99
2331.613	2089.8
2334.779	2082.25
2337.944	2076.62
2341.109	2078.07
2344.274	2067.11
2347.438	2037.78
2350.602	2056.65
2353.766	2063.87
2356.929	2052.92
2360.092	2091.96
2363.255	2065.44
2366.418	2034.92
2369.58	2094.1
2372.742	1985.38
2375.904	1974.92
2379.066	1962.65
2382.227	1983.95
2385.388	1949.36
2388.548	1905.94
2391.709	1945.71
2394.869	1934.64
2398.029	1982.73
2401.188	1976.44
2404.347	1944.94
2407.506	2013.05
2410.665	2054.27
2413.823	2037.64
2416.981	2021.75
2420.139	2034.4
2423.296	2071.3
2426.453	2044.9
2429.61	2065.83
2432.767	2042.06
2435.923	2083.22
2439.079	2025.15
2442.235	2057.5
2445.391	2000.64
2448.546	2042.84
2451.701	2073.64
2454.855	2073.61
2458.009	2099.07
2461.163	2084.88
2464.317	2058.64
2467.471	2083.17
2470.624	2109.36
2473.777	2105.23
2476.929	2120.92
2480.082	2143.86
2483.234	2119.87
2486.385	2060.54
2489.537	2054.22
2492.688	2047.99
2495.839	2065.56
2498.989	2081.35
2502.14	2067.53
2505.29	2060.54
2508.439	2082.89
2511.589	2025.82
2514.738	2026.78
2517.887	2046.96
2521.035	2124.64
2524.183	2081.11
2527.331	2069.44
2530.479	2065.76
2533.627	2064.98
