Data from C_1_DEC_CT_2N_Splice17_11-46-28-440.txt Node
Date: Sat Mar 14 11:46:28 EDT 2020
User: sa697716
Spectrometer: FLMS03696
Trigger mode: 0
Integration Time (sec): 3.180400E-1
Scans to average: 20
Electric dark correction enabled: true
Nonlinearity correction enabled: true
Boxcar width: 5
XAxis mode: Wavelengths
Number of Pixels in Spectrum: 2048
>>>>>Begin Spectral Data<<<<<
187.83	-295533.64
188.298	2176.49
188.766	1128.81
189.233	1027.74
189.701	1470.19
190.169	1977.15
190.636	721.87
191.104	572.59
191.571	79.52
192.039	-11.27
192.506	-28.07
192.974	457.05
193.441	-661.38
193.908	-156.32
194.375	-61.44
194.842	45.07
195.31	40.71
195.777	115.73
196.244	219.02
196.711	130.8
197.177	116.07
197.644	75.41
198.111	128.79
198.578	141.22
199.045	94.49
199.511	101.74
199.978	27.71
200.445	44.33
200.911	23.54
201.378	-34.81
201.844	10.72
202.31	-24.56
202.777	-5.45
203.243	-12.02
203.709	-4.38
204.176	-17.87
204.642	0.98
205.108	26.37
205.574	29.04
206.04	0.83
206.506	13.73
206.972	-18.58
207.438	-18.98
207.903	-9.86
208.369	24.27
208.835	47.43
209.301	56.57
209.766	47.16
210.232	36.95
210.697	41.64
211.163	40.99
211.628	17.16
212.094	60.35
212.559	203.56
213.024	123.97
213.49	158.19
213.955	118.34
214.42	71.85
214.885	86.5
215.35	111.1
215.815	180.26
216.28	185.72
216.745	143.46
217.21	175.36
217.675	106.39
218.14	107.61
218.604	83.91
219.069	105.55
219.534	157.8
219.998	145.16
220.463	153.36
220.927	66.79
221.392	70.63
221.856	90.69
222.32	32.2
222.785	53.92
223.249	70.76
223.713	66.44
224.177	43.7
224.642	-41.5
225.106	-65.54
225.57	-122.33
226.034	3.85
226.497	-11.02
226.961	28.33
227.425	67.32
227.889	10.47
228.353	23.22
228.816	-12.05
229.28	58.67
229.744	37.73
230.207	115.87
230.671	140
231.134	52.06
231.597	105.04
232.061	49.37
232.524	1.88
232.987	42.14
233.45	53.07
233.914	89.49
234.377	21.97
234.84	16.39
235.303	-58.1
235.766	-67.08
236.229	-69.77
236.691	-50.72
237.154	-87.62
237.617	-48.09
238.08	-68.51
238.542	-97.09
239.005	-68.5
239.468	-46.75
239.93	-39.55
240.393	-11.32
240.855	-8.6
241.317	-19.56
241.78	-52.46
242.242	-44.7
242.704	-9.62
243.166	2.04
243.629	25.51
244.091	28.18
244.553	39.13
245.015	69.78
245.477	67.17
245.939	34.67
246.4	68.11
246.862	74.45
247.324	53.02
247.786	24.55
248.247	-40.54
248.709	-171.16
249.17	-109.58
249.632	-44.27
250.093	-37.64
250.555	-37.44
251.016	36.08
251.477	37.2
251.939	57.57
252.4	69.75
252.861	48.24
253.322	94.72
253.783	108.85
254.244	110.53
254.705	20.78
255.166	-29.02
255.627	-37.63
256.088	-64.44
256.549	-74.6
257.009	-74.4
257.47	-144.06
257.931	-149.9
258.391	-115.35
258.852	-111.46
259.312	-121.89
259.773	-157.39
260.233	-75.47
260.694	-26.83
261.154	-26.95
261.614	43.96
262.074	40.59
262.534	79.89
262.994	98.2
263.455	110.33
263.915	113.38
264.374	103.07
264.834	125.59
265.294	110.13
265.754	120.43
266.214	106.1
266.673	73.82
267.133	65.28
267.593	28.91
268.052	49.31
268.512	40.82
268.971	96.22
269.431	111.63
269.89	82.28
270.349	164.63
270.809	182.86
271.268	171.27
271.727	275.76
272.186	198.4
272.645	165.81
273.104	65.23
273.563	48.17
274.022	-59.86
274.481	-30.03
274.94	-17.53
275.399	-36.55
275.857	-77.67
276.316	-126.49
276.775	-126.02
277.233	-101.23
277.692	-55.21
278.15	-32.15
278.609	37.9
279.067	44.62
279.525	54.82
279.984	26.57
280.442	31.55
280.9	147.36
281.358	99
281.816	99.31
282.274	75.57
282.732	20.6
283.19	17.08
283.648	-8.54
284.106	-23.91
284.564	-30.06
285.021	17.86
285.479	12.69
285.937	-38.77
286.394	-5.73
286.852	-9.79
287.309	-11.25
287.767	34.15
288.224	37.97
288.682	35.24
289.139	53.5
289.596	43.48
290.053	27.56
290.511	12.63
290.968	48.39
291.425	-25.67
291.882	43.84
292.339	58.67
292.796	28.88
293.252	25.92
293.709	66.61
294.166	66.22
294.623	78.63
295.079	66.97
295.536	104.2
295.992	97.21
296.449	119.84
296.905	137.87
297.362	160.14
297.818	148.7
298.274	167.07
298.731	131.01
299.187	116.63
299.643	106.2
300.099	155.99
300.555	143.67
301.011	113.89
301.467	170.41
301.923	117.57
302.379	99.88
302.835	121.52
303.291	128.88
303.746	165.78
304.202	222.59
304.658	241.34
305.113	148.34
305.569	148.41
306.024	143.92
306.479	51.52
306.935	85.7
307.39	55.08
307.845	45.08
308.301	38.03
308.756	17.04
309.211	22.5
309.666	6.98
310.121	60.58
310.576	29.15
311.031	24.08
311.486	-20.24
311.94	-83.67
312.395	-112.34
312.85	-282.2
313.305	-2366.72
313.759	-8708.42
314.214	-698.44
314.668	-390.32
315.123	-362.92
315.577	-73.06
316.032	-66.25
316.486	-48.98
316.94	13.01
317.394	32.59
317.849	42.87
318.303	44.7
318.757	43.18
319.211	38.64
319.665	28.06
320.119	25.51
320.572	10.62
321.026	34.29
321.48	33.32
321.934	7.51
322.387	-5.86
322.841	20.05
323.295	76.43
323.748	39.84
324.202	56.47
324.655	73.27
325.108	158.59
325.562	147.46
326.015	114.26
326.468	89.47
326.921	120.55
327.374	150.72
327.827	150.82
328.28	137.74
328.733	127.45
329.186	125.44
329.639	116.64
330.092	76.85
330.545	66.06
330.997	102.27
331.45	127.4
331.903	165.1
332.355	207.4
332.808	154.57
333.26	127.91
333.713	130.22
334.165	110.17
334.617	129.1
335.069	29.84
335.522	-26.64
335.974	-115.78
336.426	-159.26
336.878	-215.05
337.33	-89.1
337.782	-78.94
338.234	-74.01
338.686	-135.25
339.137	-192.97
339.589	-195.39
340.041	-95.39
340.493	-69.05
340.944	-82.8
341.396	-56.15
341.847	11.6
342.299	67.8
342.75	121.85
343.201	59.68
343.653	88.88
344.104	127.49
344.555	80.47
345.006	24.26
345.457	130.31
345.908	92.25
346.359	104.84
346.81	77.83
347.261	41.53
347.712	4.46
348.163	16.56
348.613	64.45
349.064	36.85
349.515	58.1
349.965	109.26
350.416	95.64
350.866	102.26
351.317	23.43
351.767	17.81
352.217	-17.88
352.668	-20.07
353.118	-40.35
353.568	-149.39
354.018	-50.44
354.468	-29.77
354.918	-34.34
355.368	-58.52
355.818	-69.44
356.268	-171.08
356.718	-280.24
357.168	40.78
357.617	30.19
358.067	-75.21
358.517	-71.92
358.966	-49.83
359.416	7.83
359.865	-70.72
360.315	-88.79
360.764	-25.23
361.213	14.48
361.663	-24.91
362.112	-76.69
362.561	-149.34
363.01	-61.43
363.459	-26.51
363.908	-75.84
364.357	-46.61
364.806	-130.42
365.255	-87.56
365.703	-45.54
366.152	-44.3
366.601	-24.49
367.05	24.27
367.498	38.07
367.947	18.39
368.395	-3.13
368.844	26.79
369.292	-23.89
369.74	4.49
370.189	-23.81
370.637	-28.89
371.085	-45.74
371.533	-91.66
371.981	-140.19
372.429	-94.8
372.877	-95.09
373.325	-53.53
373.773	-84.57
374.221	-81
374.669	-85.3
375.116	-69.18
375.564	-95.54
376.012	-112.16
376.459	-49.81
376.907	-45.75
377.354	-96.41
377.801	-54.61
378.249	-42.47
378.696	-84.71
379.143	-93.12
379.591	-194.07
380.038	-267.78
380.485	-106.97
380.932	-147.86
381.379	-63.51
381.826	62.4
382.273	33.25
382.72	9.53
383.166	14.02
383.613	30.97
384.06	41.4
384.506	50.85
384.953	20.18
385.4	6.03
385.846	10.95
386.292	-15.42
386.739	-46.91
387.185	-67.28
387.631	-72.73
388.078	-51.87
388.524	-69.69
388.97	-62.54
389.416	-35.16
389.862	-25.69
390.308	-22.37
390.754	-16.55
391.2	-21.39
391.645	-24.27
392.091	29.31
392.537	40.98
392.983	9.51
393.428	46.34
393.874	38.09
394.319	51.89
394.765	70.76
395.21	63.15
395.655	64.69
396.101	60.37
396.546	68.43
396.991	40.65
397.436	28.46
397.881	25.77
398.326	4.74
398.771	15.75
399.216	0.37
399.661	-5.64
400.106	0.43
400.551	3.01
400.995	9.1
401.44	7.42
401.885	8.63
402.329	12.99
402.774	22.22
403.218	33.2
403.663	28.82
404.107	36.11
404.551	38.79
404.995	33.18
405.44	29.26
405.884	24.48
406.328	15.6
406.772	13.63
407.216	12.63
407.66	5.59
408.104	-4.29
408.547	-4.42
408.991	-5.5
409.435	-8.88
409.879	-3.81
410.322	-5.59
410.766	-3.39
411.209	3.06
411.653	3.81
412.096	8.15
412.54	9.03
412.983	11.38
413.426	15.05
413.869	11.71
414.312	16.05
414.756	13.29
415.199	13.3
415.642	16.02
416.085	14.34
416.527	10.92
416.97	6.91
417.413	7.32
417.856	3.95
418.298	1.59
418.741	0.19
419.184	-3.97
419.626	-10.05
420.069	-9.94
420.511	-10.09
420.953	-6.8
421.396	-2.44
421.838	-2.9
422.28	-1.7
422.722	2.02
423.164	-1.22
423.606	0.69
424.048	2.4
424.49	5.87
424.932	4.61
425.374	2.24
425.816	-0.53
426.258	-4.91
426.699	-4.43
427.141	-0.65
427.582	-4.17
428.024	-4.59
428.465	-5.5
428.907	-7.25
429.348	-5.96
429.789	-1.45
430.231	3.37
430.672	5.01
431.113	9.41
431.554	9.23
431.995	5.88
432.436	8.75
432.877	11.54
433.318	15.02
433.759	15.6
434.2	14.23
434.64	10.97
435.081	9.53
435.522	8.65
435.962	7.03
436.403	8.75
436.843	6.56
437.284	4.94
437.724	3.17
438.164	-1.98
438.604	-2.15
439.045	0.08
439.485	4.63
439.925	2.18
440.365	1.01
440.805	1.43
441.245	2.08
441.685	3.08
442.125	2.59
442.564	1.57
443.004	3.2
443.444	2.03
443.883	2.29
444.323	-1.59
444.762	-5.44
445.202	-6.23
445.641	-5.35
446.081	-8.39
446.52	-7.36
446.959	-5.5
447.398	-3.73
447.837	-2.33
448.276	-1.81
448.716	-0.93
449.154	-3.1
449.593	0.85
450.032	2.25
450.471	-0.56
450.91	-0.1
451.349	0.47
451.787	-1.31
452.226	-1.75
452.664	-2.82
453.103	-3.51
453.541	-6.59
453.98	-3.32
454.418	-4.31
454.856	-3.59
455.295	-3.64
455.733	-2.88
456.171	-3.44
456.609	-1.77
457.047	-0.51
457.485	0.27
457.923	2.31
458.361	2.95
458.798	2.34
459.236	3.27
459.674	1.1
460.111	1.42
460.549	1.53
460.987	-0.25
461.424	-1.74
461.862	-2.5
462.299	-1.45
462.736	-1.52
463.173	-1.2
463.611	2.49
464.048	3.42
464.485	6.05
464.922	6.66
465.359	6.05
465.796	16.41
466.233	18.23
466.67	20.86
467.106	21.05
467.543	19.59
467.98	18.64
468.416	15.43
468.853	13.13
469.29	11.57
469.726	11.03
470.162	11.21
470.599	2.9
471.035	0.36
471.471	-1.13
471.907	-2.9
472.344	-2.52
472.78	-1.75
473.216	-2.69
473.652	-1.85
474.088	-2.53
474.523	-2.16
474.959	-3.41
475.395	-3.6
475.831	-2.65
476.266	-3.31
476.702	-3.85
477.138	-2.96
477.573	-3.18
478.008	-2.72
478.444	-2.03
478.879	-0.47
479.314	0.41
479.75	1.7
480.185	2.2
480.62	2.3
481.055	2.49
481.49	3.3
481.925	3.05
482.36	5.05
482.795	4.35
483.229	3.16
483.664	2.65
484.099	2.19
484.534	2.31
484.968	2.42
485.403	1.8
485.837	1.01
486.271	0.85
486.706	0.57
487.14	-1.25
487.574	-0.8
488.009	-0.64
488.443	-0.67
488.877	0.09
489.311	-0.55
489.745	-0.23
490.179	0.46
490.613	2.56
491.046	2.64
491.48	2.87
491.914	3.11
492.348	2.64
492.781	2.62
493.215	2.22
493.648	1.18
494.082	0.91
494.515	0.55
494.948	1.39
495.382	-0.27
495.815	-0.05
496.248	0.38
496.681	0.23
497.114	0.18
497.547	0.93
497.98	2.6
498.413	3.86
498.846	4.3
499.279	4.04
499.711	2.08
500.144	2.18
500.577	2.68
501.009	1.7
501.442	2.95
501.874	4.03
502.306	3.23
502.739	4.86
503.171	4.42
503.603	4.39
504.036	4.04
504.468	5.07
504.9	5.17
505.332	4.61
505.764	5.43
506.196	4.64
506.627	4.04
507.059	4.29
507.491	0.75
507.923	0.9
508.354	1.56
508.786	1.98
509.217	1.73
509.649	1.51
510.08	1.03
510.512	1.15
510.943	1.44
511.374	1.67
511.805	1.63
512.237	1.89
512.668	0.49
513.099	-0.65
513.53	-0.35
513.961	0.21
514.391	0.41
514.822	2.67
515.253	3.66
515.684	3.14
516.114	3.3
516.545	3.71
516.975	3.58
517.406	3.91
517.836	3.7
518.267	3.49
518.697	4.28
519.127	4.61
519.558	2.8
519.988	0.8
520.418	0.21
520.848	-1.11
521.278	-1.78
521.708	22.31
522.138	23.31
522.567	22.76
522.997	22.53
523.427	21.32
523.857	20.91
524.286	21.15
524.716	22.02
525.145	22.81
525.575	24.25
526.004	23.89
526.433	0.21
526.863	-0.96
527.292	0.39
527.721	1.17
528.15	1.13
528.579	1.51
529.008	1.55
529.437	0.11
529.866	-0.32
530.295	-1.4
530.724	-0.04
531.152	0.35
531.581	1.61
532.01	1.33
532.438	0.23
532.867	-0.06
533.295	-0.2
533.723	-0.47
534.152	0.69
534.58	1.08
535.008	1.7
535.436	2.86
535.865	2.44
536.293	1.58
536.721	1.18
537.149	2.13
537.576	2.88
538.004	3.26
538.432	3.04
538.86	3.21
539.287	2.71
539.715	2.78
540.143	0.33
540.57	0.89
540.998	0.78
541.425	2.71
541.852	1.81
542.28	1.2
542.707	0.88
543.134	0.92
543.561	1.24
543.988	1.61
544.415	0.71
544.842	0.9
545.269	0.87
545.696	1.45
546.123	0.5
546.549	1.01
546.976	1.46
547.403	1.7
547.829	1.28
548.256	0.68
548.682	0.66
549.108	2.54
549.535	2.29
549.961	1.79
550.387	1.44
550.813	2.55
551.24	2.57
551.666	2.15
552.092	1.67
552.518	1.8
552.943	2.35
553.369	2.09
553.795	1.07
554.221	2.17
554.646	2.02
555.072	3.28
555.498	1.63
555.923	0.84
556.349	0.85
556.774	0.73
557.199	0.95
557.625	-0.41
558.05	-0.11
558.475	-0.43
558.9	-0.35
559.325	1.56
559.75	1.07
560.175	0.5
560.6	0.92
561.025	0.59
561.449	0.91
561.874	0.41
562.299	1.78
562.723	1.52
563.148	1.98
563.572	1.11
563.997	-0.13
564.421	-1.18
564.846	-1.16
565.27	-1.18
565.694	-0.94
566.118	-1.37
566.542	-0.47
566.966	-0.65
567.39	-0.29
567.814	-0.22
568.238	0.14
568.662	-0.54
569.086	-0.3
569.509	-0.5
569.933	0.69
570.357	0.68
570.78	0.72
571.204	1.88
571.627	1.58
572.05	1.39
572.474	2.25
572.897	2.2
573.32	3.39
573.743	3.08
574.166	4.26
574.589	2.94
575.012	2.86
575.435	2.35
575.858	1.34
576.281	1.79
576.704	1.12
577.126	-0.83
577.549	-1.46
577.972	-2.73
578.394	-1.98
578.817	-0.13
579.239	0.08
579.661	0.96
580.084	2.87
580.506	3.12
580.928	2.19
581.35	2.61
581.772	3.75
582.194	4.44
582.616	4.2
583.038	2.8
583.46	0.82
583.882	1.05
584.303	-0.51
584.725	-2.06
585.147	2.13
585.568	2.9
585.99	3.4
586.411	3.65
586.833	3.77
587.254	4.59
587.675	5.19
588.096	5.33
588.518	5.23
588.939	6.04
589.36	6.64
589.781	0.79
590.202	3.5
590.623	2.72
591.043	1.6
591.464	1.53
591.885	1.77
592.305	1.93
592.726	1.38
593.147	1.52
593.567	1.47
593.987	1.48
594.408	1.78
594.828	-1.03
595.248	0.38
595.669	1.49
596.089	0.87
596.509	0.34
596.929	0.09
597.349	0.49
597.769	0.49
598.189	0.5
598.608	0.32
599.028	0.53
599.448	-0.43
599.867	-1.76
600.287	-2.51
600.706	-1.2
601.126	-0.67
601.545	0.15
601.965	0.25
602.384	-0.3
602.803	-0.43
603.222	-0.38
603.641	-0.94
604.061	0.36
604.48	0.75
604.898	1.16
605.317	0.35
605.736	0.18
606.155	0.54
606.574	0.02
606.992	0.23
607.411	0.75
607.829	0.17
608.248	0.19
608.666	-0.23
609.085	0.06
609.503	-0.25
609.921	0.61
610.339	0.72
610.758	-0.33
611.176	-0.12
611.594	0.8
612.012	1.11
612.43	2.38
612.847	2.63
613.265	3.54
613.683	3.25
614.101	3.12
614.518	2.06
614.936	1.91
615.353	2.78
615.771	2.85
616.188	2.33
616.606	1.51
617.023	1.13
617.44	1.15
617.857	-0.29
618.274	-0.47
618.691	0.53
619.108	1.03
619.525	1.21
619.942	1.37
620.359	1.37
620.776	1.06
621.192	1.96
621.609	2.24
622.026	2.38
622.442	3.06
622.859	2.71
623.275	2.05
623.691	1.35
624.108	1.43
624.524	0.61
624.94	1.16
625.356	0.87
625.772	-0.07
626.188	-1.07
626.604	-0.94
627.02	-1.42
627.436	-0.49
627.852	0.75
628.268	1.47
628.683	0.58
629.099	0.37
629.514	-0.15
629.93	0.4
630.345	0.8
630.761	0.72
631.176	1.01
631.591	2.75
632.007	2.61
632.422	0.65
632.837	-0
633.252	1.27
633.667	1.58
634.082	1.41
634.497	1.82
634.911	3.79
635.326	4.1
635.741	3.9
636.155	2.84
636.57	3.69
636.984	4.47
637.399	6.34
637.813	5.02
638.228	4.67
638.642	4.64
639.056	3.94
639.47	2.23
639.884	2.6
640.298	2.65
640.712	2.79
641.126	2.57
641.54	2.11
641.954	-1
642.368	-0.04
642.781	3.12
643.195	3.43
643.609	4.75
644.022	4.63
644.436	3.9
644.849	3.57
645.262	3.45
645.676	2.41
646.089	2.38
646.502	4.31
646.915	3.51
647.328	1.77
647.741	1.87
648.154	1.13
648.567	3.45
648.98	4.01
649.393	4.18
649.805	4.6
650.218	4.12
650.631	4.78
651.043	5.82
651.456	6.61
651.868	6.02
652.28	4.82
652.693	4.37
653.105	1.91
653.517	2.43
653.929	2.76
654.341	2.12
654.753	3.09
655.165	2.22
655.577	1.05
655.989	0.74
656.401	-0.64
656.813	1.3
657.224	1.14
657.636	0.96
658.047	1.63
658.459	1.25
658.87	0.78
659.282	1.16
659.693	2.89
660.104	3.26
660.515	3.01
660.926	2.73
661.338	2.07
661.749	1.79
662.159	3.31
662.57	1.54
662.981	1.82
663.392	1.87
663.803	1.71
664.213	0.46
664.624	-0.63
665.035	-1.19
665.445	-0.58
665.855	0.37
666.266	1.45
666.676	0.42
667.086	0.92
667.497	1.4
667.907	1.69
668.317	0.53
668.727	3.82
669.137	3.92
669.547	4.69
669.956	4.15
670.366	3.78
670.776	3.92
671.186	3.49
671.595	3.66
672.005	2.36
672.414	3.59
672.824	4.83
673.233	1.13
673.642	0.75
674.052	0.67
674.461	1.91
674.87	1.49
675.279	2.37
675.688	0.74
676.097	2.19
676.506	2.67
676.915	0.65
677.323	0.24
677.732	0.68
678.141	1.46
678.549	0.96
678.958	-0.44
679.366	-1.24
679.775	-3.33
680.183	0.23
680.592	-1.54
681	-1.15
681.408	-0.66
681.816	-0.45
682.224	-0.7
682.632	1.12
683.04	1.64
683.448	2.44
683.856	3.62
684.264	4.19
684.671	1.51
685.079	1.03
685.487	0.6
685.894	-0.48
686.302	-2.44
686.709	-2.14
687.116	-3.94
687.524	-2.69
687.931	-1.87
688.338	-1.59
688.745	-2.01
689.152	-1.53
689.559	-0.35
689.966	1.3
690.373	3.54
690.78	5.8
691.187	6.25
691.593	7.03
692	6.04
692.407	6.41
692.813	9.02
693.22	10
693.626	8.97
694.032	9.36
694.439	8.8
694.845	7.86
695.251	7.19
695.657	6.78
696.063	5.22
696.469	4.94
696.875	4.51
697.281	0.86
697.687	0.25
698.093	0.73
698.498	0.41
698.904	-0.34
699.31	-0.52
699.715	2.06
700.12	2.44
700.526	3.19
700.931	2.5
701.337	3.49
701.742	5.13
702.147	4.43
702.552	5.17
702.957	3.87
703.362	3.12
703.767	2.67
704.172	0.23
704.577	-0.86
704.981	-2.38
705.386	-1.34
705.791	-1.73
706.195	-3.47
706.6	-2.92
707.004	-5.78
707.408	-5.84
707.813	-3.98
708.217	-2.33
708.621	-2.3
709.025	-2.33
709.43	-0.02
709.834	-0.66
710.237	-1.1
710.641	-0.24
711.045	0.5
711.449	3.65
711.853	7.15
712.256	6.35
712.66	5.24
713.064	4.73
713.467	5.64
713.87	5.4
714.274	6.63
714.677	7.39
715.08	7.98
715.484	8.54
715.887	10.97
716.29	7.6
716.693	8.54
717.096	8.96
717.499	9.6
717.901	9.48
718.304	8.83
718.707	7.45
719.109	6.96
719.512	4.78
719.915	6.96
720.317	5.11
720.719	5.75
721.122	4.64
721.524	5.33
721.926	10.34
722.328	10.69
722.731	10.13
723.133	9.28
723.535	7.9
723.937	8.86
724.338	8.64
724.74	8.56
725.142	64.9
725.544	69.92
725.945	83.65
726.347	79.36
726.748	79.81
727.15	81.38
727.551	86.68
727.952	85.78
728.354	84.56
728.755	83.38
729.156	81.84
729.557	26.02
729.958	20.76
730.359	7.39
730.76	6.1
731.161	4.44
731.562	2.65
731.962	-1.63
732.363	-0.34
732.763	0.33
733.164	-2.03
733.564	-1.31
733.965	0.15
734.365	0.55
734.766	0.73
735.166	1.56
735.566	2.99
735.966	3.45
736.366	4.14
736.766	3.72
737.166	2.71
737.566	4.12
737.966	4.08
738.365	4.22
738.765	5.42
739.165	4.87
739.564	3.96
739.964	2.62
740.363	1.89
740.763	0.18
741.162	2.45
741.561	2.16
741.96	1.36
742.36	0.78
742.759	0.42
743.158	-2
743.557	-2.29
743.955	-2.21
744.354	-2.21
744.753	-3.26
745.152	-1.57
745.55	-4.32
745.949	-3.35
746.348	-2.53
746.746	-3.43
747.144	0.45
747.543	0.85
747.941	0.03
748.339	0.41
748.737	2.66
749.136	4.29
749.534	1.99
749.932	4.23
750.33	4.03
750.727	3.05
751.125	4.14
751.523	0.93
751.921	5.16
752.318	5.69
752.716	7.06
753.113	5.77
753.511	5.51
753.908	7.32
754.305	10.87
754.703	11.18
755.1	12.11
755.497	12.44
755.894	11.68
756.291	7.97
756.688	8.84
757.085	7.62
757.482	8.45
757.878	11.22
758.275	14.51
758.672	6.48
759.068	6.28
759.465	3.42
759.861	0.83
760.258	0.91
760.654	0.68
761.05	2.88
761.447	3.38
761.843	2.79
762.239	0.77
762.635	-4.01
763.031	-5.7
763.427	-6.06
763.822	-4.21
764.218	-3.95
764.614	-3.47
765.01	-4.57
765.405	-7.02
765.801	-6.48
766.196	-7.33
766.592	-8.54
766.987	-7.93
767.382	-6.59
767.778	-6.52
768.173	-6.61
768.568	-6.31
768.963	-4.64
769.358	-2.56
769.753	-0.09
770.148	0.01
770.542	0.26
770.937	0.16
771.332	0.71
771.726	0.28
772.121	3.53
772.515	3.99
772.91	4
773.304	3.04
773.699	1.69
774.093	0.59
774.487	0.13
774.881	-0.07
775.275	0.75
775.669	-0.43
776.063	-1.05
776.457	-2.33
776.851	-1.15
777.245	0.22
777.638	-0.31
778.032	-0.57
778.425	-0.01
778.819	4.47
779.212	8.69
779.606	10.63
779.999	11.05
780.392	13.43
780.786	11.54
781.179	10.29
781.572	10.89
781.965	11.98
782.358	12.35
782.751	11.23
783.143	7.17
783.536	4.51
783.929	2.38
784.322	2.99
784.714	1.4
785.107	3.31
785.499	6.12
785.891	7.22
786.284	7.44
786.676	6.17
787.068	9.59
787.46	10.29
787.852	9.2
788.245	8.44
788.636	5.7
789.028	7.43
789.42	8.03
789.812	6.38
790.204	4.78
790.595	6.37
790.987	8.67
791.378	6.3
791.77	4.02
792.161	2.08
792.553	3.77
792.944	6.16
793.335	3.86
793.726	3.03
794.117	3.9
794.508	0.3
794.899	-2.77
795.29	-4.44
795.681	-4.98
796.072	-3.54
796.463	21
796.853	24.28
797.244	24.74
797.634	27.23
798.025	25.84
798.415	22.97
798.806	27.39
799.196	28.75
799.586	31.5
799.976	34.33
800.366	34.73
800.756	8.69
801.146	5.53
801.536	4.69
801.926	3.21
802.316	4.97
802.706	5.36
803.095	5.06
803.485	5.38
803.874	2.65
804.264	-0.33
804.653	-0.43
805.043	3.38
805.432	6.97
805.821	10.06
806.21	10.91
806.599	8
806.988	9.71
807.377	7.79
807.766	5.6
808.155	5.16
808.544	5.21
808.933	4.66
809.321	7.55
809.71	-0.56
810.098	-2.58
810.487	-6.63
810.875	-5.74
811.264	-4.62
811.652	7.98
812.04	11.29
812.428	16.47
812.816	13.73
813.204	18.22
813.592	9.39
813.98	14.11
814.368	19.47
814.756	23.43
815.144	24.82
815.531	29.25
815.919	15.57
816.306	12.63
816.694	9.43
817.081	14.64
817.469	15.97
817.856	14.24
818.243	13.09
818.63	8.52
819.017	9.67
819.404	9
819.791	2.68
820.178	-1.05
820.565	1.93
820.952	10.82
821.339	14.49
821.725	12.38
822.112	19.93
822.498	20.09
822.885	17.96
823.271	16.46
823.657	15.04
824.044	16.23
824.43	18.41
824.816	29.08
825.202	24.63
825.588	19.79
825.974	20.11
826.36	17.21
826.746	16.39
827.132	17.93
827.517	23.73
827.903	24.68
828.289	29.6
828.674	29.38
829.06	19.84
829.445	14.54
829.83	13.26
830.216	13.3
830.601	17.05
830.986	25.8
831.371	26.21
831.756	25.88
832.141	35.49
832.526	31.33
832.911	31.33
833.295	30.08
833.68	30.26
834.065	33.35
834.449	32.46
834.834	33.22
835.218	31.73
835.603	34.81
835.987	30.67
836.371	25.08
836.755	27.12
837.139	24.51
837.524	22.98
837.908	20.31
838.291	22.58
838.675	20.25
839.059	18.37
839.443	12.77
839.827	7.32
840.21	3.98
840.594	4.44
840.977	2.05
841.361	5.93
841.744	3.82
842.127	6.77
842.511	1.51
842.894	-1.21
843.277	-3.17
843.66	-4.65
844.043	0.17
844.426	7.45
844.809	2.22
845.191	6.35
845.574	5.44
845.957	5.56
846.339	8.99
846.722	12.35
847.104	11.64
847.487	9.27
847.869	14.29
848.252	11.25
848.634	9.94
849.016	9.61
849.398	4
849.78	3
850.162	8.21
850.544	5.79
850.926	1.13
851.307	0.5
851.689	4.38
852.071	-5.41
852.452	-3.37
852.834	-5.74
853.215	1.7
853.597	2.68
853.978	8.17
854.359	9.04
854.741	14.66
855.122	15.97
855.503	16.72
855.884	16.59
856.265	20.34
856.646	13.08
857.026	15.01
857.407	14.89
857.788	15.86
858.169	5.35
858.549	12.79
858.93	9.08
859.31	13.4
859.69	20.11
860.071	18
860.451	21.48
860.831	26.19
861.211	19.82
861.591	15.67
861.971	13.61
862.351	16.05
862.731	3.19
863.111	4.22
863.491	4.01
863.87	1.95
864.25	2.13
864.629	8.03
865.009	2.72
865.388	12.38
865.768	8.59
866.147	14.56
866.526	14.22
866.905	19.74
867.284	12.42
867.663	5.95
868.042	7.03
868.421	7.8
868.8	-5.94
869.179	1.77
869.558	-4.28
869.936	0.22
870.315	-5.22
870.693	4.97
871.072	-0.44
871.45	2.47
871.828	10.31
872.207	5.67
872.585	9.62
872.963	13.08
873.341	21.1
873.719	35.99
874.097	36.19
874.475	34.73
874.853	25.31
875.23	29.16
875.608	29.7
875.986	25.34
876.363	26.15
876.741	35.71
877.118	44.24
877.495	43.73
877.873	34.56
878.25	35.97
878.627	37.38
879.004	39.75
879.381	33.4
879.758	41.18
880.135	41.75
880.512	44
880.889	29.37
881.265	17.93
881.642	7.25
882.019	2.68
882.395	7.93
882.772	12.73
883.148	14.35
883.524	20.82
883.901	13.39
884.277	4.57
884.653	1.8
885.029	7.93
885.405	24.2
885.781	28.52
886.157	26.75
886.532	19.26
886.908	17.74
887.284	15.53
887.659	17.22
888.035	17.29
888.411	18.4
888.786	20.12
889.161	17.94
889.537	4.91
889.912	2.12
890.287	5.53
890.662	6.34
891.037	0.21
891.412	-2.3
891.787	-8.37
892.162	-6.43
892.536	-2.44
892.911	0.8
893.286	-5.09
893.66	-1.88
894.035	-0
894.409	-6.3
894.784	-0.28
895.158	1.43
895.532	7.68
895.906	16.05
896.281	23.11
896.655	27.96
897.029	26.45
897.402	34.9
897.776	32.86
898.15	33.76
898.524	40.14
898.898	44.49
899.271	55.76
899.645	47.66
900.018	39.67
900.392	35.19
900.765	26.02
901.138	25.36
901.511	11.81
901.884	27.03
902.258	33.15
902.631	40.28
903.003	31.78
903.376	18.18
903.749	19.65
904.122	7.92
904.495	-7.74
904.867	-9.09
905.24	-1.3
905.612	2.74
905.985	-14.91
906.357	-29.68
906.729	-29.12
907.102	-14.85
907.474	-1.29
907.846	-0.05
908.218	-1.17
908.59	18.99
908.962	22.78
909.334	22.27
909.705	37.22
910.077	31.58
910.449	33.51
910.82	35.7
911.192	28.76
911.563	30.44
911.935	13.55
912.306	12.16
912.677	0.67
913.048	11.81
913.419	5.01
913.79	-15.3
914.161	-15.39
914.532	-5.3
914.903	-2.72
915.274	-0.77
915.645	2.04
916.015	8.34
916.386	17.98
916.756	16.92
917.127	7.78
917.497	18.64
917.868	28.73
918.238	34.31
918.608	25.26
918.978	19.6
919.348	17.05
919.718	13.93
920.088	27.6
920.458	37.14
920.828	29.38
921.198	27.01
921.567	31.17
921.937	22.51
922.306	3.54
922.676	-4.67
923.045	14.26
923.415	29.17
923.784	29.94
924.153	36.03
924.522	35.73
924.891	30.93
925.26	37.19
925.629	26.34
925.998	15.18
926.367	33.38
926.736	67.2
927.104	57.95
927.473	45.19
927.842	31.92
928.21	-1.56
928.578	-29.08
928.947	-20.84
929.315	-12.74
929.683	12.06
930.051	49.26
930.42	55.48
930.788	21.48
931.156	20.59
931.523	51.78
931.891	75.55
932.259	105.59
932.627	150.89
932.994	231.93
933.362	196.76
933.729	163.15
934.097	146.73
934.464	132.26
934.831	130.21
935.199	129.99
935.566	115.89
935.933	188.32
936.3	234.42
936.667	182.7
937.034	254.34
937.401	243.57
937.767	207.17
938.134	178.22
938.501	231.85
938.867	258.99
939.234	414.46
939.6	284.92
939.967	117.3
940.333	65.09
940.699	46.2
941.065	-58.1
941.431	-61
941.798	-16.05
942.163	18.97
942.529	10.41
942.895	-1.64
943.261	19.16
943.627	42.91
943.992	51.54
944.358	39.41
944.723	80.4
945.089	69.83
945.454	80.24
945.82	70.26
946.185	56.88
946.55	82.09
946.915	75.62
947.28	65.77
947.645	66.13
948.01	72.68
948.375	106.74
948.74	59.89
949.104	54.7
949.469	-29.07
949.834	-91.06
950.198	36.73
950.562	86.11
950.927	115.33
951.291	150.58
951.655	107.57
952.02	44.12
952.384	37.23
952.748	84.34
953.112	134.5
953.476	127.6
953.839	113.24
954.203	115.73
954.567	108.41
954.931	73.87
955.294	91.47
955.658	99.65
956.021	221.22
956.385	275.14
956.748	258.12
957.111	43.15
957.474	40.94
957.837	-19.16
958.2	-292.95
958.563	-85.23
958.926	27.25
959.289	-28.49
959.652	42.29
960.015	19.93
960.377	31.36
960.74	96.88
961.102	204.97
961.465	457.49
961.827	720.67
962.189	1504.06
962.552	1063.15
962.914	841.61
963.276	587.19
963.638	475.57
964	474.38
964.362	346.72
964.724	311.11
965.085	223.32
965.447	192.33
965.809	126.82
966.17	84.31
966.532	75.96
966.893	82.45
967.255	59.56
967.616	35.67
967.977	30.43
968.338	21.79
968.699	34.9
969.061	28.25
969.421	19.34
969.782	4.44
970.143	39.41
970.504	68.99
970.865	77.43
971.225	104.71
971.586	119.01
971.946	153.43
972.307	119.09
972.667	109.04
973.027	123.39
973.388	93.54
973.748	71.33
974.108	75.14
974.468	-28.66
974.828	29.76
975.188	5.81
975.548	-6.77
975.907	1.63
976.267	-4.98
976.627	35.4
976.986	23.66
977.346	14.78
977.705	28.14
978.064	25.49
978.424	44.47
978.783	21.03
979.142	13.66
979.501	27.65
979.86	37.17
980.219	30.69
980.578	7.38
980.937	-6.34
981.296	13.63
981.654	13.04
982.013	-5.57
982.371	38.53
982.73	34.33
983.088	83.88
983.447	71.19
983.805	91.01
984.163	342.81
984.521	323.82
984.879	441.17
985.237	-976.49
985.595	1301.5
985.953	256.9
986.311	89.69
986.669	48.26
987.026	18.4
987.384	-24.55
987.741	-80.91
988.099	4.97
988.456	6.18
988.814	24.59
989.171	13.05
989.528	-36.85
989.885	-51.33
990.242	-18.3
990.599	-40.55
990.956	-47.74
991.313	-19.71
991.67	-9.19
992.027	24.33
992.383	26.75
992.74	34.8
993.096	45.91
993.453	51.04
993.809	55.64
994.165	62.44
994.522	116.97
994.878	140.99
995.234	173.97
995.59	174.81
995.946	77.54
996.302	91.64
996.658	90.34
997.013	68.78
997.369	121.95
997.725	201.53
998.08	123.79
998.436	-26.02
998.791	-7.45
999.147	46.07
999.502	110.88
999.857	78.99
1000.212	82.63
1000.567	173.76
1000.922	127.31
1001.277	71.22
1001.632	31.33
1001.987	12.63
1002.342	2.78
1002.696	-2.89
1003.051	4.92
1003.406	-3
1003.76	6.22
1004.114	0.52
1004.469	6.85
1004.823	14.06
1005.177	-2.14
1005.531	3.28
1005.885	34.22
1006.239	78.19
1006.593	124.07
1006.947	163.11
1007.301	129.06
1007.655	123.76
1008.008	106.76
1008.362	113.27
1008.715	166.07
1009.069	155.85
1009.422	305.39
1009.776	435.89
1010.129	204.93
1010.482	127.09
1010.835	31.69
1011.188	-56.7
1011.541	-74.69
1011.894	580.64
1012.247	-2981.32
1012.6	-312.89
1012.952	-130.86
1013.305	-138.78
1013.657	-68.16
1014.01	-59.23
1014.362	-51.61
1014.715	34.64
1015.067	57.39
1015.419	55.77
1015.771	58.66
1016.123	67.72
1016.475	81.77
1016.827	84.13
1017.179	109.22
1017.531	103.87
1017.883	109.12
1018.234	160.11
1018.586	170.8
1018.938	225.76
1019.289	333.67
1019.64	363.74
1019.992	354.41
1020.343	321.15
1020.694	319.07
1021.045	293.56
1021.396	327.39
1021.747	373.63
1022.098	346.83
1022.449	245.88
1022.8	182.11
1023.151	153.68
1023.501	166.81
1023.852	165.55
1024.202	184.09
1024.553	148.22
1024.903	175.06
1025.253	181.84
1025.604	178.18
1025.954	204.4
1026.304	225.14
1026.654	255.96
1027.004	325.08
1027.354	376.77
1027.703	391.75
1028.053	385.72
1028.403	713.03
1028.753	590.16
1029.102	-126.98
1029.452	-5728.59
1029.801	-327.14
1030.15	-233.05
1030.499	-239.65
897.758	1942.97
901.051	1866.54
904.343	1899.03
907.636	1908.41
910.928	1965.4
914.22	1891.37
917.511	1896.06
920.803	1935.75
924.094	1923.11
927.384	1934.77
930.675	1897.63
933.965	1864.78
937.255	1902.19
940.544	1876.44
943.834	1860.15
947.123	1808.22
950.411	1889.53
953.7	1873.31
956.988	1863.85
960.276	1800.05
963.563	1835.94
966.851	1849.75
970.138	1883.33
973.424	1883.63
976.711	1836.22
979.997	1885.95
983.283	1921.66
986.568	1863.13
989.853	1844.19
993.138	1864.35
996.423	1950.4
999.708	1913.74
1002.992	1938.88
1006.275	1853.86
1009.559	1856.89
1012.842	1944.93
1016.125	1903.95
1019.408	1884.97
1022.69	1926.12
1025.972	1962.32
1029.254	1941.34
1032.536	1912.14
1035.817	1913.65
1039.098	1885.4
1042.379	1927.61
1045.659	1950.57
1048.939	1904.46
1052.219	1905.46
1055.498	1891.37
1058.778	1890.92
1062.057	1862.11
1065.335	1883.99
1068.614	1889.84
1071.892	1891.67
1075.17	1931.04
1078.447	1937.67
1081.724	1931.41
1085.001	1948.84
1088.278	1930.03
1091.554	1931.8
1094.83	1925.73
1098.106	1960.95
1101.382	1982.07
1104.657	1979.28
1107.932	1977.12
1111.206	1962.47
1114.481	1914.67
1117.755	1914.62
1121.029	1911.22
1124.302	1965.35
1127.575	1940.44
1130.848	1940.04
1134.121	1913.5
1137.393	1881.79
1140.665	1932.12
1143.937	1915.45
1147.208	1862.18
1150.48	1921.87
1153.75	1910
1157.021	1903.06
1160.291	1885.06
1163.561	1931.99
1166.831	1896.46
1170.101	1919.1
1173.37	1877.17
1176.639	1842.98
1179.907	1878.53
1183.176	1905.44
1186.444	1903.98
1189.711	1924.31
1192.979	1950.43
1196.246	1910.39
1199.513	1921.63
1202.78	1926.1
1206.046	1934.32
1209.312	1963.58
1212.578	1975.54
1215.843	1950.01
1219.108	1919.82
1222.373	1941.84
1225.638	1923.1
1228.902	1918.74
1232.166	1879.1
1235.43	1870.36
1238.693	1899.22
1241.956	1889.48
1245.219	1937.06
1248.482	1918.75
1251.744	1917.11
1255.006	2019.01
1258.268	1969.06
1261.529	1932.95
1264.79	1929.78
1268.051	2012.31
1271.312	2019.95
1274.572	1991.8
1277.832	1980.21
1281.092	1958.74
1284.351	1956.07
1287.61	1943.62
1290.869	1892.69
1294.128	1895.76
1297.386	1925.83
1300.644	1918.41
1303.902	1930.87
1307.159	1813.31
1310.416	1858.4
1313.673	1885.06
1316.93	1888.76
1320.186	1911.28
1323.442	1939.09
1326.697	1943.42
1329.953	1917
1333.208	1953.38
1336.463	1931.39
1339.717	1902.22
1342.972	1995.62
1346.226	1969.85
1349.479	1931.49
1352.733	1915.68
1355.986	1918.34
1359.238	1904.24
1362.491	1909.91
1365.743	1910.4
1368.995	1906.95
1372.247	1922.96
1375.498	1939.44
1378.749	1985.58
1382	1944.62
1385.251	1974.28
1388.501	1930.74
1391.751	1940.58
1395	1908.09
1398.25	1933.14
1401.499	1962.99
1404.748	1923.28
1407.996	1900.43
1411.244	1894.12
1414.492	1883.64
1417.74	1871.76
1420.987	1873.96
1424.234	1931.15
1427.481	1890.77
1430.728	1943.88
1433.974	1919.78
1437.22	1913
1440.465	1907.43
1443.711	1917.81
1446.956	1934.99
1450.201	1903.15
1453.445	1941.78
1456.689	1933.19
1459.933	1941.23
1463.177	1978.35
1466.42	1953.22
1469.663	1937.95
1472.906	1957.14
1476.148	1994.71
1479.391	1951.47
1482.633	1931.14
1485.874	1956.88
1489.115	1964.91
1492.356	1941.84
1495.597	1922.02
1498.838	1910.52
1502.078	1901.66
1505.318	1880.28
1508.557	1904.71
1511.797	1903.53
1515.036	1952.34
1518.274	1916.97
1521.513	1864.06
1524.751	1870.88
1527.989	1893.75
1531.227	1908.73
1534.464	1926.42
1537.701	1913.2
1540.938	1920.56
1544.174	1871.34
1547.41	1856.58
1550.646	1891.06
1553.882	1937.65
1557.117	1989.43
1560.352	1991.42
1563.587	1959.46
1566.821	1932.79
1570.055	1937.19
1573.289	1919.42
1576.523	1963.55
1579.756	1979.19
1582.989	1999.42
1586.222	1961.44
1589.454	1983.72
1592.686	1971.97
1595.918	1995.35
1599.15	1993.96
1602.381	2026.58
1605.612	2017.26
1608.843	2099
1612.073	2031.15
1615.303	2021.33
1618.533	2019.29
1621.762	2014.18
1624.992	1988.49
1628.221	1993.84
1631.449	1984.95
1634.678	1997.8
1637.906	1970.41
1641.134	1993.2
1644.361	1961.81
1647.588	1955.96
1650.815	1975.34
1654.042	1937.63
1657.269	1965.39
1660.495	1952.95
1663.72	1931.44
1666.946	1904.58
1670.171	1893.53
1673.396	1868.03
1676.621	1850.62
1679.845	1843.51
1683.069	1843.8
1686.293	1867.91
1689.517	1867.2
1692.74	1828.17
1695.963	1845.89
1699.185	1888.1
1702.408	1865.9
1705.63	1888.21
1708.852	1908.79
1712.073	1879.45
1715.294	1898.09
1718.515	1936.86
1721.736	1902.47
1724.956	1880.52
1728.176	1899.75
1731.396	1919.56
1734.616	1907.91
1737.835	1943.88
1741.054	1914.7
1744.272	1907.9
1747.491	1949.94
1750.709	1962.93
1753.927	1929.6
1757.144	1947.1
1760.361	2004.9
1763.578	1976.89
1766.795	1934.9
1770.011	1923.51
1773.227	1941.71
1776.443	1982.94
1779.658	2021.84
1782.874	1965.13
1786.089	1962.26
1789.303	1964.1
1792.518	1963.41
1795.732	1951.85
1798.945	1970.54
1802.159	2006.87
1805.372	1965.55
1808.585	1961.86
1811.797	1963.86
1815.01	1975.7
1818.222	2007.65
1821.434	1965.35
1824.645	1999.66
1827.856	2012.01
1831.067	2038.49
1834.278	1978.36
1837.488	1965.44
1840.698	2068.55
1843.908	2025.9
1847.117	1998.9
1850.326	1945.72
1853.535	1989.03
1856.744	2030.77
1859.952	1965.78
1863.16	1971.39
1866.368	1985.8
1869.575	2096.58
1872.782	1990.41
1875.989	1930.97
1879.196	1969.85
1882.402	1968.13
1885.608	1996.38
1888.814	1958.27
1892.019	1880.78
1895.224	1930.81
1898.429	1895.3
1901.634	1884.56
1904.838	1863.11
1908.042	1921.43
1911.246	1938.24
1914.449	1912.6
1917.652	1888.51
1920.855	1872.36
1924.058	1888.67
1927.26	1935.08
1930.462	1951.29
1933.664	1994.73
1936.865	1941.86
1940.066	1960.25
1943.267	1906.4
1946.467	1912.8
1949.668	1926.64
1952.868	1994.55
1956.067	1990.74
1959.267	1934.65
1962.466	1954.35
1965.665	1938.16
1968.863	1932.88
1972.061	1931.03
1975.259	1921.58
1978.457	1990.72
1981.654	1954.25
1984.852	1958.4
1988.048	1920.7
1991.245	1903.01
1994.441	1989.82
1997.637	1940.54
2000.833	1925.1
2004.028	1953.82
2007.223	2015.37
2010.418	2007.14
2013.613	1955.82
2016.807	1957.54
2020.001	1949.78
2023.194	1962.85
2026.388	1951.43
2029.581	1896.23
2032.774	1961.62
2035.966	1972.33
2039.158	1928.65
2042.35	1943.98
2045.542	1873.6
2048.733	1947.26
2051.924	1928.86
2055.115	1938.96
2058.306	1914.01
2061.496	1964.36
2064.686	2003.93
2067.875	1913.42
2071.065	1910.81
2074.254	1924.94
2077.442	1883.02
2080.631	1958.83
2083.819	1907.76
2087.007	1901.74
2090.195	1893.15
2093.382	1899.17
2096.569	1886.2
2099.756	1854.98
2102.942	1906.86
2106.128	1924.49
2109.314	1910.79
2112.5	1904.29
2115.685	1870.55
2118.87	1876.86
2122.055	1934.34
2125.239	1917.41
2128.424	1912.77
2131.608	1953.91
2134.791	1938.14
2137.974	1966.31
2141.157	1957.11
2144.34	1938.81
2147.523	1919.31
2150.705	1949.71
2153.887	1914.19
2157.068	1897.13
2160.25	1870.21
2163.431	1888.76
2166.611	1866.35
2169.792	1891.91
2172.972	1812.67
2176.152	1852.96
2179.331	1875.66
2182.511	1888.04
2185.69	1905.59
2188.868	1915.2
2192.047	1939.23
2195.225	1966.43
2198.403	1913.6
2201.58	1899.38
2204.758	1884.05
2207.935	1953.31
2211.111	1882.45
2214.288	1872.14
2217.464	1902.24
2220.64	1854.87
2223.815	1899.42
2226.991	1839.92
2230.166	1853.43
2233.34	1900.65
2236.515	1912.16
2239.689	1966.89
2242.863	1922.97
2246.036	1970.41
2249.209	1950.79
2252.382	1963.49
2255.555	1978.97
2258.727	1937
2261.9	1960.64
2265.071	1954.64
2268.243	1950.5
2271.414	1908
2274.585	1901.34
2277.756	1956.13
2280.926	1915.69
2284.096	1938.25
2287.266	1882.29
2290.436	1924.79
2293.605	1940.18
2296.774	1981.26
2299.942	1979.28
2303.111	1994.16
2306.279	2045.13
2309.447	2030.36
2312.614	2000.78
2315.781	2027.34
2318.948	2009.03
2322.115	2042.64
2325.281	1947.86
2328.447	1950.47
2331.613	1923.66
2334.779	1922
2337.944	1913.54
2341.109	1917.2
2344.274	1907.66
2347.438	1879.22
2350.602	1897.33
2353.766	1904.87
2356.929	1895.84
2360.092	1928.79
2363.255	1908.03
2366.418	1884.61
2369.58	1929.37
2372.742	1851.75
2375.904	1833.93
2379.066	1824.36
2382.227	1845.27
2385.388	1810.16
2388.548	1771.56
2391.709	1804.78
2394.869	1801.33
2398.029	1834.68
2401.188	1824.85
2404.347	1802.93
2407.506	1848.44
2410.665	1895.09
2413.823	1871.92
2416.981	1860.98
2420.139	1869.79
2423.296	1906.2
2426.453	1880.76
2429.61	1896.41
2432.767	1883.56
2435.923	1923.28
2439.079	1864.62
2442.235	1892.15
2445.391	1839.97
2448.546	1886.78
2451.701	1913.58
2454.855	1918.46
2458.009	1933.81
2461.163	1920.62
2464.317	1900.67
2467.471	1922.46
2470.624	1945.03
2473.777	1947.1
2476.929	1964.43
2480.082	1985.35
2483.234	1964.72
2486.385	1903.01
2489.537	1897.7
2492.688	1901.22
2495.839	1914.42
2498.989	1929.12
2502.14	1919.12
2505.29	1917.54
2508.439	1934.62
2511.589	1883.66
2514.738	1877.71
2517.887	1896.15
2521.035	1975.47
2524.183	1925.99
2527.331	1915.72
2530.479	1918.05
2533.627	1916.89
