Data from C_1_DIV_WI_4N_Splice17_11-48-15-290.txt Node
Date: Sat Mar 14 11:48:15 EDT 2020
User: sa697716
Spectrometer: FLMS03696
Trigger mode: 0
Integration Time (sec): 3.180400E-1
Scans to average: 20
Electric dark correction enabled: true
Nonlinearity correction enabled: true
Boxcar width: 5
XAxis mode: Wavelengths
Number of Pixels in Spectrum: 2048
>>>>>Begin Spectral Data<<<<<
187.83	-286685.64
188.298	2048.99
188.766	1097.69
189.233	1026.69
189.701	1460.11
190.169	2039.83
190.636	788.27
191.104	679.34
191.571	164.5
192.039	16.22
192.506	18.78
192.974	552.26
193.441	-855.85
193.908	-263.26
194.375	-68.12
194.842	55.87
195.31	69.8
195.777	114.89
196.244	320.28
196.711	438.16
197.177	547.82
197.644	817.77
198.111	1425.02
198.578	1987.05
199.045	1593.89
199.511	2620.97
199.978	3010.22
200.445	2566.59
200.911	2856.32
201.378	3185.18
201.844	2903.35
202.31	4971.65
202.777	5111.01
203.243	2853.89
203.709	2708.55
204.176	3229.8
204.642	2689.45
205.108	2530.1
205.574	2092.49
206.04	1926.69
206.506	1809.8
206.972	1705.03
207.438	1653.22
207.903	1890.5
208.369	1654.23
208.835	1653.85
209.301	1740.1
209.766	1787.78
210.232	1790.89
210.697	2219.72
211.163	2743.06
211.628	4223.7
212.094	3572.6
212.559	4424.73
213.024	2796.93
213.49	3441.03
213.955	3389.56
214.42	3327.16
214.885	3097.7
215.35	2985.18
215.815	2878.42
216.28	3084.64
216.745	2542.34
217.21	2793.03
217.675	2642.73
218.14	3049.4
218.604	3514.21
219.069	4159.83
219.534	4474.6
219.998	5372.28
220.463	6674.39
220.927	8458.94
221.392	8120.36
221.856	8331.86
222.32	10700.31
222.785	13314.85
223.249	16933.72
223.713	19063.17
224.177	19180.94
224.642	24816.49
225.106	30695.63
225.57	33671.2
226.034	25077.69
226.497	38239.29
226.961	34600.19
227.425	40290.32
227.889	44872.56
228.353	44960.53
228.816	92937.1
229.28	88995.43
229.744	75226.02
230.207	45656.11
230.671	44943.64
231.134	74560.71
231.597	86030.64
232.061	86213.26
232.524	84271.64
232.987	58093.24
233.45	52279.74
233.914	46936.96
234.377	48127.17
234.84	44019.35
235.303	51979.7
235.766	58034.42
236.229	59967.2
236.691	37803.91
237.154	42449.26
237.617	31888.13
238.08	32639.07
238.542	38194.73
239.005	27272.66
239.468	27056.37
239.93	25470.21
240.393	23134.22
240.855	20271.86
241.317	20755.32
241.78	25248.08
242.242	26082.71
242.704	28116
243.166	24443.99
243.629	22162.19
244.091	25549.09
244.553	27973.78
245.015	30058.66
245.477	38874.69
245.939	57031.15
246.4	60465.9
246.862	58775.74
247.324	55380.15
247.786	62028.48
248.247	81443.66
248.709	84167.28
249.17	62872.62
249.632	59139.68
250.093	68511.77
250.555	59159.82
251.016	36051.25
251.477	34188.12
251.939	36864.44
252.4	38690.39
252.861	46022.54
253.322	42730.15
253.783	50896.23
254.244	66016.8
254.705	52147.68
255.166	46383.7
255.627	45628.11
256.088	64348.93
256.549	68308.39
257.009	58779.49
257.47	71309.66
257.931	58053.44
258.391	43565.59
258.852	44888.86
259.312	47094.25
259.773	58168.42
260.233	49110.77
260.694	41443.94
261.154	47016.12
261.614	37702.73
262.074	33748.1
262.534	35057.11
262.994	33018.2
263.455	43979.09
263.915	37064.87
264.374	34912
264.834	38099.44
265.294	42282.61
265.754	43802.56
266.214	41497.03
266.673	38929.5
267.133	49169.65
267.593	48810.52
268.052	59730.76
268.512	51960.15
268.971	62561.36
269.431	68583.33
269.89	61437.25
270.349	92104.04
270.809	102610.17
271.268	92173.57
271.727	206806.48
272.186	133824.45
272.645	100292.29
273.104	72391.04
273.563	104728.65
274.022	82416.22
274.481	70056.34
274.94	53920.54
275.399	40053.17
275.857	46628.01
276.316	63021.86
276.775	55997.34
277.233	55094.85
277.692	51530.8
278.15	58182.87
278.609	59767.07
279.067	55260.5
279.525	51245.07
279.984	66144.16
280.442	79393.19
280.9	78141.57
281.358	51362.11
281.816	47811.8
282.274	46771.45
282.732	48280.95
283.19	48473.84
283.648	41802.44
284.106	44474.21
284.564	45227.5
285.021	41880.57
285.479	31176.02
285.937	28363.06
286.394	24844.86
286.852	25567.36
287.309	26837.81
287.767	25873.77
288.224	24592.64
288.682	26989.81
289.139	29583.02
289.596	27051.84
290.053	28107.07
290.511	35453.63
290.968	42956.24
291.425	58324.97
291.882	48430.92
292.339	42122.88
292.796	41820.06
293.252	39377.82
293.709	31211.64
294.166	27987.63
294.623	30893.86
295.079	29607.4
295.536	29689.06
295.992	26920.02
296.449	26586.2
296.905	27612.74
297.362	26451.56
297.818	27781.11
298.274	28771.62
298.731	29314.84
299.187	28973.99
299.643	31082.14
300.099	37540.89
300.555	41150.64
301.011	34345.56
301.467	33005.47
301.923	38628.58
302.379	37687.96
302.835	37037.03
303.291	37077.36
303.746	42156.39
304.202	53175.55
304.658	53345.7
305.113	35869.65
305.569	35122.27
306.024	37434.51
306.479	35676.98
306.935	30011.66
307.39	32737.2
307.845	30174.3
308.301	30295.82
308.756	29487.36
309.211	28367.33
309.666	29013.29
310.121	35914.72
310.576	36419.25
311.031	36078.12
311.486	41319.57
311.94	41307.2
312.395	55157.24
312.85	103475.84
313.305	508394.74
313.759	2623955.48
314.214	189922.06
314.668	150591.42
315.123	126726.26
315.577	45380.41
316.032	40297.21
316.486	50380.15
316.94	39620.07
317.394	27546.83
317.849	21406.85
318.303	20275.12
318.757	19134.39
319.211	21120.02
319.665	18460.32
320.119	18646.64
320.572	26720.02
321.026	24921.86
321.48	20717.52
321.934	22602.84
322.387	22651.26
322.841	24420.58
323.295	21847.99
323.748	25149.54
324.202	25485.8
324.655	30552.57
325.108	42603.19
325.562	30061.71
326.015	35731.86
326.468	26983.54
326.921	30163.42
327.374	28083.39
327.827	29189.81
328.28	33052.8
328.733	22089.69
329.186	19411.59
329.639	18467.9
330.092	15551.55
330.545	14787.16
330.997	14903.4
331.45	16263.63
331.903	19018.18
332.355	32676.8
332.808	31742.47
333.26	26178.31
333.713	28428.81
334.165	28631.71
334.617	38250.4
335.069	30957.43
335.522	55925.05
335.974	61805
336.426	56427.56
336.878	39055.91
337.33	19795.59
337.782	19301.82
338.234	24106
338.686	28814.82
339.137	34101.59
339.589	32033.36
340.041	25064.53
340.493	21534.23
340.944	22030.89
341.396	23713.55
341.847	19939.37
342.299	23499.88
342.75	28676.85
343.201	25119.73
343.653	28901.64
344.104	35497.02
344.555	27990.46
345.006	43571
345.457	33348.5
345.908	26518.44
346.359	24913.75
346.81	20282.72
347.261	21375.27
347.712	21034.74
348.163	22546.34
348.613	22773.97
349.064	21243.03
349.515	18566
349.965	19028.77
350.416	22892.4
350.866	25109.95
351.317	28409.39
351.767	46988.61
352.217	59333.43
352.668	49225.46
353.118	45066.92
353.568	43451.76
354.018	34338.17
354.468	36146.51
354.918	25837.36
355.368	22578.23
355.818	31858.82
356.268	91515.82
356.718	381953.62
357.168	95015.45
357.617	47667.23
358.067	52926.46
358.517	49531.94
358.966	57979.24
359.416	64929.31
359.865	70277.21
360.315	83780.32
360.764	39083.47
361.213	21874.22
361.663	20755.45
362.112	25576.96
362.561	41269.35
363.01	31097.28
363.459	26163.03
363.908	28364.01
364.357	24090.13
364.806	40654.89
365.255	27910.82
365.703	25562.47
366.152	25612.87
366.601	20753.7
367.05	16827.45
367.498	15287.38
367.947	16001.72
368.395	16664.85
368.844	14731.34
369.292	17783.14
369.74	12304.2
370.189	18871.79
370.637	22135.5
371.085	19127.75
371.533	23317.22
371.981	22534.68
372.429	21504.46
372.877	22407.24
373.325	18794.96
373.773	19196.11
374.221	17124.58
374.669	21284.23
375.116	18434.24
375.564	18645.81
376.012	20879.97
376.459	17243.94
376.907	20670.69
377.354	25077.84
377.801	23439.35
378.249	26952.87
378.696	34518.72
379.143	41891.87
379.591	44758.75
380.038	75773.49
380.485	54729.71
380.932	59233.44
381.379	54252.3
381.826	39967.05
382.273	28411.3
382.72	24928.69
383.166	24391.22
383.613	15892.4
384.06	14365.11
384.506	16681.32
384.953	12288.39
385.4	12430.74
385.846	10921.11
386.292	10688.47
386.739	10498.95
387.185	10425.22
387.631	10438.79
388.078	10131.57
388.524	10845.1
388.97	10025.37
389.416	8366.31
389.862	8904.28
390.308	8439.63
390.754	8578.51
391.2	9325.38
391.645	9557.7
392.091	9121.35
392.537	8803.67
392.983	8827.83
393.428	8665.11
393.874	9281.61
394.319	9294.8
394.765	8803.94
395.21	9043.21
395.655	8464.84
396.101	7913.59
396.546	7136.58
396.991	7209.06
397.436	6699.11
397.881	6455.31
398.326	6112.84
398.771	5771.47
399.216	5044.3
399.661	4539.36
400.106	4509.61
400.551	4608.02
400.995	4123.67
401.44	4068.28
401.885	3816.01
402.329	3839.8
402.774	3675.36
403.218	3545.65
403.663	3410.76
404.107	3494.51
404.551	3505.91
404.995	3211.64
405.44	3088.96
405.884	3130.39
406.328	3024.56
406.772	3003.92
407.216	2735.13
407.66	2637.01
408.104	2499.35
408.547	2337.14
408.991	2256.48
409.435	2168.93
409.879	2133.2
410.322	2101.23
410.766	2021.77
411.209	1915.04
411.653	1834.14
412.096	1790.65
412.54	1791.51
412.983	1778.03
413.426	1773.4
413.869	1770.93
414.312	1733.06
414.756	1667.6
415.199	1585.08
415.642	1535.25
416.085	1532.62
416.527	1520.2
416.97	1540.94
417.413	1458.16
417.856	1440.58
418.298	1426.82
418.741	1411.92
419.184	1407.91
419.626	1464.01
420.069	1463.76
420.511	1470.55
420.953	1435.8
421.396	1421.52
421.838	1385.09
422.28	1412.57
422.722	1416.89
423.164	1434.68
423.606	1410.57
424.048	1409.04
424.49	1336.06
424.932	1325.1
425.374	1307.44
425.816	1331.21
426.258	1355.2
426.699	1369.78
427.141	1351.75
427.582	1373.57
428.024	1369.68
428.465	1359.58
428.907	1324.2
429.348	1308.79
429.789	1311.41
430.231	1282.22
430.672	1296.45
431.113	1264.48
431.554	1245.55
431.995	1212.46
432.436	1164.21
432.877	1135.14
433.318	1115.01
433.759	1108.39
434.2	1107.75
434.64	1093.39
435.081	1095.47
435.522	1038.72
435.962	1002.08
436.403	978.22
436.843	991.1
437.284	970.79
437.724	943.37
438.164	946.91
438.604	926.68
439.045	891.07
439.485	854.87
439.925	836.73
440.365	815.23
440.805	801.91
441.245	791.7
441.685	763.54
442.125	758.69
442.564	763.22
443.004	745.43
443.444	742.7
443.883	742.71
444.323	738.1
444.762	740.07
445.202	750.62
445.641	763.68
446.081	759.23
446.52	762.95
446.959	752.04
447.398	732.4
447.837	722.16
448.276	708.65
448.716	715.48
449.154	719.94
449.593	701.26
450.032	697.02
450.471	683.96
450.91	683.96
451.349	682.05
451.787	679.75
452.226	689.14
452.664	688.97
453.103	688.35
453.541	685.38
453.98	683.33
454.418	686.97
454.856	677.1
455.295	675.64
455.733	678.79
456.171	680.61
456.609	682.25
457.047	682.55
457.485	691.82
457.923	693.34
458.361	684.29
458.798	685.61
459.236	684.25
459.674	688.18
460.111	691.39
460.549	686.15
460.987	684.89
461.424	681.79
461.862	678.07
462.299	667.63
462.736	666.05
463.173	669.08
463.611	662.45
464.048	661.11
464.485	667.01
464.922	660.34
465.359	656.04
465.796	646.33
466.233	642.22
466.67	635.71
467.106	633.64
467.543	628.21
467.98	619.25
468.416	603.15
468.853	597.11
469.29	578.08
469.726	571.57
470.162	556.33
470.599	549.58
471.035	543.72
471.471	531.67
471.907	528.91
472.344	525.46
472.78	526.88
473.216	532.26
473.652	525.58
474.088	524.05
474.523	521.5
474.959	526.3
475.395	520.42
475.831	516.51
476.266	516.93
476.702	514.83
477.138	508.07
477.573	504.95
478.008	502.71
478.444	504.53
478.879	507.85
479.314	508.86
479.75	507.3
480.185	509.26
480.62	513.66
481.055	517.43
481.49	520.97
481.925	528.27
482.36	536.77
482.795	551.29
483.229	565.65
483.664	577.21
484.099	579.72
484.534	588.37
484.968	594.11
485.403	595.12
485.837	592.97
486.271	590.35
486.706	590.42
487.14	583.76
487.574	574.31
488.009	567.94
488.443	562.67
488.877	567.82
489.311	568.73
489.745	574.08
490.179	577.92
490.613	587.75
491.046	591.94
491.48	595.49
491.914	595.27
492.348	597.56
492.781	600.61
493.215	600.46
493.648	600.29
494.082	604.11
494.515	603.6
494.948	609.37
495.382	612.02
495.815	614.76
496.248	618.9
496.681	628.19
497.114	637.52
497.547	644.3
497.98	654.35
498.413	657.24
498.846	663.42
499.279	669.25
499.711	670.84
500.144	671.16
500.577	678.54
501.009	684.22
501.442	690.42
501.874	689.74
502.306	690.09
502.739	694.86
503.171	705.85
503.603	706.92
504.036	712.59
504.468	716.22
504.9	724.38
505.332	728.87
505.764	732.34
506.196	736.7
506.627	747.14
507.059	756.93
507.491	762.96
507.923	760.15
508.354	770.61
508.786	778.25
509.217	791.91
509.649	802.83
510.08	816.33
510.512	828.64
510.943	840.2
511.374	848.97
511.805	864.36
512.237	878.77
512.668	904.67
513.099	926.96
513.53	948.97
513.961	965.66
514.391	991.56
514.822	1019.29
515.253	1047.17
515.684	1067.59
516.114	1091.28
516.545	1108.68
516.975	1130.35
517.406	1145.31
517.836	1148.71
518.267	1154.63
518.697	1169.83
519.127	1173.87
519.558	1180.36
519.988	1185.98
520.418	1195.91
520.848	1210.9
521.278	1219.61
521.708	1227.15
522.138	1238.48
522.567	1263.78
522.997	1285.25
523.427	1298.94
523.857	1313.9
524.286	1323.93
524.716	1337.04
525.145	1353.61
525.575	1363.99
526.004	1376.5
526.433	1381.16
526.863	1382.83
527.292	1375.95
527.721	1381.35
528.15	1386.67
528.579	1387.92
529.008	1397.49
529.437	1416.27
529.866	1428.1
530.295	1442.76
530.724	1454.1
531.152	1477.01
531.581	1489.15
532.01	1505.17
532.438	1513.47
532.867	1526.85
533.295	1543.5
533.723	1549.37
534.152	1548.22
534.58	1548.18
535.008	1535.96
535.436	1538.84
535.865	1545.04
536.293	1558.19
536.721	1571.83
537.149	1593.6
537.576	1596.5
538.004	1607.01
538.432	1613.71
538.86	1614.04
539.287	1621.5
539.715	1632.55
540.143	1634.1
540.57	1631.81
540.998	1628.29
541.425	1609.55
541.852	1591.3
542.28	1589.06
542.707	1574.6
543.134	1561.98
543.561	1557.97
543.988	1551.41
544.415	1551.53
544.842	1546.98
545.269	1540.99
545.696	1542.06
546.123	1551.97
546.549	1543.86
546.976	1533.56
547.403	1533.3
547.829	1535.03
548.256	1535.04
548.682	1531.07
549.108	1523.74
549.535	1522.29
549.961	1522.82
550.387	1510.45
550.813	1505.16
551.24	1509.34
551.666	1508.03
552.092	1499.58
552.518	1493.03
552.943	1488.74
553.369	1493.95
553.795	1497.89
554.221	1498.23
554.646	1493.77
555.072	1502.89
555.498	1505.84
555.923	1511.93
556.349	1524.63
556.774	1530.39
557.199	1530.83
557.625	1533.22
558.05	1527.54
558.475	1535.84
558.9	1533.31
559.325	1525.5
559.75	1518.8
560.175	1511.59
560.6	1503.89
561.025	1499.79
561.449	1499.54
561.874	1502
562.299	1504.23
562.723	1508.36
563.148	1497.45
563.572	1499.75
563.997	1505.39
564.421	1507.26
564.846	1506.63
565.27	1509.23
565.694	1506.32
566.118	1514.35
566.542	1518.99
566.966	1512.98
567.39	1506.97
567.814	1496.72
568.238	1494.72
568.662	1498.25
569.086	1500.01
569.509	1504.27
569.933	1490.26
570.357	1482.91
570.78	1464.04
571.204	1451.95
571.627	1441.37
572.05	1439.38
572.474	1437.15
572.897	1425.58
573.32	1418.03
573.743	1408.09
574.166	1391.14
574.589	1390.24
575.012	1383.24
575.435	1380.87
575.858	1372
576.281	1361.14
576.704	1346.69
577.126	1336.75
577.549	1326.02
577.972	1316.8
578.394	1307.16
578.817	1300.95
579.239	1283.92
579.661	1270.8
580.084	1256.86
580.506	1245.41
580.928	1241.6
581.35	1231.65
581.772	1226.79
582.194	1214.89
582.616	1204.08
583.038	1191.22
583.46	1181.32
583.882	1176.95
584.303	1179.55
584.725	1175.01
585.147	1176.13
585.568	1182.55
585.99	1191.17
586.411	1195.19
586.833	1205.37
587.254	1205.33
587.675	1217.01
588.096	1226
588.518	1221.64
588.939	1207.17
589.36	1204.67
589.781	1195.57
590.202	1172.98
590.623	1165.21
591.043	1162.04
591.464	1152.97
591.885	1150.07
592.305	1143.17
592.726	1132.24
593.147	1133.98
593.567	1129.57
593.987	1124.35
594.408	1118.89
594.828	1117.18
595.248	1112.25
595.669	1098.8
596.089	1092.32
596.509	1086.43
596.929	1076.11
597.349	1075.91
597.769	1067.25
598.189	1062.09
598.608	1062.32
599.028	1064.22
599.448	1063.81
599.867	1053.88
600.287	1050.11
600.706	1046.77
601.126	1039.08
601.545	1038.69
601.965	1037.68
602.384	1033.12
602.803	1034.72
603.222	1030.91
603.641	1024.81
604.061	1022.36
604.48	1018.88
604.898	1023.53
605.317	1026.94
605.736	1028.31
606.155	1025.84
606.574	1018.05
606.992	1020.93
607.411	1018.25
607.829	1011.08
608.248	1008.89
608.666	1006.99
609.085	1006.63
609.503	999.83
609.921	995.01
610.339	996.14
610.758	994.92
611.176	991.39
611.594	985.79
612.012	982.08
612.43	984.69
612.847	988.57
613.265	988.73
613.683	991.14
614.101	992.41
614.518	988.76
614.936	981.29
615.353	969.95
615.771	967.78
616.188	966.92
616.606	964.87
617.023	959.66
617.44	949.78
617.857	943.63
618.274	937.41
618.691	933.05
619.108	925.65
619.525	920.98
619.942	925.89
620.359	927.33
620.776	923.81
621.192	920.39
621.609	918.69
622.026	922.91
622.442	928.58
622.859	930.97
623.275	926.25
623.691	930.9
624.108	939.32
624.524	949.32
624.94	949.72
625.356	956.85
625.772	966.56
626.188	975.1
626.604	975.76
627.02	972.28
627.436	970.83
627.852	976.24
628.268	985.71
628.683	978.64
629.099	972.79
629.514	969.43
629.93	972.92
630.345	975.72
630.761	972.77
631.176	975.52
631.591	970.12
632.007	965.3
632.422	962.14
632.837	952.56
633.252	950.31
633.667	941.8
634.082	933.91
634.497	923.03
634.911	907.46
635.326	903.53
635.741	890.12
636.155	882.46
636.57	881.77
636.984	880.42
637.399	880.12
637.813	878.06
638.228	876.25
638.642	878.61
639.056	869.58
639.47	869.46
639.884	863.18
640.298	859.01
640.712	857.5
641.126	849.37
641.54	841.43
641.954	838.05
642.368	829.99
642.781	825.52
643.195	812.52
643.609	813.94
644.022	809.93
644.436	806.6
644.849	797.86
645.262	788.83
645.676	789.61
646.089	787.51
646.502	777.17
646.915	773.95
647.328	761.91
647.741	761.06
648.154	751.94
648.567	750.86
648.98	742.42
649.393	742.44
649.805	739.51
650.218	734.08
650.631	723.89
651.043	719.44
651.456	714.79
651.868	715.37
652.28	727.02
652.693	736.57
653.105	741.06
653.517	747.31
653.929	748.08
654.341	753.08
654.753	745.27
655.165	749.92
655.577	748.89
655.989	746.45
656.401	741.3
656.813	717.62
657.224	703.84
657.636	683.01
658.047	671.7
658.459	658.98
658.87	655.62
659.282	649.52
659.693	636.84
660.104	628.05
660.515	619.83
660.926	619.31
661.338	618.75
661.749	616.12
662.159	612.53
662.57	610.82
662.981	608.99
663.392	605
663.803	608.61
664.213	608.74
664.624	607.75
665.035	612.3
665.445	605.33
665.855	602.8
666.266	599.86
666.676	600.13
667.086	595.88
667.497	598.64
667.907	595.12
668.317	590.74
668.727	589.5
669.137	591.56
669.547	590.67
669.956	593.46
670.366	595.41
670.776	597.43
671.186	601.88
671.595	605.47
672.005	608.69
672.414	609.82
672.824	608.63
673.233	613.13
673.642	616.39
674.052	620.63
674.461	623.25
674.87	627.89
675.279	626.61
675.688	628.66
676.097	630.99
676.506	629.5
676.915	640.93
677.323	644.25
677.732	643.39
678.141	643.31
678.549	635.48
678.958	635.02
679.366	634.62
679.775	638.53
680.183	647.04
680.592	650.86
681	653.68
681.408	648.07
681.816	653.68
682.224	660.51
682.632	666.76
683.04	688.56
683.448	706.09
683.856	728.64
684.264	754.86
684.671	776.87
685.079	805.02
685.487	835.48
685.894	878.94
686.302	912.76
686.709	937.73
687.116	969.79
687.524	994.94
687.931	1016.5
688.338	1031.39
688.745	1044.07
689.152	1059.32
689.559	1084.82
689.966	1111.81
690.373	1120.36
690.78	1146.32
691.187	1188.51
691.593	1221.09
692	1247.36
692.407	1290.37
692.813	1344.76
693.22	1387.74
693.626	1433.93
694.032	1470.46
694.439	1527.16
694.845	1574.23
695.251	1632.06
695.657	1685.34
696.063	1763.58
696.469	1825.31
696.875	1882.08
697.281	1918.59
697.687	1962.62
698.093	2000.67
698.498	2068.09
698.904	2123.31
699.31	2202.77
699.715	2261.42
700.12	2344.36
700.526	2369.73
700.931	2436.65
701.337	2491.33
701.742	2529.35
702.147	2609.42
702.552	2646.65
702.957	2708.09
703.362	2736.59
703.767	2773.54
704.172	2820.57
704.577	2794.96
704.981	2844.79
705.386	2868.36
705.791	2873.01
706.195	2951.29
706.6	2970.51
707.004	3050.4
707.408	3035.37
707.813	3070.18
708.217	3069.89
708.621	3082.92
709.025	3176.95
709.43	3190.69
709.834	3257.4
710.237	3333.29
710.641	3328.6
711.045	3359.33
711.449	3365.85
711.853	3402.88
712.256	3451.26
712.66	3495.39
713.064	3572.91
713.467	3620.86
713.87	3735.19
714.274	3789.3
714.677	3896.02
715.08	4057.52
715.484	4225.44
715.887	4424.12
716.29	4620.27
716.693	4827.56
717.096	5064.4
717.499	5202.42
717.901	5240.73
718.304	5274.9
718.707	5307.98
719.109	5225.7
719.512	5205.95
719.915	5088.4
720.317	5046.21
720.719	5098.9
721.122	5080.91
721.524	5043.88
721.926	5011.48
722.328	5117.48
722.731	5120.66
723.133	5157.46
723.535	5351
723.937	5380.7
724.338	5440.15
724.74	5486.98
725.142	5418.54
725.544	5420.54
725.945	5450.43
726.347	5458.1
726.748	5459.67
727.15	5477.11
727.551	5447.08
727.952	5428.9
728.354	5406.77
728.755	5414.15
729.156	5379.94
729.557	5388.83
729.958	5276.85
730.359	5229.92
730.76	5213.38
731.161	5158.39
731.562	5140.2
731.962	5148.1
732.363	5086.68
732.763	5027.44
733.164	5064.9
733.564	5002.47
733.965	4910.57
734.365	4878.84
734.766	4909.92
735.166	4877.05
735.566	4824.06
735.966	4800.82
736.366	4794.76
736.766	4737.24
737.166	4770.14
737.566	4732.46
737.966	4711.78
738.365	4754.18
738.765	4753.93
739.165	4683.09
739.564	4657.2
739.964	4706.84
740.363	4661.55
740.763	4663.8
741.162	4653.35
741.561	4624.01
741.96	4579.08
742.36	4598.48
742.759	4603.41
743.158	4641.38
743.557	4656.6
743.955	4697.14
744.354	4651.37
744.753	4710.53
745.152	4671.04
745.55	4725.68
745.949	4717.65
746.348	4720.38
746.746	4738.88
747.144	4699.17
747.543	4677.04
747.941	4727.67
748.339	4660.69
748.737	4653.48
749.136	4646.86
749.534	4712.9
749.932	4684.3
750.33	4710.23
750.727	4766.72
751.125	4742.02
751.523	4728.03
751.921	4769.54
752.318	4733.43
752.716	4792.51
753.113	4804.95
753.511	4828.31
753.908	4827.59
754.305	4811.42
754.703	4872.99
755.1	4933.32
755.497	4992.05
755.894	5184.08
756.291	5366.32
756.688	5697.42
757.085	6134.32
757.482	6753.05
757.878	7425.15
758.275	8034.64
758.672	8876.36
759.068	9561.11
759.465	10535.14
759.861	11792.54
760.258	13245.49
760.654	13993.7
761.05	13879.23
761.447	13241.08
761.843	12329.21
762.239	11387.85
762.635	10960.06
763.031	10553.19
763.427	9960.88
763.822	9342.78
764.218	8729.4
764.614	7934.21
765.01	7401.48
765.405	7059.51
765.801	6798.92
766.196	6461.26
766.592	6272.02
766.987	5955.75
767.382	5741.14
767.778	5651.06
768.173	5519.7
768.568	5448.36
768.963	5323.36
769.358	5342.22
769.753	5291.12
770.148	5207.41
770.542	5208.5
770.937	5176.22
771.332	5267.76
771.726	5287.57
772.121	5223.95
772.515	5277.38
772.91	5260.93
773.304	5330.47
773.699	5263.37
774.093	5319.64
774.487	5374.86
774.881	5418.74
775.275	5418.4
775.669	5376.25
776.063	5421.51
776.457	5458.14
776.851	5384.21
777.245	5375.64
777.638	5409.03
778.032	5523.4
778.425	5485.15
778.819	5526.57
779.212	5483.87
779.606	5441.87
779.999	5462.74
780.392	5443.7
780.786	5526.74
781.179	5545.76
781.572	5590.31
781.965	5602.32
782.358	5545.15
782.751	5603.67
783.143	5554.58
783.536	5625.64
783.929	5673
784.322	5783.24
784.714	5815.4
785.107	5809.63
785.499	5881.98
785.891	5857.46
786.284	5836.27
786.676	5976.92
787.068	5953.81
787.46	6005.98
787.852	6025.23
788.245	6108.85
788.636	6141.9
789.028	6207.58
789.42	6249.03
789.812	6259.07
790.204	6358.34
790.595	6459.77
790.987	6263.69
791.378	6288.25
791.77	6417.79
792.161	6554.94
792.553	6604.99
792.944	6489.46
793.335	6419.32
793.726	6489.11
794.117	6577.72
794.508	6711.39
794.899	6680.24
795.29	6822.3
795.681	6879.26
796.072	6735.75
796.463	6547.36
796.853	6557.68
797.244	6718.63
797.634	6751.13
798.025	6746.1
798.415	6756.09
798.806	6844.61
799.196	6929.29
799.586	6973.17
799.976	6937.18
800.366	7168.73
800.756	7405.93
801.146	7362.37
801.536	7387.03
801.926	7462.67
802.316	7487.5
802.706	7557.69
803.095	7433.27
803.485	7532.82
803.874	7576.57
804.264	7826.25
804.653	7799.73
805.043	7943.09
805.432	8052.14
805.821	8049.88
806.21	8065.95
806.599	8186.39
806.988	8230.91
807.377	8337.16
807.766	8461.7
808.155	8736.15
808.544	8476.92
808.933	8486.86
809.321	8466.22
809.71	8759.34
810.098	8916.09
810.487	9372.67
810.875	9839.35
811.264	9864.79
811.652	10142.59
812.04	10287.97
812.428	10450.77
812.816	11205.38
813.204	11609.18
813.592	12149.09
813.98	12482.36
814.368	12383.28
814.756	12851.34
815.144	12774.84
815.531	13230.93
815.919	13162.12
816.306	13458.75
816.694	13155.73
817.081	13202.75
817.469	13544.21
817.856	13541.79
818.243	13795.25
818.63	14193.71
819.017	13784.18
819.404	13851.02
819.791	14220.99
820.178	14827.31
820.565	15074.18
820.952	15989.18
821.339	15509.46
821.725	15699.37
822.112	14970.93
822.498	14943.04
822.885	15067.76
823.271	14973.98
823.657	15380.63
824.044	15382.66
824.43	15454.82
824.816	15425.31
825.202	14996.43
825.588	16000.5
825.974	16014.39
826.36	16527.61
826.746	16553.06
827.132	16906.68
827.517	16886.94
827.903	16115.21
828.289	16160.53
828.674	15394.86
829.06	15294.08
829.445	15688.31
829.83	16039.46
830.216	16509.8
830.601	16866.86
830.986	16471.79
831.371	16337.1
831.756	16886.74
832.141	16464.05
832.526	16451.88
832.911	16737.49
833.295	16628.35
833.68	17081.54
834.065	16471.42
834.449	15575.71
834.834	15504.85
835.218	15503.51
835.603	15844.58
835.987	15640.52
836.371	16470.48
836.755	16375.38
837.139	16766.41
837.524	17006.61
837.908	16844.76
838.291	16901.17
838.675	16966.22
839.059	17171.02
839.443	17162.27
839.827	16938.12
840.21	17401.33
840.594	17250.31
840.977	17453.84
841.361	17437.48
841.744	17805.12
842.127	17655.94
842.511	17901.95
842.894	18491.76
843.277	18873.44
843.66	19405.06
844.043	19482.8
844.426	18705.78
844.809	18402.11
845.191	18432.96
845.574	17975.78
845.957	17617.59
846.339	17507.68
846.722	16992.82
847.104	17063.01
847.487	16893.73
847.869	16909.45
848.252	17192.72
848.634	17507.54
849.016	17767.87
849.398	17891.29
849.78	18740.25
850.162	18744.11
850.544	19157.6
850.926	19773.01
851.307	19689.19
851.689	19968.09
852.071	20415.56
852.452	20729.03
852.834	20713.13
853.215	21115.25
853.597	21268.44
853.978	21553.99
854.359	22011.67
854.741	21019.92
855.122	20930.76
855.503	20644.79
855.884	20773.22
856.265	20716.72
856.646	20824.5
857.026	20439.81
857.407	20360.74
857.788	20514.04
858.169	20791.73
858.549	19947.21
858.93	20567.86
859.31	20604.26
859.69	20809.2
860.071	20407.45
860.451	20184.96
860.831	19466.43
861.211	20606.64
861.591	21147.54
861.971	21120.97
862.351	21300.04
862.731	21681.9
863.111	21934.39
863.491	22267.39
863.87	23125.76
864.25	23469.69
864.629	23069.79
865.009	23562.83
865.388	24399.41
865.768	26150.8
866.147	26051.05
866.526	24633.19
866.905	24926.24
867.284	26340.05
867.663	25006.33
868.042	23972.55
868.421	23891.61
868.8	24297.02
869.179	24536.21
869.558	23109.37
869.936	21300.49
870.315	21679.62
870.693	22200.44
871.072	23933.59
871.45	22790.04
871.828	23081.3
872.207	24270.32
872.585	23908.37
872.963	24563.19
873.341	23710.46
873.719	23425.44
874.097	23144.65
874.475	23585.97
874.853	24131.05
875.23	23132.34
875.608	24110.94
875.986	26093.71
876.363	24944.45
876.741	25703.33
877.118	25061.21
877.495	26303.53
877.873	26750.23
878.25	28153.73
878.627	27019.36
879.004	27393.01
879.381	27267.13
879.758	26541.08
880.135	24701.94
880.512	26131.71
880.889	25441.13
881.265	25168.53
881.642	24967.82
882.019	25375.5
882.395	24859.11
882.772	25828.75
883.148	24709.91
883.524	24609.98
883.901	24466.77
884.277	24844.84
884.653	24679.95
885.029	25382.91
885.405	28109.54
885.781	27878
886.157	26737.55
886.532	27056.11
886.908	27040.07
887.284	30057.22
887.659	31019.14
888.035	31982.28
888.411	32790.91
888.786	33224.69
889.161	34375.89
889.537	33757.82
889.912	34852.64
890.287	34824.71
890.662	35729.54
891.037	35094.6
891.412	32735.39
891.787	32434.34
892.162	31317.5
892.536	32044.16
892.911	30844.22
893.286	30204.9
893.66	28973.22
894.035	29713.23
894.409	32354.37
894.784	31058.6
895.158	31571.5
895.532	33444.65
895.906	34355.3
896.281	35150.27
896.655	34596.77
897.029	39518.7
897.402	41153.61
897.776	45819.01
898.15	45651.57
898.524	45156.99
898.898	45747.9
899.271	51230.66
899.645	44370.86
900.018	42610.37
900.392	44183.17
900.765	44557.12
901.138	41267
901.511	40637.29
901.884	37328.3
902.258	34421.78
902.631	35560.73
903.003	40915.86
903.376	36921.53
903.749	41389.15
904.122	44311.4
904.495	48788.26
904.867	49391.13
905.24	42853.92
905.612	39909.06
905.985	40798.6
906.357	42671.54
906.729	40733.94
907.102	34802.27
907.474	33450.22
907.846	33674.78
908.218	33214.74
908.59	29342.09
908.962	28373.33
909.334	30559.92
909.705	32093.12
910.077	31135.18
910.449	32399.72
910.82	33300.01
911.192	36639.29
911.563	38067.09
911.935	40716.2
912.306	40774.33
912.677	42111.15
913.048	41686.23
913.419	45210.69
913.79	45457.85
914.161	48751.91
914.532	46584.58
914.903	42795.72
915.274	40651.7
915.645	40043.93
916.015	35250.71
916.386	33596.82
916.756	35772.33
917.127	36901.52
917.497	32964.04
917.868	35874.09
918.238	34075.84
918.608	35061.75
918.978	35796.02
919.348	37895.45
919.718	39164.21
920.088	37715.39
920.458	39188.12
920.828	41219.76
921.198	39075.5
921.567	41736.4
921.937	32315.31
922.306	32638.82
922.676	35199.93
923.045	29370.15
923.415	27899.24
923.784	25405.31
924.153	26101.95
924.522	26069.64
924.891	24503.94
925.26	26236.39
925.629	25619.53
925.998	29458.36
926.367	28753.16
926.736	27370.08
927.104	32575.02
927.473	35018.69
927.842	42301.14
928.21	41910.77
928.578	44067.42
928.947	41695.11
929.315	41924.77
929.683	49175.37
930.051	49573.63
930.42	57575.34
930.788	49215.35
931.156	48878.45
931.523	45813.68
931.891	42323.81
932.259	40646.69
932.627	47094.39
932.994	66595.59
933.362	55079.31
933.729	47788.36
934.097	45708.63
934.464	38680.37
934.831	44603.14
935.199	43959.95
935.566	42614.17
935.933	43210.37
936.3	52368.43
936.667	40784.07
937.034	36756.26
937.401	36355.36
937.767	31405.72
938.134	27975.66
938.501	39448.97
938.867	42098.9
939.234	71171.96
939.6	60796.44
939.967	66981.37
940.333	44852.83
940.699	38186.12
941.065	30677.1
941.431	40234.58
941.798	38779.03
942.163	50941.99
942.529	31816.45
942.895	29286.67
943.261	18945.05
943.627	24822.02
943.992	21727.07
944.358	21756.84
944.723	21829.27
945.089	21294.33
945.454	19677.99
945.82	21016.66
946.185	20188.39
946.55	23394.76
946.915	20985.35
947.28	24617.99
947.645	21691.33
948.01	20011.95
948.375	20880.61
948.74	25052.23
949.104	29219.9
949.469	42220.68
949.834	74649.13
950.198	70703.3
950.562	42377.15
950.927	35292.09
951.291	42493.84
951.655	36208.72
952.02	34012.18
952.384	25702.5
952.748	22361.99
953.112	21804.4
953.476	18960.96
953.839	17526.4
954.203	17352.22
954.567	21699.33
954.931	34166.5
955.294	29211.52
955.658	29359.68
956.021	49918.72
956.385	84595.43
956.748	124878.36
957.111	193700.73
957.474	217171.65
957.837	244460.96
958.2	184995.5
958.563	66535.01
958.926	44956.83
959.289	68292.82
959.652	76358.75
960.015	57273.43
960.377	82253.19
960.74	93750.48
961.102	161773.23
961.465	173832.29
961.827	92963.55
962.189	178428.83
962.552	123783.48
962.914	99344.68
963.276	64380.45
963.638	53199.07
964	52676.99
964.362	35547.91
964.724	34422.68
965.085	24558.14
965.447	20139.75
965.809	23000.29
966.17	23026.08
966.532	24903.1
966.893	22853.96
967.255	20804.99
967.616	24543.49
967.977	19667.06
968.338	21495.07
968.699	17633.41
969.061	17620.64
969.421	17722.37
969.782	19891.33
970.143	16803.25
970.504	17402.74
970.865	19749.33
971.225	20176.45
971.586	19739.61
971.946	28130.1
972.307	24430.67
972.667	31940.38
973.027	32920.42
973.388	39892.42
973.748	27102.22
974.108	29505.7
974.468	39911.16
974.828	30788.51
975.188	23706.68
975.548	21792.02
975.907	18284.72
976.267	20519.26
976.627	17259.04
976.986	17877.5
977.346	17052.38
977.705	16421.89
978.064	14957.47
978.424	12452.18
978.783	12881.27
979.142	14690.34
979.501	14042.03
979.86	14825.75
980.219	14278.06
980.578	18413.62
980.937	20608.14
981.296	18379.73
981.654	18906.77
982.013	29434.61
982.371	38180.81
982.73	35684.18
983.088	40413.16
983.447	43188.15
983.805	61834.35
984.163	129148.33
984.521	143194.34
984.879	210097.66
985.237	-341509.65
985.595	328809.07
985.953	81792.07
986.311	47254.93
986.669	27385.61
987.026	23643.23
987.384	31828.31
987.741	32923.76
988.099	23528.67
988.456	18756.14
988.814	17539.25
989.171	15251.41
989.528	15060.14
989.885	15862.56
990.242	12548.99
990.599	15646.33
990.956	12796.93
991.313	8935.7
991.67	7324.67
992.027	7750.36
992.383	6885
992.74	6044.29
993.096	6335.93
993.453	6569.66
993.809	6813.76
994.165	9083.11
994.522	8316.22
994.878	9170.01
995.234	11505.48
995.59	11349.86
995.946	10754.37
996.302	12264.4
996.658	14182.58
997.013	15623.93
997.369	18528.17
997.725	23681.22
998.08	15350.04
998.436	23742.06
998.791	32767.76
999.147	32739.64
999.502	35708.87
999.857	25957.89
1000.212	42501.98
1000.567	60443.34
1000.922	34905.33
1001.277	22113.94
1001.632	16441.58
1001.987	21166.35
1002.342	15161.05
1002.696	12140.16
1003.051	9687.33
1003.406	11720.34
1003.76	11683.57
1004.114	11483.59
1004.469	9678.37
1004.823	8016.93
1005.177	8669.22
1005.531	6865.37
1005.885	6090.52
1006.239	6863.47
1006.593	8592.88
1006.947	11491.48
1007.301	8638.41
1007.655	9417.6
1008.008	6892.75
1008.362	7749.12
1008.715	11049.18
1009.069	10023.61
1009.422	15040.13
1009.776	30245.36
1010.129	20156.05
1010.482	16839.4
1010.835	14256.98
1011.188	29700.38
1011.541	27960.46
1011.894	-171228.95
1012.247	503127.96
1012.6	34235.18
1012.952	21735.45
1013.305	11252.62
1013.657	8076.28
1014.01	7613.72
1014.362	6267.19
1014.715	5553.05
1015.067	4827.46
1015.419	4723
1015.771	4188.52
1016.123	3722.4
1016.475	3827.71
1016.827	4062.25
1017.179	4358.51
1017.531	4401.28
1017.883	4512.2
1018.234	4361.04
1018.586	5494.59
1018.938	5815.35
1019.289	7997.59
1019.64	9162.97
1019.992	8561.32
1020.343	7842.6
1020.694	6199.12
1021.045	5485.16
1021.396	6257.82
1021.747	6666.52
1022.098	8007.35
1022.449	5826.01
1022.8	5417.65
1023.151	3794.66
1023.501	3373.46
1023.852	3666.93
1024.202	3791.1
1024.553	4152.66
1024.903	4051.68
1025.253	3457.12
1025.604	3133.88
1025.954	3893.86
1026.304	4763.01
1026.654	5550.03
1027.004	8110.13
1027.354	13109
1027.703	12319.94
1028.053	16224.74
1028.403	23740.98
1028.753	34346.02
1029.102	46731.94
1029.452	238458.94
1029.801	10252.28
1030.15	6588.3
1030.499	5580.42
897.758	1992.97
901.051	1918.83
904.343	1952.27
907.636	1962.81
910.928	2022.57
914.22	1948.68
917.511	1951.98
920.803	1996.15
924.094	1985.06
927.384	1996.91
930.675	1958.73
933.965	1927.83
937.255	1964.74
940.544	1938.81
943.834	1922.92
947.123	1868.74
950.411	1950.01
953.7	1933.54
956.988	1925.3
960.276	1861.77
963.563	1898.34
966.851	1912.62
970.138	1950.2
973.424	1952.07
976.711	1905.34
979.997	1957.07
983.283	1996
986.568	1938.6
989.853	1920.16
993.138	1943.59
996.423	2031.46
999.708	1998.01
1002.992	2027.63
1006.275	1938.67
1009.559	1942.93
1012.842	2034.64
1016.125	1996.53
1019.408	1978.14
1022.69	2023.07
1025.972	2062.81
1029.254	2039.49
1032.536	2011.08
1035.817	2013.48
1039.098	1983.84
1042.379	2031.59
1045.659	2056.17
1048.939	2012.03
1052.219	2012.62
1055.498	2001.28
1058.778	2001.5
1062.057	1973.77
1065.335	1998.65
1068.614	2007.14
1071.892	2011.67
1075.17	2055.98
1078.447	2063.52
1081.724	2060.81
1085.001	2082.22
1088.278	2062.48
1091.554	2066.61
1094.83	2059.46
1098.106	2099.08
1101.382	2123.46
1104.657	2121.95
1107.932	2121.36
1111.206	2105.22
1114.481	2055.37
1117.755	2055.08
1121.029	2050.67
1124.302	2113.96
1127.575	2083.64
1130.848	2084.46
1134.121	2057.54
1137.393	2025.38
1140.665	2077.7
1143.937	2058.97
1147.208	2002.18
1150.48	2068.14
1153.75	2057.76
1157.021	2049.63
1160.291	2027.28
1163.561	2080.17
1166.831	2043.53
1170.101	2066.67
1173.37	2021.88
1176.639	1985.98
1179.907	2023.9
1183.176	2053.44
1186.444	2053.93
1189.711	2075.47
1192.979	2103.34
1196.246	2061.92
1199.513	2073.46
1202.78	2079.92
1206.046	2089.87
1209.312	2118.69
1212.578	2132.47
1215.843	2105.29
1219.108	2071.35
1222.373	2093.06
1225.638	2069.85
1228.902	2065.28
1232.166	2016.85
1235.43	2007.61
1238.693	2035.39
1241.956	2023.52
1245.219	2076.41
1248.482	2055.99
1251.744	2053.55
1255.006	2165.46
1258.268	2110.89
1261.529	2072.88
1264.79	2070.22
1268.051	2165.27
1271.312	2174.2
1274.572	2144.06
1277.832	2134.42
1281.092	2109.4
1284.351	2108.36
1287.61	2095.24
1290.869	2036.76
1294.128	2042.17
1297.386	2073.57
1300.644	2066.88
1303.902	2077.61
1307.159	1949.84
1310.416	2000.33
1313.673	2030.13
1316.93	2031
1320.186	2054.76
1323.442	2084.68
1326.697	2090.32
1329.953	2056.83
1333.208	2098.21
1336.463	2070.5
1339.717	2038.74
1342.972	2133.99
1346.226	2104.52
1349.479	2058.69
1352.733	2043.64
1355.986	2041.55
1359.238	2023.84
1362.491	2029.64
1365.743	2028.1
1368.995	2018
1372.247	2031.7
1375.498	2048.12
1378.749	2097.24
1382	2046.64
1385.251	2075.53
1388.501	2027.52
1391.751	2036.39
1395	2001.15
1398.25	2024.61
1401.499	2052.88
1404.748	2009.83
1407.996	1985.54
1411.244	1977.35
1414.492	1965.38
1417.74	1953.63
1420.987	1955.58
1424.234	2012.88
1427.481	1971.64
1430.728	2028.16
1433.974	2001.99
1437.22	1994.81
1440.465	1990.21
1443.711	1999.45
1446.956	2020.29
1450.201	1984.27
1453.445	2026.14
1456.689	2019.77
1459.933	2030.66
1463.177	2071.79
1466.42	2045.9
1469.663	2032.26
1472.906	2055.48
1476.148	2099.06
1479.391	2054.85
1482.633	2033.33
1485.874	2066.48
1489.115	2075.99
1492.356	2055.34
1495.597	2034.99
1498.838	2023.84
1502.078	2013.74
1505.318	1992.16
1508.557	2022.3
1511.797	2021.42
1515.036	2078.82
1518.274	2042.06
1521.513	1988.07
1524.751	1996.28
1527.989	2020.79
1531.227	2042.96
1534.464	2064.57
1537.701	2053.21
1540.938	2063.35
1544.174	2010.88
1547.41	1996.75
1550.646	2033.6
1553.882	2087.48
1557.117	2145.33
1560.352	2151.54
1563.587	2119.84
1566.821	2087.11
1570.055	2096.82
1573.289	2079.81
1576.523	2128.83
1579.756	2148.19
1582.989	2171.63
1586.222	2133.43
1589.454	2155.7
1592.686	2144.42
1595.918	2171.76
1599.15	2170.99
1602.381	2207.8
1605.612	2195.78
1608.843	2286.84
1612.073	2214.56
1615.303	2204.19
1618.533	2205.83
1621.762	2200.43
1624.992	2174.36
1628.221	2181.76
1631.449	2171.62
1634.678	2186.18
1637.906	2156.52
1641.134	2181.32
1644.361	2149.18
1647.588	2142
1650.815	2162.84
1654.042	2122
1657.269	2149.53
1660.495	2139.28
1663.72	2112.75
1666.946	2081.83
1670.171	2068.18
1673.396	2042.97
1676.621	2021.84
1679.845	2011.19
1683.069	2012.13
1686.293	2039.72
1689.517	2035.26
1692.74	1995.02
1695.963	2012.21
1699.185	2060.38
1702.408	2038.36
1705.63	2060.12
1708.852	2081.62
1712.073	2052.91
1715.294	2072.63
1718.515	2108.9
1721.736	2071.25
1724.956	2046.37
1728.176	2065.46
1731.396	2087.48
1734.616	2073.71
1737.835	2108.61
1741.054	2078.9
1744.272	2069.95
1747.491	2112.85
1750.709	2125.42
1753.927	2090.39
1757.144	2107.56
1760.361	2172.37
1763.578	2139.56
1766.795	2092.6
1770.011	2076.21
1773.227	2095.96
1776.443	2140.21
1779.658	2180.01
1782.874	2117.62
1786.089	2116.13
1789.303	2117.78
1792.518	2112.62
1795.732	2098.76
1798.945	2117.66
1802.159	2155.75
1805.372	2111.22
1808.585	2108.29
1811.797	2108.39
1815.01	2118.54
1818.222	2149.96
1821.434	2100.38
1824.645	2138.23
1827.856	2152.67
1831.067	2179.85
1834.278	2112.45
1837.488	2097.01
1840.698	2207.69
1843.908	2156.34
1847.117	2126.28
1850.326	2070.28
1853.535	2110.84
1856.744	2153.78
1859.952	2080.66
1863.16	2083.09
1866.368	2093.06
1869.575	2207.25
1872.782	2090.2
1875.989	2024.82
1879.196	2059.98
1882.402	2053.25
1885.608	2079.88
1888.814	2039.4
1892.019	1952.12
1895.224	2000.39
1898.429	1961.99
1901.634	1947.29
1904.838	1922.18
1908.042	1981.88
1911.246	1992.22
1914.449	1967.08
1917.652	1943.65
1920.855	1925.56
1924.058	1939.42
1927.26	1986.65
1930.462	2004.43
1933.664	2047.55
1936.865	1997.07
1940.066	2015.19
1943.267	1958.52
1946.467	1968.92
1949.668	1983.07
1952.868	2052.51
1956.067	2047.45
1959.267	1992.96
1962.466	2012.94
1965.665	1996.79
1968.863	1990.32
1972.061	1989.19
1975.259	1980.76
1978.457	2051.61
1981.654	2012.9
1984.852	2018.25
1988.048	1977.27
1991.245	1959.96
1994.441	2050.7
1997.637	1998.41
2000.833	1984.03
2004.028	2017.64
2007.223	2077.9
2010.418	2071.82
2013.613	2017.49
2016.807	2020.09
2020.001	2009.85
2023.194	2025.8
2026.388	2015.37
2029.581	1958.45
2032.774	2028
2035.966	2038.92
2039.158	1990.61
2042.35	2006.87
2045.542	1934.58
2048.733	2012.26
2051.924	1993.15
2055.115	2007.12
2058.306	1979.3
2061.496	2032.39
2064.686	2072.38
2067.875	1979.38
2071.065	1974.99
2074.254	1990.32
2077.442	1949.94
2080.631	2026.6
2083.819	1975.09
2087.007	1971.86
2090.195	1959.38
2093.382	1967.78
2096.569	1952.94
2099.756	1921.49
2102.942	1975.52
2106.128	1995.77
2109.314	1984.06
2112.5	1975.21
2115.685	1939.68
2118.87	1946.85
2122.055	2002.69
2125.239	1988.37
2128.424	1982.53
2131.608	2024.94
2134.791	2008.55
2137.974	2038.69
2141.157	2028.79
2144.34	2005.39
2147.523	1988.25
2150.705	2019.6
2153.887	1980.99
2157.068	1964.56
2160.25	1938.05
2163.431	1954.79
2166.611	1934.57
2169.792	1958.88
2172.972	1877.97
2176.152	1916.03
2179.331	1942.43
2182.511	1950.75
2185.69	1971.14
2188.868	1980.76
2192.047	2006.61
2195.225	2032.21
2198.403	1980.24
2201.58	1963.89
2204.758	1947.42
2207.935	2017.83
2211.111	1946.4
2214.288	1934.23
2217.464	1966.55
2220.64	1914.58
2223.815	1960.01
2226.991	1898.64
2230.166	1913.01
2233.34	1961.16
2236.515	1972.14
2239.689	2029.91
2242.863	1983.37
2246.036	2032.49
2249.209	2013.07
2252.382	2025.95
2255.555	2041.85
2258.727	1999.32
2261.9	2021.93
2265.071	2015
2268.243	2009.55
2271.414	1963.25
2274.585	1956.52
2277.756	2013.97
2280.926	1969.86
2284.096	1992.87
2287.266	1933.5
2290.436	1979.9
2293.605	1995.04
2296.774	2036.69
2299.942	2035.14
2303.111	2048.17
2306.279	2102.41
2309.447	2086.29
2312.614	2054.16
2315.781	2082.7
2318.948	2061.26
2322.115	2097.54
2325.281	1996.12
2328.447	1998.45
2331.613	1968.54
2334.779	1966.29
2337.944	1959.63
2341.109	1961.76
2344.274	1951.83
2347.438	1922.54
2350.602	1940.7
2353.766	1947.86
2356.929	1937.43
2360.092	1973.53
2363.255	1953.27
2366.418	1929.84
2369.58	1975.54
2372.742	1889.11
2375.904	1873.51
2379.066	1863.27
2382.227	1885.87
2385.388	1850.26
2388.548	1809.96
2391.709	1847.9
2394.869	1840.66
2398.029	1876.32
2401.188	1866.98
2404.347	1844.22
2407.506	1896.41
2410.665	1939.73
2413.823	1918.89
2416.981	1905.43
2420.139	1914.62
2423.296	1951.93
2426.453	1923.89
2429.61	1942.9
2432.767	1929.27
2435.923	1970.55
2439.079	1910.5
2442.235	1937.27
2445.391	1886.12
2448.546	1932.08
2451.701	1959.47
2454.855	1964.56
2458.009	1984.47
2461.163	1968.74
2464.317	1947.42
2467.471	1969.84
2470.624	1992.79
2473.777	1991.35
2476.929	2011.13
2480.082	2031.18
2483.234	2009.28
2486.385	1948.2
2489.537	1941.71
2492.688	1942
2495.839	1956.51
2498.989	1971.23
2502.14	1959.75
2505.29	1955.71
2508.439	1977.24
2511.589	1924.58
2514.738	1921.95
2517.887	1940.01
2521.035	2018.34
2524.183	1969.48
2527.331	1959.86
2530.479	1962.28
2533.627	1961.39
