Data from C_1_DEC_OH_4N_Splice17_11-55-52-384.txt Node
Date: Sat Mar 14 11:55:52 EDT 2020
User: sa697716
Spectrometer: FLMS03696
Trigger mode: 0
Integration Time (sec): 3.180400E-1
Scans to average: 20
Electric dark correction enabled: true
Nonlinearity correction enabled: true
Boxcar width: 5
XAxis mode: Wavelengths
Number of Pixels in Spectrum: 2048
>>>>>Begin Spectral Data<<<<<
187.83	-366938.58
188.298	2686
188.766	1380.37
189.233	1296.51
189.701	1789
190.169	2492.84
190.636	990.53
191.104	715.93
191.571	133.65
192.039	-6.85
192.506	36.65
192.974	579.84
193.441	-648.48
193.908	-181.57
194.375	3.6
194.842	46.38
195.31	120.93
195.777	187.19
196.244	359.95
196.711	457.84
197.177	607.11
197.644	855.5
198.111	1449.68
198.578	1998.36
199.045	1588.66
199.511	2564.58
199.978	2976.57
200.445	2545.3
200.911	2806.18
201.378	3138.64
201.844	2832.96
202.31	4756.47
202.777	4954.26
203.243	2735.92
203.709	2578.34
204.176	3089.93
204.642	2548.18
205.108	2369.38
205.574	1916.52
206.04	1746.26
206.506	1647.58
206.972	1569.01
207.438	1522.38
207.903	1733.38
208.369	1545.94
208.835	1560.99
209.301	1626.38
209.766	1667.08
210.232	1663.88
210.697	2065.06
211.163	2560.09
211.628	3839.46
212.094	3196.65
212.559	3911.29
213.024	2425.97
213.49	2951.18
213.955	2857.29
214.42	2799.26
214.885	2604.15
215.35	2500.67
215.815	2404.04
216.28	2545.76
216.745	2079.36
217.21	2252.1
217.675	2066.18
218.14	2328.77
218.604	2584.18
219.069	2966.78
219.534	3098.13
219.998	3606.97
220.463	4356.2
220.927	5376.96
221.392	5064.34
221.856	5128.17
222.32	6449.38
222.785	7975.83
223.249	10078.95
223.713	11260.56
224.177	11224.37
224.642	14445.83
225.106	17787.2
225.57	19502.71
226.034	14537.28
226.497	22110.76
226.961	19975.46
227.425	23312.49
227.889	25911.7
228.353	25825.73
228.816	53332.84
229.28	51016.59
229.744	42937.58
230.207	26088.65
230.671	25664.54
231.134	42322.21
231.597	48798.19
232.061	48747.76
232.524	47490.9
232.987	32636.22
233.45	29390.3
233.914	26337.56
234.377	27000.77
234.84	24710.96
235.303	29126.5
235.766	32416.77
236.229	33448.85
236.691	21047.59
237.154	23624.75
237.617	17777.85
238.08	18209.94
238.542	21314.66
239.005	15230.61
239.468	15094.64
239.93	14215.29
240.393	12909.09
240.855	11342.59
241.317	11611.27
241.78	14121.88
242.242	14597.8
242.704	15722.57
243.166	13667.31
243.629	12397.51
244.091	14271.58
244.553	15635.58
245.015	16817.39
245.477	21724.7
245.939	31827.57
246.4	33791.06
246.862	32818.16
247.324	30937.12
247.786	34650.94
248.247	45459.92
248.709	46928.13
249.17	35106.97
249.632	33114.49
250.093	38372.99
250.555	33160.33
251.016	20210.71
251.477	19162.61
251.939	20726.41
252.4	21721.18
252.861	25806.18
253.322	23979.65
253.783	28551.11
254.244	37044.25
254.705	29145.13
255.166	25902.53
255.627	25513.4
256.088	36011.19
256.549	38291.15
257.009	32930.24
257.47	40014.68
257.931	32603.64
258.391	24480.55
258.852	25227.79
259.312	26473.34
259.773	32761.11
260.233	27722.46
260.694	23397.11
261.154	26528.46
261.614	21283.08
262.074	19036.13
262.534	19762.04
262.994	18632.21
263.455	24832.6
263.915	20913.56
264.374	19701.56
264.834	21503.17
265.294	23788.07
265.754	24645.27
266.214	23336.3
266.673	21880.15
267.133	27639.46
267.593	27437.4
268.052	33600.25
268.512	29197.46
268.971	35232.79
269.431	38619.75
269.89	34582.96
270.349	51917.08
270.809	57920.97
271.268	52102.45
271.727	116769.37
272.186	75565.46
272.645	56694.28
273.104	40867.77
273.563	59188.15
274.022	46542.79
274.481	39552.19
274.94	30493.47
275.399	22663.87
275.857	26369.91
276.316	35643.66
276.775	31733.57
277.233	31269.81
277.692	29264.23
278.15	33141.42
278.609	34123
279.067	31597.21
279.525	29400.54
279.984	37950.59
280.442	45598.33
280.9	44988.92
281.358	29632.34
281.816	27641.54
282.274	27047.52
282.732	27947.36
283.19	28068.93
283.648	24228.58
284.106	25816.83
284.564	26282.73
285.021	24407.51
285.479	18204.05
285.937	16557.03
286.394	14531.93
286.852	14958.23
287.309	15734.97
287.767	15211.46
288.224	14460.66
288.682	15860.46
289.139	17413.91
289.596	15909.22
290.053	16510.75
290.511	20813.51
290.968	25239.12
291.425	34225.04
291.882	28478.18
292.339	24796.92
292.796	24576
293.252	23172.35
293.709	18394.79
294.166	16477.4
294.623	18223.82
295.079	17513.62
295.536	17607.5
295.992	15983.03
296.449	15799.54
296.905	16430.04
297.362	15759.56
297.818	16586.83
298.274	17202.91
298.731	17531.75
299.187	17352.25
299.643	18632.44
300.099	22524.44
300.555	24690.53
301.011	20629.34
301.467	19890.77
301.923	23261.92
302.379	22701.72
302.835	22314.14
303.291	22343
303.746	25440.43
304.202	32147.32
304.658	32242.75
305.113	21677.88
305.569	21265.06
306.024	22676.49
306.479	21601.37
306.935	18230.92
307.39	19894.56
307.845	18378.58
308.301	18479.48
308.756	17997.74
309.211	17334.57
309.666	17761.82
310.121	22052.88
310.576	22372.1
311.031	22193.16
311.486	25436.97
311.94	25431.09
312.395	34025.96
312.85	63867.94
313.305	314644.25
313.759	1629530.76
314.214	118031.5
314.668	93647.1
315.123	78821.94
315.577	28272.5
316.032	25185.83
316.486	31540.32
316.94	24833.84
317.394	17313.59
317.849	13456.65
318.303	12711.4
318.757	11990.26
319.211	13274.69
319.665	11605.93
320.119	11730.68
320.572	16815.36
321.026	15682.76
321.48	13036.49
321.934	14214.92
322.387	14213.68
322.841	15361.98
323.295	13828.72
323.748	15917.07
324.202	16117.48
324.655	19365.5
325.108	27044.15
325.562	19110.7
326.015	22695.61
326.468	17164.32
326.921	19205.73
327.374	17951.56
327.827	18699.27
328.28	21140.08
328.733	14164.15
329.186	12455.65
329.639	11863.01
330.092	10008.12
330.545	9539.66
330.997	9625.65
331.45	10524.21
331.903	12322.81
332.355	21158.54
332.808	20563.76
333.26	16967.03
333.713	18406.33
334.165	18563.24
334.617	24757.74
335.069	19995.53
335.522	36119.55
335.974	39962.69
336.426	36529.5
336.878	25305.04
337.33	12830.36
337.782	12509.12
338.234	15668.25
338.686	18773.2
339.137	22223.19
339.589	20969.85
340.041	16422.91
340.493	14124.5
340.944	14458.48
341.396	15524.54
341.847	13063.37
342.299	15433.27
342.75	18812.18
343.201	16437.58
343.653	18868.51
344.104	23181.18
344.555	18241.95
345.006	28408.99
345.457	21731.06
345.908	17311.52
346.359	16316.97
346.81	13295.06
347.261	13983.29
347.712	13801.08
348.163	14785.46
348.613	14990.05
349.064	13989.19
349.515	12243.17
349.965	12545.28
350.416	15123.08
350.866	16576.4
351.317	18762.64
351.767	31073.55
352.217	39369.08
352.668	32626.72
353.118	29883.81
353.568	28842.96
354.018	22859.48
354.468	24147.18
354.918	17350.85
355.368	15171.9
355.818	21413.91
356.268	61482.24
356.718	257328.45
357.168	64039.78
357.617	32173.34
358.067	35810.35
358.517	33481.79
358.966	39213.39
359.416	43972.83
359.865	47530.47
360.315	56611.13
360.764	26450.25
361.213	14841.91
361.663	14057.29
362.112	17308.97
362.561	27874.11
363.01	21026.87
363.459	17723.86
363.908	19137.1
364.357	16239.13
364.806	27392.24
365.255	18819.64
365.703	17239.42
366.152	17259.25
366.601	13971.8
367.05	11333.14
367.498	10335.98
367.947	10816.94
368.395	11236.12
368.844	9976.28
369.292	12016.73
369.74	8307.22
370.189	12732.25
370.637	14900.81
371.085	12833.19
371.533	15660.6
371.981	15118.35
372.429	14390.7
372.877	14951.8
373.325	12513.9
373.773	12719.53
374.221	11299.82
374.669	14007.96
375.116	12085.61
375.564	12183.29
376.012	13616.28
376.459	11201.76
376.907	13368.37
377.354	16117.89
377.801	15029.4
378.249	17277.61
378.696	22085.56
379.143	26764.47
379.591	28540.39
380.038	48161.47
380.485	34822.31
380.932	37586.49
381.379	34375.19
381.826	25303.12
382.273	18018.82
382.72	15734.93
383.166	15320.42
383.613	9932.38
384.06	8948.94
384.506	10342.41
384.953	7604.5
385.4	7637.04
385.846	6684.53
386.292	6514.23
386.739	6374.08
387.185	6277.49
387.631	6280.65
388.078	6103.04
388.524	6515.19
388.97	6013.46
389.416	5005.63
389.862	5312.51
390.308	5030.5
390.754	5100.5
391.2	5516.14
391.645	5633.42
392.091	5399.33
392.537	5219.42
392.983	5218.35
393.428	5135.71
393.874	5492.21
394.319	5512.93
394.765	5227.54
395.21	5368.17
395.655	5033.28
396.101	4719.77
396.546	4258.47
396.991	4294.75
397.436	3982.54
397.881	3847.48
398.326	3644.81
398.771	3446.19
399.216	3012.04
399.661	2707.07
400.106	2693.99
400.551	2761.27
400.995	2473.78
401.44	2447
401.885	2292.58
402.329	2311.04
402.774	2210.89
403.218	2136.05
403.663	2055.08
404.107	2108.05
404.551	2126.35
404.995	1949.07
405.44	1871
405.884	1893.94
406.328	1827.43
406.772	1823.21
407.216	1658.67
407.66	1599
408.104	1516.94
408.547	1420.04
408.991	1375.66
409.435	1319.72
409.879	1300.21
410.322	1282.16
410.766	1239.14
411.209	1176.79
411.653	1128.3
412.096	1105.56
412.54	1102.62
412.983	1092.37
413.426	1095.52
413.869	1091.04
414.312	1071.06
414.756	1033.96
415.199	984.94
415.642	953.14
416.085	954.27
416.527	945.23
416.97	958.16
417.413	911.15
417.856	900.93
418.298	888.4
418.741	880.84
419.184	876.19
419.626	906.63
420.069	904.43
420.511	911.99
420.953	891.46
421.396	882.12
421.838	858.59
422.28	879.25
422.722	885.61
423.164	900.33
423.606	885.3
424.048	885.29
424.49	844.35
424.932	841.57
425.374	830.27
425.816	842.68
426.258	860.17
426.699	870.01
427.141	857.36
427.582	868.89
428.024	861.47
428.465	854.63
428.907	832.47
429.348	823.29
429.789	824.4
430.231	805.8
430.672	818.83
431.113	798.23
431.554	786.85
431.995	764.51
432.436	735.81
432.877	720.81
433.318	710.45
433.759	706.21
434.2	704.62
434.64	697.99
435.081	702.26
435.522	666.2
435.962	644.78
436.403	633.05
436.843	643.57
437.284	631.54
437.724	614.92
438.164	615.44
438.604	603.99
439.045	582.8
439.485	557.57
439.925	545.01
440.365	532.02
440.805	523.39
441.245	515.86
441.685	495.97
442.125	491.45
442.564	494.83
443.004	484.23
443.444	483.97
443.883	483.89
444.323	480.29
444.762	479.14
445.202	485.6
445.641	494.64
446.081	490.8
446.52	496.03
446.959	491.22
447.398	480.61
447.837	476.01
448.276	465.27
448.716	471.76
449.154	475.54
449.593	466.5
450.032	463.19
450.471	453.77
450.91	453.95
451.349	451.78
451.787	451.31
452.226	456.11
452.664	455.1
453.103	455.66
453.541	451.34
453.98	450.99
454.418	452.85
454.856	447.2
455.295	446.58
455.733	449.12
456.171	450.9
456.609	451.02
457.047	450.6
457.485	457.54
457.923	458.88
458.361	452.89
458.798	453.76
459.236	452.06
459.674	453.76
460.111	455.62
460.549	452.32
460.987	451.31
461.424	448.98
461.862	447.01
462.299	440.18
462.736	440.85
463.173	443.68
463.611	440.39
464.048	439.93
464.485	444.4
464.922	440.79
465.359	438.4
465.796	436.16
466.233	434.82
466.67	432.34
467.106	431.62
467.543	424.85
467.98	418.49
468.416	406.86
468.853	403.18
469.29	390.69
469.726	386.47
470.162	375.71
470.599	368.37
471.035	364.07
471.471	354.24
471.907	350.46
472.344	349.93
472.78	351.13
473.216	355.37
473.652	351.53
474.088	350.41
474.523	348.92
474.959	351.43
475.395	347.93
475.831	344.96
476.266	346.25
476.702	345.36
477.138	340.89
477.573	338.54
478.008	337.22
478.444	337.83
478.879	340.48
479.314	341.29
479.75	341.01
480.185	341.14
480.62	343.4
481.055	344.25
481.49	346.58
481.925	351.25
482.36	358.12
482.795	366.88
483.229	375.97
483.664	383.7
484.099	384.92
484.534	390.22
484.968	394.21
485.403	394.79
485.837	393.8
486.271	391.81
486.706	391.66
487.14	386.66
487.574	380.3
488.009	377.01
488.443	373.32
488.877	376.82
489.311	378.03
489.745	381.4
490.179	384.57
490.613	393.66
491.046	396.76
491.48	399.97
491.914	400.66
492.348	403.62
492.781	406.16
493.215	407.54
493.648	408.38
494.082	411.65
494.515	413.45
494.948	419.31
495.382	421.19
495.815	425.66
496.248	429.96
496.681	438.09
497.114	446.03
497.547	454.1
497.98	463.51
498.413	469.34
498.846	477.18
499.279	483.58
499.711	487.59
500.144	491.06
500.577	500.11
501.009	508.99
501.442	518.44
501.874	522.15
502.306	525.33
502.739	534.27
503.171	546.36
503.603	552.2
504.036	562.25
504.468	570.09
504.9	581.48
505.332	589.43
505.764	597.02
506.196	605.02
506.627	619.24
507.059	633.35
507.491	641.75
507.923	645.42
508.354	660.36
508.786	672.36
509.217	689.94
509.649	705.87
510.08	725.55
510.512	743.25
510.943	760.06
511.374	774.7
511.805	794.88
512.237	815.73
512.668	846.51
513.099	873.35
513.53	900.44
513.961	922.63
514.391	953.25
514.822	984.88
515.253	1019.45
515.684	1046.56
516.114	1076.18
516.545	1100.01
516.975	1128.89
517.406	1150.17
517.836	1158.36
518.267	1170.37
518.697	1192.39
519.127	1202.66
519.558	1213.31
519.988	1221.97
520.418	1236.34
520.848	1255.99
521.278	1269.04
521.708	1291.51
522.138	1307.65
522.567	1339.59
522.997	1366.5
523.427	1384.95
523.857	1404.01
524.286	1419.55
524.716	1436.1
525.145	1456.54
525.575	1470.9
526.004	1487.89
526.433	1484.19
526.863	1487.21
527.292	1481.08
527.721	1488.9
528.15	1495.99
528.579	1499.71
529.008	1511.73
529.437	1535.37
529.866	1550.42
530.295	1567.71
530.724	1580.92
531.152	1606.64
531.581	1622.03
532.01	1640.28
532.438	1650.19
532.867	1665.23
533.295	1684.26
533.723	1690.95
534.152	1690.95
534.58	1692.1
535.008	1678.51
535.436	1681.22
535.865	1690.14
536.293	1703.93
536.721	1719.71
537.149	1744.89
537.576	1748.36
538.004	1760.65
538.432	1768.41
538.86	1767.52
539.287	1775.16
539.715	1789.65
540.143	1793.94
540.57	1791.16
540.998	1789.3
541.425	1769.21
541.852	1749.39
542.28	1748.52
542.707	1733.37
543.134	1720.71
543.561	1717.98
543.988	1712.2
544.415	1712.11
544.842	1707.03
545.269	1701.09
545.696	1701.62
546.123	1714.47
546.549	1704.86
546.976	1692.19
547.403	1691.29
547.829	1693.91
548.256	1694.87
548.682	1689.6
549.108	1682.07
549.535	1681.47
549.961	1681.98
550.387	1670.68
550.813	1663.76
551.24	1669.35
551.666	1671.2
552.092	1662.27
552.518	1654.93
552.943	1648.04
553.369	1654.89
553.795	1659.49
554.221	1658.84
554.646	1655.82
555.072	1663.56
555.498	1666.63
555.923	1673.1
556.349	1684.81
556.774	1690.48
557.199	1689.15
557.625	1692.37
558.05	1684.47
558.475	1692.04
558.9	1688.32
559.325	1678.31
559.75	1670.18
560.175	1661.94
560.6	1653.92
561.025	1649.05
561.449	1646.13
561.874	1650.28
562.299	1651.96
562.723	1655.3
563.148	1642.89
563.572	1643.5
563.997	1649.56
564.421	1651.89
564.846	1649.22
565.27	1649.41
565.694	1643.12
566.118	1651.74
566.542	1653.31
566.966	1644.56
567.39	1637.34
567.814	1623.24
568.238	1619.98
568.662	1620.06
569.086	1617.09
569.509	1619.98
569.933	1602.12
570.357	1592.69
570.78	1571.42
571.204	1556.76
571.627	1543.57
572.05	1538.02
572.474	1534.89
572.897	1519.96
573.32	1510.28
573.743	1498.78
574.166	1479.66
574.589	1476.35
575.012	1467.04
575.435	1460.83
575.858	1449.68
576.281	1436.02
576.704	1418.64
577.126	1405.33
577.549	1392.89
577.972	1380.03
578.394	1368.11
578.817	1359.56
579.239	1340.7
579.661	1326.77
580.084	1312.25
580.506	1298.7
580.928	1294.14
581.35	1283.07
581.772	1275.8
582.194	1262.42
582.616	1251.05
583.038	1236.64
583.46	1224.92
583.882	1220.79
584.303	1220.99
584.725	1215.49
585.147	1215.51
585.568	1221.75
585.99	1229.97
586.411	1233.61
586.833	1243.99
587.254	1243.35
587.675	1254.49
588.096	1263.42
588.518	1256.27
588.939	1241.34
589.36	1237.28
589.781	1226.37
590.202	1203.17
590.623	1195.03
591.043	1192.64
591.464	1181.58
591.885	1177.51
592.305	1171.52
592.726	1159.74
593.147	1160.66
593.567	1156.83
593.987	1150.75
594.408	1146.86
594.828	1143.53
595.248	1137.93
595.669	1123.23
596.089	1116.55
596.509	1110.92
596.929	1098.98
597.349	1098.28
597.769	1089.95
598.189	1083.89
598.608	1083.83
599.028	1083.86
599.448	1082.77
599.867	1071.79
600.287	1066.95
600.706	1062.43
601.126	1054.01
601.545	1052.35
601.965	1049.56
602.384	1044.58
602.803	1044.4
603.222	1039.25
603.641	1033.04
604.061	1029.29
604.48	1024.42
604.898	1028.35
605.317	1030.33
605.736	1030.26
606.155	1026.14
606.574	1017.75
606.992	1019.37
607.411	1014.71
607.829	1005.76
608.248	1000.74
608.666	995.94
609.085	993.54
609.503	985.5
609.921	978.97
610.339	977.47
610.758	974.14
611.176	968.48
611.594	959.42
612.012	953.8
612.43	954.57
612.847	957.55
613.265	956.18
613.683	957.83
614.101	956.29
614.518	950.67
614.936	941.13
615.353	928.69
615.771	924.85
616.188	922.5
616.606	917.79
617.023	911.15
617.44	899.39
617.857	892.63
618.274	884.24
618.691	878.03
619.108	870.1
619.525	863.71
619.942	867.64
620.359	867.39
620.776	862.4
621.192	859.59
621.609	857.37
622.026	859.98
622.442	862.24
622.859	862.91
623.275	857.19
623.691	859.54
624.108	867.78
624.524	876.43
624.94	875.51
625.356	881.81
625.772	889.84
626.188	896.53
626.604	898.31
627.02	896.99
627.436	896.66
627.852	902.33
628.268	910.87
628.683	904.06
629.099	898.08
629.514	895.36
629.93	898.32
630.345	901.02
630.761	898.23
631.176	899.71
631.591	895.42
632.007	890.44
632.422	887.88
632.837	879.33
633.252	877.32
633.667	870.04
634.082	864.03
634.497	854.35
634.911	840.88
635.326	837.17
635.741	824.27
636.155	815.78
636.57	815.16
636.984	813.47
637.399	813.52
637.813	810.95
638.228	807.69
638.642	806.83
639.056	797.02
639.47	794.13
639.884	785.67
640.298	778.56
640.712	775
641.126	763.55
641.54	754.1
641.954	746.85
642.368	736.17
642.781	729.05
643.195	714.49
643.609	712.88
644.022	705.33
644.436	699.52
644.849	689.17
645.262	677.91
645.676	675.34
646.089	669.19
646.502	658.04
646.915	652.1
647.328	638.69
647.741	635.14
648.154	625
648.567	621.92
648.98	612.14
649.393	610.33
649.805	606.44
650.218	600.68
650.631	590.49
651.043	585.83
651.456	581.4
651.868	579.73
652.28	588.57
652.693	594.58
653.105	596.6
653.517	601.17
653.929	599.54
654.341	601.41
654.753	592.78
655.165	595.16
655.577	591.52
655.989	587.15
656.401	580.62
656.813	559
657.224	544.98
657.636	526.27
658.047	515.15
658.459	503.29
658.87	496.05
659.282	487.86
659.693	475.06
660.104	465.91
660.515	456.73
660.926	454.53
661.338	451.9
661.749	447.41
662.159	442.62
662.57	438.58
662.981	434.83
663.392	430.53
663.803	432.18
664.213	429.86
664.624	426.73
665.035	428.26
665.445	420.65
665.855	416.85
666.266	414.13
666.676	412.59
667.086	407.1
667.497	407.69
667.907	405.25
668.317	400.88
668.727	401.16
669.137	401.3
669.547	400.15
669.956	401.92
670.366	403.16
670.776	404.07
671.186	407.37
671.595	411.09
672.005	412.35
672.414	412.98
672.824	413.33
673.233	415.26
673.642	417.38
674.052	420.52
674.461	423.42
674.87	427.18
675.279	426.93
675.688	427.16
676.097	428.99
676.506	428.54
676.915	437.52
677.323	440.27
677.732	439.3
678.141	441.35
678.549	435.66
678.958	435.14
679.366	434.87
679.775	438.35
680.183	447.36
680.592	451.21
681	455.39
681.408	452.16
681.816	456.35
682.224	462.28
682.632	468.69
683.04	486.67
683.448	502.07
683.856	519.91
684.264	541.52
684.671	559.62
685.079	584.18
685.487	612.43
685.894	650.7
686.302	682.96
686.709	711.64
687.116	745
687.524	775.41
687.931	803.38
688.338	829.8
688.745	853.4
689.152	880.45
689.559	918.09
689.966	956.26
690.373	981.11
690.78	1021.89
691.187	1076.67
691.593	1123.04
692	1165.24
692.407	1223.46
692.813	1293.39
693.22	1352.9
693.626	1415.48
694.032	1469.55
694.439	1543.87
694.845	1606.94
695.251	1682.52
695.657	1753.98
696.063	1850.58
696.469	1929
696.875	2003.25
697.281	2055.29
697.687	2114.45
698.093	2167.22
698.498	2249.24
698.904	2317.76
699.31	2412.49
699.715	2485.31
700.12	2582.39
700.526	2616.49
700.931	2694.94
701.337	2758.7
701.742	2804.52
702.147	2895.3
702.552	2939.04
702.957	3007.84
703.362	3042.47
703.767	3082.18
704.172	3133.37
704.577	3103.28
704.981	3161.39
705.386	3191.25
705.791	3196.4
706.195	3280.08
706.6	3302.24
707.004	3392.14
707.408	3375.7
707.813	3412.44
708.217	3412.61
708.621	3427.08
709.025	3533.61
709.43	3546.01
709.834	3615.68
710.237	3697.11
710.641	3693.31
711.045	3725.42
711.449	3728.91
711.853	3769.1
712.256	3820.06
712.66	3867.03
713.064	3951.24
713.467	4001.95
713.87	4123.27
714.274	4178.62
714.677	4298.21
715.08	4469
715.484	4649.02
715.887	4863.85
716.29	5073.21
716.693	5294.2
717.096	5549.68
717.499	5693.2
717.901	5725.92
718.304	5762.91
718.707	5799.25
719.109	5702.31
719.512	5679.85
719.915	5548.75
720.317	5499.18
720.719	5553.08
721.122	5531.68
721.524	5487
721.926	5452.1
722.328	5566.5
722.731	5561.77
723.133	5595.37
723.535	5800.6
723.937	5826.73
724.338	5884.96
724.74	5933.73
725.142	5858.11
725.544	5859.54
725.945	5890.35
726.347	5890.68
726.748	5888.04
727.15	5907.61
727.551	5872.4
727.952	5852.11
728.354	5827.61
728.755	5833.4
729.156	5791.58
729.557	5795.98
729.958	5670.98
730.359	5618.89
730.76	5602.98
731.161	5545.4
731.562	5521.97
731.962	5527.94
732.363	5459.83
732.763	5395.17
733.164	5436.84
733.564	5368.52
733.965	5269.06
734.365	5232.71
734.766	5264.94
735.166	5225.26
735.566	5165.03
735.966	5140.65
736.366	5138.41
736.766	5073.93
737.166	5109.14
737.566	5066.44
737.966	5040.08
738.365	5084.62
738.765	5082.95
739.165	5005.13
739.564	4977.4
739.964	5029.08
740.363	4981.26
740.763	4979.38
741.162	4968.97
741.561	4934.45
741.96	4886.73
742.36	4911.03
742.759	4915.63
743.158	4957.14
743.557	4971.05
743.955	5015.1
744.354	4966.17
744.753	5028.9
745.152	4986.49
745.55	5044.25
745.949	5038.91
746.348	5041.53
746.746	5057.62
747.144	5015.53
747.543	4992.02
747.941	5045.64
748.339	4970.69
748.737	4963
749.136	4951.42
749.534	5020.04
749.932	4989.78
750.33	5015.62
750.727	5073.27
751.125	5049.75
751.523	5035.64
751.921	5083.65
752.318	5048.42
752.716	5110.44
753.113	5124.64
753.511	5153.31
753.908	5152.37
754.305	5133.95
754.703	5201.1
755.1	5265.1
755.497	5328.52
755.894	5529.58
756.291	5717.54
756.688	6067.13
757.085	6535.45
757.482	7191.39
757.878	7906.96
758.275	8557.51
758.672	9454.56
759.068	10179.07
759.465	11221.99
759.861	12558.91
760.258	14112.56
760.654	14917.81
761.05	14801.32
761.447	14124.72
761.843	13153.31
762.239	12145.81
762.635	11690.56
763.031	11255.86
763.427	10626.18
763.822	9959.26
764.218	9303.86
764.614	8453.76
765.01	7888.59
765.405	7519.69
765.801	7242.48
766.196	6885.95
766.592	6689.7
766.987	6354.94
767.382	6128.81
767.778	6035.12
768.173	5897.54
768.568	5821.04
768.963	5689.52
769.358	5707.83
769.753	5656.59
770.148	5567.59
770.542	5567.86
770.937	5532.26
771.332	5628.32
771.726	5645.11
772.121	5576.4
772.515	5635.7
772.91	5623.13
773.304	5698.7
773.699	5628.88
774.093	5687.26
774.487	5743.38
774.881	5789.91
775.275	5786.91
775.669	5741.78
776.063	5791.37
776.457	5828.43
776.851	5750.86
777.245	5740.85
777.638	5774.69
778.032	5897.69
778.425	5859.57
778.819	5903.77
779.212	5857.91
779.606	5816.61
779.999	5839.33
780.392	5820.78
780.786	5910.83
781.179	5931.1
781.572	5974.47
781.965	5989.61
782.358	5924.24
782.751	5986.71
783.143	5936.59
783.536	6011.75
783.929	6055.49
784.322	6174.08
784.714	6206.86
785.107	6198.87
785.499	6274.44
785.891	6251.9
786.284	6229.51
786.676	6380.68
787.068	6353.25
787.46	6407.51
787.852	6431.14
788.245	6524.71
788.636	6557.03
789.028	6627.01
789.42	6668.87
789.812	6678.3
790.204	6778.16
790.595	6883.58
790.987	6672.43
791.378	6699.71
791.77	6835.24
792.161	6976.92
792.553	7032.41
792.944	6914.45
793.335	6842.28
793.726	6918
794.117	7010.96
794.508	7155.53
794.899	7123.68
795.29	7277.42
795.681	7339.54
796.072	7192.5
796.463	6990.43
796.853	7000.83
797.244	7167.03
797.634	7203.63
798.025	7203.31
798.415	7216.5
798.806	7311.55
799.196	7397.59
799.586	7452.92
799.976	7411.84
800.366	7655.03
800.756	7917.78
801.146	7872.66
801.536	7901.05
801.926	7980.19
802.316	8011.09
802.706	8087.13
803.095	7955.57
803.485	8064.67
803.874	8103.09
804.264	8373.02
804.653	8342.61
805.043	8485.63
805.432	8601.89
805.821	8606.3
806.21	8625.89
806.599	8747.73
806.988	8790.8
807.377	8902.28
807.766	9038.19
808.155	9331.66
808.544	9060.42
808.933	9070.33
809.321	9054.14
809.71	9366.46
810.098	9529.45
810.487	10011.87
810.875	10515.64
811.264	10536.99
811.652	10838.78
812.04	10992.77
812.428	11169.03
812.816	11971.55
813.204	12416.67
813.592	12995.88
813.98	13337.71
814.368	13239.5
814.756	13738.98
815.144	13652.2
815.531	14139.89
815.919	14063.22
816.306	14382.21
816.694	14048.44
817.081	14092.28
817.469	14455.48
817.856	14443.73
818.243	14736.46
818.63	15150.38
819.017	14712.84
819.404	14780.44
819.791	15185.93
820.178	15833.95
820.565	16092.11
820.952	17070.11
821.339	16556.19
821.725	16750.37
822.112	15974.96
822.498	15924.36
822.885	16057.63
823.271	15954.93
823.657	16391.5
824.044	16388.92
824.43	16463.51
824.816	16433.36
825.202	15981.21
825.588	17056.71
825.974	17066.99
826.36	17609.15
826.746	17650.64
827.132	18024.06
827.517	17996.53
827.903	17167.55
828.289	17215.3
828.674	16403.81
829.06	16292.98
829.445	16713.53
829.83	17081.3
830.216	17582.04
830.601	17973.25
830.986	17543.51
831.371	17401.67
831.756	17991.25
832.141	17555.93
832.526	17557.91
832.911	17852.49
833.295	17737.12
833.68	18228.95
834.065	17585.29
834.449	16638.63
834.834	16561.68
835.218	16558.54
835.603	16919.39
835.987	16703.86
836.371	17578.89
836.755	17466.65
837.139	17896.71
837.524	18152.39
837.908	17969.24
838.291	18034.15
838.675	18108.46
839.059	18332.89
839.443	18326.1
839.827	18078.99
840.21	18589.82
840.594	18429
840.977	18651.96
841.361	18630.14
841.744	19036.32
842.127	18871.33
842.511	19131.35
842.894	19748.65
843.277	20144.62
843.66	20715.61
844.043	20805.98
844.426	19953.5
844.809	19630.26
845.191	19657.5
845.574	19167.52
845.957	18784.12
846.339	18671.62
846.722	18117.55
847.104	18200.92
847.487	18014.98
847.869	18028.26
848.252	18323.28
848.634	18672.53
849.016	18949.45
849.398	19077.72
849.78	19978.04
850.162	19974.45
850.544	20405.15
850.926	21055.86
851.307	20954.34
851.689	21252.29
852.071	21715.85
852.452	22055.48
852.834	22029.56
853.215	22440.36
853.597	22609.63
853.978	22916.69
854.359	23389.43
854.741	22349.5
855.122	22245.12
855.503	21943.42
855.884	22086.88
856.265	22023.14
856.646	22145.48
857.026	21732.42
857.407	21663.43
857.788	21823.63
858.169	22113.5
858.549	21225.41
858.93	21875.7
859.31	21933.58
859.69	22150.14
860.071	21715.02
860.451	21494.65
860.831	20710.19
861.211	21934.69
861.591	22519.96
861.971	22498.92
862.351	22704.24
862.731	23112.77
863.111	23396.53
863.491	23741.36
863.87	24660.92
864.25	25035.2
864.629	24622.88
865.009	25170.76
865.388	26047.77
865.768	27900.14
866.147	27784.93
866.526	26261.7
866.905	26578.16
867.284	28068.32
867.663	26662.23
868.042	25548.4
868.421	25475.11
868.8	25885.62
869.179	26138.01
869.558	24626.69
869.936	22710.48
870.315	23131.31
870.693	23696.49
871.072	25558.87
871.45	24358.01
871.828	24666.92
872.207	25939.04
872.585	25533.15
872.963	26243.09
873.341	25341.24
873.719	25042.22
874.097	24732.57
874.475	25190.9
874.853	25768.15
875.23	24689.19
875.608	25716.51
875.986	27821.24
876.363	26621.62
876.741	27439.55
877.118	26749.94
877.495	28063.06
877.873	28531.26
878.25	30038.54
878.627	28813.92
879.004	29199.54
879.381	29055.51
879.758	28289.94
880.135	26325.4
880.512	27813.76
880.889	27085.56
881.265	26797.26
881.642	26578.69
882.019	27021.56
882.395	26465.07
882.772	27514.39
883.148	26330.51
883.524	26227.66
883.901	26079.93
884.277	26482.13
884.653	26321.51
885.029	27059.47
885.405	29968.8
885.781	29739.65
886.157	28522.93
886.532	28864.6
886.908	28846.47
887.284	32067.93
887.659	33113.88
888.035	34147.28
888.411	35019.9
888.786	35478.11
889.161	36713.66
889.537	36029.89
889.912	37188.55
890.287	37147
890.662	38102.36
891.037	37421.03
891.412	34893.13
891.787	34550.01
892.162	33336.29
892.536	34114.45
892.911	32835.6
893.286	32147
893.66	30850.81
894.035	31621.3
894.409	34442.75
894.784	33057.52
895.158	33603.93
895.532	35604.28
895.906	36575.32
896.281	37434.24
896.655	36836.44
897.029	42099.31
897.402	43847.06
897.776	48816.94
898.15	48649.85
898.524	48093.2
898.898	48747.71
899.271	54565.7
899.645	47267.66
900.018	45400.13
900.392	47084.23
900.765	47465.83
901.138	43927.37
901.511	43265.36
901.884	39714.76
902.258	36633.02
902.631	37869.95
903.003	43565.46
903.376	39321.68
903.749	44088.52
904.122	47198.94
904.495	51961.43
904.867	52604.99
905.24	45640.78
905.612	42487.88
905.985	43449.92
906.357	45442.05
906.729	43361.91
907.102	37051.45
907.474	35611.91
907.846	35836.51
908.218	35360.17
908.59	31252.35
908.962	30230.96
909.334	32560.2
909.705	34206.87
910.077	33225.42
910.449	34589.02
910.82	35557.22
911.192	39118.67
911.563	40645.93
911.935	43473.29
912.306	43503.59
912.677	44896.72
913.048	44452.11
913.419	48234.7
913.79	48503.07
914.161	51992.16
914.532	49670.96
914.903	45645.68
915.274	43354.69
915.645	42711.81
916.015	37587.5
916.386	35855.74
916.756	38168.8
917.127	39368.77
917.497	35180.08
917.868	38275.68
918.238	36361.46
918.608	37409.66
918.978	38190.02
919.348	40426.64
919.718	41773.38
920.088	40230.18
920.458	41782.84
920.828	43960.78
921.198	41644.18
921.567	44464.98
921.937	34401.59
922.306	34736.46
922.676	37459.75
923.045	31249.99
923.415	29693.33
923.784	27054.37
924.153	27819.51
924.522	27766.11
924.891	26110.67
925.26	27988.84
925.629	27339.39
925.998	31457.95
926.367	30710.59
926.736	29234.01
927.104	34822.18
927.473	37465.06
927.842	45239.98
928.21	44836.49
928.578	47182.53
928.947	44608.44
929.315	44876.89
929.683	52619.95
930.051	53040.19
930.42	61593.72
930.788	52657.46
931.156	52256.76
931.523	48936.37
931.891	45205.89
932.259	43401.54
932.627	50282.1
932.994	71136.11
933.362	58754.88
933.729	51015.15
934.097	48856.47
934.464	41324.81
934.831	47692.74
935.199	47005.03
935.566	45593.68
935.933	46173.78
936.3	55895.96
936.667	43501.9
937.034	39193.74
937.401	38771.95
937.767	33474.27
938.134	29766.15
938.501	41987.47
938.867	44733.26
939.234	75638.61
939.6	64495.72
939.967	71100.59
940.333	47587.83
940.699	40552.04
941.065	32602.53
941.431	42754.37
941.798	41181.08
942.163	54099.48
942.529	33835.16
942.895	31147.09
943.261	20134
943.627	26432.29
943.992	23122.13
944.358	23160.78
944.723	23228.67
945.089	22657.3
945.454	20940.51
945.82	22367.26
946.185	21518.75
946.55	24909.57
946.915	22355
947.28	26226.32
947.645	23066.92
948.01	21305.84
948.375	22222.94
948.74	26640.85
949.104	31054.74
949.469	44844.53
949.834	79195.86
950.198	74962.96
950.562	44916.32
950.927	37418.14
951.291	45036.77
951.655	38402.93
952.02	36099.94
952.384	27298.81
952.748	23754.61
953.112	23135.86
953.476	20114.85
953.839	18611.02
954.203	18406.18
954.567	23006.05
954.931	36251.17
955.294	30985.9
955.658	31168.63
956.021	52954.3
956.385	89789.73
956.748	132591.74
957.111	205858.47
957.474	231249.81
957.837	260529.13
958.2	197469.83
958.563	71184.22
958.926	48100.79
959.289	73032.34
959.652	81509.75
960.015	61180.3
960.377	87840.49
960.74	100240.07
961.102	173051.61
961.465	185841.06
961.827	99348.64
962.189	190514.84
962.552	131838.55
962.914	105746.26
963.276	68611.64
963.638	56764.15
964	56171.18
964.362	37960.9
964.724	36700.79
965.085	26197.64
965.447	21474.95
965.809	24498.75
966.17	24530.42
966.532	26569.49
966.893	24364.06
967.255	22193.03
967.616	26205.19
967.977	21000.85
968.338	22935.44
968.699	18838.46
969.061	18799.65
969.421	18901.63
969.782	21220.63
970.143	17921.95
970.504	18541.38
970.865	21073.6
971.225	21543.77
971.586	21069.32
971.946	30045.04
972.307	26095.23
972.667	34125.28
973.027	35209.26
973.388	42738.98
973.748	29070.45
974.108	31679.13
974.468	42906.15
974.828	33065.76
975.188	25433.97
975.548	23351.11
975.907	19597.75
976.267	21973.94
976.627	18473.23
976.986	19146.99
977.346	18266.08
977.705	17571.22
978.064	15991.88
978.424	13301.55
978.783	13769.16
979.142	15699.43
979.501	15018.84
979.86	15853.17
980.219	15281.62
980.578	19695.73
980.937	22028.28
981.296	19606.79
981.654	20174.2
982.013	31414.68
982.371	40740.97
982.73	38007.74
983.088	43026.62
983.447	45963.6
983.805	65687.44
984.163	137211.24
984.521	152053.28
984.879	223067.22
985.237	-363024.21
985.595	349740.66
985.953	86915.61
986.311	50258.99
986.669	29207.41
987.026	25191.25
987.384	33889.44
987.741	35077.5
988.099	25037.71
988.456	19976.16
988.814	18682.05
989.171	16212.94
989.528	15996.38
989.885	16899.73
990.242	13371.4
990.599	16672.46
990.956	13677.95
991.313	9559
991.67	7843.33
992.027	8302.27
992.383	7381.19
992.74	6470.12
993.096	6790.39
993.453	7037.86
993.809	7292.56
994.165	9715.67
994.522	8867.84
994.878	9765.34
995.234	12253.76
995.59	12100.01
995.946	11481.59
996.302	13076.02
996.658	15126.41
997.013	16666.65
997.369	19774.32
997.725	25244.6
998.08	16349.68
998.436	25279.58
998.791	34837.68
999.147	34761.34
999.502	37928.87
999.857	27565.76
1000.212	44961.71
1000.567	63954.32
1000.922	36919.01
1001.277	23458.55
1001.632	17455.36
1001.987	22480.24
1002.342	16135.81
1002.696	12884.64
1003.051	10270.28
1003.406	12449.77
1003.76	12396.56
1004.114	12208.04
1004.469	10273.23
1004.823	8503.74
1005.177	9166.87
1005.531	7252.21
1005.885	6426.62
1006.239	7238.68
1006.593	9076.34
1006.947	12134.33
1007.301	9101.77
1007.655	9925.13
1008.008	7288.61
1008.362	8183.38
1008.715	11691.38
1009.069	10618.77
1009.422	15935.52
1009.776	31958.38
1010.129	21252.75
1010.482	17757.96
1010.835	15073.64
1011.188	31367.54
1011.541	29539.05
1011.894	-180574.36
1012.247	532144.32
1012.6	36103.65
1012.952	22828.36
1013.305	11808.46
1013.657	8500.36
1014.01	8029.49
1014.362	6637.7
1014.715	5888.2
1015.067	5114.34
1015.419	4996.62
1015.771	4437.83
1016.123	3939.1
1016.475	4047.93
1016.827	4307.06
1017.179	4618.33
1017.531	4670.56
1017.883	4774.85
1018.234	4601.05
1018.586	5792.88
1018.938	6114.97
1019.289	8435.88
1019.64	9646.56
1019.992	8980.85
1020.343	8230.37
1020.694	6482.09
1021.045	5759.76
1021.396	6562.35
1021.747	7026.92
1022.098	8427.81
1022.449	6153.51
1022.8	5733.45
1023.151	3973.62
1023.501	3531.7
1023.852	3847.48
1024.202	3982.96
1024.553	4385.81
1024.903	4259.49
1025.253	3632.78
1025.604	3266.27
1025.954	4041.21
1026.304	4904.14
1026.654	5705.75
1027.004	8378.84
1027.354	13528.64
1027.703	12734.12
1028.053	16751.17
1028.403	24347.03
1028.753	35226.47
1029.102	47980.81
1029.452	246943.58
1029.801	10693.08
1030.15	6890.45
1030.499	5845.53
897.758	2182.83
901.051	2120.8
904.343	2154.91
907.636	2161.02
910.928	2222.25
914.22	2143.32
917.511	2147.8
920.803	2194.99
924.094	2192.81
927.384	2194.46
930.675	2159.73
933.965	2124.22
937.255	2152.65
940.544	2120.47
943.834	2120.48
947.123	2060.02
950.411	2149.06
953.7	2131.21
956.988	2114.09
960.276	2051.59
963.563	2101.87
966.851	2110.4
970.138	2152.15
973.424	2152.64
976.711	2105.99
979.997	2153.87
983.283	2197.38
986.568	2126.1
989.853	2118.22
993.138	2146.24
996.423	2229.19
999.708	2186.51
1002.992	2217.16
1006.275	2137.31
1009.559	2140.51
1012.842	2240
1016.125	2192.53
1019.408	2173.51
1022.69	2227.5
1025.972	2262.31
1029.254	2237.27
1032.536	2200.36
1035.817	2209.58
1039.098	2179.3
1042.379	2226.78
1045.659	2254.98
1048.939	2203.7
1052.219	2212.92
1055.498	2205.59
1058.778	2204.43
1062.057	2177.65
1065.335	2201.62
1068.614	2211.54
1071.892	2208.53
1075.17	2260.72
1078.447	2260.42
1081.724	2257.09
1085.001	2282.66
1088.278	2257.08
1091.554	2264.77
1094.83	2258.47
1098.106	2292.27
1101.382	2321.97
1104.657	2323.63
1107.932	2322.3
1111.206	2300.51
1114.481	2256.36
1117.755	2254.74
1121.029	2245.31
1124.302	2304.36
1127.575	2270.34
1130.848	2268.2
1134.121	2239.41
1137.393	2202.36
1140.665	2258.02
1143.937	2235.8
1147.208	2184.59
1150.48	2239.95
1153.75	2227.72
1157.021	2231.46
1160.291	2209.41
1163.561	2260.38
1166.831	2229.65
1170.101	2256.72
1173.37	2217.29
1176.639	2175.52
1179.907	2219.45
1183.176	2241.73
1186.444	2242.62
1189.711	2268.19
1192.979	2290
1196.246	2248.81
1199.513	2260.71
1202.78	2265.22
1206.046	2273.52
1209.312	2301.43
1212.578	2319.07
1215.843	2286.82
1219.108	2256.2
1222.373	2279.75
1225.638	2252.79
1228.902	2246.6
1232.166	2200.94
1235.43	2189.52
1238.693	2216.9
1241.956	2207.27
1245.219	2253.83
1248.482	2237.19
1251.744	2235.6
1255.006	2356.62
1258.268	2305.53
1261.529	2262.58
1264.79	2263.02
1268.051	2358.95
1271.312	2368.97
1274.572	2338.21
1277.832	2329.12
1281.092	2309.93
1284.351	2301.15
1287.61	2286.69
1290.869	2219.18
1294.128	2215.66
1297.386	2263.87
1300.644	2257.24
1303.902	2269.56
1307.159	2139.09
1310.416	2188.84
1313.673	2215.42
1316.93	2212.13
1320.186	2243.11
1323.442	2274.16
1326.697	2278.85
1329.953	2253.42
1333.208	2286.77
1336.463	2260.2
1339.717	2220.89
1342.972	2326.67
1346.226	2299.58
1349.479	2249.03
1352.733	2230.61
1355.986	2235.2
1359.238	2217.44
1362.491	2220.91
1365.743	2219.53
1368.995	2214.45
1372.247	2227.1
1375.498	2246.65
1378.749	2289.06
1382	2236.41
1385.251	2273.19
1388.501	2229.65
1391.751	2230.19
1395	2195.89
1398.25	2222.87
1401.499	2245.74
1404.748	2193.89
1407.996	2172.57
1411.244	2161.22
1414.492	2147.51
1417.74	2135.42
1420.987	2137.57
1424.234	2194.85
1427.481	2159.19
1430.728	2216.04
1433.974	2190.32
1437.22	2188.06
1440.465	2185.53
1443.711	2182.92
1446.956	2207.86
1450.201	2176.88
1453.445	2217.46
1456.689	2208.51
1459.933	2217.48
1463.177	2256.35
1466.42	2228.96
1469.663	2213.02
1472.906	2227.4
1476.148	2276.55
1479.391	2249.89
1482.633	2223.97
1485.874	2248.27
1489.115	2253.65
1492.356	2238.26
1495.597	2218.93
1498.838	2210.56
1502.078	2196.32
1505.318	2166.47
1508.557	2200.05
1511.797	2194.08
1515.036	2237.3
1518.274	2212.87
1521.513	2165.4
1524.751	2178.21
1527.989	2200.87
1531.227	2216.79
1534.464	2229.92
1537.701	2225.84
1540.938	2238.66
1544.174	2186.84
1547.41	2179.11
1550.646	2214.5
1553.882	2263.16
1557.117	2319.7
1560.352	2325.83
1563.587	2289.02
1566.821	2257.12
1570.055	2274.59
1573.289	2253.67
1576.523	2310.25
1579.756	2328.48
1582.989	2347.39
1586.222	2307.4
1589.454	2334.24
1592.686	2317.79
1595.918	2347.71
1599.15	2344.37
1602.381	2390.18
1605.612	2370.18
1608.843	2461.67
1612.073	2385.98
1615.303	2370.37
1618.533	2370.06
1621.762	2371
1624.992	2344.54
1628.221	2348.05
1631.449	2334.96
1634.678	2363.57
1637.906	2330.88
1641.134	2357.21
1644.361	2322.93
1647.588	2312.35
1650.815	2334.23
1654.042	2299.61
1657.269	2326.77
1660.495	2307.29
1663.72	2293.3
1666.946	2262.56
1670.171	2234.76
1673.396	2208.12
1676.621	2191.08
1679.845	2190.02
1683.069	2198.63
1686.293	2228.21
1689.517	2218.19
1692.74	2170.39
1695.963	2191.68
1699.185	2231.43
1702.408	2206.3
1705.63	2235.6
1708.852	2254.29
1712.073	2225.73
1715.294	2235.76
1718.515	2277.12
1721.736	2236.64
1724.956	2216.07
1728.176	2237.71
1731.396	2260.15
1734.616	2245.6
1737.835	2280.69
1741.054	2252.54
1744.272	2244.33
1747.491	2282.83
1750.709	2307.78
1753.927	2256.32
1757.144	2284.22
1760.361	2338.66
1763.578	2315.37
1766.795	2264.69
1770.011	2256.18
1773.227	2280.95
1776.443	2321.23
1779.658	2364.13
1782.874	2305.49
1786.089	2296.99
1789.303	2299.32
1792.518	2296.41
1795.732	2283.35
1798.945	2298.03
1802.159	2338.66
1805.372	2280.56
1808.585	2275.26
1811.797	2274.99
1815.01	2295.72
1818.222	2317.13
1821.434	2278.98
1824.645	2322.43
1827.856	2328.21
1831.067	2360.26
1834.278	2300.64
1837.488	2284.5
1840.698	2404.34
1843.908	2346.19
1847.117	2316.4
1850.326	2242.45
1853.535	2305.95
1856.744	2337.51
1859.952	2261.25
1863.16	2263.52
1866.368	2278.07
1869.575	2387.26
1872.782	2274.13
1875.989	2211.02
1879.196	2260.04
1882.402	2250.21
1885.608	2284.12
1888.814	2223
1892.019	2134.15
1895.224	2184.57
1898.429	2152.18
1901.634	2136.93
1904.838	2112.11
1908.042	2168.25
1911.246	2180.19
1914.449	2142.69
1917.652	2128.15
1920.855	2108.16
1924.058	2133.89
1927.26	2178.8
1930.462	2199.25
1933.664	2238.54
1936.865	2180.97
1940.066	2197.56
1943.267	2141.56
1946.467	2153.2
1949.668	2172.49
1952.868	2239.68
1956.067	2230.73
1959.267	2170.98
1962.466	2194.31
1965.665	2177.04
1968.863	2173.13
1972.061	2173.87
1975.259	2167.87
1978.457	2240.04
1981.654	2199.69
1984.852	2201.82
1988.048	2155.05
1991.245	2146.31
1994.441	2233.12
1997.637	2192.78
2000.833	2175.71
2004.028	2206.35
2007.223	2270.03
2010.418	2258.87
2013.613	2211.23
2016.807	2203.74
2020.001	2199.99
2023.194	2222.75
2026.388	2204.22
2029.581	2150.68
2032.774	2212.65
2035.966	2223.78
2039.158	2170.92
2042.35	2190.03
2045.542	2117.71
2048.733	2200.69
2051.924	2194.75
2055.115	2210.79
2058.306	2175.85
2061.496	2229.61
2064.686	2277.2
2067.875	2183.77
2071.065	2185.9
2074.254	2205.07
2077.442	2159.73
2080.631	2241.19
2083.819	2172.69
2087.007	2165.91
2090.195	2149.24
2093.382	2164.79
2096.569	2150.3
2099.756	2113.75
2102.942	2160.89
2106.128	2175.34
2109.314	2163.7
2112.5	2149.66
2115.685	2117.93
2118.87	2124.79
2122.055	2182.21
2125.239	2162.19
2128.424	2152.09
2131.608	2213.86
2134.791	2197.44
2137.974	2235.34
2141.157	2223.65
2144.34	2194.16
2147.523	2184.87
2150.705	2209.83
2153.887	2180.8
2157.068	2154.05
2160.25	2136.18
2163.431	2158.03
2166.611	2124.66
2169.792	2144.77
2172.972	2057.46
2176.152	2108.07
2179.331	2136.08
2182.511	2137.56
2185.69	2158.99
2188.868	2164.19
2192.047	2197.9
2195.225	2212.61
2198.403	2161.49
2201.58	2149.68
2204.758	2137.16
2207.935	2210.54
2211.111	2128.36
2214.288	2116.94
2217.464	2152.25
2220.64	2108.07
2223.815	2155.08
2226.991	2089.41
2230.166	2106.03
2233.34	2149.32
2236.515	2160.78
2239.689	2224.45
2242.863	2175.17
2246.036	2227.89
2249.209	2210.9
2252.382	2229.91
2255.555	2240.58
2258.727	2190.82
2261.9	2219.91
2265.071	2211.37
2268.243	2208.42
2271.414	2159.25
2274.585	2142.26
2277.756	2202.66
2280.926	2156.72
2284.096	2190.13
2287.266	2119.4
2290.436	2165.26
2293.605	2185.34
2296.774	2222.48
2299.942	2226.96
2303.111	2242.75
2306.279	2294.21
2309.447	2278.35
2312.614	2249.67
2315.781	2277.86
2318.948	2250.79
2322.115	2288.21
2325.281	2188.62
2328.447	2195.4
2331.613	2167.05
2334.779	2158.92
2337.944	2154.1
2341.109	2156.09
2344.274	2146.04
2347.438	2114.02
2350.602	2132.73
2353.766	2142.66
2356.929	2131.26
2360.092	2167.5
2363.255	2139.58
2366.418	2105.46
2369.58	2171.94
2372.742	2048.44
2375.904	2042.02
2379.066	2027.11
2382.227	2052.97
2385.388	2017.8
2388.548	1969.07
2391.709	2009.98
2394.869	2002.16
2398.029	2054.42
2401.188	2051.16
2404.347	2012.62
2407.506	2090.97
2410.665	2129.24
2413.823	2116.02
2416.981	2095.25
2420.139	2110.33
2423.296	2149.73
2426.453	2123.4
2429.61	2145.44
2432.767	2116.51
2435.923	2155.15
2439.079	2104.08
2442.235	2136.85
2445.391	2078.42
2448.546	2119.02
2451.701	2152.69
2454.855	2149.1
2458.009	2179.49
2461.163	2169.03
2464.317	2137.83
2467.471	2165.49
2470.624	2194.01
2473.777	2184.09
2476.929	2200.01
2480.082	2224.42
2483.234	2199.29
2486.385	2140.63
2489.537	2133.25
2492.688	2123.46
2495.839	2138.1
2498.989	2154.67
2502.14	2141.66
2505.29	2133.37
2508.439	2156.2
2511.589	2098.12
2514.738	2096.97
2517.887	2119.53
2521.035	2195.45
2524.183	2155.58
2527.331	2140.82
2530.479	2136.7
2533.627	2136.6
