Data from C_1_DIV_OH_2N_Splice17_11-50-03-077.txt Node
Date: Sat Mar 14 11:50:03 EDT 2020
User: sa697716
Spectrometer: FLMS03696
Trigger mode: 0
Integration Time (sec): 3.180400E-1
Scans to average: 20
Electric dark correction enabled: true
Nonlinearity correction enabled: true
Boxcar width: 5
XAxis mode: Wavelengths
Number of Pixels in Spectrum: 2048
>>>>>Begin Spectral Data<<<<<
187.83	-209196.89
188.298	1601.34
188.766	847.01
189.233	708.34
189.701	1002.04
190.169	1390.75
190.636	514.3
191.104	386.64
191.571	41.92
192.039	-63.69
192.506	-150.41
192.974	304.63
193.441	-512.4
193.908	-253.62
194.375	-144.73
194.842	-54.56
195.31	-44.06
195.777	107.15
196.244	345.95
196.711	499.01
197.177	681.04
197.644	987.01
198.111	1712.21
198.578	2404.25
199.045	1953.69
199.511	3198.98
199.978	3748.84
200.445	3180.58
200.911	3519.7
201.378	3919.59
201.844	3577.67
202.31	6093.85
202.777	6352.13
203.243	3538.65
203.709	3405.51
204.176	4071.17
204.642	3387.74
205.108	3155.16
205.574	2599.28
206.04	2412.35
206.506	2279.73
206.972	2153.61
207.438	2091
207.903	2396.32
208.369	2108.46
208.835	2096.95
209.301	2201.1
209.766	2268.97
210.232	2267.19
210.697	2818.14
211.163	3467.99
211.628	5308.07
212.094	4473.83
212.559	5489.22
213.024	3409.02
213.49	4178.3
213.955	4123.58
214.42	4090.08
214.885	3827.06
215.35	3704.38
215.815	3547.08
216.28	3821.53
216.745	3152.86
217.21	3472.89
217.675	3281.73
218.14	3808.09
218.604	4398.11
219.069	5157.48
219.534	5510.66
219.998	6588.55
220.463	8173.6
220.927	10373.07
221.392	9920.73
221.856	10158.78
222.32	13006.91
222.785	16207.01
223.249	20578.25
223.713	23107.66
224.177	23226.56
224.642	30052.95
225.106	37150.43
225.57	40809.81
226.034	30312.4
226.497	46297.37
226.961	41874.33
227.425	48799.47
227.889	54329.25
228.353	54449.1
228.816	112721.12
229.28	108046.55
229.744	91228.54
230.207	55443.21
230.671	54479.24
231.134	90526.33
231.597	104401.64
232.061	104641
232.524	102275.81
232.987	70482.28
233.45	63445.46
233.914	56942.2
234.377	58422.97
234.84	53484.7
235.303	63160.14
235.766	70627.2
236.229	72942.09
236.691	45989.35
237.154	51655.37
237.617	38838.64
238.08	39805.47
238.542	46590.91
239.005	33289.63
239.468	32985.45
239.93	31076.68
240.393	28218.44
240.855	24738.87
241.317	25353.6
241.78	30839.71
242.242	31871.77
242.704	34322.84
243.166	29836.72
243.629	27046.48
244.091	31138.98
244.553	34134.53
245.015	36652.73
245.477	47426.84
245.939	69500.38
246.4	73718.25
246.862	71622.06
247.324	67509.56
247.786	75642.2
248.247	99210.11
248.709	102559.56
249.17	76703.53
249.632	72176.96
250.093	83592.94
250.555	72158.98
251.016	44000.25
251.477	41707.45
251.939	44984.45
252.4	47216.07
252.861	56196.1
253.322	52244.77
253.783	62206.65
254.244	80691.66
254.705	63719.26
255.166	56705.61
255.627	55822.37
256.088	78698.11
256.549	83622.81
257.009	72033.26
257.47	87367.44
257.931	71139.06
258.391	53314.81
258.852	54970.28
259.312	57634.24
259.773	71195.66
260.233	60144.46
260.694	50727.04
261.154	57574.53
261.614	46172.91
262.074	41347.76
262.534	42957.29
262.994	40500.36
263.455	54010.93
263.915	45495.27
264.374	42897.19
264.834	46881.93
265.294	52023.38
265.754	53880.3
266.214	51026.53
266.673	47844.15
267.133	60401.53
267.593	59974.59
268.052	73355.73
268.512	63787.1
268.971	76855.09
269.431	84239.75
269.89	75395.33
270.349	112930.31
270.809	125934.39
271.268	113157.42
271.727	253840.97
272.186	164301.58
272.645	123246.98
273.104	89027.86
273.563	128880.7
274.022	101463.61
274.481	86280.05
274.94	66443.45
275.399	49454.13
275.857	57598.39
276.316	77883.22
276.775	69281.14
277.233	68208.11
277.692	63748.55
278.15	71991.61
278.609	73981.57
279.067	68420.5
279.525	63481.06
279.984	81982.48
280.442	98326.15
280.9	96851.38
281.358	63718.06
281.816	59366.86
282.274	58116.81
282.732	60091.6
283.19	60418.15
283.648	52169.02
284.106	55568.56
284.564	56548.28
285.021	52366.62
285.479	39034.1
285.937	35500.6
286.394	31101.14
286.852	31992.82
287.309	33590.52
287.767	32382.09
288.224	30736.62
288.682	33702.31
289.139	36942.38
289.596	33751.39
290.053	35067.3
290.511	44245.31
290.968	53616.6
291.425	72824.58
291.882	60502.85
292.339	52627.63
292.796	52267.79
293.252	49295.37
293.709	39048.67
294.166	34989.71
294.623	38693.38
295.079	37108.67
295.536	37242.92
295.992	33781.9
296.449	33383.74
296.905	34681.97
297.362	33218.52
297.818	34902.14
298.274	36119.31
298.731	36870.91
299.187	36473.95
299.643	39143.19
300.099	47336.84
300.555	51911.97
301.011	43370.55
301.467	41688.81
301.923	48828.2
302.379	47678.6
302.835	46854.92
303.291	46938.77
303.746	53369.47
304.202	67299.38
304.658	67518.97
305.113	45389.41
305.569	44434.03
306.024	47353.17
306.479	45139.61
306.935	37987.77
307.39	41477.24
307.845	38231.66
308.301	38383.67
308.756	37417.6
309.211	36064.69
309.666	36911.18
310.121	45739.47
310.576	46432.46
311.031	46054.52
311.486	52755.36
311.94	52716.22
312.395	70408.99
312.85	132359.36
313.305	651422.51
313.759	3360182.96
314.214	243417.68
314.668	192674.7
315.123	161853.3
315.577	57902.22
316.032	51426.1
316.486	64382.41
316.94	50721.21
317.394	35277.91
317.849	27393.78
318.303	25900.11
318.757	24430.27
319.211	26980.52
319.665	23625.17
320.119	23915.29
320.572	34332.84
321.026	32045.27
321.48	26660.42
321.934	29114.77
322.387	29187.51
322.841	31487.34
323.295	28243.82
323.748	32613.06
324.202	33087.62
324.655	39688.34
325.108	55356.96
325.562	39118.68
326.015	46536.83
326.468	35141.72
326.921	39245.41
327.374	36556.77
327.827	37997.5
328.28	43044.04
328.733	28785.37
329.186	25303.05
329.639	24119.88
330.092	20340.04
330.545	19332.73
330.997	19460.72
331.45	21228.65
331.903	24851.74
332.355	42835.56
332.808	41712.37
333.26	34398.13
333.713	37292.59
334.165	37558.65
334.617	50116.6
335.069	40550.09
335.522	73415.22
335.974	81378.2
336.426	74419.27
336.878	51587.71
337.33	26112.42
337.782	25475.21
338.234	31864.82
338.686	38166.47
339.137	45205.44
339.589	42636.52
340.041	33393.44
340.493	28677.3
340.944	29349.84
341.396	31609.04
341.847	26538.32
342.299	31260.8
342.75	38122.83
343.201	33410.2
343.653	38424.15
344.104	47225.82
344.555	37151.7
345.006	57890.57
345.457	44201.4
345.908	35146.02
346.359	33059.96
346.81	26949.65
347.261	28439.13
347.712	28022.26
348.163	30021.36
348.613	30348
349.064	28320.18
349.515	24780.46
349.965	25382.99
350.416	30647.5
350.866	33674.85
351.317	38099
351.767	63086.51
352.217	79676.44
352.668	66158.7
353.118	60572.81
353.568	58492.84
354.018	46199.17
354.468	48697.46
354.918	34912.09
355.368	30520.7
355.818	43047.28
356.268	124040.14
356.718	518479.89
357.168	129054.94
357.617	64760.49
358.067	72149.22
358.517	67526.63
358.966	79203.83
359.416	88701.8
359.865	95964.34
360.315	114374.6
360.764	53359.07
361.213	29830.93
361.663	28267.42
362.112	34885.97
362.561	56303.6
363.01	42388.25
363.459	35704.87
363.908	38681.17
364.357	32829.02
364.806	55457.89
365.255	38086.66
365.703	34833.11
366.152	34854.3
366.601	28282.15
367.05	22942.47
367.498	20872.66
367.947	21830.4
368.395	22714.06
368.844	20076.01
369.292	24257.04
369.74	16745.66
370.189	25657.91
370.637	30098.9
371.085	25982.02
371.533	31613.81
371.981	30459.21
372.429	28943.05
372.877	30156.17
373.325	25223.21
373.773	25732.24
374.221	22910.4
374.669	28415.37
375.116	24542.67
375.564	24737.86
376.012	27670.14
376.459	22841.24
376.907	27288.91
377.354	33023.32
377.801	30720.59
378.249	35251.29
378.696	45044.38
379.143	54501.33
379.591	58132.94
380.038	98279.44
380.485	70926.83
380.932	76612.27
381.379	69830.31
381.826	51339.45
382.273	36500.32
382.72	31910.75
383.166	31099.2
383.613	20142.84
384.06	18132.05
384.506	20943.87
384.953	15385.09
385.4	15498.28
385.846	13567.24
386.292	13263.16
386.739	12980.57
387.185	12841.21
387.631	12851.42
388.078	12452.35
388.524	13329.78
388.97	12310.12
389.416	10251.54
389.862	10893.52
390.308	10323.22
390.754	10452.68
391.2	11324.91
391.645	11603.97
392.091	11049.79
392.537	10653.68
392.983	10673.79
393.428	10470.58
393.874	11222.57
394.319	11231.05
394.765	10624.49
395.21	10917.74
395.655	10240.34
396.101	9576.55
396.546	8622.41
396.991	8716.91
397.436	8097.84
397.881	7815.65
398.326	7404.21
398.771	6988
399.216	6118.83
399.661	5515.06
400.106	5477.01
400.551	5592.11
400.995	5009.12
401.44	4954.77
401.885	4641.95
402.329	4676.69
402.774	4471.34
403.218	4306.75
403.663	4140.22
404.107	4243.75
404.551	4258.42
404.995	3899.11
405.44	3753.27
405.884	3805.79
406.328	3672.46
406.772	3655.13
407.216	3324.64
407.66	3207.64
408.104	3047.86
408.547	2852.24
408.991	2754.42
409.435	2644.98
409.879	2601.97
410.322	2565.69
410.766	2470.74
411.209	2344.71
411.653	2248.4
412.096	2198.14
412.54	2199.28
412.983	2178.79
413.426	2177.11
413.869	2172.56
414.312	2128.44
414.756	2048.27
415.199	1949.62
415.642	1891.6
416.085	1893.71
416.527	1875.94
416.97	1904.89
417.413	1804.93
417.856	1787.13
418.298	1766.93
418.741	1755.92
419.184	1752.1
419.626	1826.13
420.069	1825.7
420.511	1829.67
420.953	1785.65
421.396	1770.81
421.838	1726.13
422.28	1764.05
422.722	1771.32
423.164	1797.78
423.606	1768.52
424.048	1766.8
424.49	1681.17
424.932	1673.29
425.374	1656.68
425.816	1689.34
426.258	1720.46
426.699	1739.4
427.141	1709.97
427.582	1737.33
428.024	1729.12
428.465	1718.39
428.907	1674.81
429.348	1654.43
429.789	1653.78
430.231	1616.08
430.672	1635.91
431.113	1599.06
431.554	1572.27
431.995	1537.61
432.436	1481.52
432.877	1448.33
433.318	1420.91
433.759	1413.07
434.2	1413.66
434.64	1401.21
435.081	1403.36
435.522	1330.66
435.962	1282.91
436.403	1257.92
436.843	1278.48
437.284	1252.98
437.724	1223.09
438.164	1231.94
438.604	1208.66
439.045	1161.78
439.485	1113.1
439.925	1092.99
440.365	1067.76
440.805	1055.36
441.245	1041.56
441.685	1003.7
442.125	1000.15
442.564	1007.07
443.004	983.74
443.444	983.37
443.883	985.46
444.323	982.13
444.762	989.22
445.202	1002.98
445.641	1021.06
446.081	1018.29
446.52	1027.38
446.959	1015.51
447.398	991.04
447.837	981.73
448.276	965.5
448.716	979.53
449.154	988.14
449.593	963.23
450.032	962.64
450.471	947.79
450.91	950.98
451.349	950.79
451.787	948.54
452.226	965.21
452.664	966.92
453.103	969.66
453.541	968.95
453.98	967.35
454.418	974.88
454.856	959.24
455.295	958.52
455.733	965.79
456.171	971.07
456.609	974.63
457.047	977.01
457.485	991.04
457.923	993.16
458.361	980.14
458.798	984.57
459.236	983.47
459.674	991.98
460.111	998.03
460.549	989.49
460.987	987.81
461.424	984.58
461.862	979.2
462.299	965.02
462.736	963
463.173	967.9
463.611	955.94
464.048	954.45
464.485	962.88
464.922	954.37
465.359	951.23
465.796	933.93
466.233	926.94
466.67	917.29
467.106	913.53
467.543	906.85
467.98	896.32
468.416	875.8
468.853	868.7
469.29	843.76
469.726	834.43
470.162	812.77
470.599	807.63
471.035	802.34
471.471	784.22
471.907	781.03
472.344	775.32
472.78	775.29
473.216	784.96
473.652	775.81
474.088	773.09
474.523	770.75
474.959	777
475.395	768.94
475.831	763.64
476.266	766.55
476.702	764.87
477.138	757.69
477.573	755.48
478.008	752.23
478.444	755.16
478.879	760.53
479.314	762.47
479.75	761.56
480.185	765.64
480.62	772.34
481.055	777.34
481.49	782.71
481.925	794.1
482.36	806.19
482.795	829.62
483.229	852.68
483.664	872.53
484.099	877.22
484.534	891.21
484.968	899.69
485.403	903.12
485.837	902.84
486.271	902.7
486.706	905.03
487.14	898.03
487.574	884.24
488.009	877.2
488.443	870.66
488.877	880.17
489.311	885.13
489.745	897.24
490.179	906.78
490.613	924.43
491.046	933.31
491.48	940.92
491.914	943.07
492.348	952.03
492.781	958.79
493.215	963.32
493.648	967.43
494.082	976.5
494.515	978.78
494.948	990.98
495.382	1000.63
495.815	1009.69
496.248	1020.03
496.681	1041.13
497.114	1060.06
497.547	1077.63
497.98	1097.68
498.413	1107.65
498.846	1123.15
499.279	1137.84
499.711	1147.46
500.144	1153.98
500.577	1170.77
501.009	1189.98
501.442	1206.11
501.874	1209.64
502.306	1215.36
502.739	1226.98
503.171	1252.36
503.603	1260.15
504.036	1277.53
504.468	1288.12
504.9	1307.24
505.332	1320.11
505.764	1328.58
506.196	1342.03
506.627	1366.89
507.059	1389.84
507.491	1408.73
507.923	1408.26
508.354	1433.03
508.786	1449.86
509.217	1479.14
509.649	1502.43
510.08	1532.66
510.512	1558.69
510.943	1582.04
511.374	1600.13
511.805	1631.2
512.237	1660.85
512.668	1710.49
513.099	1753.14
513.53	1795.41
513.961	1826.53
514.391	1874.35
514.822	1921.69
515.253	1973.81
515.684	2011.51
516.114	2054.1
516.545	2083.55
516.975	2120.6
517.406	2145.81
517.836	2146.98
518.267	2154.75
518.697	2177.83
519.127	2181.13
519.558	2192.21
519.988	2196.42
520.418	2211.04
520.848	2236.11
521.278	2247.38
521.708	2246.8
522.138	2262.78
522.567	2305.65
522.997	2340.25
523.427	2361.99
523.857	2385.4
524.286	2397.94
524.716	2418.56
525.145	2441.37
525.575	2453.91
526.004	2473.24
526.433	2484.52
526.863	2482.3
527.292	2464.75
527.721	2469.82
528.15	2475.07
528.579	2474.39
529.008	2487.81
529.437	2518.47
529.866	2536.55
530.295	2559.38
530.724	2574.73
531.152	2611.35
531.581	2629.13
532.01	2653.4
532.438	2664.46
532.867	2685.78
533.295	2709.94
533.723	2716.56
534.152	2710.88
534.58	2709.21
535.008	2683.9
535.436	2684.18
535.865	2694.57
536.293	2716.31
536.721	2739.41
537.149	2776.23
537.576	2778.3
538.004	2796.45
538.432	2808.59
538.86	2807.21
539.287	2818.73
539.715	2840.97
540.143	2846.71
540.57	2841.22
540.998	2835.31
541.425	2800.09
541.852	2769.14
542.28	2765.49
542.707	2740.7
543.134	2719.19
543.561	2711.36
543.988	2699.37
544.415	2697.6
544.842	2687.83
545.269	2676.48
545.696	2678.38
546.123	2696.16
546.549	2680.13
546.976	2659.82
547.403	2657.86
547.829	2659.5
548.256	2661.72
548.682	2654.58
549.108	2640.64
549.535	2638.61
549.961	2640.06
550.387	2619.76
550.813	2609.92
551.24	2617.21
551.666	2619.39
552.092	2604.63
552.518	2593.57
552.943	2584.05
553.369	2593.58
553.795	2600.75
554.221	2602.31
554.646	2596.02
555.072	2608.77
555.498	2616.44
555.923	2629.19
556.349	2650.72
556.774	2663.46
557.199	2665.89
557.625	2674.06
558.05	2664.58
558.475	2679.88
558.9	2676.63
559.325	2665.19
559.75	2656.44
560.175	2646.73
560.6	2636.96
561.025	2633.84
561.449	2634.37
561.874	2642.87
562.299	2649.12
562.723	2662.38
563.148	2649.19
563.572	2657.04
563.997	2671.73
564.421	2682.92
564.846	2685.05
565.27	2693.23
565.694	2689.99
566.118	2709.59
566.542	2722.15
566.966	2714.75
567.39	2709.94
567.814	2696
568.238	2697.42
568.662	2708.81
569.086	2713.96
569.509	2729.19
569.933	2707.42
570.357	2700.21
570.78	2672.24
571.204	2654.45
571.627	2642.03
572.05	2641.35
572.474	2642.93
572.897	2625.75
573.32	2616.24
573.743	2602.52
574.166	2574.6
574.589	2577.17
575.012	2566.36
575.435	2566.06
575.858	2553.64
576.281	2537.29
576.704	2513.1
577.126	2495.86
577.549	2480.75
577.972	2465.83
578.394	2451.01
578.817	2439.19
579.239	2410.35
579.661	2390.16
580.084	2364.2
580.506	2344.41
580.928	2338.92
581.35	2323.01
581.772	2315.04
582.194	2295.55
582.616	2276.39
583.038	2255.53
583.46	2241.79
583.882	2236.8
584.303	2243.05
584.725	2238.41
585.147	2237.85
585.568	2252.46
585.99	2269.91
586.411	2280.12
586.833	2300.64
587.254	2303.1
587.675	2324.67
588.096	2343.48
588.518	2336.41
588.939	2311.94
589.36	2309.58
589.781	2297.55
590.202	2253.37
590.623	2239.24
591.043	2236.62
591.464	2218.68
591.885	2211.94
592.305	2202.5
592.726	2181.48
593.147	2184.15
593.567	2176.04
593.987	2163.4
594.408	2156.61
594.828	2156.06
595.248	2147.51
595.669	2119.41
596.089	2108.17
596.509	2099.66
596.929	2080.86
597.349	2081.25
597.769	2065.66
598.189	2057.43
598.608	2059.79
599.028	2062.77
599.448	2064.19
599.867	2045.74
600.287	2040.96
600.706	2035.01
601.126	2022.12
601.545	2019.94
601.965	2019.35
602.384	2011.49
602.803	2014.52
603.222	2007.6
603.641	1998.15
604.061	1991.56
604.48	1986.47
604.898	1997.97
605.317	2006.44
605.736	2009.17
606.155	2005.5
606.574	1992.09
606.992	2001.04
607.411	1995.07
607.829	1983.62
608.248	1978.31
608.666	1976.88
609.085	1977.56
609.503	1965.72
609.921	1955.75
610.339	1958.97
610.758	1958.69
611.176	1951.92
611.594	1938.7
612.012	1934.44
612.43	1939.57
612.847	1950.08
613.265	1950.35
613.683	1957.39
614.101	1959.05
614.518	1954.86
614.936	1940.27
615.353	1917.89
615.771	1914.86
616.188	1915.1
616.606	1910.57
617.023	1899.86
617.44	1879.78
617.857	1870.55
618.274	1857
618.691	1846.72
619.108	1831.07
619.525	1822.02
619.942	1831.69
620.359	1834.43
620.776	1827.24
621.192	1820.96
621.609	1818.06
622.026	1827.23
622.442	1834.66
622.859	1840.88
623.275	1831.45
623.691	1842.21
624.108	1858.59
624.524	1880.73
624.94	1880.89
625.356	1895.83
625.772	1914.66
626.188	1933.31
626.604	1935.19
627.02	1930.41
627.436	1926.14
627.852	1935.64
628.268	1953.43
628.683	1941.51
629.099	1928.54
629.514	1921.82
629.93	1926.72
630.345	1932.52
630.761	1925.92
631.176	1931.24
631.591	1920.05
632.007	1910.2
632.422	1907.29
632.837	1889.07
633.252	1882.77
633.667	1866.1
634.082	1851.37
634.497	1830.54
634.911	1800.41
635.326	1793.91
635.741	1767.01
636.155	1752.68
636.57	1751.99
636.984	1750.4
637.399	1749.62
637.813	1748.38
638.228	1745.59
638.642	1750.33
639.056	1735.58
639.47	1735.77
639.884	1722.39
640.298	1710.36
640.712	1706.13
641.126	1687.9
641.54	1673.61
641.954	1666.9
642.368	1647.83
642.781	1632.3
643.195	1605.25
643.609	1603.82
644.022	1592.91
644.436	1584.46
644.849	1567.99
645.262	1551.36
645.676	1552.6
646.089	1544.77
646.502	1521.42
646.915	1513.19
647.328	1489.97
647.741	1486.42
648.154	1467.39
648.567	1460.98
648.98	1441.33
649.393	1441.66
649.805	1434.74
650.218	1423.82
650.631	1400.51
651.043	1390.65
651.456	1380.98
651.868	1382.05
652.28	1406.11
652.693	1424.79
653.105	1435.16
653.517	1449.46
653.929	1448.87
654.341	1456.25
654.753	1437.09
655.165	1446.17
655.577	1442.54
655.989	1437.03
656.401	1425.8
656.813	1373.94
657.224	1344.89
657.636	1303.66
658.047	1275.38
658.459	1246.79
658.87	1233.44
659.282	1216.23
659.693	1186.16
660.104	1164.45
660.515	1143.75
660.926	1138.9
661.338	1132.39
661.749	1121.97
662.159	1106.79
662.57	1099.46
662.981	1090.84
663.392	1078.05
663.803	1081.28
664.213	1074.8
664.624	1066.36
665.035	1067.06
665.445	1047.05
665.855	1035.14
666.266	1020.98
666.676	1016.12
667.086	1002.5
667.497	999.64
667.907	990.51
668.317	976.76
668.727	970.26
669.137	970.38
669.547	965.94
669.956	967.78
670.366	969.98
670.776	970.27
671.186	975.31
671.595	977.98
672.005	981.67
672.414	979.82
672.824	976.79
673.233	982.81
673.642	984
674.052	987.84
674.461	990.04
674.87	995.06
675.279	992.5
675.688	993.42
676.097	994.01
676.506	989.83
676.915	1007.04
677.323	1010.58
677.732	1007.67
678.141	1008.8
678.549	994.97
678.958	993.54
679.366	993.11
679.775	1000.81
680.183	1014.36
680.592	1023.98
681	1032.36
681.408	1026.99
681.816	1039.79
682.224	1055.36
682.632	1069.11
683.04	1110.28
683.448	1146.18
683.856	1189.01
684.264	1238.8
684.671	1286.82
685.079	1346.31
685.487	1408.9
685.894	1496.91
686.302	1569.35
686.709	1629.15
687.116	1700.74
687.524	1760.97
687.931	1810.82
688.338	1854.81
688.745	1892.73
689.152	1936.05
689.559	1991.73
689.966	2049.59
690.373	2073.08
690.78	2126
691.187	2209.74
691.593	2272.17
692	2324.15
692.407	2404.8
692.813	2502.8
693.22	2579.39
693.626	2658.25
694.032	2720.21
694.439	2816.04
694.845	2889.56
695.251	2985.79
695.657	3067.81
696.063	3195
696.469	3288.1
696.875	3373.15
697.281	3418.61
697.687	3475.5
698.093	3521.13
698.498	3616.07
698.904	3689.41
699.31	3803.98
699.715	3879.75
700.12	3995.87
700.526	4011.9
700.931	4100.56
701.337	4164.49
701.742	4202.32
702.147	4311.35
702.552	4345.24
702.957	4418.37
703.362	4437.98
703.767	4470.57
704.172	4518.15
704.577	4448.42
704.981	4504.76
705.386	4518.1
705.791	4500.44
706.195	4594.19
706.6	4596.09
707.004	4697.35
707.408	4653.02
707.813	4681.99
708.217	4657.94
708.621	4654.09
709.025	4779.61
709.43	4777.78
709.834	4853.24
710.237	4940.53
710.641	4915.06
711.045	4940.82
711.449	4927.04
711.853	4956.94
712.256	5009.35
712.66	5058.22
713.064	5152.27
713.467	5197.61
713.87	5340.34
714.274	5393.29
714.677	5530.82
715.08	5736.57
715.484	5950.06
715.887	6206.59
716.29	6461.94
716.693	6726.28
717.096	7029.63
717.499	7193.9
717.901	7226.1
718.304	7256.19
718.707	7284.07
719.109	7147.03
719.512	7101.21
719.915	6921.2
720.317	6845.35
720.719	6895.9
721.122	6851.78
721.524	6779.15
721.926	6721.29
722.328	6845.61
722.731	6828.28
723.133	6860.91
723.535	7103.29
723.937	7128.68
724.338	7193.54
724.74	7241.46
725.142	7124.25
725.544	7118.63
725.945	7143.67
726.347	7138.73
726.748	7123.57
727.15	7137.76
727.551	7084.94
727.952	7048.96
728.354	7008.87
728.755	7005.73
729.156	6953.53
729.557	6971.05
729.958	6813.33
730.359	6748.1
730.76	6719.35
731.161	6641.65
731.562	6607.37
731.962	6611.1
732.363	6525.8
732.763	6440.43
733.164	6485.37
733.564	6395.32
733.965	6271.59
734.365	6228.93
734.766	6262.71
735.166	6214.83
735.566	6145.46
735.966	6110.84
736.366	6104.26
736.766	6028.67
737.166	6071.72
737.566	6016.81
737.966	5985.61
738.365	6032.13
738.765	6021.26
739.165	5928.09
739.564	5892.61
739.964	5949.26
740.363	5891.98
740.763	5887.32
741.162	5869.62
741.561	5826.8
741.96	5771.22
742.36	5795.03
742.759	5803.67
743.158	5855.52
743.557	5871.59
743.955	5921.2
744.354	5862.89
744.753	5933.29
745.152	5880.59
745.55	5949.61
745.949	5940.08
746.348	5939.76
746.746	5960.96
747.144	5907.28
747.543	5877.85
747.941	5939.82
748.339	5853.77
748.737	5843.41
749.136	5832.91
749.534	5913.56
749.932	5877.7
750.33	5905.42
750.727	5974.3
751.125	5942.67
751.523	5923.12
751.921	5972.54
752.318	5930
752.716	5999.52
753.113	6017.31
753.511	6048.11
753.908	6046.14
754.305	6022.75
754.703	6100.1
755.1	6171.87
755.497	6245.92
755.894	6484.63
756.291	6711.35
756.688	7119.98
757.085	7669.92
757.482	8439.24
757.878	9275.4
758.275	10037.22
758.672	11089.49
759.068	11946.3
759.465	13171.62
759.861	14744.53
760.258	16564.97
760.654	17505.67
761.05	17367.59
761.447	16574.83
761.843	15427.72
762.239	14250.16
762.635	13717.76
763.031	13205.34
763.427	12469.25
763.822	11690.14
764.218	10923.83
764.614	9927.46
765.01	9259.07
765.405	8828.99
765.801	8500.57
766.196	8082.78
766.592	7850.97
766.987	7455.89
767.382	7187.18
767.778	7071.72
768.173	6907.71
768.568	6815.89
768.963	6660.08
769.358	6682.34
769.753	6624.17
770.148	6517.9
770.542	6516.87
770.937	6479.11
771.332	6593.77
771.726	6620.7
772.121	6539.96
772.515	6608.36
772.91	6587.6
773.304	6673.08
773.699	6588.77
774.093	6653.21
774.487	6723.7
774.881	6776.13
775.275	6768.53
775.669	6714
776.063	6765.87
776.457	6811.45
776.851	6718.72
777.245	6711.7
777.638	6751.89
778.032	6895.17
778.425	6849.32
778.819	6898.73
779.212	6847.89
779.606	6796.75
779.999	6822.95
780.392	6800.32
780.786	6904.3
781.179	6932.19
781.572	6981.6
781.965	6999.03
782.358	6926.92
782.751	6998.49
783.143	6940.53
783.536	7033.19
783.929	7085.06
784.322	7228.16
784.714	7270.77
785.107	7260.5
785.499	7348.1
785.891	7323.38
786.284	7301.85
786.676	7477.99
787.068	7452.14
787.46	7516.27
787.852	7538.16
788.245	7648.12
788.636	7682.66
789.028	7762.97
789.42	7814.66
789.812	7821.22
790.204	7941.03
790.595	8061.36
790.987	7818.58
791.378	7845.58
791.77	8004.35
792.161	8175.38
792.553	8242.56
792.944	8106.9
793.335	8024.4
793.726	8112.33
794.117	8226.52
794.508	8392.91
794.899	8355.03
795.29	8528.27
795.681	8600.55
796.072	8422.88
796.463	8181.45
796.853	8191.14
797.244	8382.49
797.634	8421.41
798.025	8420.85
798.415	8439.08
798.806	8548.49
799.196	8653.86
799.586	8715.22
799.976	8668.88
800.366	8953.67
800.756	9262.97
801.146	9215.31
801.536	9254.61
801.926	9348.05
802.316	9376.02
802.706	9459.75
803.095	9305.15
803.485	9430.16
803.874	9483.61
804.264	9802.45
804.653	9769.91
805.043	9942.36
805.432	10072.47
805.821	10068.9
806.21	10090.82
806.599	10243.23
806.988	10296.15
807.377	10431.13
807.766	10587.42
808.155	10935.99
808.544	10602.08
808.933	10615.81
809.321	10589.75
809.71	10955.27
810.098	11150.7
810.487	11714.63
810.875	12295.26
811.264	12318.98
811.652	12661.83
812.04	12837.9
812.428	13036.22
812.816	13980.48
813.204	14493.48
813.592	15173.35
813.98	15587.35
814.368	15470.84
814.756	16060.97
815.144	15971.83
815.531	16544.51
815.919	16458.75
816.306	16832
816.694	16442.34
817.081	16506.03
817.469	16933.94
817.856	16925.58
818.243	17247.13
818.63	17721.28
819.017	17196.76
819.404	17261.78
819.791	17726.39
820.178	18493.66
820.565	18803.28
820.952	19945.31
821.339	19332.2
821.725	19557.39
822.112	18639.77
822.498	18598.63
822.885	18760.6
823.271	18651.97
823.657	19173.19
824.044	19186.47
824.43	19265.81
824.816	19223.67
825.202	18697.18
825.588	19956.91
825.974	19976.48
826.36	20623.67
826.746	20663.94
827.132	21110.45
827.517	21084.8
827.903	20125.26
828.289	20166.36
828.674	19212.72
829.06	19096.98
829.445	19582.04
829.83	20014.96
830.216	20602.63
830.601	21042.94
830.986	20536.44
831.371	20368.76
831.756	21054.44
832.141	20526.1
832.526	20520.79
832.911	20870.3
833.295	20723.63
833.68	21309.37
834.065	20551.75
834.449	19426.71
834.834	19343.92
835.218	19350.83
835.603	19768.91
835.987	19510.16
836.371	20536.87
836.755	20411.28
837.139	20908.07
837.524	21204.83
837.908	20989.61
838.291	21062.13
838.675	21151.64
839.059	21405.51
839.443	21385.73
839.827	21107.12
840.21	21699.02
840.594	21519.38
840.977	21780.59
841.361	21764.64
841.744	22226.46
842.127	22026.17
842.511	22332.15
842.894	23063.59
843.277	23541.38
843.66	24221.94
844.043	24314.3
844.426	23316.19
844.809	22924.49
845.191	22973.22
845.574	22402.58
845.957	21953.84
846.339	21822.96
846.722	21175.14
847.104	21259.88
847.487	21045
847.869	21054.27
848.252	21395.54
848.634	21808.95
849.016	22143.54
849.398	22285.47
849.78	23320.43
850.162	23337.4
850.544	23854.22
850.926	24640.1
851.307	24533.6
851.689	24874.69
852.071	25426.15
852.452	25827.88
852.834	25796.42
853.215	26291.46
853.597	26480.29
853.978	26850.68
854.359	27400.84
854.741	26164.65
855.122	26031.12
855.503	25668.5
855.884	25830.14
856.265	25757.13
856.646	25909.4
857.026	25426.4
857.407	25327.21
857.788	25518.46
858.169	25869.46
858.549	24817.57
858.93	25577.26
859.31	25627.89
859.69	25882.17
860.071	25381.64
860.451	25117.44
860.831	24197.02
861.211	25621.96
861.591	26291.1
861.971	26266.31
862.351	26496.32
862.731	26984.77
863.111	27310.86
863.491	27717.4
863.87	28802.42
864.25	29225.67
864.629	28724.35
865.009	29354.07
865.388	30389.13
865.768	32560.55
866.147	32415.2
866.526	30626.46
866.905	30986.91
867.284	32739.42
867.663	31102.53
868.042	29803.94
868.421	29716.72
868.8	30213.44
869.179	30500.41
869.558	28725.7
869.936	26486.36
870.315	26967.26
870.693	27616.18
871.072	29781.04
871.45	28359.67
871.828	28712.48
872.207	30179.02
872.585	29715.83
872.963	30515.17
873.341	29467.77
873.719	29109.75
874.097	28758.63
874.475	29305.48
874.853	29983.48
875.23	28724.51
875.608	29935.85
875.986	32374.77
876.363	30963.63
876.741	31901.71
877.118	31109.21
877.495	32636.26
877.873	33195.28
878.25	34941.13
878.627	33518.42
879.004	33998.02
879.381	33831.47
879.758	32926.14
880.135	30660.95
880.512	32436.32
880.889	31589.99
881.265	31265.15
881.642	31019.57
882.019	31541.98
882.395	30892.1
882.772	32106.9
883.148	30702.94
883.524	30590.74
883.901	30419.73
884.277	30881.94
884.653	30682.27
885.029	31548.57
885.405	34929.21
885.781	34648.18
886.157	33209.48
886.532	33610.65
886.908	33592.08
887.284	37351.26
887.659	38564.56
888.035	39765.47
888.411	40762.4
888.786	41300.89
889.161	42738.69
889.537	41963.43
889.912	43301.8
890.287	43262.94
890.662	44372.47
891.037	43568.88
891.412	40624.26
891.787	40225.31
892.162	38816.78
892.536	39733.38
892.911	38237.93
893.286	37437.23
893.66	35915.15
894.035	36830.28
894.409	40114.61
894.784	38503.4
895.158	39158.02
895.532	41477.77
895.906	42604.35
896.281	43604.01
896.655	42910.18
897.029	49043.23
897.402	51086.46
897.776	56891.48
898.15	56711.03
898.524	56077.42
898.898	56835.1
899.271	63615.5
899.645	55084.16
900.018	52923.27
900.392	54891.4
900.765	55340.49
901.138	51215.98
901.511	50434.11
901.884	46275.69
902.258	42664.83
902.631	44092.32
903.003	50734.45
903.376	45773.72
903.749	51342.82
904.122	54935.9
904.495	60479.98
904.867	61267.29
905.24	53176.74
905.612	49498.73
905.985	50634.38
906.357	52957.94
906.729	50545.44
907.102	43171.08
907.474	41501.21
907.846	41760.41
908.218	41213.34
908.59	36402.5
908.962	35190.3
909.334	37898.43
909.705	39813.66
910.077	38661.91
910.449	40236.03
910.82	41373.65
911.192	45528.52
911.563	47324.04
911.935	50642.39
912.306	50719.97
912.677	52384.24
913.048	51868.02
913.419	56266.55
913.79	56595.1
914.161	60666.11
914.532	57973.92
914.903	53255.16
915.274	50570.51
915.645	49812.63
916.015	43846.78
916.386	41770.88
916.756	44467.1
917.127	45863.12
917.497	40950.57
917.868	44525.49
918.238	42283.39
918.608	43496.24
918.978	44387.32
919.348	46983.37
919.718	48531.68
920.088	46751.75
920.458	48563.34
920.828	51099.18
921.198	48440.39
921.567	51739.16
921.937	40066.99
922.306	40466.69
922.676	43628.42
923.045	36362.02
923.415	34541.98
923.784	31464.92
924.153	32328.95
924.522	32296.24
924.891	30353.12
925.26	32483.78
925.629	31723.44
925.998	36465.55
926.367	35588.17
926.736	33881.32
927.104	40378.84
927.473	43404.96
927.842	52391.87
928.21	51871.98
928.578	54514.6
928.947	51531.76
929.315	51861.61
929.683	60800.33
930.051	61258.05
930.42	71147.27
930.788	60845
931.156	60378.22
931.523	56594.11
931.891	52298.47
932.259	50245.75
932.627	58234.72
932.994	82452.85
933.362	68101.56
933.729	59091.5
934.097	56603.53
934.464	47855.74
934.831	55196.55
935.199	54421.66
935.566	52770.91
935.933	53528.65
936.3	64812.81
936.667	50490.22
937.034	45458.27
937.401	44963.28
937.767	38822.47
938.134	34566.35
938.501	48787.85
938.867	52013.66
939.234	87968.17
939.6	75105.19
939.967	82624.5
940.333	55276.06
940.699	47069.43
941.065	37818.11
941.431	49580.6
941.798	47790.55
942.163	62672.8
942.529	39184.3
942.895	36056.44
943.261	23310.65
943.627	30563.04
943.992	26763.45
944.358	26833.22
944.723	26889.89
945.089	26219.26
945.454	24254.65
945.82	25915.31
946.185	24938.79
946.55	28857.32
946.915	25881.9
947.28	30403.32
947.645	26766.77
948.01	24685.69
948.375	25727.36
948.74	30832.05
949.104	35951.15
949.469	51961.27
949.834	91848.77
950.198	86955.84
950.562	52122.89
950.927	43404.57
951.291	52163.77
951.655	44433.48
952.02	41804.03
952.384	31629.42
952.748	27546.06
953.112	26844.99
953.476	23311.35
953.839	21568.18
954.203	21344.62
954.567	26721.71
954.931	42126.94
955.294	36039.06
955.658	36239.92
956.021	61600.44
956.385	104434.92
956.748	154034
957.111	239252.14
957.474	268568.47
957.837	302338.84
958.2	228979.7
958.563	82323.73
958.926	55650.46
959.289	84433.15
959.652	94330.67
960.015	70716.07
960.377	101549.12
960.74	116047.14
961.102	200151.46
961.465	214973.41
961.827	114900.38
962.189	220417.61
962.552	152730.05
962.914	122425.01
963.276	79450.11
963.638	65713.01
964	65091.12
964.362	43953.12
964.724	42467.79
965.085	30300.95
965.447	24835.74
965.809	28362.36
966.17	28422.76
966.532	30751.41
966.893	28216.68
967.255	25688.28
967.616	30325.56
967.977	24273.14
968.338	26522.58
968.699	21765.35
969.061	21755.02
969.421	21911.64
969.782	24595.75
970.143	20738.15
970.504	21478.58
970.865	24400.95
971.225	24931.65
971.586	24382.03
971.946	34783
972.307	30203.11
972.667	39569.24
973.027	40753.52
973.388	49447.87
973.748	33620.74
974.108	36661.68
974.468	49647.01
974.828	38289.5
975.188	29493.53
975.548	27089.15
975.907	22738.64
976.267	25502.67
976.627	21405.06
976.986	22172.01
977.346	21130.67
977.705	20307.39
978.064	18492.06
978.424	15380.37
978.783	15903.95
979.142	18136.54
979.501	17347.39
979.86	18338.04
980.219	17659.55
980.578	22791.59
980.937	25529.86
981.296	22737.82
981.654	23406.65
982.013	36426.68
982.371	47227.27
982.73	44105.04
983.088	49869.56
983.447	53226.82
983.805	76023.77
984.163	158845.89
984.521	176143.08
984.879	258373.92
985.237	-419897.61
985.595	404614.02
985.953	100458.24
986.311	58058.16
986.669	33727.58
987.026	29147.1
987.384	39228.82
987.741	40574.67
988.099	28959.49
988.456	23081.57
988.814	21575.04
989.171	18748.54
989.528	18510.41
989.885	19543.62
990.242	15444.99
990.599	19225.68
990.956	15702.04
991.313	10981.23
991.67	9003.44
992.027	9526.57
992.383	8471.51
992.74	7433.71
993.096	7795.49
993.453	8083.93
993.809	8382.72
994.165	11192.7
994.522	10227
994.878	11279.73
995.234	14140.01
995.59	13954.35
995.946	13232.64
996.302	15056.4
996.658	17412.93
997.013	19200.21
997.369	22741.14
997.725	29081.5
998.08	18800.01
998.436	29093.13
998.791	40217.34
999.147	40152.35
999.502	43822.83
999.857	31921.99
1000.212	52113.35
1000.567	74213.24
1000.922	42872.21
1001.277	27215.61
1001.632	20232.05
1001.987	26091.15
1002.342	18707.6
1002.696	14957.55
1003.051	11936.19
1003.406	14487.18
1003.76	14424.86
1004.114	14209.88
1004.469	11957.15
1004.823	9891.3
1005.177	10686.27
1005.531	8444.29
1005.885	7503.55
1006.239	8471.19
1006.593	10600.57
1006.947	14183.72
1007.301	10613.65
1007.655	11565.53
1008.008	8493.32
1008.362	9519.06
1008.715	13584.21
1009.069	12358.33
1009.422	18582.54
1009.776	37177.93
1010.129	24654.79
1010.482	20632.16
1010.835	17456.35
1011.188	36348.49
1011.541	34214.86
1011.894	-209553.95
1012.247	617764.57
1012.6	42074.26
1012.952	26531
1013.305	13711.85
1013.657	9901.06
1014.01	9357.58
1014.362	7721.82
1014.715	6841.88
1015.067	5956.61
1015.419	5800.2
1015.771	5126.7
1016.123	4565.72
1016.475	4676.2
1016.827	4970.21
1017.179	5330.92
1017.531	5365.84
1017.883	5501.61
1018.234	5276.45
1018.586	6671.31
1018.938	7055.19
1019.289	9776.89
1019.64	11228.85
1019.992	10464.87
1020.343	9613.06
1020.694	7591.53
1021.045	6706.95
1021.396	7673.78
1021.747	8216.63
1022.098	9927.44
1022.449	7212.13
1022.8	6695.55
1023.151	4640.01
1023.501	4102.36
1023.852	4451.19
1024.202	4609.64
1024.553	5088.55
1024.903	4994.57
1025.253	4275.62
1025.604	3840.46
1025.954	4761.71
1026.304	5801.14
1026.654	6776.53
1027.004	9996.22
1027.354	16174.71
1027.703	15170.53
1028.053	19954.7
1028.403	29049.51
1028.753	42107.75
1029.102	57292.54
1029.452	295964.41
1029.801	12804.95
1030.15	8289.08
1030.499	7043.15
897.758	2066.78
901.051	1992.89
904.343	2027.05
907.636	2035.37
910.928	2095.99
914.22	2019.77
917.511	2024.58
920.803	2071.28
924.094	2064.51
927.384	2073.21
930.675	2037.98
933.965	2002.53
937.255	2039.11
940.544	2011.22
943.834	2001.46
947.123	1944.51
950.411	2032.45
953.7	2013.65
956.988	2000.15
960.276	1937.37
963.563	1980.25
966.851	1990.24
970.138	2030.73
973.424	2033.2
976.711	1985.3
979.997	2037.29
983.283	2077.1
986.568	2012.2
989.853	1998.99
993.138	2024.81
996.423	2112.24
999.708	2075.97
1002.992	2107.17
1006.275	2023.43
1009.559	2027.57
1012.842	2124.07
1016.125	2079.95
1019.408	2062.61
1022.69	2113.93
1025.972	2150.41
1029.254	2126.68
1032.536	2093.52
1035.817	2096.78
1039.098	2068
1042.379	2114.37
1045.659	2140.6
1048.939	2093.28
1052.219	2099.39
1055.498	2087.68
1058.778	2084.7
1062.057	2061.07
1065.335	2086.79
1068.614	2096.46
1071.892	2097.87
1075.17	2146.89
1078.447	2153.06
1081.724	2148.08
1085.001	2169.73
1088.278	2149.98
1091.554	2156.19
1094.83	2151.8
1098.106	2190.86
1101.382	2214.52
1104.657	2216.38
1107.932	2216.62
1111.206	2198.12
1114.481	2147.8
1117.755	2148.81
1121.029	2146.44
1124.302	2206.93
1127.575	2177.46
1130.848	2174.67
1134.121	2147.39
1137.393	2115.8
1140.665	2168.08
1143.937	2149.81
1147.208	2093.12
1150.48	2158.04
1153.75	2148.74
1157.021	2142.79
1160.291	2121.73
1163.561	2176.94
1166.831	2140.84
1170.101	2164.39
1173.37	2119.93
1176.639	2081.83
1179.907	2120.55
1183.176	2148.79
1186.444	2149.96
1189.711	2171.06
1192.979	2199.09
1196.246	2154.38
1199.513	2165.71
1202.78	2172.76
1206.046	2181.33
1209.312	2211.72
1212.578	2227.75
1215.843	2196.49
1219.108	2164.37
1222.373	2185.11
1225.638	2161.87
1228.902	2155.6
1232.166	2110.32
1235.43	2098.67
1238.693	2124.25
1241.956	2113.99
1245.219	2164.25
1248.482	2144.56
1251.744	2146
1255.006	2260.65
1258.268	2206.05
1261.529	2164.45
1264.79	2163.95
1268.051	2259.58
1271.312	2268.38
1274.572	2240.34
1277.832	2229.63
1281.092	2206.3
1284.351	2201.73
1287.61	2188.44
1290.869	2126.58
1294.128	2129.31
1297.386	2169.2
1300.644	2162.62
1303.902	2172.14
1307.159	2044.46
1310.416	2093.49
1313.673	2123.11
1316.93	2123.5
1320.186	2150.09
1323.442	2178.74
1326.697	2185.43
1329.953	2153.34
1333.208	2190.81
1336.463	2160.56
1339.717	2127.3
1342.972	2225.82
1346.226	2197.47
1349.479	2148.59
1352.733	2131.76
1355.986	2133.42
1359.238	2116.74
1362.491	2119.25
1365.743	2120.89
1368.995	2110.14
1372.247	2123.47
1375.498	2142.54
1378.749	2188.13
1382	2137.47
1385.251	2170.68
1388.501	2121.46
1391.751	2126.18
1395	2091.57
1398.25	2116.02
1401.499	2140.22
1404.748	2096.08
1407.996	2073.22
1411.244	2062.99
1414.492	2048.96
1417.74	2036.91
1420.987	2038.11
1424.234	2098.34
1427.481	2057.17
1430.728	2114.16
1433.974	2089.41
1437.22	2086.06
1440.465	2080
1443.711	2084.83
1446.956	2106.45
1450.201	2075.46
1453.445	2115.79
1456.689	2111.43
1459.933	2119.79
1463.177	2163.09
1466.42	2135.41
1469.663	2120.5
1472.906	2140.23
1476.148	2188.33
1479.391	2151.89
1482.633	2128.83
1485.874	2159.33
1489.115	2169.66
1492.356	2146.57
1495.597	2128.96
1498.838	2119.85
1502.078	2108.22
1505.318	2084.71
1508.557	2115.1
1511.797	2112.12
1515.036	2164.17
1518.274	2132.75
1521.513	2082.33
1524.751	2090.87
1527.989	2117.87
1531.227	2136.88
1534.464	2155.88
1537.701	2146.38
1540.938	2156.68
1544.174	2105.8
1547.41	2094.35
1550.646	2131.13
1553.882	2184.59
1557.117	2240.44
1560.352	2249.44
1563.587	2214
1566.821	2181.48
1570.055	2193.19
1573.289	2176.08
1576.523	2230.61
1579.756	2247.79
1582.989	2270.98
1586.222	2234.36
1589.454	2256.41
1592.686	2245.94
1595.918	2272.99
1599.15	2272.25
1602.381	2312.29
1605.612	2298.7
1608.843	2391.78
1612.073	2315.94
1615.303	2305.2
1618.533	2305.34
1621.762	2298.83
1624.992	2274.97
1628.221	2279.4
1631.449	2267.54
1634.678	2290
1637.906	2258.18
1641.134	2281.8
1644.361	2248.68
1647.588	2238.76
1650.815	2259.28
1654.042	2221.2
1657.269	2249.51
1660.495	2233.48
1663.72	2213.26
1666.946	2184.22
1670.171	2161.7
1673.396	2134.91
1676.621	2117.23
1679.845	2110.33
1683.069	2113.98
1686.293	2143.55
1689.517	2135.22
1692.74	2091.13
1695.963	2111.44
1699.185	2154.72
1702.408	2127.47
1705.63	2156.1
1708.852	2177.47
1712.073	2146.09
1715.294	2160.6
1718.515	2201.07
1721.736	2161.56
1724.956	2139.34
1728.176	2159.54
1731.396	2181.19
1734.616	2165.39
1737.835	2203.64
1741.054	2171.3
1744.272	2162.27
1747.491	2206.14
1750.709	2222.92
1753.927	2180.47
1757.144	2200.81
1760.361	2262.95
1763.578	2232.95
1766.795	2185.59
1770.011	2173.48
1773.227	2192.8
1776.443	2235.92
1779.658	2277.88
1782.874	2215.47
1786.089	2211.57
1789.303	2213.16
1792.518	2207.84
1795.732	2192.29
1798.945	2212.75
1802.159	2248.5
1805.372	2197.39
1808.585	2194.76
1811.797	2194.48
1815.01	2210.25
1818.222	2237.1
1821.434	2189.21
1824.645	2229.17
1827.856	2242.74
1831.067	2272.66
1834.278	2205.51
1837.488	2191.02
1840.698	2304.05
1843.908	2250.43
1847.117	2217.98
1850.326	2152.25
1853.535	2200.79
1856.744	2243.78
1859.952	2167.72
1863.16	2169.09
1866.368	2181.24
1869.575	2291.95
1872.782	2173.24
1875.989	2112.4
1879.196	2151.59
1882.402	2143.91
1885.608	2172.62
1888.814	2123.75
1892.019	2033.1
1895.224	2082.82
1898.429	2043.76
1901.634	2029.13
1904.838	2003.21
1908.042	2062.75
1911.246	2071.82
1914.449	2041.82
1917.652	2020.27
1920.855	2002.78
1924.058	2021.41
1927.26	2066.81
1930.462	2087.16
1933.664	2128.51
1936.865	2073.05
1940.066	2091.93
1943.267	2035.72
1946.467	2044.42
1949.668	2062.1
1952.868	2130.74
1956.067	2122.43
1959.267	2068.41
1962.466	2089.47
1965.665	2071.72
1968.863	2067
1972.061	2065.39
1975.259	2057.75
1978.457	2128.94
1981.654	2091.23
1984.852	2094.24
1988.048	2052.85
1991.245	2039.11
1994.441	2125.21
1997.637	2079.17
2000.833	2062.76
2004.028	2096.3
2007.223	2157.5
2010.418	2147.8
2013.613	2098.96
2016.807	2096.88
2020.001	2088.74
2023.194	2107.28
2026.388	2095.98
2029.581	2039.49
2032.774	2103.29
2035.966	2115.72
2039.158	2064.38
2042.35	2084.82
2045.542	2013.44
2048.733	2088.78
2051.924	2077.06
2055.115	2090.57
2058.306	2058.88
2061.496	2110.49
2064.686	2156.06
2067.875	2067.49
2071.065	2063
2074.254	2082.09
2077.442	2038.48
2080.631	2118.32
2083.819	2060.95
2087.007	2051.39
2090.195	2039.55
2093.382	2051.27
2096.569	2035.34
2099.756	2002.75
2102.942	2051.59
2106.128	2069.86
2109.314	2056.34
2112.5	2044.48
2115.685	2009.53
2118.87	2018.17
2122.055	2076.89
2125.239	2060.6
2128.424	2051.44
2131.608	2101.42
2134.791	2085.12
2137.974	2116.91
2141.157	2106.41
2144.34	2081.99
2147.523	2068.85
2150.705	2097.93
2153.887	2061.09
2157.068	2040.45
2160.25	2015.05
2163.431	2037.48
2166.611	2010.58
2169.792	2033.25
2172.972	1950.62
2176.152	1992.26
2179.331	2019.44
2182.511	2025.09
2185.69	2044.38
2188.868	2052.66
2192.047	2082.7
2195.225	2105.36
2198.403	2052.4
2201.58	2039.72
2204.758	2021.59
2207.935	2094.05
2211.111	2019.48
2214.288	2006.92
2217.464	2039.45
2220.64	1992.53
2223.815	2039.13
2226.991	1974.89
2230.166	1989.13
2233.34	2033.99
2236.515	2045.63
2239.689	2107.59
2242.863	2056.13
2246.036	2108.87
2249.209	2089.3
2252.382	2105.54
2255.555	2117.97
2258.727	2072.07
2261.9	2098.37
2265.071	2091.62
2268.243	2086.11
2271.414	2039.9
2274.585	2028.74
2277.756	2089.18
2280.926	2043.74
2284.096	2071.51
2287.266	2006.2
2290.436	2050.26
2293.605	2067.14
2296.774	2106.8
2299.942	2106.78
2303.111	2125.04
2306.279	2175.52
2309.447	2159.33
2312.614	2129.91
2315.781	2157.19
2318.948	2136.51
2322.115	2172.9
2325.281	2073.02
2328.447	2078.97
2331.613	2046.95
2334.779	2043.31
2337.944	2034.5
2341.109	2036.54
2344.274	2027.56
2347.438	1996.1
2350.602	2014.85
2353.766	2018.54
2356.929	2009.92
2360.092	2048.75
2363.255	2023.41
2366.418	1996.76
2369.58	2049.75
2372.742	1948.88
2375.904	1937.44
2379.066	1923.22
2382.227	1946.67
2385.388	1911
2388.548	1868.25
2391.709	1906.9
2394.869	1897.53
2398.029	1941.46
2401.188	1933.59
2404.347	1906.01
2407.506	1967.54
2410.665	2009.74
2413.823	1992.05
2416.981	1976.2
2420.139	1990.09
2423.296	2027.74
2426.453	1998.66
2429.61	2019.03
2432.767	1998.91
2435.923	2039.36
2439.079	1981.77
2442.235	2011.26
2445.391	1955.88
2448.546	1998.87
2451.701	2031.04
2454.855	2030.13
2458.009	2052.21
2461.163	2040.08
2464.317	2014.52
2467.471	2038.94
2470.624	2064.62
2473.777	2059.7
2476.929	2076.9
2480.082	2100.71
2483.234	2078.04
2486.385	2016.3
2489.537	2010.43
2492.688	2007.48
2495.839	2023.49
2498.989	2037.45
2502.14	2025.49
2505.29	2021.79
2508.439	2042.48
2511.589	1988.38
2514.738	1985.85
2517.887	2005.45
2521.035	2080.64
2524.183	2039.2
2527.331	2029.28
2530.479	2027.27
2533.627	2028.86
