Data from C_1_DEC_VA_2N_Splice17_11-57-30-331.txt Node
Date: Sat Mar 14 11:57:30 EDT 2020
User: sa697716
Spectrometer: FLMS03696
Trigger mode: 0
Integration Time (sec): 3.180400E-1
Scans to average: 20
Electric dark correction enabled: true
Nonlinearity correction enabled: true
Boxcar width: 5
XAxis mode: Wavelengths
Number of Pixels in Spectrum: 2048
>>>>>Begin Spectral Data<<<<<
187.83	-223627.27
188.298	1775.79
188.766	999.78
189.233	902.92
189.701	1298.45
190.169	1756
190.636	585.2
191.104	399.85
191.571	12.36
192.039	-116.59
192.506	-90.52
192.974	297.95
193.441	-407.56
193.908	60.71
194.375	28.09
194.842	94.05
195.31	220.65
195.777	148.8
196.244	328.23
196.711	438.11
197.177	573.81
197.644	832.23
198.111	1433.55
198.578	2047.17
199.045	1642.89
199.511	2686.24
199.978	3151.5
200.445	2635.51
200.911	2930.74
201.378	3282.45
201.844	2977.65
202.31	5066.6
202.777	5281.9
203.243	2940.87
203.709	2782.27
204.176	3324.7
204.642	2746.45
205.108	2571.44
205.574	2114.34
206.04	1945.78
206.506	1828.47
206.972	1735.95
207.438	1668.71
207.903	1882.89
208.369	1642.7
208.835	1635.51
209.301	1701.89
209.766	1753.23
210.232	1721.55
210.697	2138.45
211.163	2642.76
211.628	3946.57
212.094	3300.2
212.559	4042.82
213.024	2543.22
213.49	3116.41
213.955	3047.94
214.42	2991.62
214.885	2774.51
215.35	2667.79
215.815	2545.74
216.28	2708.62
216.745	2224.24
217.21	2400.21
217.675	2213.76
218.14	2476.06
218.604	2769.68
219.069	3158.63
219.534	3307.97
219.998	3830.59
220.463	4628.7
220.927	5694.11
221.392	5331.73
221.856	5399.31
222.32	6814.81
222.785	8413.98
223.249	10595.19
223.713	11800.15
224.177	11809.28
224.642	15164.44
225.106	18653.58
225.57	20395.01
226.034	15161.16
226.497	23124.09
226.961	20886.08
227.425	24333.65
227.889	27040.31
228.353	27031.9
228.816	55882.04
229.28	53351.23
229.744	44977.36
230.207	27390.94
230.671	26935.08
231.134	44668.51
231.597	51426.33
232.061	51466.68
232.524	50216.95
232.987	34594.24
233.45	31163.27
233.914	27937.48
234.377	28669.32
234.84	26246.7
235.303	30957.55
235.766	34610.83
236.229	35687.82
236.691	22512.76
237.154	25285.07
237.617	18992.07
238.08	19434.53
238.542	22743.72
239.005	16277.43
239.468	16162.69
239.93	15238.35
240.393	13852.52
240.855	12151.56
241.317	12479.91
241.78	15178.52
242.242	15700.89
242.704	16975.14
243.166	14793.82
243.629	13435.8
244.091	15478.05
244.553	16984.55
245.015	18260.33
245.477	23620.42
245.939	34670.2
246.4	36779.08
246.862	35764.84
247.324	33717.91
247.786	37747.79
248.247	49478.05
248.709	51154.41
249.17	38301.84
249.632	36059.8
250.093	41834.68
250.555	36132.33
251.016	22022.07
251.477	20885.27
251.939	22579.11
252.4	23724.8
252.861	28256.07
253.322	26339.74
253.783	31362.93
254.244	40661.2
254.705	32086.23
255.166	28567.06
255.627	28181.11
256.088	39777.55
256.549	42246.18
257.009	36399.91
257.47	44136.02
257.931	35937.49
258.391	26919.91
258.852	27726.1
259.312	29090.73
259.773	35951.02
260.233	30336.35
260.694	25570.99
261.154	29025.2
261.614	23332.56
262.074	20863.64
262.534	21678.68
262.994	20427.51
263.455	27238.71
263.915	22978.99
264.374	21636.4
264.834	23639.04
265.294	26254.31
265.754	27212.9
266.214	25763.45
266.673	24144.56
267.133	30494.82
267.593	30308.03
268.052	37117.35
268.512	32255.63
268.971	38897.04
269.431	42687.23
269.89	38199.86
270.349	57210.68
270.809	63777.96
271.268	57343.52
271.727	128580.47
272.186	83211.69
272.645	62335.91
273.104	44967.82
273.563	65073.02
274.022	51163.08
274.481	43474.18
274.94	33500.79
275.399	24913.28
275.857	29029.07
276.316	39267.43
276.775	34988.26
277.233	34455.87
277.692	32254.58
278.15	36472.28
278.609	37544.73
279.067	34748.51
279.525	32311.91
279.984	41753.19
280.442	50145.9
280.9	49408.74
281.358	32519.28
281.816	30278.73
282.274	29666.39
282.732	30654.19
283.19	30821.95
283.648	26617.49
284.106	28378.34
284.564	28866.13
285.021	26775.57
285.479	19962.02
285.937	18162.92
286.394	15927.46
286.852	16395.83
287.309	17230.01
287.767	16667.14
288.224	15836.61
288.682	17372.81
289.139	19061.72
289.596	17428.73
290.053	18091.02
290.511	22807.66
290.968	27665.08
291.425	37540.39
291.882	31214.04
292.339	27159.88
292.796	26926.59
293.252	25398.01
293.709	20187.13
294.166	18079.58
294.623	20006.29
295.079	19210
295.536	19328.58
295.992	17543.99
296.449	17355.16
296.905	18040.63
297.362	17306.66
297.818	18215.57
298.274	18898.76
298.731	19262.34
299.187	19069.5
299.643	20467.58
300.099	24759.77
300.555	27148.9
301.011	22704.75
301.467	21909.66
301.923	25645.2
302.379	25061.41
302.835	24613.24
303.291	24631.2
303.746	28004.47
304.202	35395.19
304.658	35576.65
305.113	23966.15
305.569	23473.62
306.024	25017.74
306.479	23818.07
306.935	20111.67
307.39	21965.03
307.845	20313.49
308.301	20474.17
308.756	19974.23
309.211	19283.96
309.666	19729.91
310.121	24478.75
310.576	24884.85
311.031	24706.82
311.486	28305.68
311.94	28286.68
312.395	37875.37
312.85	71062
313.305	348937.33
313.759	1805996.9
314.214	130779.79
314.668	103896.52
315.123	87307.34
315.577	31298.69
316.032	27836.1
316.486	34905.36
316.94	27542.61
317.394	19148.65
317.849	14901.29
318.303	14108.16
318.757	13326.84
319.211	14722.09
319.665	12884.15
320.119	13046.17
320.572	18726.26
321.026	17488.01
321.48	14549.01
321.934	15864.06
322.387	15896.76
322.841	17172.95
323.295	15433.23
323.748	17778.85
324.202	18055.65
324.655	21654.89
325.108	30257.72
325.562	21353.18
326.015	25409.73
326.468	19224.08
326.921	21477.88
327.374	20043.56
327.827	20844.14
328.28	23604.94
328.733	15811.61
329.186	13909.73
329.639	13275.33
330.092	11207.39
330.545	10683.61
330.997	10773.49
331.45	11751.32
331.903	13796.11
332.355	23763.74
332.808	23109.39
333.26	19062.26
333.713	20685.17
334.165	20835.74
334.617	27790.97
335.069	22445.1
335.522	40577.37
335.974	44903.78
336.426	41087.76
336.878	28502.71
337.33	14445.83
337.782	14113.85
338.234	17700.44
338.686	21184.4
339.137	25082.46
339.589	23628.67
340.041	18518.77
340.493	15903.33
340.944	16283.99
341.396	17532.93
341.847	14712.36
342.299	17349.26
342.75	21180
343.201	18514.25
343.653	21270.81
344.104	26167.68
344.555	20621.76
345.006	32082.48
345.457	24611.94
345.908	19590.42
346.359	18437.13
346.81	15040.09
347.261	15873.44
347.712	15630.97
348.163	16759.2
348.613	16991.73
349.064	15848.34
349.515	13852.4
349.965	14205.18
350.416	17072.37
350.866	18721.92
351.317	21176.22
351.767	35070.26
352.217	44246.06
352.668	36727.64
353.118	33608.01
353.568	32431.71
354.018	25613
354.468	27087.33
354.918	19448.03
355.368	17026.66
355.818	24048.5
356.268	69157.86
356.718	288873.19
357.168	71897.38
357.617	36124.27
358.067	40206.07
358.517	37591.31
358.966	44165.52
359.416	49449.71
359.865	53442.8
360.315	63747.45
360.764	29778.93
361.213	16662.36
361.663	15784.91
362.112	19479.14
362.561	31415.7
363.01	23634.32
363.459	19904.86
363.908	21508.74
364.357	18258.4
364.806	30845.42
365.255	21199.55
365.703	19399.07
366.152	19476.78
366.601	15796.28
367.05	12822.12
367.498	11655.32
367.947	12205.31
368.395	12692.81
368.844	11250.85
369.292	13549.57
369.74	9345.89
370.189	14310.53
370.637	16755.26
371.085	14434.18
371.533	17593.89
371.981	16942.64
372.429	16147.34
372.877	16803.36
373.325	14074.45
373.773	14352.67
374.221	12788.23
374.669	15891.16
375.116	13745.65
375.564	13866.45
376.012	15518.02
376.459	12790.67
376.907	15295.93
377.354	18508.33
377.801	17278.14
378.249	19819.42
378.696	25303.98
379.143	30677.99
379.591	32673.18
380.038	55334.5
380.485	40081.01
380.932	43279.38
381.379	39646.31
381.826	29247.05
382.273	20797.52
382.72	18224.17
383.166	17807.52
383.613	11567.58
384.06	10430.29
384.506	12101.02
384.953	8887.63
385.4	8934.87
385.846	7843.53
386.292	7637.85
386.739	7481
387.185	7401.75
387.631	7404.94
388.078	7201.81
388.524	7716.35
388.97	7138.24
389.416	5959.28
389.862	6349.34
390.308	6037.76
390.754	6134.1
391.2	6676.88
391.645	6830.68
392.091	6545.03
392.537	6336.48
392.983	6350.32
393.428	6259.12
393.874	6720.6
394.319	6757.34
394.765	6418.22
395.21	6598.48
395.655	6193.01
396.101	5812.03
396.546	5266.58
396.991	5323.37
397.436	4947.84
397.881	4781.76
398.326	4533.86
398.771	4293.74
399.216	3756.25
399.661	3384.18
400.106	3377.26
400.551	3461.74
400.995	3107.57
401.44	3070.5
401.885	2885.15
402.329	2913.88
402.774	2798.21
403.218	2705.44
403.663	2605.63
404.107	2677.64
404.551	2691.03
404.995	2466.91
405.44	2374.19
405.884	2408.91
406.328	2328.31
406.772	2323.04
407.216	2118.14
407.66	2046.9
408.104	1945.79
408.547	1822.54
408.991	1760.49
409.435	1694.4
409.879	1669.78
410.322	1649.13
410.766	1590.45
411.209	1511.94
411.653	1447.38
412.096	1417.36
412.54	1415.32
412.983	1401.67
413.426	1402
413.869	1400.86
414.312	1373.95
414.756	1322.55
415.199	1258.61
415.642	1220.88
416.085	1221.56
416.527	1213.44
416.97	1228.46
417.413	1165.87
417.856	1153.64
418.298	1143.15
418.741	1132.29
419.184	1127.42
419.626	1172.93
420.069	1174.74
420.511	1178.76
420.953	1153.03
421.396	1141.57
421.838	1112.98
422.28	1136.48
422.722	1139.97
423.164	1154.86
423.606	1137.49
424.048	1138.03
424.49	1081.53
424.932	1071.59
425.374	1056.01
425.816	1072.36
426.258	1089.54
426.699	1101.38
427.141	1084.56
427.582	1100.37
428.024	1091.87
428.465	1084.06
428.907	1053.87
429.348	1039.96
429.789	1039.27
430.231	1017.44
430.672	1030.27
431.113	1007.55
431.554	992.03
431.995	965.81
432.436	930.5
432.877	909.84
433.318	894.29
433.759	890.41
434.2	889.63
434.64	882.01
435.081	884.81
435.522	839.41
435.962	808.8
436.403	790.92
436.843	801.8
437.284	785.08
437.724	763.51
438.164	764.07
438.604	748.85
439.045	719.65
439.485	691.04
439.925	676.77
440.365	660.86
440.805	651.38
441.245	643.03
441.685	619.81
442.125	615.87
442.564	618.93
443.004	604.72
443.444	602.71
443.883	604.48
444.323	598.94
444.762	599.41
445.202	605.06
445.641	616.14
446.081	611.27
446.52	618.3
446.959	612.26
447.398	598.24
447.837	591.91
448.276	582.1
448.716	590.24
449.154	596.81
449.593	583.57
450.032	581.99
450.471	570.9
450.91	570.73
451.349	570.38
451.787	567.63
452.226	576.33
452.664	577.55
453.103	577.26
453.541	573.53
453.98	573.35
454.418	576.09
454.856	568.43
455.295	567.73
455.733	573.62
456.171	573
456.609	575.05
457.047	574.81
457.485	583.07
457.923	585.22
458.361	578.21
458.798	578.22
459.236	577.89
459.674	581.28
460.111	584.01
460.549	578.51
460.987	577.04
461.424	573.96
461.862	571.68
462.299	561.27
462.736	561.01
463.173	563.22
463.611	558.41
464.048	556.63
464.485	561.9
464.922	556.98
465.359	553.29
465.796	548.32
466.233	544.06
466.67	539.76
467.106	539.45
467.543	533.6
467.98	527.05
468.416	512.92
468.853	508.65
469.29	492.96
469.726	487.05
470.162	475.52
470.599	468.54
471.035	465.78
471.471	454.78
471.907	451.28
472.344	447.66
472.78	447.85
473.216	453.13
473.652	447.72
474.088	446.15
474.523	444.38
474.959	447.5
475.395	443.33
475.831	440.08
476.266	441.24
476.702	440.42
477.138	436.52
477.573	434.68
478.008	433.22
478.444	434.67
478.879	438.85
479.314	440.87
479.75	439.67
480.185	441.23
480.62	444.18
481.055	446.57
481.49	449.93
481.925	455.48
482.36	463.74
482.795	475.99
483.229	489.2
483.664	499.14
484.099	501.31
484.534	509.35
484.968	514.69
485.403	516.47
485.837	515.44
486.271	513.82
486.706	514.04
487.14	507.9
487.574	500.46
488.009	495.87
488.443	492.06
488.877	496.72
489.311	498.89
489.745	505.2
490.179	509.82
490.613	520.33
491.046	525.36
491.48	530.21
491.914	532.34
492.348	537.11
492.781	541.25
493.215	543.47
493.648	546.36
494.082	551.75
494.515	552.95
494.948	560.71
495.382	564.95
495.815	570.04
496.248	576.69
496.681	588.26
497.114	598.99
497.547	608.67
497.98	620.66
498.413	627.48
498.846	637.37
499.279	646.26
499.711	652.1
500.144	656.76
500.577	668.31
501.009	679.93
501.442	690.71
501.874	694.05
502.306	698.83
502.739	708.98
503.171	724.91
503.603	730.79
504.036	742.59
504.468	751.11
504.9	765.4
505.332	774.58
505.764	781.2
506.196	790.65
506.627	807.18
507.059	822.63
507.491	834.16
507.923	836.21
508.354	853.98
508.786	867.44
509.217	888.76
509.649	906.26
510.08	928.98
510.512	949.18
510.943	968.21
511.374	983.11
511.805	1007.08
512.237	1029.83
512.668	1065.73
513.099	1095.9
513.53	1126.95
513.961	1150.09
514.391	1185.47
514.822	1220.21
515.253	1258.99
515.684	1287.11
516.114	1321.08
516.545	1345.98
516.975	1374.86
517.406	1396.58
517.836	1403.78
518.267	1413.91
518.697	1435.62
519.127	1442.53
519.558	1453.86
519.988	1461.62
520.418	1476.64
520.848	1497.97
521.278	1510.63
521.708	1529.06
522.138	1544.33
522.567	1579.53
522.997	1608.62
523.427	1627.72
523.857	1647.91
524.286	1661.06
524.716	1678.3
525.145	1698.86
525.575	1712.26
526.004	1728.67
526.433	1728.6
526.863	1729.96
527.292	1719.45
527.721	1727.04
528.15	1734.83
528.579	1737.67
529.008	1751.57
529.437	1777.37
529.866	1793.77
530.295	1813.22
530.724	1827.78
531.152	1856.04
531.581	1873.05
532.01	1893.34
532.438	1902.27
532.867	1918.8
533.295	1939.28
533.723	1945.93
534.152	1944.2
534.58	1944.52
535.008	1927.83
535.436	1930.6
535.865	1940.33
536.293	1956.27
536.721	1975.03
537.149	2002.85
537.576	2006.75
538.004	2020.64
538.432	2029.22
538.86	2028.9
539.287	2038.28
539.715	2054.23
540.143	2059.42
540.57	2057.07
540.998	2053.71
541.425	2028.93
541.852	2008.13
542.28	2006.41
542.707	1988.49
543.134	1975.65
543.561	1971.03
543.988	1962.94
544.415	1962.99
544.842	1954.75
545.269	1947
545.696	1948.74
546.123	1962.81
546.549	1951.09
546.976	1937.49
547.403	1937.89
547.829	1939.73
548.256	1940.25
548.682	1936.04
549.108	1926.93
549.535	1926.5
549.961	1927.18
550.387	1913.17
550.813	1906.12
551.24	1911.13
551.666	1910.73
552.092	1899.63
552.518	1890.92
552.943	1885.71
553.369	1892.38
553.795	1897.23
554.221	1898.24
554.646	1894.06
555.072	1902.95
555.498	1907.32
555.923	1917.11
556.349	1931.46
556.774	1940.66
557.199	1941.58
557.625	1945.53
558.05	1938.16
558.475	1948.79
558.9	1946.33
559.325	1935.51
559.75	1929.1
560.175	1921.34
560.6	1914.08
561.025	1911.84
561.449	1911.35
561.874	1915.83
562.299	1921.04
562.723	1929.1
563.148	1917.17
563.572	1920.7
563.997	1931.69
564.421	1936.31
564.846	1936.22
565.27	1938.41
565.694	1934.26
566.118	1944.5
566.542	1950.45
566.966	1941.78
567.39	1933.93
567.814	1922.08
568.238	1920.91
568.662	1924.83
569.086	1926.88
569.509	1932.92
569.933	1915.7
570.357	1907.08
570.78	1884.65
571.204	1870.83
571.627	1859.09
572.05	1857.22
572.474	1855.08
572.897	1840.19
573.32	1830.55
573.743	1818.17
574.166	1797.74
574.589	1797.69
575.012	1789.06
575.435	1786.11
575.858	1774.17
576.281	1760.86
576.704	1741.37
577.126	1727.54
577.549	1713.85
577.972	1702.5
578.394	1689.88
578.817	1681.01
579.239	1660.08
579.661	1643.66
580.084	1625.45
580.506	1610.09
580.928	1603.93
581.35	1591.76
581.772	1585.78
582.194	1572.48
582.616	1558.64
583.038	1544.27
583.46	1533.24
583.882	1527.17
584.303	1531.51
584.725	1526.67
585.147	1527.78
585.568	1538.29
585.99	1550.05
586.411	1555.48
586.833	1567.97
587.254	1568.04
587.675	1580.71
588.096	1591.71
588.518	1585.69
588.939	1566.95
589.36	1564.14
589.781	1552.45
590.202	1522.03
590.623	1512.96
591.043	1509.9
591.464	1496.91
591.885	1492.35
592.305	1485.63
592.726	1471.17
593.147	1472.77
593.567	1467.12
593.987	1459.21
594.408	1453.62
594.828	1451.88
595.248	1444.68
595.669	1425.39
596.089	1417.53
596.509	1411.13
596.929	1397.52
597.349	1398.16
597.769	1387.14
598.189	1381.25
598.608	1382.57
599.028	1384.84
599.448	1384.35
599.867	1372.49
600.287	1367.73
600.706	1363.16
601.126	1353.27
601.545	1351.87
601.965	1350.1
602.384	1344.21
602.803	1346.31
603.222	1340.38
603.641	1332.04
604.061	1327.4
604.48	1321.37
604.898	1328.64
605.317	1332.62
605.736	1332.97
606.155	1328.27
606.574	1317.59
606.992	1321.6
607.411	1314.75
607.829	1306.38
608.248	1302.91
608.666	1299.8
609.085	1297.89
609.503	1287.86
609.921	1280.71
610.339	1281.52
610.758	1280.2
611.176	1274.09
611.594	1263.29
612.012	1258.3
612.43	1259.7
612.847	1264.58
613.265	1263.86
613.683	1267.6
614.101	1267.89
614.518	1263.43
614.936	1252.74
615.353	1237.51
615.771	1233.82
616.188	1233.4
616.606	1229.24
617.023	1219.92
617.44	1205.43
617.857	1196.82
618.274	1186.81
618.691	1180.17
619.108	1170.04
619.525	1162.72
619.942	1167.85
620.359	1169.57
620.776	1163.71
621.192	1159.66
621.609	1157.85
622.026	1163.2
622.442	1167.98
622.859	1170.76
623.275	1163.28
623.691	1167.65
624.108	1177.94
624.524	1190.2
624.94	1189.44
625.356	1198.27
625.772	1209.13
626.188	1219.42
626.604	1220.03
627.02	1216.02
627.436	1214.44
627.852	1220.85
628.268	1231.69
628.683	1222.61
629.099	1214.89
629.514	1209.54
629.93	1213.23
630.345	1217.47
630.761	1213.11
631.176	1215.57
631.591	1209.29
632.007	1202.27
632.422	1199.17
632.837	1188
633.252	1185.66
633.667	1174.76
634.082	1165.82
634.497	1152.13
634.911	1132.97
635.326	1127.8
635.741	1110.02
636.155	1100.78
636.57	1100.03
636.984	1097.95
637.399	1097.6
637.813	1094.53
638.228	1091.68
638.642	1092.98
639.056	1081.61
639.47	1079.39
639.884	1070.09
640.298	1062.12
640.712	1058.52
641.126	1044.61
641.54	1032.92
641.954	1024.79
642.368	1011.7
642.781	1001.7
643.195	984.69
643.609	982.93
644.022	974.74
644.436	968.34
644.849	957.07
645.262	943.93
645.676	943.02
646.089	937.13
646.502	922.27
646.915	915.28
647.328	898.23
647.741	894.49
648.154	881.61
648.567	878.29
648.98	865.45
649.393	863.24
649.805	856.56
650.218	848.85
650.631	835.25
651.043	828
651.456	821.57
651.868	820.75
652.28	833.04
652.693	843.01
653.105	846.63
653.517	851.99
653.929	850.4
654.341	855.43
654.753	844.23
655.165	846.68
655.577	843.34
655.989	837.8
656.401	829.01
656.813	796.45
657.224	776.96
657.636	750.81
658.047	733.73
658.459	716.29
658.87	706.2
659.282	694.79
659.693	676.3
660.104	662.99
660.515	649.95
660.926	646.58
661.338	642.25
661.749	635.41
662.159	627.26
662.57	622.85
662.981	617.59
663.392	610.05
663.803	610.41
664.213	607.41
664.624	601.27
665.035	600.07
665.445	588.41
665.855	581.94
666.266	574.16
666.676	571.42
667.086	562.75
667.497	560.47
667.907	555.42
668.317	547.15
668.727	544.37
669.137	544.26
669.547	543.39
669.956	544.48
670.366	545.23
670.776	546.36
671.186	547.41
671.595	550.65
672.005	552.02
672.414	551.59
672.824	551.08
673.233	553.51
673.642	555.45
674.052	558.22
674.461	561.24
674.87	565.42
675.279	564.1
675.688	565.74
676.097	566.98
676.506	566.2
676.915	577.29
677.323	579.86
677.732	580.09
678.141	580.73
678.549	574.13
678.958	573.84
679.366	574.35
679.775	579.09
680.183	589.09
680.592	595.4
681	602
681.408	598.32
681.816	606.78
682.224	614.58
682.632	625.77
683.04	651.46
683.448	673.51
683.856	700.21
684.264	732.46
684.671	760.01
685.079	796.57
685.487	835.79
685.894	890.9
686.302	937.66
686.709	978.33
687.116	1024.16
687.524	1064.15
687.931	1101.6
688.338	1135.38
688.745	1165.21
689.152	1200
689.559	1243.22
689.966	1287.63
690.373	1314.48
690.78	1356.09
691.187	1420.71
691.593	1471.22
692	1516.82
692.407	1579.73
692.813	1655.9
693.22	1719.32
693.626	1785.55
694.032	1838.95
694.439	1918.05
694.845	1980.49
695.251	2059.86
695.657	2130.34
696.063	2234.24
696.469	2312.65
696.875	2387.54
697.281	2433.99
697.687	2488.1
698.093	2534.63
698.498	2618.05
698.904	2682.91
699.31	2778.96
699.715	2849.5
700.12	2947.77
700.526	2971.58
700.931	3048.87
701.337	3108.98
701.742	3150.07
702.147	3240.9
702.552	3278.34
702.957	3344.07
703.362	3371.74
703.767	3406.43
704.172	3454.03
704.577	3412.14
704.981	3466.85
705.386	3488.3
705.791	3483.75
706.195	3565.8
706.6	3580.35
707.004	3668.12
707.408	3643.24
707.813	3675.92
708.217	3666.93
708.621	3673.82
709.025	3778.84
709.43	3784.57
709.834	3851.77
710.237	3928.83
710.641	3917.2
711.045	3944.86
711.449	3942.54
711.853	3975.31
712.256	4022.21
712.66	4065.51
713.064	4146.97
713.467	4194.21
713.87	4317.2
714.274	4371
714.677	4490.8
715.08	4662.85
715.484	4843.93
715.887	5060.62
716.29	5275.83
716.693	5498.67
717.096	5757.73
717.499	5900.58
717.901	5931.73
718.304	5962.26
718.707	5990.02
719.109	5884.82
719.512	5857.06
719.915	5713.62
720.317	5656.99
720.719	5702.8
721.122	5677.26
721.524	5624.63
721.926	5583.07
722.328	5691.02
722.731	5684.57
723.133	5717.16
723.535	5923.49
723.937	5947.05
724.338	6004.71
724.74	6047.96
725.142	5960.04
725.544	5956.58
725.945	5983.25
726.347	5979.6
726.748	5974.51
727.15	5988.45
727.551	5947.64
727.952	5918.21
728.354	5887.17
728.755	5890.71
729.156	5848.69
729.557	5857.69
729.958	5727.75
730.359	5673.01
730.76	5654.15
731.161	5589.62
731.562	5562.86
731.962	5566.71
732.363	5500
732.763	5433.48
733.164	5472.32
733.564	5400.31
733.965	5300.6
734.365	5263.84
734.766	5296.15
735.166	5256.67
735.566	5197.86
735.966	5169.79
736.366	5163.95
736.766	5099.47
737.166	5131.8
737.566	5088.62
737.966	5060.39
738.365	5101.81
738.765	5097.88
739.165	5016.53
739.564	4986.53
739.964	5035.99
740.363	4987.38
740.763	4985.89
741.162	4971.33
741.561	4937.64
741.96	4887.18
742.36	4908.36
742.759	4914.38
743.158	4955.33
743.557	4969.55
743.955	5013.02
744.354	4964.4
744.753	5027.24
745.152	4982.34
745.55	5042.51
745.949	5035.89
746.348	5036.36
746.746	5054.58
747.144	5010.08
747.543	4985.37
747.941	5040.39
748.339	4963.96
748.737	4955.02
749.136	4943.62
749.534	5012.71
749.932	4980.89
750.33	5003.07
750.727	5064.31
751.125	5038.38
751.523	5022.56
751.921	5067.1
752.318	5030.25
752.716	5093.1
753.113	5105.24
753.511	5132.27
753.908	5131.71
754.305	5111.34
754.703	5178.18
755.1	5241.24
755.497	5304.67
755.894	5506.75
756.291	5698.64
756.688	6046.66
757.085	6511.57
757.482	7169.4
757.878	7883.35
758.275	8532.15
758.672	9429.58
759.068	10156.78
759.465	11193.1
759.861	12531.66
760.258	14085.16
760.654	14883.7
761.05	14766.2
761.447	14088.28
761.843	13115.49
762.239	12106.03
762.635	11651.76
763.031	11216.45
763.427	10587.35
763.822	9927.94
764.218	9274.11
764.614	8425.56
765.01	7859.41
765.405	7492.08
765.801	7216.36
766.196	6864.8
766.592	6667.95
766.987	6332.91
767.382	6106.2
767.778	6012.28
768.173	5871.38
768.568	5793.91
768.963	5660.47
769.358	5678.67
769.753	5629
770.148	5543.18
770.542	5538.33
770.937	5506.55
771.332	5604.38
771.726	5626.83
772.121	5558.24
772.515	5617.61
772.91	5601.87
773.304	5679.54
773.699	5610.28
774.093	5665.37
774.487	5723.38
774.881	5770.37
775.275	5766.51
775.669	5720.11
776.063	5765.21
776.457	5805.69
776.851	5729.35
777.245	5723.43
777.638	5759.35
778.032	5881.29
778.425	5842.43
778.819	5883.38
779.212	5838.67
779.606	5795.78
779.999	5818.01
780.392	5799.53
780.786	5886.68
781.179	5910
781.572	5956.13
781.965	5964.28
782.358	5902.89
782.751	5966.33
783.143	5915.16
783.536	5990.48
783.929	6035.69
784.322	6157.69
784.714	6189.82
785.107	6180.23
785.499	6247.6
785.891	6221.07
786.284	6202.37
786.676	6349.83
787.068	6325.76
787.46	6378.26
787.852	6399.03
788.245	6487.54
788.636	6514.13
789.028	6583.77
789.42	6629.03
789.812	6641.31
790.204	6741.13
790.595	6845.56
790.987	6641.81
791.378	6667.13
791.77	6805.83
792.161	6946.53
792.553	7003.07
792.944	6886.71
793.335	6813.88
793.726	6887.2
794.117	6982.13
794.508	7129.34
794.899	7096.68
795.29	7242.28
795.681	7303.7
796.072	7156.88
796.463	6962.15
796.853	6971.56
797.244	7137.34
797.634	7171.6
798.025	7168.32
798.415	7180.87
798.806	7273.76
799.196	7365.13
799.586	7417.86
799.976	7372.47
800.366	7611.93
800.756	7867.58
801.146	7829.96
801.536	7859.71
801.926	7938.87
802.316	7970.37
802.706	8045.5
803.095	7916.39
803.485	8025.18
803.874	8070.28
804.264	8346.41
804.653	8314.71
805.043	8465.89
805.432	8579.05
805.821	8585.75
806.21	8608.63
806.599	8734.95
806.988	8781.6
807.377	8891.59
807.766	9021.15
808.155	9315.98
808.544	9037.7
808.933	9055.93
809.321	9034.17
809.71	9344.47
810.098	9505.78
810.487	9991.24
810.875	10491.12
811.264	10512.16
811.652	10814.47
812.04	10967
812.428	11141.02
812.816	11945.41
813.204	12379.35
813.592	12961.48
813.98	13312.87
814.368	13209.16
814.756	13708.08
815.144	13626.7
815.531	14110.97
815.919	14039.58
816.306	14358.05
816.694	14033.26
817.081	14088.8
817.469	14455.36
817.856	14446.88
818.243	14733.14
818.63	15146.63
819.017	14707.65
819.404	14769.86
819.791	15168.96
820.178	15808.27
820.565	16077.72
820.952	17049.85
821.339	16529.45
821.725	16719.1
822.112	15938.01
822.498	15889.7
822.885	16023.53
823.271	15920.44
823.657	16352.4
824.044	16365.79
824.43	16442.4
824.816	16393.24
825.202	15935.73
825.588	17000.95
825.974	17018.03
826.36	17565.16
826.746	17605.9
827.132	17980.85
827.517	17958.38
827.903	17141.24
828.289	17178.17
828.674	16362.72
829.06	16269.27
829.445	16689.16
829.83	17061.73
830.216	17565.01
830.601	17940.16
830.986	17507.25
831.371	17370.27
831.756	17952.64
832.141	17509.92
832.526	17510.1
832.911	17814.4
833.295	17692.54
833.68	18190.96
834.065	17540.06
834.449	16581.88
834.834	16516.45
835.218	16521.81
835.603	16886.42
835.987	16674.97
836.371	17548.62
836.755	17437.23
837.139	17858.46
837.524	18110.7
837.908	17921.89
838.291	17987.84
838.675	18064.44
839.059	18271.49
839.443	18259.22
839.827	18014.3
840.21	18513.08
840.594	18356.09
840.977	18581.73
841.361	18559.35
841.744	18958.36
842.127	18792.58
842.511	19055.39
842.894	19691.2
843.277	20099.14
843.66	20667.94
844.043	20761.14
844.426	19910.79
844.809	19584.4
845.191	19617.32
845.574	19135.51
845.957	18751.13
846.339	18644.48
846.722	18091.39
847.104	18157.57
847.487	17981.03
847.869	17996.66
848.252	18291.07
848.634	18643.95
849.016	18921.69
849.398	19044.15
849.78	19940.6
850.162	19950.62
850.544	20384.52
850.926	21049.8
851.307	20948.36
851.689	21244.12
852.071	21723.01
852.452	22049.36
852.834	22024.9
853.215	22445.75
853.597	22613.19
853.978	22910.82
854.359	23384.42
854.741	22341.04
855.122	22226.57
855.503	21936.03
855.884	22070.79
856.265	21996.99
856.646	22126.64
857.026	21714.1
857.407	21640.13
857.788	21806.77
858.169	22113.67
858.549	21223.95
858.93	21877.01
859.31	21935.46
859.69	22152.12
860.071	21728.94
860.451	21496.81
860.831	20709.33
861.211	21921.3
861.591	22498.41
861.971	22470.59
862.351	22675.22
862.731	23076.9
863.111	23348.21
863.491	23697.26
863.87	24595.04
864.25	24944.81
864.629	24530.13
865.009	25072.52
865.388	25974.07
865.768	27840.83
866.147	27718.25
866.526	26176.68
866.905	26490.23
867.284	27973.87
867.663	26553.91
868.042	25462.67
868.421	25388.39
868.8	25816.55
869.179	26077.2
869.558	24558.96
869.936	22636.08
870.315	23052.07
870.693	23614.49
871.072	25469.91
871.45	24269.79
871.828	24581.73
872.207	25844.7
872.585	25458.18
872.963	26147.3
873.341	25250.69
873.719	24947.89
874.097	24637.2
874.475	25101.31
874.853	25682.32
875.23	24603.6
875.608	25626.04
875.986	27731.91
876.363	26527.73
876.741	27345.11
877.118	26669.55
877.495	27961.91
877.873	28420.53
878.25	29924.82
878.627	28703.97
879.004	29104.86
879.381	28979.35
879.758	28220.78
880.135	26263.84
880.512	27770.89
880.889	27024.91
881.265	26745.92
881.642	26525.9
882.019	26987.23
882.395	26430.55
882.772	27481.91
883.148	26288.31
883.524	26188.45
883.901	26045.84
884.277	26434.24
884.653	26268.48
885.029	27028.23
885.405	29924.21
885.781	29693.45
886.157	28460.56
886.532	28816.67
886.908	28800.4
887.284	32030.33
887.659	33075.58
888.035	34092.6
888.411	34972.44
888.786	35424.74
889.161	36658.33
889.537	35995
889.912	37166.98
890.287	37144.24
890.662	38115.45
891.037	37435.25
891.412	34899.76
891.787	34542.73
892.162	33350.03
892.536	34135.1
892.911	32866.28
893.286	32166.58
893.66	30856.77
894.035	31638.76
894.409	34453.27
894.784	33061.89
895.158	33597.17
895.532	35591.32
895.906	36560.59
896.281	37421
896.655	36823.24
897.029	42069.47
897.402	43814.43
897.776	48772.97
898.15	48595.21
898.524	48059.11
898.898	48687.28
899.271	54528.04
899.645	47241.15
900.018	45378.44
900.392	47053.71
900.765	47448.4
901.138	43910.06
901.511	43251.84
901.884	39716.83
902.258	36636.87
902.631	37845.11
903.003	43549.6
903.376	39300.53
903.749	44056.24
904.122	47177.68
904.495	51938.99
904.867	52583.41
905.24	45658.88
905.612	42514.74
905.985	43459.12
906.357	45436.15
906.729	43370.8
907.102	37049.43
907.474	35622.73
907.846	35847.69
908.218	35366.09
908.59	31252.96
908.962	30208.14
909.334	32520.51
909.705	34140.69
910.077	33147.55
910.449	34510.66
910.82	35474.16
911.192	39025.19
911.563	40523.59
911.935	43349.53
912.306	43401.4
912.677	44811.28
913.048	44360.55
913.419	48117.55
913.79	48384.37
914.161	51905.21
914.532	49606.17
914.903	45591.55
915.274	43313.67
915.645	42693.99
916.015	37575.87
916.386	35810.01
916.756	38088.37
917.127	39302.48
917.497	35140.72
917.868	38239.92
918.238	36329.93
918.608	37378.93
918.978	38149.01
919.348	40405.31
919.718	41756.49
920.088	40221.89
920.458	41784.42
920.828	43982.42
921.198	41694.66
921.567	44505.56
921.937	34480.22
922.306	34809.28
922.676	37521.28
923.045	31310.02
923.415	29723.08
923.784	27051.29
924.153	27814.37
924.522	27791.51
924.891	26134.98
925.26	28006.17
925.629	27353.71
925.998	31447.83
926.367	30689.96
926.736	29222.43
927.104	34823.64
927.473	37451.45
927.842	45264.31
928.21	44868.1
928.578	47190.65
928.947	44608.31
929.315	44853.16
929.683	52593.73
930.051	53003.28
930.42	61574.65
930.788	52671.74
931.156	52232.14
931.523	48954.85
931.891	45217.18
932.259	43410.25
932.627	50275.56
932.994	71187.16
933.362	58843.79
933.729	51077.58
934.097	48895.4
934.464	41353.47
934.831	47690.36
935.199	47037.82
935.566	45618.28
935.933	46192.1
936.3	55935.06
936.667	43572.94
937.034	39271.32
937.401	38837.73
937.767	33550.4
938.134	29871.93
938.501	42161.69
938.867	44937.59
939.234	75995.92
939.6	64822.46
939.967	71515.74
940.333	47878.29
940.699	40752.27
941.065	32736.81
941.431	42915.88
941.798	41332.66
942.163	54255.59
942.529	33921.88
942.895	31216.26
943.261	20172.34
943.627	26485.14
943.992	23195.59
944.358	23246.42
944.723	23331.78
945.089	22741.93
945.454	21009.05
945.82	22481.62
946.185	21611.11
946.55	25013.58
946.915	22462.19
947.28	26360.46
947.645	23213.63
948.01	21408.27
948.375	22293.29
948.74	26738.02
949.104	31200.95
949.469	45118.14
949.834	79548.24
950.198	75463.19
950.562	45238.85
950.927	37629.02
951.291	45277.73
951.655	38563.38
952.02	36244.59
952.384	27432.64
952.748	23872.8
953.112	23261.72
953.476	20224.07
953.839	18707.74
954.203	18504.22
954.567	23148.7
954.931	36496.51
955.294	31227.39
955.658	31385.73
956.021	53389.38
956.385	90520.7
956.748	133631.71
957.111	207527.6
957.474	233003.49
957.837	262483.62
958.2	198733.17
958.563	71492.51
958.926	48314.8
959.289	73343.84
959.652	81993.39
960.015	61518.47
960.377	88278.62
960.74	100712.74
961.102	173841.5
961.465	186758.17
961.827	99999.3
962.189	191712.21
962.552	132829.38
962.914	106573.2
963.276	69157.26
963.638	57160.12
964	56600.44
964.362	38312.32
964.724	37056.04
965.085	26414.01
965.447	21653.52
965.809	24731.22
966.17	24789.97
966.532	26824.27
966.893	24592.5
967.255	22381.99
967.616	26418.85
967.977	21158.52
968.338	23073.11
968.699	18940.58
969.061	18952.53
969.421	19087.08
969.782	21392.06
970.143	18052.47
970.504	18699.81
970.865	21244.04
971.225	21709.46
971.586	21252.98
971.946	30285.48
972.307	26290.71
972.667	34379.84
973.027	35394.54
973.388	42910.32
973.748	29194.3
974.108	31791.78
974.468	43008.95
974.828	33187.37
975.188	25555.02
975.548	23459.3
975.907	19690.97
976.267	22088.96
976.627	18566.18
976.986	19241.51
977.346	18337.13
977.705	17631.6
978.064	16064.57
978.424	13386.69
978.783	13844.97
979.142	15800.1
979.501	15132.45
979.86	16001.86
980.219	15412.14
980.578	19876.44
980.937	22245.78
981.296	19817.83
981.654	20411.31
982.013	31804.17
982.371	41181.75
982.73	38469.83
983.088	43535.21
983.447	46410.46
983.805	66304.31
984.163	138821.46
984.521	154124.73
984.879	226113.72
985.237	-367812.56
985.595	353933.86
985.953	87858.95
986.311	50794.2
986.669	29508.92
987.026	25493.22
987.384	34357.63
987.741	35548.86
988.099	25347.89
988.456	20204.41
988.814	18915.11
989.171	16428.49
989.528	16214.98
989.885	17134.2
990.242	13565.63
990.599	16884.42
990.956	13793.1
991.313	9643.25
991.67	7920.86
992.027	8386.35
992.383	7451.77
992.74	6537.01
993.096	6860.27
993.453	7122.25
993.809	7382.43
994.165	9836.97
994.522	9005.79
994.878	9933.8
995.234	12434.31
995.59	12261.8
995.946	11633.43
996.302	13288.17
996.658	15363.32
997.013	16918.1
997.369	20058.52
997.725	25672.62
998.08	16647.6
998.436	25722.46
998.791	35479.47
999.147	35458.68
999.502	38711.71
999.857	28130.24
1000.212	45763.81
1000.567	65040.81
1000.922	37460.7
1001.277	23756.36
1001.632	17632.75
1001.987	22737.78
1002.342	16303.92
1002.696	13065.2
1003.051	10424.69
1003.406	12608.37
1003.76	12582.47
1004.114	12410.12
1004.469	10429.48
1004.823	8666.36
1005.177	9352.22
1005.531	7398.33
1005.885	6546.15
1006.239	7371.41
1006.593	9212.93
1006.947	12319.67
1007.301	9230.58
1007.655	10035.59
1008.008	7378.84
1008.362	8295.6
1008.715	11845.74
1009.069	10777.93
1009.422	16217.98
1009.776	32504.88
1010.129	21659.79
1010.482	18119.92
1010.835	15301.69
1011.188	31873.56
1011.541	30029.12
1011.894	-183340.79
1012.247	540174.32
1012.6	36730.34
1012.952	23153.16
1013.305	11959.3
1013.657	8645.36
1014.01	8151.79
1014.362	6706.92
1014.715	5976.99
1015.067	5205.98
1015.419	5096.65
1015.771	4502.58
1016.123	4001.81
1016.475	4103.91
1016.827	4368.17
1017.179	4690.58
1017.531	4730.23
1017.883	4839.75
1018.234	4672.25
1018.586	5898.6
1018.938	6232.27
1019.289	8588.2
1019.64	9822.7
1019.992	9150.4
1020.343	8402.79
1020.694	6653.7
1021.045	5865.33
1021.396	6682.37
1021.747	7180.39
1022.098	8614.05
1022.449	6245.06
1022.8	5811.28
1023.151	4046.1
1023.501	3598.37
1023.852	3929.92
1024.202	4067.8
1024.553	4467.45
1024.903	4353.41
1025.253	3710.88
1025.604	3323.96
1025.954	4133.12
1026.304	5034.48
1026.654	5891.34
1027.004	8607.49
1027.354	13958.32
1027.703	13114.25
1028.053	17219.65
1028.403	24970.28
1028.753	36253.51
1029.102	49641.77
1029.452	257119.13
1029.801	11149.79
1030.15	7213.57
1030.499	6088.97
897.758	2205.56
901.051	2141.9
904.343	2174.08
907.636	2180.73
910.928	2243.57
914.22	2163.7
917.511	2168.62
920.803	2219.24
924.094	2217.02
927.384	2218.84
930.675	2182.34
933.965	2145.51
937.255	2172.41
940.544	2141.58
943.834	2142.3
947.123	2081.06
950.411	2170.35
953.7	2150.95
956.988	2135.17
960.276	2071.63
963.563	2122.52
966.851	2133.25
970.138	2174
973.424	2177.09
976.711	2129.9
979.997	2176.64
983.283	2221.31
986.568	2150.73
989.853	2141.43
993.138	2168.23
996.423	2254.68
999.708	2211.65
1002.992	2240.18
1006.275	2157.84
1009.559	2163.71
1012.842	2264.14
1016.125	2217.29
1019.408	2198.68
1022.69	2253.06
1025.972	2289.27
1029.254	2263.26
1032.536	2223.71
1035.817	2235.01
1039.098	2205.24
1042.379	2257.03
1045.659	2281.83
1048.939	2230.43
1052.219	2238.65
1055.498	2232.27
1058.778	2232.07
1062.057	2205.93
1065.335	2230.6
1068.614	2240.91
1071.892	2234.19
1075.17	2292.17
1078.447	2293.88
1081.724	2290.79
1085.001	2316.18
1088.278	2296.54
1091.554	2302.08
1094.83	2296.15
1098.106	2332.63
1101.382	2363.25
1104.657	2362.73
1107.932	2365.87
1111.206	2341.27
1114.481	2294.78
1117.755	2295.19
1121.029	2288.29
1124.302	2346.43
1127.575	2312.32
1130.848	2309.74
1134.121	2278.36
1137.393	2242.16
1140.665	2301.4
1143.937	2278.5
1147.208	2225.29
1150.48	2283.26
1153.75	2271.97
1157.021	2273.92
1160.291	2249.41
1163.561	2307.05
1166.831	2273.68
1170.101	2302.02
1173.37	2260.16
1176.639	2218.52
1179.907	2262.53
1183.176	2286.94
1186.444	2289.49
1189.711	2314.15
1192.979	2336.55
1196.246	2294.8
1199.513	2302.56
1202.78	2309.52
1206.046	2319.69
1209.312	2348.58
1212.578	2365.28
1215.843	2333.52
1219.108	2300.33
1222.373	2322.25
1225.638	2294.89
1228.902	2287.95
1232.166	2242.81
1235.43	2231.2
1238.693	2256.86
1241.956	2248.27
1245.219	2295.72
1248.482	2280.46
1251.744	2277.44
1255.006	2402.11
1258.268	2347.72
1261.529	2304.33
1264.79	2303.59
1268.051	2403.9
1271.312	2414.85
1274.572	2383.63
1277.832	2373.13
1281.092	2353.47
1284.351	2343.23
1287.61	2326.61
1290.869	2261.01
1294.128	2259.11
1297.386	2310.33
1300.644	2303.45
1303.902	2312.4
1307.159	2180.74
1310.416	2233.39
1313.673	2260.51
1316.93	2257.5
1320.186	2288.96
1323.442	2323.39
1326.697	2322.88
1329.953	2298.39
1333.208	2331.15
1336.463	2305.22
1339.717	2264.53
1342.972	2370.64
1346.226	2342.02
1349.479	2290.08
1352.733	2271
1355.986	2276.3
1359.238	2257.32
1362.491	2264.32
1365.743	2262.42
1368.995	2256.78
1372.247	2269.26
1375.498	2289.52
1378.749	2330.24
1382	2279.13
1385.251	2317.55
1388.501	2269.08
1391.751	2270.34
1395	2236.65
1398.25	2261.46
1401.499	2283.54
1404.748	2230.72
1407.996	2209.14
1411.244	2197.83
1414.492	2184.52
1417.74	2169.58
1420.987	2173.03
1424.234	2234.82
1427.481	2196.76
1430.728	2254.62
1433.974	2229.23
1437.22	2226.9
1440.465	2224.29
1443.711	2223.47
1446.956	2247.85
1450.201	2220.63
1453.445	2261.94
1456.689	2253.25
1459.933	2262.59
1463.177	2305.28
1466.42	2276.5
1469.663	2259.46
1472.906	2275.85
1476.148	2326.52
1479.391	2299.07
1482.633	2274.88
1485.874	2298.5
1489.115	2307.52
1492.356	2289.76
1495.597	2270.58
1498.838	2262.51
1502.078	2247.71
1505.318	2219.86
1508.557	2256.41
1511.797	2250.67
1515.036	2296.93
1518.274	2270.64
1521.513	2222.68
1524.751	2235.35
1527.989	2259.14
1531.227	2276.95
1534.464	2292.27
1537.701	2287.33
1540.938	2300.34
1544.174	2247.3
1547.41	2239.52
1550.646	2277.15
1553.882	2327.31
1557.117	2385.74
1560.352	2391.93
1563.587	2353.79
1566.821	2320.53
1570.055	2337.07
1573.289	2316.92
1576.523	2376.17
1579.756	2391.16
1582.989	2410.81
1586.222	2372.54
1589.454	2398.79
1592.686	2384.35
1595.918	2412.96
1599.15	2412.8
1602.381	2456.92
1605.612	2436.13
1608.843	2531.52
1612.073	2451.74
1615.303	2441.35
1618.533	2440.22
1621.762	2437.64
1624.992	2414.04
1628.221	2414.24
1631.449	2403.9
1634.678	2432.14
1637.906	2401.14
1641.134	2429.07
1644.361	2393.75
1647.588	2383.17
1650.815	2403.01
1654.042	2364.66
1657.269	2394.49
1660.495	2373.36
1663.72	2360.81
1666.946	2327.26
1670.171	2297.3
1673.396	2271.34
1676.621	2254.13
1679.845	2250.28
1683.069	2260.36
1686.293	2289.27
1689.517	2282.99
1692.74	2230.56
1695.963	2252.63
1699.185	2292.29
1702.408	2265.67
1705.63	2294.83
1708.852	2313.7
1712.073	2282.04
1715.294	2293.33
1718.515	2335.64
1721.736	2294.92
1724.956	2272.27
1728.176	2295.88
1731.396	2318.14
1734.616	2304.15
1737.835	2340.34
1741.054	2311.05
1744.272	2302.85
1747.491	2344.63
1750.709	2370.28
1753.927	2316.85
1757.144	2343.66
1760.361	2401.05
1763.578	2377.97
1766.795	2327.32
1770.011	2314.75
1773.227	2341.55
1776.443	2384.92
1779.658	2427.34
1782.874	2364.76
1786.089	2356.06
1789.303	2358.44
1792.518	2356.55
1795.732	2342.87
1798.945	2356.64
1802.159	2397.2
1805.372	2339.08
1808.585	2332.06
1811.797	2332.54
1815.01	2354.24
1818.222	2376.93
1821.434	2336.9
1824.645	2380.39
1827.856	2387.38
1831.067	2418.84
1834.278	2354.36
1837.488	2337.48
1840.698	2461
1843.908	2400.45
1847.117	2368.97
1850.326	2293.05
1853.535	2355.87
1856.744	2386.52
1859.952	2309.82
1863.16	2310.35
1866.368	2324.87
1869.575	2439.6
1872.782	2320.24
1875.989	2252.89
1879.196	2304.04
1882.402	2294.23
1885.608	2324.7
1888.814	2263.37
1892.019	2172.21
1895.224	2220.24
1898.429	2185.26
1901.634	2167.78
1904.838	2140.21
1908.042	2198.84
1911.246	2209.2
1914.449	2169.18
1917.652	2152.67
1920.855	2133.95
1924.058	2159.52
1927.26	2203.03
1930.462	2224.71
1933.664	2263.68
1936.865	2205.69
1940.066	2223.56
1943.267	2165.61
1946.467	2178.59
1949.668	2197.56
1952.868	2265.48
1956.067	2255.58
1959.267	2194.61
1962.466	2219.36
1965.665	2202.31
1968.863	2196.58
1972.061	2200.95
1975.259	2193.29
1978.457	2270.12
1981.654	2229.2
1984.852	2232.74
1988.048	2184.73
1991.245	2176.13
1994.441	2264.74
1997.637	2225.81
2000.833	2208.01
2004.028	2243.8
2007.223	2304.84
2010.418	2293.08
2013.613	2244.2
2016.807	2237.68
2020.001	2232.87
2023.194	2255.45
2026.388	2238.26
2029.581	2185.74
2032.774	2246.01
2035.966	2257.57
2039.158	2202.8
2042.35	2222.25
2045.542	2150.04
2048.733	2232.4
2051.924	2224.59
2055.115	2244.5
2058.306	2209.58
2061.496	2264.74
2064.686	2310.67
2067.875	2218.08
2071.065	2222.73
2074.254	2243.03
2077.442	2195.46
2080.631	2278.36
2083.819	2209.17
2087.007	2202.15
2090.195	2182.75
2093.382	2199.15
2096.569	2183.11
2099.756	2145.4
2102.942	2192.87
2106.128	2205.68
2109.314	2190.96
2112.5	2179.24
2115.685	2146.34
2118.87	2153.31
2122.055	2214.32
2125.239	2192.97
2128.424	2180.64
2131.608	2243.54
2134.791	2227.86
2137.974	2265.13
2141.157	2253.05
2144.34	2225.19
2147.523	2215.48
2150.705	2241.15
2153.887	2209.57
2157.068	2181.49
2160.25	2165.31
2163.431	2187.8
2166.611	2156.52
2169.792	2177.98
2172.972	2088.1
2176.152	2139.87
2179.331	2168.87
2182.511	2172.08
2185.69	2193.07
2188.868	2199
2192.047	2231.58
2195.225	2245.86
2198.403	2196.04
2201.58	2179.21
2204.758	2167.33
2207.935	2242.27
2211.111	2156.21
2214.288	2144.73
2217.464	2177.79
2220.64	2135.08
2223.815	2184.02
2226.991	2118.69
2230.166	2133.97
2233.34	2176.76
2236.515	2189.81
2239.689	2253.6
2242.863	2203.17
2246.036	2258.62
2249.209	2241.23
2252.382	2259.28
2255.555	2268.51
2258.727	2216.21
2261.9	2247.24
2265.071	2238.43
2268.243	2233.17
2271.414	2184.9
2274.585	2166.77
2277.756	2227.33
2280.926	2182.01
2284.096	2210.43
2287.266	2142.31
2290.436	2188.46
2293.605	2209.33
2296.774	2244.79
2299.942	2248.83
2303.111	2268.18
2306.279	2318.41
2309.447	2300.53
2312.614	2272.51
2315.781	2299.67
2318.948	2276.59
2322.115	2312.48
2325.281	2212.49
2328.447	2220.38
2331.613	2189.94
2334.779	2182.98
2337.944	2174.78
2341.109	2174.58
2344.274	2167.2
2347.438	2135.29
2350.602	2154.37
2353.766	2164.82
2356.929	2153.07
2360.092	2189.42
2363.255	2159.19
2366.418	2124.54
2369.58	2191.82
2372.742	2065.67
2375.904	2061.97
2379.066	2044.77
2382.227	2071.25
2385.388	2033.65
2388.548	1984.19
2391.709	2026.06
2394.869	2016.85
2398.029	2070.33
2401.188	2068.35
2404.347	2029.75
2407.506	2109.97
2410.665	2147.88
2413.823	2134.81
2416.981	2112.02
2420.139	2129.4
2423.296	2169.23
2426.453	2142.59
2429.61	2163.95
2432.767	2135.7
2435.923	2173.67
2439.079	2123.7
2442.235	2158.95
2445.391	2099
2448.546	2140.79
2451.701	2174.91
2454.855	2168.45
2458.009	2200.16
2461.163	2188.9
2464.317	2159.02
2467.471	2185.82
2470.624	2216.03
2473.777	2202.06
2476.929	2217.51
2480.082	2242.41
2483.234	2214.89
2486.385	2157.18
2489.537	2152.32
2492.688	2139.09
2495.839	2155.37
2498.989	2171.12
2502.14	2156.37
2505.29	2147.08
2508.439	2173.5
2511.589	2113.9
2514.738	2112.74
2517.887	2135.59
2521.035	2210.96
2524.183	2171.68
2527.331	2159.23
2530.479	2153.48
2533.627	2153.69
