Data from C_1_DIV_WI_4N_Splice17_11-48-06-387.txt Node
Date: Sat Mar 14 11:48:06 EDT 2020
User: sa697716
Spectrometer: FLMS03696
Trigger mode: 0
Integration Time (sec): 3.180400E-1
Scans to average: 20
Electric dark correction enabled: true
Nonlinearity correction enabled: true
Boxcar width: 5
XAxis mode: Wavelengths
Number of Pixels in Spectrum: 2048
>>>>>Begin Spectral Data<<<<<
187.83	-219351.55
188.298	1656.46
188.766	901.6
189.233	780.14
189.701	1077.8
190.169	1602.64
190.636	572.9
191.104	495.67
191.571	116.18
192.039	0.76
192.506	-23.65
192.974	474.49
193.441	-661.95
193.908	-200.22
194.375	-60.07
194.842	-13.97
195.31	85.99
195.777	109.35
196.244	293.94
196.711	429.85
197.177	588.61
197.644	851.04
198.111	1493.82
198.578	2099.51
199.045	1697.29
199.511	2783.43
199.978	3245.39
200.445	2750.64
200.911	3062.62
201.378	3462.82
201.844	3115.72
202.31	5329.71
202.777	5585.83
203.243	3101.99
203.709	2955.07
204.176	3514.38
204.642	2906.99
205.108	2712.19
205.574	2226.4
206.04	2035.06
206.506	1898.65
206.972	1817.65
207.438	1750.9
207.903	1997.09
208.369	1766.42
208.835	1764.55
209.301	1857.14
209.766	1911.8
210.232	1920.07
210.697	2409.6
211.163	3018.68
211.628	4610.39
212.094	3892.77
212.559	4801.91
213.024	3012.01
213.49	3685.96
213.955	3650.31
214.42	3605.26
214.885	3383.51
215.35	3253.87
215.815	3117.71
216.28	3333.65
216.745	2769.89
217.21	3065.87
217.675	2920.06
218.14	3375.61
218.604	3909.82
219.069	4601.86
219.534	4959.36
219.998	5944.12
220.463	7395.24
220.927	9379.92
221.392	9007.28
221.856	9241.3
222.32	11831.74
222.785	14712.46
223.249	18749.5
223.713	21052.91
224.177	21141.72
224.642	27277
225.106	33730.53
225.57	37021.75
226.034	27521.95
226.497	41966.9
226.961	37930.21
227.425	44167.92
227.889	49208.18
228.353	49240.73
228.816	102012.04
229.28	97798.56
229.744	82688.22
230.207	50210.5
230.671	49374.07
231.134	81941.61
231.597	94492.87
232.061	94660.08
232.524	92513.83
232.987	63739.6
233.45	57307
233.914	51390.68
234.377	52709.57
234.84	48195.61
235.303	56869.16
235.766	63488.72
236.229	65555.41
236.691	41310.45
237.154	46443.84
237.617	34890.41
238.08	35678.25
238.542	41771.02
239.005	29820.21
239.468	29554.3
239.93	27832.56
240.393	25281.41
240.855	22161.85
241.317	22698.4
241.78	27599.09
242.242	28454
242.704	30652.57
243.166	26653.42
243.629	24132.64
244.091	27773.77
244.553	30424.03
245.015	32654.95
245.477	42201.63
245.939	61863.79
246.4	65590.47
246.862	63711.37
247.324	60037.29
247.786	67218.75
248.247	88185.88
248.709	91205.68
249.17	68225.97
249.632	64160.1
250.093	74361.13
250.555	64174.87
251.016	39093.04
251.477	37039.67
251.939	39945.23
252.4	41906.85
252.861	49831.54
253.322	46271.62
253.783	55011.64
254.244	71272.36
254.705	56224.37
255.166	50025.27
255.627	49218.38
256.088	69343
256.549	73685.64
257.009	63425.46
257.47	76924.4
257.931	62632.56
258.391	46953.8
258.852	48414.96
259.312	50783.71
259.773	62708.48
260.233	52885.98
260.694	44592.42
261.154	50600.62
261.614	40524.97
262.074	36258.72
262.534	37652.8
262.994	35472.05
263.455	47277.65
263.915	39788.79
264.374	37449.52
264.834	40889.34
265.294	45367.59
265.754	46973.74
266.214	44446.87
266.673	41660.76
267.133	52571.19
267.593	52184.69
268.052	63815.35
268.512	55477.79
268.971	66830.21
269.431	73248.72
269.89	65525.85
270.349	98129.95
270.809	109417.32
271.268	98400.71
271.727	220719.95
272.186	142806.41
272.645	106956.4
273.104	77181.92
273.563	111710.96
274.022	87917.78
274.481	74703.07
274.94	57521.03
275.399	42743.1
275.857	49735.76
276.316	67220.74
276.775	59787.96
277.233	58835.3
277.692	55020.95
278.15	62150.1
278.609	63821.62
279.067	59010.2
279.525	54760.67
279.984	70682.44
280.442	84801.8
280.9	83423.85
281.358	54805.25
281.816	51001.73
282.274	49901.97
282.732	51574.13
283.19	51790.63
283.648	44672.22
284.106	47567.57
284.564	48373.51
285.021	44806.66
285.479	33356.8
285.937	30346.38
286.394	26561.59
286.852	27326.15
287.309	28690.6
287.767	27648.09
288.224	26232.51
288.682	28741.27
289.139	31469.14
289.596	28734.49
290.053	29817.21
290.511	37603.07
290.968	45551.76
291.425	61865.76
291.882	51402.11
292.339	44701.77
292.796	44362.3
293.252	41831.48
293.709	33162.95
294.166	29714.67
294.623	32829.84
295.079	31507.22
295.536	31621.68
295.992	28675.48
296.449	28315.55
296.905	29379.37
297.362	28115.68
297.818	29552.63
298.274	30611.92
298.731	31200.78
299.187	30844.05
299.643	33105.48
300.099	39980.73
300.555	43819.52
301.011	36594.8
301.467	35180.89
301.923	41187.71
302.379	40176.3
302.835	39422.79
303.291	39398.99
303.746	44810.43
304.202	56539.65
304.658	56701.02
305.113	38101.94
305.569	37291.98
306.024	39737.86
306.479	37854.42
306.935	31868.28
307.39	34825.77
307.845	32082.65
308.301	32255.71
308.756	31387.19
309.211	30210.56
309.666	30926.69
310.121	38310.27
310.576	38879.05
311.031	38497.11
311.486	44090.44
311.94	43987.79
312.395	58698.84
312.85	110447.9
313.305	542338.47
313.759	2798421.53
314.214	202567.64
314.668	160203.99
315.123	134580.81
315.577	48130.68
316.032	42750.69
316.486	53495.14
316.94	42150.03
317.394	29291.95
317.849	22716.74
318.303	21487.35
318.757	20288.28
319.211	22381.1
319.665	19596.85
320.119	19827.17
320.572	28437.2
321.026	26533.91
321.48	22059.34
321.934	24074.98
322.387	24132.15
322.841	26023.47
323.295	23327.46
323.748	26881.06
324.202	27260.12
324.655	32655.08
325.108	45547.84
325.562	32138.5
326.015	38176.85
326.468	28845.32
326.921	32145.01
327.374	29916.19
327.827	31109.56
328.28	35218.39
328.733	23546.95
329.186	20682.26
329.639	19702.22
330.092	16580.75
330.545	15760.52
330.997	15877.39
331.45	17307.81
331.903	20260.3
332.355	34859.04
332.808	33871.93
333.26	27936.66
333.713	30292.2
334.165	30493.85
334.617	40663.33
335.069	32897.42
335.522	59538.94
335.974	65867.91
336.426	60124.59
336.878	41715.5
337.33	21108.11
337.782	20592.7
338.234	25713.06
338.686	30744.21
339.137	36418.15
339.589	34262.03
340.041	26790.11
340.493	22971.79
340.944	23481.85
341.396	25275.29
341.847	21218.72
342.299	25000.05
342.75	30451.69
343.201	26665.41
343.653	30648.23
344.104	37681.23
344.555	29644.8
345.006	46206.8
345.457	35357.63
345.908	28120.21
346.359	26423.81
346.81	21506.45
347.261	22649.01
347.712	22306.7
348.163	23910.2
348.613	24163.21
349.064	22520.41
349.515	19707.13
349.965	20168.61
350.416	24271.48
350.866	26625.72
351.317	30110.75
351.767	49823.46
352.217	62978.91
352.668	52259.19
353.118	47755.79
353.568	46132.91
354.018	36444.5
354.468	38407.93
354.918	27520.9
355.368	24067.82
355.818	33979.95
356.268	97856.54
356.718	408680.9
357.168	101725.78
357.617	50986.83
358.067	56756.7
358.517	53079.12
358.966	62115.12
359.416	69552.64
359.865	75209.17
360.315	89592.07
360.764	41756.62
361.213	23330.42
361.663	22175.13
362.112	27356.04
362.561	44193.31
363.01	33304.83
363.459	28042.18
363.908	30387.52
364.357	25811.42
364.806	43563.97
365.255	29966.7
365.703	27431.82
366.152	27471.33
366.601	22244.43
367.05	18055.11
367.498	16413.67
367.947	17177.92
368.395	17870.49
368.844	15810.69
369.292	19077.73
369.74	13199.54
370.189	20185.1
370.637	23715.76
371.085	20505.56
371.533	24976.55
371.981	24100.2
372.429	22925.31
372.877	23900.48
373.325	20009.79
373.773	20453.27
374.221	18235.36
374.669	22622.32
375.116	19628.87
375.564	19816.98
376.012	22197.11
376.459	18349.02
376.907	21974.33
377.354	26714.57
377.801	24956.39
378.249	28726.73
378.696	36792.9
379.143	44714.45
379.591	47904.29
380.038	81074.52
380.485	58786.77
380.932	63755.73
381.379	58430.54
381.826	43054.71
382.273	30657.6
382.72	26915.79
383.166	26325.86
383.613	17125.64
384.06	15457.97
384.506	17919.9
384.953	13229.04
385.4	13349.95
385.846	11713.58
386.292	11464.43
386.739	11262.23
387.185	11184.28
387.631	11189.22
388.078	10850.22
388.524	11611.3
388.97	10749.01
389.416	8967.93
389.862	9533.2
390.308	9036.21
390.754	9179.76
391.2	9957.02
391.645	10195.36
392.091	9719.3
392.537	9400.91
392.983	9447.78
393.428	9274.31
393.874	9949.87
394.319	9955.93
394.765	9421.93
395.21	9677.19
395.655	9063.65
396.101	8478.79
396.546	7642.43
396.991	7726.44
397.436	7166.11
397.881	6909.41
398.326	6552.53
398.771	6174.47
399.216	5410
399.661	4862.91
400.106	4831.26
400.551	4927.53
400.995	4411.73
401.44	4360.29
401.885	4078.89
402.329	4108.39
402.774	3928.6
403.218	3779.99
403.663	3632.84
404.107	3719.08
404.551	3740.26
404.995	3427.68
405.44	3301.88
405.884	3344.97
406.328	3226.06
406.772	3209.61
407.216	2920.53
407.66	2818.86
408.104	2680.23
408.547	2505.6
408.991	2418.93
409.435	2322.75
409.879	2284.66
410.322	2247.49
410.766	2166.8
411.209	2052.17
411.653	1964.91
412.096	1919.41
412.54	1915.05
412.983	1897.72
413.426	1897.26
413.869	1894.41
414.312	1851.75
414.756	1780.21
415.199	1693.2
415.642	1637.71
416.085	1639.27
416.527	1624.2
416.97	1645.84
417.413	1558.52
417.856	1537.36
418.298	1520.86
418.741	1507.43
419.184	1506.06
419.626	1566.15
420.069	1564.66
420.511	1568.25
420.953	1529.78
421.396	1515.88
421.838	1474.39
422.28	1506.36
422.722	1511.98
423.164	1531.09
423.606	1503.81
424.048	1501.31
424.49	1423.54
424.932	1414.95
425.374	1398.25
425.816	1423.63
426.258	1448.94
426.699	1464.71
427.141	1439.93
427.582	1462.84
428.024	1454.73
428.465	1444.49
428.907	1404.02
429.348	1388.15
429.789	1386.98
430.231	1353.47
430.672	1368.66
431.113	1334.24
431.554	1311.91
431.995	1281.29
432.436	1232.41
432.877	1202.14
433.318	1181.77
433.759	1178.71
434.2	1177.53
434.64	1166.03
435.081	1170.11
435.522	1109.71
435.962	1072.01
436.403	1048.92
436.843	1063.72
437.284	1043.08
437.724	1016.54
438.164	1020.67
438.604	998.41
439.045	959.77
439.485	919.07
439.925	899.86
440.365	877.88
440.805	863.97
441.245	852.39
441.685	819.7
442.125	812.9
442.564	817.69
443.004	797.38
443.444	793.41
443.883	792.78
444.323	787.4
444.762	788.27
445.202	797.88
445.641	811.7
446.081	806.67
446.52	811.78
446.959	803.16
447.398	781.05
447.837	769.69
448.276	755.46
448.716	763.34
449.154	766.77
449.593	748.07
450.032	744.55
450.471	728.75
450.91	728.77
451.349	726.37
451.787	722.44
452.226	733.57
452.664	733.31
453.103	734.83
453.541	733.44
453.98	732.73
454.418	736.9
454.856	723.61
455.295	723.15
455.733	728.61
456.171	732.03
456.609	732.72
457.047	732.63
457.485	741.61
457.923	743.54
458.361	733.49
458.798	735.39
459.236	733.01
459.674	738.31
460.111	741.16
460.549	733.14
460.987	730.65
461.424	728.34
461.862	724.85
462.299	715.01
462.736	712.61
463.173	715.05
463.611	707.49
464.048	705.7
464.485	710.95
464.922	704.2
465.359	700.21
465.796	688.1
466.233	682.17
466.67	674.76
467.106	672.62
467.543	665.83
467.98	656.61
468.416	640.44
468.853	635.67
469.29	617.04
469.726	610.21
470.162	594.31
470.599	588.81
471.035	582.82
471.471	569.89
471.907	566.06
472.344	561.75
472.78	562.91
473.216	567.52
473.652	560.28
474.088	558.92
474.523	555.8
474.959	560.56
475.395	553.67
475.831	550.74
476.266	551.92
476.702	550.35
477.138	543.24
477.573	539.73
478.008	537.29
478.444	537.45
478.879	541.02
479.314	543.48
479.75	541.61
480.185	544.62
480.62	548.84
481.055	551.66
481.49	554.79
481.925	562.73
482.36	572.53
482.795	587.35
483.229	604.16
483.664	615.88
484.099	617.89
484.534	627.59
484.968	632.81
485.403	633.14
485.837	631.32
486.271	628.47
486.706	627.34
487.14	619.28
487.574	609.21
488.009	602.66
488.443	596.64
488.877	601.48
489.311	602.55
489.745	608.36
490.179	612.05
490.613	621.94
491.046	626.31
491.48	630.17
491.914	629.79
492.348	633.13
492.781	635.33
493.215	635.89
493.648	635.94
494.082	638.83
494.515	637.23
494.948	643.52
495.382	646.17
495.815	648.82
496.248	652.16
496.681	661.66
497.114	670.16
497.547	677
497.98	686.71
498.413	689.76
498.846	697.2
499.279	703.64
499.711	704.8
500.144	704.54
500.577	711.88
501.009	719.61
501.442	726.54
501.874	725.38
502.306	725.14
502.739	730.02
503.171	740.37
503.603	740.92
504.036	746.74
504.468	750.63
504.9	758.64
505.332	762.41
505.764	763.91
506.196	766.83
506.627	777.83
507.059	788.68
507.491	793.96
507.923	791.01
508.354	801.8
508.786	808.99
509.217	822.23
509.649	833.9
510.08	848.91
510.512	861.94
510.943	875.37
511.374	884.69
511.805	899.69
512.237	914.91
512.668	941.24
513.099	962.97
513.53	985.65
513.961	1002.67
514.391	1028.79
514.822	1056.22
515.253	1086.48
515.684	1107.72
516.114	1132.78
516.545	1152.45
516.975	1175.48
517.406	1191.74
517.836	1195.35
518.267	1202.08
518.697	1219.2
519.127	1224.3
519.558	1230.99
519.988	1235.28
520.418	1244.79
520.848	1260.3
521.278	1267.96
521.708	1273.84
522.138	1285.56
522.567	1312.97
522.997	1335.57
523.427	1350.12
523.857	1366.33
524.286	1378
524.716	1392.53
525.145	1410.57
525.575	1421.81
526.004	1435.68
526.433	1442.82
526.863	1444.99
527.292	1437.72
527.721	1443.55
528.15	1449.45
528.579	1450.77
529.008	1459.16
529.437	1479.73
529.866	1491.82
530.295	1507.36
530.724	1518.81
531.152	1542.61
531.581	1555.77
532.01	1572.33
532.438	1580.88
532.867	1594.05
533.295	1611.06
533.723	1618.31
534.152	1617.64
534.58	1618.33
535.008	1605.8
535.436	1608.77
535.865	1615.95
536.293	1628.83
536.721	1643.13
537.149	1666.67
537.576	1670.22
538.004	1681.62
538.432	1689.48
538.86	1688.2
539.287	1695.65
539.715	1707.92
540.143	1711.58
540.57	1709.89
540.998	1707.25
541.425	1687.43
541.852	1668.69
542.28	1666.75
542.707	1652.92
543.134	1640.42
543.561	1636.96
543.988	1629.6
544.415	1629.11
544.842	1623.55
545.269	1615.29
545.696	1616.36
546.123	1627.37
546.549	1617.52
546.976	1606.69
547.403	1604.99
547.829	1606.14
548.256	1607.27
548.682	1603.71
549.108	1595.71
549.535	1593.61
549.961	1595
550.387	1582.98
550.813	1577.58
551.24	1582.53
551.666	1582.14
552.092	1572.97
552.518	1566.51
552.943	1560.53
553.369	1566.3
553.795	1570.95
554.221	1571.89
554.646	1568.23
555.072	1576.28
555.498	1578.82
555.923	1585.54
556.349	1597.56
556.774	1605.19
557.199	1605.2
557.625	1609.24
558.05	1604.05
558.475	1611.23
558.9	1607.98
559.325	1599
559.75	1592.19
560.175	1585.45
560.6	1578.33
561.025	1574.48
561.449	1573.2
561.874	1576.02
562.299	1577.51
562.723	1580.49
563.148	1569.95
563.572	1571.88
563.997	1578.91
564.421	1582.17
564.846	1581.23
565.27	1582.21
565.694	1576.75
566.118	1583.63
566.542	1588.44
566.966	1580.83
567.39	1575.13
567.814	1564.77
568.238	1563.41
568.662	1565.77
569.086	1565.22
569.509	1568.79
569.933	1554.29
570.357	1547.06
570.78	1528.44
571.204	1515.11
571.627	1505.57
572.05	1501.59
572.474	1500.01
572.897	1486.76
573.32	1478.8
573.743	1468.53
574.166	1452.46
574.589	1450.35
575.012	1443.05
575.435	1440.23
575.858	1431.75
576.281	1420.3
576.704	1406.21
577.126	1393.28
577.549	1382.66
577.972	1373
578.394	1363.73
578.817	1355.82
579.239	1338.58
579.661	1325.22
580.084	1310.22
580.506	1297.58
580.928	1292.65
581.35	1282.84
581.772	1277.96
582.194	1266
582.616	1254.18
583.038	1240.39
583.46	1230.51
583.882	1227.94
584.303	1229.68
584.725	1225.5
585.147	1226.24
585.568	1234.31
585.99	1242.8
586.411	1247.51
586.833	1258.22
587.254	1258.19
587.675	1269.11
588.096	1277.65
588.518	1271.85
588.939	1258.67
589.36	1256.37
589.781	1247.05
590.202	1223.81
590.623	1215.84
591.043	1212.68
591.464	1201.29
591.885	1197.89
592.305	1192.32
592.726	1180.51
593.147	1180.78
593.567	1175.54
593.987	1168.72
594.408	1162.73
594.828	1159.72
595.248	1153.57
595.669	1138.68
596.089	1133.03
596.509	1127.37
596.929	1116.18
597.349	1116.29
597.769	1107.24
598.189	1102.28
598.608	1103.04
599.028	1103.79
599.448	1103.14
599.867	1092.84
600.287	1088.34
600.706	1084.6
601.126	1076.21
601.545	1075.29
601.965	1073.75
602.384	1069.53
602.803	1071.28
603.222	1066.96
603.641	1062.31
604.061	1058.42
604.48	1054.94
604.898	1060.18
605.317	1064.13
605.736	1065.6
606.155	1063.74
606.574	1056.49
606.992	1060.41
607.411	1056.58
607.829	1049.23
608.248	1046.26
608.666	1044.36
609.085	1043.88
609.503	1038
609.921	1032.95
610.339	1033.98
610.758	1032.23
611.176	1029.33
611.594	1022.75
612.012	1019.29
612.43	1022.06
612.847	1027.76
613.265	1029.08
613.683	1032.24
614.101	1033.56
614.518	1030.05
614.936	1022.18
615.353	1010.94
615.771	1007.37
616.188	1006.47
616.606	1004.17
617.023	998.55
617.44	986.36
617.857	980.62
618.274	973.68
618.691	967.44
619.108	959.13
619.525	953.66
619.942	957.62
620.359	959.15
620.776	955.35
621.192	951.15
621.609	950
622.026	954.92
622.442	958.99
622.859	961.23
623.275	956.42
623.691	961.51
624.108	971.34
624.524	982.83
624.94	982.81
625.356	990.7
625.772	1000.55
626.188	1008.83
626.604	1009.92
627.02	1006.22
627.436	1005.21
627.852	1011.55
628.268	1020.04
628.683	1011.65
629.099	1005.04
629.514	1000.78
629.93	1003.2
630.345	1006.87
630.761	1003.32
631.176	1005.69
631.591	1001.09
632.007	995.11
632.422	992.15
632.837	984.31
633.252	982.94
633.667	974.53
634.082	967.39
634.497	957.04
634.911	942.12
635.326	937.75
635.741	923.34
636.155	914.77
636.57	915.63
636.984	913.52
637.399	913.32
637.813	911.69
638.228	909.16
638.642	910.94
639.056	902.18
639.47	900.25
639.884	893.92
640.298	887.86
640.712	886.26
641.126	875.55
641.54	868.79
641.954	863.64
642.368	855.02
642.781	850.63
643.195	838.64
643.609	839.12
644.022	835.97
644.436	833.27
644.849	826.05
645.262	818.52
645.676	820.69
646.089	817.46
646.502	806.92
646.915	802.38
647.328	789.13
647.741	787.83
648.154	778.51
648.567	776.77
648.98	767.74
649.393	768.49
649.805	766.06
650.218	761.14
650.631	750.43
651.043	746.12
651.456	742.5
651.868	744.39
652.28	757.46
652.693	767.56
653.105	773.62
653.517	780.62
653.929	782
654.341	786.85
654.753	778
655.165	783.47
655.577	783.5
655.989	781.74
656.401	776.26
656.813	750.94
657.224	736.6
657.636	715.59
658.047	704.37
658.459	691.67
658.87	686.57
659.282	679.26
659.693	665.05
660.104	654.78
660.515	645.94
660.926	646.61
661.338	646.33
661.749	644.51
662.159	640.09
662.57	638.9
662.981	636.43
663.392	632.03
663.803	638.18
664.213	639.61
664.624	638.71
665.035	642.83
665.445	633.56
665.855	629.57
666.266	625.43
666.676	625.55
667.086	620.14
667.497	622.11
667.907	620.16
668.317	614.33
668.727	613.44
669.137	616.39
669.547	616.27
669.956	620.3
670.366	623.35
670.776	625.96
671.186	630.49
671.595	634.75
672.005	638.23
672.414	638.38
672.824	637.9
673.233	641.68
673.642	643.51
674.052	647.4
674.461	650.4
674.87	655.42
675.279	654.41
675.688	657.03
676.097	658.9
676.506	657.53
676.915	670.64
677.323	674.26
677.732	674.51
678.141	676.02
678.549	668.1
678.958	667.72
679.366	666.41
679.775	669.97
680.183	678.01
680.592	681.77
681	685.87
681.408	678.44
681.816	684.09
682.224	689.55
682.632	696.08
683.04	718.42
683.448	735.9
683.856	760.03
684.264	786.49
684.671	808.52
685.079	837.84
685.487	868.82
685.894	914.15
686.302	948.4
686.709	975.28
687.116	1006.55
687.524	1031.44
687.931	1051.65
688.338	1065.56
688.745	1076.61
689.152	1092.75
689.559	1117.24
689.966	1143.27
690.373	1154.13
690.78	1178.64
691.187	1220.91
691.593	1253.18
692	1281.11
692.407	1326.31
692.813	1384.76
693.22	1430.85
693.626	1479.17
694.032	1518.87
694.439	1578.54
694.845	1625.98
695.251	1689.79
695.657	1746.56
696.063	1829.68
696.469	1895.38
696.875	1957.29
697.281	1994.64
697.687	2044.15
698.093	2084.8
698.498	2155.97
698.904	2214.62
699.31	2298.67
699.715	2361.46
700.12	2450.13
700.526	2479.89
700.931	2550.97
701.337	2607.75
701.742	2651.77
702.147	2737.02
702.552	2779.3
702.957	2845.08
703.362	2877.37
703.767	2916.26
704.172	2963.85
704.577	2935.49
704.981	2990.62
705.386	3020.25
705.791	3027.57
706.195	3105.98
706.6	3127.25
707.004	3212.81
707.408	3200.04
707.813	3239.84
708.217	3243.34
708.621	3260.55
709.025	3366.61
709.43	3381.05
709.834	3450.04
710.237	3529.85
710.641	3529.26
711.045	3562.28
711.449	3568.89
711.853	3609.56
712.256	3660.82
712.66	3710.95
713.064	3797.41
713.467	3850.49
713.87	3973
714.274	4030.85
714.677	4150.93
715.08	4324.9
715.484	4506.07
715.887	4721.92
716.29	4934.79
716.693	5156.23
717.096	5408.19
717.499	5551.82
717.901	5589.15
718.304	5628.87
718.707	5666.12
719.109	5577.04
719.512	5558.15
719.915	5436.16
720.317	5390.55
720.719	5442.9
721.122	5424.49
721.524	5385.3
721.926	5354.18
722.328	5469.18
722.731	5471.16
723.133	5514.72
723.535	5724.26
723.937	5757.02
724.338	5817.69
724.74	5870.37
725.142	5797.78
725.544	5805.61
725.945	5838.07
726.347	5845.72
726.748	5846.61
727.15	5868.49
727.551	5834.42
727.952	5813.05
728.354	5791.64
728.755	5799.29
729.156	5762.69
729.557	5777.21
729.958	5653.79
730.359	5607.77
730.76	5591.61
731.161	5535.92
731.562	5515.54
731.962	5525.15
732.363	5461.56
732.763	5395.68
733.164	5439.78
733.564	5371.56
733.965	5272.88
734.365	5241.4
734.766	5275.43
735.166	5239.17
735.566	5181.69
735.966	5156.82
736.366	5153.81
736.766	5092.49
737.166	5131.53
737.566	5089.95
737.966	5067.68
738.365	5113.06
738.765	5109.95
739.165	5032.1
739.564	5006.28
739.964	5059.98
740.363	5013.38
740.763	5013.19
741.162	5002.21
741.561	4970.17
741.96	4922.63
742.36	4946.2
742.759	4955.34
743.158	4996.86
743.557	5012.46
743.955	5058.3
744.354	5011.54
744.753	5076.34
745.152	5033.74
745.55	5095.02
745.949	5090.61
746.348	5094.03
746.746	5112.47
747.144	5067.53
747.543	5044.33
747.941	5095.44
748.339	5020.59
748.737	5013.58
749.136	5005.19
749.534	5077.54
749.932	5046.02
750.33	5071.55
750.727	5130.11
751.125	5103.1
751.523	5086.44
751.921	5136.2
752.318	5102.63
752.716	5164.54
753.113	5179.02
753.511	5205.63
753.908	5204.9
754.305	5189.12
754.703	5254.5
755.1	5321.26
755.497	5388.86
755.894	5597.6
756.291	5789.61
756.688	6147.11
757.085	6623.85
757.482	7289.86
757.878	8014.89
758.275	8675.58
758.672	9581.53
759.068	10320.17
759.465	11374.93
759.861	12727.02
760.258	14299.39
760.654	15115.36
761.05	14994.95
761.447	14307.43
761.843	13316.3
762.239	12296.19
762.635	11831.43
763.031	11388.72
763.427	10748.69
763.822	10082.42
764.218	9418.59
764.614	8559.12
765.01	7981.79
765.405	7608.28
765.801	7325.16
766.196	6967.46
766.592	6768.67
766.987	6431.38
767.382	6200.7
767.778	6104.9
768.173	5961.47
768.568	5885.98
768.963	5750.76
769.358	5770.03
769.753	5719.69
770.148	5630.47
770.542	5627.82
770.937	5592.33
771.332	5687.85
771.726	5709.85
772.121	5640.56
772.515	5700.54
772.91	5684.51
773.304	5758.71
773.699	5689.7
774.093	5745.7
774.487	5804.85
774.881	5852.24
775.275	5849.95
775.669	5804.09
776.063	5849.09
776.457	5889
776.851	5808.25
777.245	5798.94
777.638	5836.27
778.032	5960.06
778.425	5921.58
778.819	5964.74
779.212	5917.27
779.606	5870.46
779.999	5892.62
780.392	5878.44
780.786	5965.06
781.179	5986.97
781.572	6034.53
781.965	6048.24
782.358	5986.39
782.751	6049.41
783.143	5998.29
783.536	6074.48
783.929	6124.78
784.322	6247.96
784.714	6278.93
785.107	6275.13
785.499	6350.74
785.891	6324.62
786.284	6302.45
786.676	6455.8
787.068	6431.76
787.46	6488.05
787.852	6512.1
788.245	6603.68
788.636	6638.68
789.028	6707.72
789.42	6749.77
789.812	6760.1
790.204	6865.23
790.595	6973.64
790.987	6761.34
791.378	6783.61
791.77	6924.55
792.161	7072.67
792.553	7132.77
792.944	7013.75
793.335	6941.92
793.726	7019.6
794.117	7117.23
794.508	7263.8
794.899	7225.88
795.29	7375.82
795.681	7438.49
796.072	7284.94
796.463	7075.4
796.853	7079.37
797.244	7237.07
797.634	7275.04
798.025	7275.02
798.415	7286.89
798.806	7380.72
799.196	7473.37
799.586	7523.62
799.976	7484.81
800.366	7727.28
800.756	7994.71
801.146	7953.41
801.536	7987.68
801.926	8064.99
802.316	8091.01
802.706	8165.37
803.095	8030.47
803.485	8141.58
803.874	8186.3
804.264	8461.17
804.653	8432.41
805.043	8583.48
805.432	8698.75
805.821	8701.28
806.21	8724.94
806.599	8851.44
806.988	8900.74
807.377	9015.95
807.766	9154.59
808.155	9456.16
808.544	9173.07
808.933	9186.55
809.321	9162.99
809.71	9481.54
810.098	9652.83
810.487	10141.3
810.875	10652.23
811.264	10673.37
811.652	10978.24
812.04	11130.66
812.428	11301.74
812.816	12113.5
813.204	12555.86
813.592	13144.9
813.98	13499.26
814.368	13389.96
814.756	13899.81
815.144	13811.78
815.531	14305.95
815.919	14233.56
816.306	14554.6
816.694	14233.45
817.081	14288.96
817.469	14662.25
817.856	14648.24
818.243	14935.74
818.63	15357.05
819.017	14903.73
819.404	14969.53
819.791	15376
820.178	16027.12
820.565	16286.52
820.952	17271.03
821.339	16744.92
821.725	16932.68
822.112	16156.54
822.498	16115.63
822.885	16254.44
823.271	16156.54
823.657	16608.8
824.044	16620.29
824.43	16707.94
824.816	16679.64
825.202	16210.88
825.588	17301.16
825.974	17324.56
826.36	17874.04
826.746	17901.5
827.132	18279.44
827.517	18256.13
827.903	17410.09
828.289	17449.83
828.674	16609.36
829.06	16505.15
829.445	16934.66
829.83	17306.19
830.216	17816.99
830.601	18202.1
830.986	17775.44
831.371	17627.02
831.756	18217.95
832.141	17765.99
832.526	17755.71
832.911	18065.38
833.295	17941.82
833.68	18448.36
834.065	17800.34
834.449	16828.49
834.834	16751.92
835.218	16751.27
835.603	17117.66
835.987	16896.81
836.371	17784
836.755	17680.77
837.139	18107.01
837.524	18361.12
837.908	18164.21
838.291	18232.46
838.675	18310.48
839.059	18547.51
839.443	18544.45
839.827	18306.31
840.21	18821.62
840.594	18670.95
840.977	18892.93
841.361	18867.52
841.744	19280.17
842.127	19122.89
842.511	19393.06
842.894	20027.65
843.277	20427.38
843.66	20997.06
844.043	21087.32
844.426	20223.7
844.809	19896.48
845.191	19932.04
845.574	19450.63
845.957	19063.47
846.339	18942.89
846.722	18372.71
847.104	18448.49
847.487	18263.02
847.869	18279.87
848.252	18579.76
848.634	18933.47
849.016	19212.41
849.398	19336.39
849.78	20244.24
850.162	20240.98
850.544	20690.27
850.926	21371.47
851.307	21274.6
851.689	21573.16
852.071	22062.98
852.452	22402.45
852.834	22381.8
853.215	22804.13
853.597	22976.58
853.978	23285.1
854.359	23772.87
854.741	22702.85
855.122	22587.45
855.503	22282.4
855.884	22417.88
856.265	22338.76
856.646	22464.07
857.026	22052.18
857.407	21978.05
857.788	22141.84
858.169	22446.01
858.549	21536.17
858.93	22200.57
859.31	22260.69
859.69	22475.97
860.071	22048.77
860.451	21819.12
860.831	21028.04
861.211	22257.84
861.591	22852.96
861.971	22819.3
862.351	23032.57
862.731	23459.95
863.111	23746.58
863.491	24088.98
863.87	25035.03
864.25	25417.07
864.629	24992.98
865.009	25543.19
865.388	26451.79
865.768	28335.82
866.147	28235.25
866.526	26669.84
866.905	26971.01
867.284	28482.59
867.663	27044.38
868.042	25914.07
868.421	25828.51
868.8	26263.42
869.179	26517.46
869.558	24974.17
869.936	23019.6
870.315	23426.71
870.693	23984.19
871.072	25865.97
871.45	24633.94
871.828	24949.29
872.207	26221.62
872.585	25816.68
872.963	26518.13
873.341	25612.13
873.719	25305.73
874.097	25004.87
874.475	25485.96
874.853	26094.98
875.23	25010.72
875.608	26064.64
875.986	28193.49
876.363	26970.16
876.741	27797.87
877.118	27098.56
877.495	28431.81
877.873	28910.53
878.25	30427.4
878.627	29184.01
879.004	29575.23
879.381	29425.61
879.758	28646.18
880.135	26664.68
880.512	28185.63
880.889	27440.1
881.265	27156.91
881.642	26921.7
882.019	27387.81
882.395	26824.75
882.772	27886.21
883.148	26678.01
883.524	26581.15
883.901	26428.24
884.277	26830.53
884.653	26658.87
885.029	27413.43
885.405	30355.18
885.781	30126.95
886.157	28866.63
886.532	29222.46
886.908	29208.12
887.284	32484.55
887.659	33547.73
888.035	34598.25
888.411	35496.75
888.786	35972.08
889.161	37231.06
889.537	36550.77
889.912	37715.31
890.287	37675.54
890.662	38654.96
891.037	37959.97
891.412	35408.86
891.787	35049.03
892.162	33820.04
892.536	34604.39
892.911	33304.93
893.286	32598.23
893.66	31282.81
894.035	32077.05
894.409	34950.46
894.784	33528.74
895.158	34090.19
895.532	36088.88
895.906	37072.92
896.281	37940.01
896.655	37332.95
897.029	42681.38
897.402	44453.34
897.776	49476.03
898.15	49333.04
898.524	48784.77
898.898	49443.9
899.271	55322.11
899.645	47905.41
900.018	46025.65
900.392	47735.21
900.765	48124.26
901.138	44531.82
901.511	43876.18
901.884	40276.93
902.258	37123.06
902.631	38355.79
903.003	44123.93
903.376	39838.19
903.749	44696.4
904.122	47850.24
904.495	52696.83
904.867	53348.36
905.24	46298
905.612	43094.34
905.985	44093.86
906.357	46110.18
906.729	44023.04
907.102	37597.75
907.474	36159.35
907.846	36386.73
908.218	35899.29
908.59	31712.27
908.962	30678.14
909.334	33030.6
909.705	34673.41
910.077	33644.34
910.449	35018.85
910.82	35973.44
911.192	39599.1
911.563	41122.34
911.935	43972.15
912.306	44008.02
912.677	45437.24
913.048	44971.55
913.419	48798.83
913.79	49087.47
914.161	52640.04
914.532	50296.9
914.903	46225.54
915.274	43888.07
915.645	43241.15
916.015	38091.79
916.386	36329.3
916.756	38648.71
917.127	39859.49
917.497	35587.69
917.868	38737.81
918.238	36807.86
918.608	37888.9
918.978	38660.06
919.348	40927.2
919.718	42259.15
920.088	40687.82
920.458	42255.81
920.828	44506.29
921.198	42191.08
921.567	45078.12
921.937	34888.8
922.306	35206.25
922.676	37956.8
923.045	31671.92
923.415	30090.32
923.784	27410.48
924.153	28172.47
924.522	28149.54
924.891	26452.75
925.26	28333.26
925.629	27670.27
925.998	31827.39
926.367	31083.1
926.736	29577.18
927.104	35223.43
927.473	37890.23
927.842	45793.94
928.21	45349.41
928.578	47655.79
928.947	45050.48
929.315	45304.65
929.683	53103.13
930.051	53495.37
930.42	62093.93
930.788	53121.11
931.156	52749.94
931.523	49406.55
931.891	45598.9
932.259	43773.96
932.627	50709.61
932.994	71739.37
933.362	59263.47
933.729	51480.53
934.097	49280.56
934.464	41704.09
934.831	48081.26
935.199	47373.38
935.566	45956.56
935.933	46654.4
936.3	56548.76
936.667	44041.8
937.034	39699.99
937.401	39291.8
937.767	33899.11
938.134	30159.43
938.501	42524.62
938.867	45301.54
939.234	76556.67
939.6	65323.61
939.967	71802.74
940.333	48076.39
940.699	40940.96
941.065	32876.99
941.431	43112.69
941.798	41586.96
942.163	54608.49
942.529	34130.45
942.895	31434.47
943.261	20351.92
943.627	26700.05
943.992	23398.48
944.358	23443.74
944.723	23526.47
945.089	22949.26
945.454	21205.85
945.82	22642.19
946.185	21766.76
946.55	25214.08
946.915	22627.94
947.28	26526.76
947.645	23351.63
948.01	21522.52
948.375	22403.68
948.74	26848.66
949.104	31317.49
949.469	45241.56
949.834	79970.62
950.198	75723.43
950.562	45375.98
950.927	37800.47
951.291	45490.19
951.655	38769.11
952.02	36453.77
952.384	27582.61
952.748	24027.1
953.112	23395.62
953.476	20343.86
953.839	18804.88
954.203	18628.01
954.567	23283.8
954.931	36668.83
955.294	31375.95
955.658	31537.49
956.021	53649.19
956.385	91003.35
956.748	134199.35
957.111	208441.58
957.474	234078.81
957.837	263706.08
958.2	199553.84
958.563	71852.83
958.926	48556.96
959.289	73648.65
959.652	82276.36
960.015	61711.27
960.377	88539.34
960.74	101049.05
961.102	174538.17
961.465	187422.19
961.827	100148.25
962.189	192224.14
962.552	133208.49
962.914	106849.46
963.276	69364.98
963.638	57388.11
964	56845.15
964.362	38404.53
964.724	37118.01
965.085	26456.88
965.447	21683.66
965.809	24754.53
966.17	24781.93
966.532	26831.05
966.893	24624.61
967.255	22388.24
967.616	26410.17
967.977	21156.27
968.338	23129.72
968.699	19003.94
969.061	19021.94
969.421	19130.08
969.782	21489.04
970.143	18141.61
970.504	18778.47
970.865	21333.66
971.225	21831.76
971.586	21369.79
971.946	30459.05
972.307	26437.82
972.667	34568.85
973.027	35536.52
973.388	43157.4
973.748	29314.39
974.108	31907.1
974.468	43179.47
974.828	33269.71
975.188	25626.75
975.548	23547.89
975.907	19767.18
976.267	22163.8
976.627	18624.66
976.986	19314.68
977.346	18401.91
977.705	17708.62
978.064	16129.77
978.424	13413.41
978.783	13898.93
979.142	15834.03
979.501	15131.89
979.86	15995.34
980.219	15406.16
980.578	19873.55
980.937	22265.26
981.296	19852.32
981.654	20434.82
982.013	31822.54
982.371	41293.82
982.73	38570.28
983.088	43737.76
983.447	46698.66
983.805	66800.69
984.163	139624.86
984.521	155006.36
984.879	227444.47
985.237	-369576.95
985.595	355750.23
985.953	88445.76
986.311	51104.77
986.669	29600.62
987.026	25547.31
987.384	34371.99
987.741	35528.36
988.099	25353.23
988.456	20194.93
988.814	18880.63
989.171	16416.01
989.528	16222.03
989.885	17132.76
990.242	13558.26
990.599	16913.58
990.956	13810.4
991.313	9657.53
991.67	7907.8
992.027	8362.16
992.383	7433.29
992.74	6509.68
993.096	6828.2
993.453	7068.99
993.809	7326.06
994.165	9770.56
994.522	8920.94
994.878	9827.02
995.234	12322.83
995.59	12163.48
995.946	11539.65
996.302	13146.32
996.658	15230.76
997.013	16760.59
997.369	19877.68
997.725	25446.16
998.08	16459.62
998.436	25468.86
998.791	35137.47
999.147	35068.56
999.502	38267.28
999.857	27826.38
1000.212	45363.15
1000.567	64476.93
1000.922	37262.63
1001.277	23682.66
1001.632	17576.97
1001.987	22681.96
1002.342	16259.45
1002.696	13017.39
1003.051	10389.28
1003.406	12597.45
1003.76	12541.72
1004.114	12382.35
1004.469	10407.27
1004.823	8616.21
1005.177	9314.33
1005.531	7363.83
1005.885	6523.57
1006.239	7370.59
1006.593	9246.91
1006.947	12382.17
1007.301	9288.14
1007.655	10145.95
1008.008	7436.51
1008.362	8354.69
1008.715	11930.47
1009.069	10829.33
1009.422	16290.61
1009.776	32692.21
1010.129	21663.57
1010.482	18103.9
1010.835	15306.11
1011.188	31860.74
1011.541	29955.5
1011.894	-183135.23
1012.247	539207.4
1012.6	36577.86
1012.952	23086.93
1013.305	11954.74
1013.657	8651.43
1014.01	8178.47
1014.362	6735.34
1014.715	5978.27
1015.067	5205.05
1015.419	5088.82
1015.771	4516.29
1016.123	4018.88
1016.475	4133.99
1016.827	4403.05
1017.179	4717.4
1017.531	4737.46
1017.883	4871.58
1018.234	4687.71
1018.586	5909.82
1018.938	6237.8
1019.289	8598.01
1019.64	9865.73
1019.992	9205.82
1020.343	8476.11
1020.694	6687.62
1021.045	5891.17
1021.396	6718.28
1021.747	7169.76
1022.098	8666.96
1022.449	6305.04
1022.8	5845.53
1023.151	4073.44
1023.501	3593.32
1023.852	3909.7
1024.202	4022.38
1024.553	4416.52
1024.903	4310.7
1025.253	3678.81
1025.604	3321.97
1025.954	4095.85
1026.304	4998.88
1026.654	5854.71
1027.004	8581.1
1027.354	13879.99
1027.703	13021.93
1028.053	17190.57
1028.403	24956.1
1028.753	36444.58
1029.102	49639.39
1029.452	253839.68
1029.801	10988.54
1030.15	7080.71
1030.499	5986.13
897.758	1987.45
901.051	1913.97
904.343	1946.77
907.636	1957.89
910.928	2018.18
914.22	1942.77
917.511	1947.15
920.803	1990.14
924.094	1978.31
927.384	1990.32
930.675	1953.61
933.965	1922.21
937.255	1959.7
940.544	1934.05
943.834	1919.46
947.123	1865.55
950.411	1949.78
953.7	1932.93
956.988	1923.54
960.276	1861.43
963.563	1898.5
966.851	1912.62
970.138	1949.93
973.424	1952.62
976.711	1905.14
979.997	1957.53
983.283	1994.48
986.568	1935.99
989.853	1918.05
993.138	1943.29
996.423	2031.98
999.708	1998.09
1002.992	2028.2
1006.275	1938.41
1009.559	1941.17
1012.842	2035.24
1016.125	1992.99
1019.408	1976.86
1022.69	2020.72
1025.972	2060.24
1029.254	2039.07
1032.536	2009
1035.817	2012.36
1039.098	1982.3
1042.379	2031.34
1045.659	2057.13
1048.939	2010.37
1052.219	2015.15
1055.498	2000.86
1058.778	2003.51
1062.057	1974.9
1065.335	1998.47
1068.614	2006.34
1071.892	2010.2
1075.17	2055.25
1078.447	2063.31
1081.724	2059.23
1085.001	2081.37
1088.278	2061.8
1091.554	2067.34
1094.83	2060.14
1098.106	2101.42
1101.382	2124.27
1104.657	2124.55
1107.932	2124.5
1111.206	2108.32
1114.481	2058.15
1117.755	2058.72
1121.029	2055.16
1124.302	2115.85
1127.575	2086.59
1130.848	2087.35
1134.121	2058.28
1137.393	2028.8
1140.665	2080.44
1143.937	2061.6
1147.208	2004.62
1150.48	2071.51
1153.75	2060.87
1157.021	2052.52
1160.291	2032.05
1163.561	2085.32
1166.831	2044.7
1170.101	2071.37
1173.37	2025.02
1176.639	1990.05
1179.907	2026.35
1183.176	2055.91
1186.444	2056.69
1189.711	2078.58
1192.979	2106.81
1196.246	2063.16
1199.513	2074.64
1202.78	2084.86
1206.046	2093.59
1209.312	2122.89
1212.578	2135.79
1215.843	2109.79
1219.108	2076.76
1222.373	2097.55
1225.638	2074.05
1228.902	2069.11
1232.166	2021.73
1235.43	2011.95
1238.693	2038.5
1241.956	2027.65
1245.219	2080
1248.482	2059.83
1251.744	2058.85
1255.006	2167.42
1258.268	2112.08
1261.529	2074.3
1264.79	2072.2
1268.051	2169.08
1271.312	2176.23
1274.572	2147.49
1277.832	2136.13
1281.092	2111.11
1284.351	2109.99
1287.61	2097.4
1290.869	2039.53
1294.128	2046.15
1297.386	2077.23
1300.644	2072.05
1303.902	2079.85
1307.159	1954.34
1310.416	2003.55
1313.673	2033.34
1316.93	2034.46
1320.186	2059.41
1323.442	2088.13
1326.697	2095.4
1329.953	2060.78
1333.208	2102.19
1336.463	2071.76
1339.717	2041.03
1342.972	2136.39
1346.226	2107.08
1349.479	2061.78
1352.733	2046.51
1355.986	2042.81
1359.238	2025.71
1362.491	2031.37
1365.743	2030.67
1368.995	2019.09
1372.247	2034.84
1375.498	2051.24
1378.749	2101.26
1382	2050.25
1385.251	2078.57
1388.501	2028.3
1391.751	2037.51
1395	2001.16
1398.25	2025.4
1401.499	2052.45
1404.748	2010.8
1407.996	1984.47
1411.244	1976.19
1414.492	1963.33
1417.74	1951.27
1420.987	1952.54
1424.234	2012.93
1427.481	1971.19
1430.728	2027.27
1433.974	2000.62
1437.22	1995.19
1440.465	1990.01
1443.711	1999.23
1446.956	2020.64
1450.201	1985.3
1453.445	2026.69
1456.689	2021.12
1459.933	2030.98
1463.177	2071.51
1466.42	2046.88
1469.663	2032.26
1472.906	2054.82
1476.148	2099.07
1479.391	2054.6
1482.633	2032.68
1485.874	2065.42
1489.115	2075.02
1492.356	2053.78
1495.597	2034.71
1498.838	2025.75
1502.078	2014.64
1505.318	1993.5
1508.557	2024.43
1511.797	2023.7
1515.036	2079.93
1518.274	2043.15
1521.513	1990.21
1524.751	1998.95
1527.989	2025.51
1531.227	2045.26
1534.464	2065.98
1537.701	2054.71
1540.938	2065.13
1544.174	2011.3
1547.41	1999.78
1550.646	2038.36
1553.882	2092.8
1557.117	2149.53
1560.352	2155.7
1563.587	2123.14
1566.821	2092.49
1570.055	2100.72
1573.289	2086.59
1576.523	2135.85
1579.756	2155.97
1582.989	2178.52
1586.222	2138.87
1589.454	2161.99
1592.686	2151.79
1595.918	2178.88
1599.15	2178.41
1602.381	2214.7
1605.612	2205.7
1608.843	2293.62
1612.073	2221.85
1615.303	2210.78
1618.533	2211.16
1621.762	2208.31
1624.992	2181.16
1628.221	2188.01
1631.449	2179.03
1634.678	2193.18
1637.906	2164.5
1641.134	2186.95
1644.361	2156.03
1647.588	2146.89
1650.815	2167.72
1654.042	2128.02
1657.269	2154
1660.495	2143.14
1663.72	2116.85
1666.946	2087.2
1670.171	2073.23
1673.396	2046.13
1676.621	2027.03
1679.845	2016.34
1683.069	2018.1
1686.293	2045.77
1689.517	2039.98
1692.74	2000.21
1695.963	2019.56
1699.185	2067.68
1702.408	2042.72
1705.63	2066.13
1708.852	2087.59
1712.073	2056.98
1715.294	2076.45
1718.515	2112.55
1721.736	2076.11
1724.956	2050.23
1728.176	2070.48
1731.396	2090.17
1734.616	2076.51
1737.835	2113.4
1741.054	2082.66
1744.272	2074.07
1747.491	2117.47
1750.709	2130.37
1753.927	2095.53
1757.144	2112.95
1760.361	2178.89
1763.578	2145.61
1766.795	2099.41
1770.011	2081.99
1773.227	2102.04
1776.443	2144.59
1779.658	2186.04
1782.874	2122.31
1786.089	2120.81
1789.303	2123.31
1792.518	2116.17
1795.732	2102.82
1798.945	2120.38
1802.159	2157.77
1805.372	2115.22
1808.585	2110.13
1811.797	2110.63
1815.01	2119.73
1818.222	2152.55
1821.434	2101.02
1824.645	2138.16
1827.856	2153.45
1831.067	2180.18
1834.278	2114.37
1837.488	2098.33
1840.698	2207.38
1843.908	2157.44
1847.117	2127.15
1850.326	2070.16
1853.535	2112.74
1856.744	2158.1
1859.952	2083.66
1863.16	2085.31
1866.368	2096.94
1869.575	2209.61
1872.782	2093.41
1875.989	2026.71
1879.196	2062.27
1882.402	2055.35
1885.608	2081.8
1888.814	2037.8
1892.019	1949.19
1895.224	1998.83
1898.429	1960.36
1901.634	1943.87
1904.838	1918.99
1908.042	1977.64
1911.246	1989.92
1914.449	1963.36
1917.652	1940.59
1920.855	1923.2
1924.058	1936.77
1927.26	1983.6
1930.462	2002.06
1933.664	2043.21
1936.865	1993.49
1940.066	2011.27
1943.267	1953.49
1946.467	1962.17
1949.668	1976.59
1952.868	2046.2
1956.067	2040.73
1959.267	1987.05
1962.466	2007.6
1965.665	1989.72
1968.863	1986.84
1972.061	1982.92
1975.259	1975.82
1978.457	2047.22
1981.654	2010.2
1984.852	2016
1988.048	1975.1
1991.245	1957.56
1994.441	2048.72
1997.637	1996.26
2000.833	1981.54
2004.028	2012.89
2007.223	2074.2
2010.418	2067.31
2013.613	2015.65
2016.807	2016.51
2020.001	2007.33
2023.194	2022.22
2026.388	2009.51
2029.581	1952.84
2032.774	2023.01
2035.966	2034.03
2039.158	1985.82
2042.35	2003.93
2045.542	1931.04
2048.733	2007.4
2051.924	1988.87
2055.115	2000.83
2058.306	1973.52
2061.496	2029.43
2064.686	2070
2067.875	1976.36
2071.065	1972.94
2074.254	1987.85
2077.442	1945.91
2080.631	2023.81
2083.819	1971.86
2087.007	1967.02
2090.195	1956.4
2093.382	1964.8
2096.569	1949.6
2099.756	1918.05
2102.942	1972.02
2106.128	1991.79
2109.314	1979.39
2112.5	1971.13
2115.685	1935.74
2118.87	1943.01
2122.055	2000.63
2125.239	1985.26
2128.424	1979.03
2131.608	2022.1
2134.791	2006.75
2137.974	2036.67
2141.157	2026.95
2144.34	2005.93
2147.523	1987.32
2150.705	2018.88
2153.887	1980.4
2157.068	1964.16
2160.25	1936.83
2163.431	1955.72
2166.611	1933.85
2169.792	1957.8
2172.972	1876.56
2176.152	1914.24
2179.331	1940.02
2182.511	1949.41
2185.69	1968.82
2188.868	1978.01
2192.047	2003.38
2195.225	2029.59
2198.403	1976.14
2201.58	1960.84
2204.758	1943.66
2207.935	2012.91
2211.111	1942.43
2214.288	1930.94
2217.464	1962.92
2220.64	1911.61
2223.815	1956.47
2226.991	1896.03
2230.166	1910.27
2233.34	1957.01
2236.515	1966.14
2239.689	2026.75
2242.863	1980.56
2246.036	2028.49
2249.209	2007.21
2252.382	2021.11
2255.555	2037.74
2258.727	1996.39
2261.9	2017.51
2265.071	2010.75
2268.243	2006.65
2271.414	1962.61
2274.585	1952.74
2277.756	2010.2
2280.926	1968.41
2284.096	1992.51
2287.266	1932.8
2290.436	1977.12
2293.605	1991.1
2296.774	2033.09
2299.942	2031.76
2303.111	2045.49
2306.279	2099.91
2309.447	2082.84
2312.614	2051.33
2315.781	2077.88
2318.948	2057.73
2322.115	2093.47
2325.281	1993.1
2328.447	1995.59
2331.613	1966.46
2334.779	1963.79
2337.944	1955.74
2341.109	1957.31
2344.274	1949.2
2347.438	1919.68
2350.602	1938.43
2353.766	1944.42
2356.929	1934.75
2360.092	1970.13
2363.255	1949.52
2366.418	1926.53
2369.58	1972.84
2372.742	1887.14
2375.904	1870.6
2379.066	1860.48
2382.227	1881.59
2385.388	1846.6
2388.548	1804.82
2391.709	1841.74
2394.869	1835.1
2398.029	1871.55
2401.188	1862.09
2404.347	1838.51
2407.506	1889.57
2410.665	1934.41
2413.823	1913.26
2416.981	1901.39
2420.139	1910.32
2423.296	1948.85
2426.453	1920.94
2429.61	1939.67
2432.767	1925.63
2435.923	1966.94
2439.079	1906.1
2442.235	1934.57
2445.391	1882.39
2448.546	1928.29
2451.701	1956.63
2454.855	1961.19
2458.009	1981
2461.163	1964.12
2464.317	1944.29
2467.471	1966.17
2470.624	1988.96
2473.777	1989.18
2476.929	2005.9
2480.082	2027.45
2483.234	2005.95
2486.385	1943.68
2489.537	1936.72
2492.688	1936.44
2495.839	1954.51
2498.989	1967.48
2502.14	1957.63
2505.29	1954.3
2508.439	1974.06
2511.589	1924.03
2514.738	1918.46
2517.887	1937.62
2521.035	2016.91
2524.183	1968.85
2527.331	1959.89
2530.479	1960.33
2533.627	1960.36
