Data from C_1_DEC_VA_2N_Splice17_11-57-21-424.txt Node
Date: Sat Mar 14 11:57:21 EDT 2020
User: sa697716
Spectrometer: FLMS03696
Trigger mode: 0
Integration Time (sec): 3.180400E-1
Scans to average: 20
Electric dark correction enabled: true
Nonlinearity correction enabled: true
Boxcar width: 5
XAxis mode: Wavelengths
Number of Pixels in Spectrum: 2048
>>>>>Begin Spectral Data<<<<<
187.83	-220329.91
188.298	1608.46
188.766	919.31
189.233	828.06
189.701	1079.1
190.169	1468.77
190.636	550.77
191.104	378.95
191.571	35.45
192.039	-89.89
192.506	-192.9
192.974	174.27
193.441	-361.16
193.908	18.63
194.375	3.95
194.842	-16.61
195.31	-4.8
195.777	106.88
196.244	246.24
196.711	283.71
197.177	356.45
197.644	471.01
198.111	852.58
198.578	1191.97
199.045	947.23
199.511	1529.05
199.978	1741.83
200.445	1485.15
200.911	1630.88
201.378	1771.8
201.844	1603.29
202.31	2686.58
202.777	2761.2
203.243	1489.39
203.709	1416.07
204.176	1697.81
204.642	1395.78
205.108	1306.28
205.574	1066.57
206.04	941.62
206.506	887.43
206.972	833.43
207.438	799.42
207.903	893.69
208.369	787.22
208.835	780.48
209.301	807.71
209.766	811.97
210.232	796.78
210.697	953.58
211.163	1166.41
211.628	1703.63
212.094	1407.72
212.559	1771.57
213.024	1093.31
213.49	1346.24
213.955	1285.94
214.42	1209.13
214.885	1115.99
215.35	1074.89
215.815	1077.8
216.28	1135.92
216.745	886.93
217.21	934.22
217.675	780.95
218.14	823.47
218.604	824.76
219.069	870.06
219.534	878.09
219.998	928.34
220.463	1035.27
220.927	1086.65
221.392	939.56
221.856	919.72
222.32	1025.53
222.785	1225.74
223.249	1472.16
223.713	1581.19
224.177	1541.94
224.642	1837.41
225.106	2156.39
225.57	2232.35
226.034	1685.8
226.497	2503.66
226.961	2244.01
227.425	2628.3
227.889	2815.72
228.353	2722.59
228.816	5455.88
229.28	5054.43
229.744	4169.56
230.207	2603.89
230.671	2546.93
231.134	3970.53
231.597	4586.49
232.061	4393.84
232.524	4084.57
232.987	2791.02
233.45	2544.39
233.914	2239.14
234.377	2222.69
234.84	2016.43
235.303	2297.75
235.766	2522.86
236.229	2604.35
236.691	1592.9
237.154	1772.92
237.617	1384.36
238.08	1372.03
238.542	1573.21
239.005	1131.97
239.468	1144.26
239.93	1067.17
240.393	968.69
240.855	853.82
241.317	854.68
241.78	1012.03
242.242	1062.21
242.704	1175.87
243.166	1047.69
243.629	981.09
244.091	1150.02
244.553	1239.69
245.015	1360.34
245.477	1737.21
245.939	2515.46
246.4	2693.13
246.862	2596.01
247.324	2422.29
247.786	2639.21
248.247	3413.92
248.709	3367.36
249.17	2489.62
249.632	2454.07
250.093	2907.12
250.555	2511.18
251.016	1562.06
251.477	1488.64
251.939	1639.37
252.4	1716.21
252.861	2010.02
253.322	1879.33
253.783	2209.79
254.244	2860.93
254.705	2195.61
255.166	1883.32
255.627	1872.6
256.088	2657.33
256.549	2832.06
257.009	2407.33
257.47	2920.39
257.931	2380.25
258.391	1800.69
258.852	1869.49
259.312	1945.69
259.773	2397.33
260.233	2098.02
260.694	1786.65
261.154	2004.77
261.614	1653.43
262.074	1477.65
262.534	1540.47
262.994	1466.15
263.455	1931.17
263.915	1633.93
264.374	1532.84
264.834	1655.06
265.294	1778.4
265.754	1843.88
266.214	1729.99
266.673	1597.21
267.133	1999.81
267.593	1945.37
268.052	2355.27
268.512	2034.59
268.971	2514.84
269.431	2752.16
269.89	2475.32
270.349	3712.74
270.809	4117.68
271.268	3719.14
271.727	8192.74
272.186	5341.58
272.645	4003.32
273.104	2858.23
273.563	4114.58
274.022	3136.2
274.481	2736.36
274.94	2105.26
275.399	1550.02
275.857	1780.8
276.316	2395.5
276.775	2141.63
277.233	2100.28
277.692	2034.8
278.15	2338.36
278.609	2467.99
279.067	2312.47
279.525	2177.17
279.984	2808.04
280.442	3445.25
280.9	3504.09
281.358	2317.71
281.816	2185.63
282.274	2161.76
282.732	2183.91
283.19	2190.56
283.648	1873.28
284.106	2018.23
284.564	2006.9
285.021	1903.01
285.479	1424.83
285.937	1266.83
286.394	1130.15
286.852	1158.9
287.309	1218.6
287.767	1234.4
288.224	1188.33
288.682	1312.78
289.139	1450.11
289.596	1348.17
290.053	1391.36
290.511	1732.82
290.968	2115.85
291.425	2823.31
291.882	2438.47
292.339	2150.9
292.796	2089.99
293.252	1959.93
293.709	1584.58
294.166	1418.44
294.623	1553.36
295.079	1477.64
295.536	1505.35
295.992	1379.27
296.449	1363.91
296.905	1407.2
297.362	1377.33
297.818	1429
298.274	1495.38
298.731	1509.98
299.187	1478.59
299.643	1577.34
300.099	1940.18
300.555	2113.22
301.011	1750.48
301.467	1769.52
301.923	2014.11
302.379	1951.66
302.835	1931.67
303.291	1929.53
303.746	2182.85
304.202	2773.96
304.658	2801.04
305.113	1864.77
305.569	1848.57
306.024	1962.84
306.479	1801.99
306.935	1547.22
307.39	1669.16
307.845	1557.34
308.301	1604.65
308.756	1577.83
309.211	1526.87
309.666	1569.35
310.121	2018.97
310.576	2034.36
311.031	2013.48
311.486	2260.55
311.94	2237.75
312.395	2999.07
312.85	5603.75
313.305	26707.69
313.759	142892.42
314.214	10364.63
314.668	8296.76
315.123	7049.46
315.577	2576.58
316.032	2343.55
316.486	2987.06
316.94	2441.24
317.394	1720.6
317.849	1347.01
318.303	1285.2
318.757	1219.99
319.211	1364.34
319.665	1195.43
320.119	1186.82
320.572	1683.15
321.026	1573.04
321.48	1308.9
321.934	1379.99
322.387	1384.6
322.841	1507.64
323.295	1395.08
323.748	1551.66
324.202	1573.11
324.655	1897.96
325.108	2716.56
325.562	1919.96
326.015	2268.8
326.468	1744.88
326.921	1975.43
327.374	1867.64
327.827	1996.13
328.28	2258.91
328.733	1541.72
329.186	1349.79
329.639	1294.2
330.092	1086.9
330.545	1059.02
330.997	1096.67
331.45	1231.81
331.903	1479.7
332.355	2486.86
332.808	2370.25
333.26	1914.07
333.713	2089.35
334.165	2122.83
334.617	2824.07
335.069	2223.26
335.522	3944.13
335.974	4326.52
336.426	3821.47
336.878	2559.53
337.33	1319.79
337.782	1292.21
338.234	1678.94
338.686	1998.95
339.137	2388.22
339.589	2250.43
340.041	1787.22
340.493	1527.78
340.944	1566.33
341.396	1718.51
341.847	1494.6
342.299	1795.32
342.75	2217.89
343.201	1902.58
343.653	2201.46
344.104	2668.13
344.555	2085.33
345.006	3220.72
345.457	2581.2
345.908	2016.83
346.359	1925.79
346.81	1555.32
347.261	1609.44
347.712	1561.03
348.163	1655.71
348.613	1726.37
349.064	1612.82
349.515	1416.32
349.965	1478.57
350.416	1740.6
350.866	1931.59
351.317	2080.47
351.767	3457.28
352.217	4365.12
352.668	3642.81
353.118	3402.23
353.568	3137.86
354.018	2559.85
354.468	2734.42
354.918	1980.49
355.368	1731.35
355.818	2446.56
356.268	7052.32
356.718	30057.19
357.168	7621.23
357.617	3784
358.067	4100.6
358.517	3860.03
358.966	4533.4
359.416	5174.6
359.865	5519.81
360.315	6517.09
360.764	3064.7
361.213	1783.78
361.663	1622.65
362.112	1980.04
362.561	3204.28
363.01	2446.44
363.459	2059.49
363.908	2192.21
364.357	1897.09
364.806	3121.95
365.255	2157.4
365.703	2042.96
366.152	2056.45
366.601	1705.36
367.05	1401.13
367.498	1308.82
367.947	1357.71
368.395	1423.55
368.844	1283.07
369.292	1485.06
369.74	1063.93
370.189	1618.03
370.637	1845.45
371.085	1560.44
371.533	1880.38
371.981	1767.71
372.429	1727.9
372.877	1814.33
373.325	1528.73
373.773	1527.69
374.221	1382.73
374.669	1663.12
375.116	1444.58
375.564	1474.23
376.012	1638.44
376.459	1378.14
376.907	1659.09
377.354	1946.63
377.801	1862.29
378.249	2145.74
378.696	2731.53
379.143	3300.92
379.591	3553.9
380.038	6144.54
380.485	4503.16
380.932	4952.39
381.379	4700.55
381.826	4218.41
382.273	3049.76
382.72	2657.05
383.166	2644.59
383.613	1763.78
384.06	1618.7
384.506	1929.54
384.953	1437.59
385.4	1463.23
385.846	1318.99
386.292	1292.48
386.739	1139.7
387.185	1169.52
387.631	1237.16
388.078	1300.78
388.524	1474.23
388.97	1441.22
389.416	1256.32
389.862	1395.22
390.308	1377.47
390.754	1462.52
391.2	1685.85
391.645	1864.03
392.091	1958.46
392.537	2055.93
392.983	2169.19
393.428	2265.82
393.874	2547.04
394.319	2772.68
394.765	2899.43
395.21	3306.69
395.655	3458.13
396.101	3600.65
396.546	3578.99
396.991	3957.98
397.436	4038.47
397.881	4293.12
398.326	4487.24
398.771	4678.42
399.216	4482.05
399.661	4368.83
400.106	4667.4
400.551	5090.31
400.995	4827.05
401.44	5022.64
401.885	4931.87
402.329	5183.12
402.774	5158.2
403.218	5155.04
403.663	5148.8
404.107	5470.56
404.551	5715.74
404.995	5458.07
405.44	5492.77
405.884	5814.39
406.328	5853.75
406.772	6044.42
407.216	5692.66
407.66	5712.06
408.104	5675.32
408.547	5538.42
408.991	5562.51
409.435	5533.27
409.879	5603.49
410.322	5664.3
410.766	5603.23
411.209	5472.89
411.653	5413.37
412.096	5459.17
412.54	5615.3
412.983	5710.67
413.426	5833.84
413.869	5956.95
414.312	5952.16
414.756	5856.5
415.199	5704.87
415.642	5637.65
416.085	5730.91
416.527	5780.5
416.97	5953.54
417.413	5708.29
417.856	5709.79
418.298	5699.86
418.741	5691.8
419.184	5709.03
419.626	5980.26
420.069	5995.69
420.511	6056.28
420.953	5967.22
421.396	5959.82
421.838	5869.75
422.28	6054.31
422.722	6133.01
423.164	6311.13
423.606	6290.39
424.048	6386.38
424.49	6136.32
424.932	6191.56
425.374	6183.1
425.816	6335.04
426.258	6435.25
426.699	6426.67
427.141	6198.9
427.582	6180.13
428.024	6065.1
428.465	6037.4
428.907	5949.82
429.348	5997.45
429.789	6090.1
430.231	6034.26
430.672	6191.2
431.113	6160.19
431.554	6260.75
431.995	6381.02
432.436	6408.06
432.877	6504.23
433.318	6550.46
433.759	6660.43
434.2	6755.39
434.64	6776.67
435.081	6888.66
435.522	6628.92
435.962	6511.42
436.403	6471.2
436.843	6669.92
437.284	6635.28
437.724	6542.55
438.164	6659.14
438.604	6569.76
439.045	6373.92
439.485	6175.65
439.925	6149.06
440.365	6100.9
440.805	6102.73
441.245	6091.56
441.685	5912.28
442.125	5913.59
442.564	5979.75
443.004	5850.35
443.444	5858.95
443.883	5896.33
444.323	5921.51
444.762	6002.44
445.202	6129.96
445.641	6261.26
446.081	6286.82
446.52	6381.65
446.959	6368.85
447.398	6268.67
447.837	6277.2
448.276	6245.05
448.716	6360.62
449.154	6446.75
449.593	6273.22
450.032	6238.94
450.471	6142.1
450.91	6143.28
451.349	6101.89
451.787	6064.83
452.226	6138.08
452.664	6107.92
453.103	6089.89
453.541	6076.37
453.98	6030.98
454.418	6081.51
454.856	5970.12
455.295	5947.29
455.733	5966.27
456.171	5989.12
456.609	5964.73
457.047	5947.25
457.485	5999.62
457.923	5988.23
458.361	5898.75
458.798	5925.4
459.236	5915.29
459.674	5985.06
460.111	6034.83
460.549	5994.62
460.987	6008.9
461.424	6026.33
461.862	6017.76
462.299	5957.46
462.736	5970.86
463.173	6011.2
463.611	5935.2
464.048	5927.79
464.485	5996.39
464.922	5981.02
465.359	6008.16
465.796	5890.82
466.233	5889.68
466.67	5868.67
467.106	5890.73
467.543	5893.22
467.98	5878.58
468.416	5820.71
468.853	5864.78
469.29	5767.46
469.726	5763.31
470.162	5663.84
470.599	5725.2
471.035	5744.15
471.471	5680.87
471.907	5730.88
472.344	5749.48
472.78	5795.21
473.216	5903.01
473.652	5842.44
474.088	5849.81
474.523	5844.76
474.959	5921.66
475.395	5882.14
475.831	5842.82
476.266	5877.19
476.702	5866.7
477.138	5805.6
477.573	5791.17
478.008	5766.2
478.444	5786.42
478.879	5815.17
479.314	5824.86
479.75	5798.73
480.185	5809.12
480.62	5838.63
481.055	5836.51
481.49	5826.68
481.925	5850.24
482.36	5845.24
482.795	5900.19
483.229	5933.1
483.664	5932.39
484.099	5852.62
484.534	5852.47
484.968	5828.19
485.403	5785.96
485.837	5730.27
486.271	5680.26
486.706	5671.12
487.14	5636.17
487.574	5577.95
488.009	5571.15
488.443	5553.69
488.877	5602.27
489.311	5613.49
489.745	5662.01
490.179	5690.92
490.613	5758.61
491.046	5792.03
491.48	5812.48
491.914	5796.13
492.348	5816.41
492.781	5826.64
493.215	5831.48
493.648	5854.24
494.082	5899.36
494.515	5890.29
494.948	5927.19
495.382	5953.15
495.815	5956.8
496.248	5962.07
496.681	6026.2
497.114	6077.41
497.547	6105.58
497.98	6137.61
498.413	6105.36
498.846	6106.49
499.279	6119.09
499.711	6113.95
500.144	6090.55
500.577	6109.92
501.009	6139.93
501.442	6151.94
501.874	6115.78
502.306	6110.36
502.739	6135.71
503.171	6240.55
503.603	6251.39
504.036	6294.31
504.468	6292.9
504.9	6331.84
505.332	6349.13
505.764	6348.1
506.196	6372.21
506.627	6434.83
507.059	6475.2
507.491	6504.2
507.923	6434
508.354	6483.77
508.786	6510.96
509.217	6587.42
509.649	6633.35
510.08	6703.61
510.512	6739.84
510.943	6762.46
511.374	6757.39
511.805	6813.74
512.237	6863.93
512.668	6992.63
513.099	7064.79
513.53	7098.79
513.961	7076.94
514.391	7125.74
514.822	7173.96
515.253	7254.03
515.684	7284.45
516.114	7356.29
516.545	7390.08
516.975	7459.42
517.406	7490.89
517.836	7468.58
518.267	7500.8
518.697	7608.23
519.127	7648.92
519.558	7701.94
519.988	7723.94
520.418	7785.09
520.848	7877.43
521.278	7917.44
521.708	7809.83
522.138	7855.6
522.567	7989.11
522.997	8067.73
523.427	8075.73
523.857	8075.51
524.286	8055.08
524.716	8075.46
525.145	8119.08
525.575	8129.04
526.004	8166.94
526.433	8263.82
526.863	8230.74
527.292	8150.27
527.721	8175.51
528.15	8229.36
528.579	8266.74
529.008	8333.56
529.437	8439.09
529.866	8475.89
530.295	8517.76
530.724	8521.13
531.152	8603.67
531.581	8626.36
532.01	8677.81
532.438	8684.93
532.867	8721.07
533.295	8768.15
533.723	8766.53
534.152	8731.08
534.58	8718.27
535.008	8636.7
535.436	8629.89
535.865	8652.41
536.293	8701.44
536.721	8735.71
537.149	8797.76
537.576	8746.29
538.004	8757.24
538.432	8765.1
538.86	8738.8
539.287	8755.96
539.715	8800.14
540.143	8809.11
540.57	8786.56
540.998	8775.56
541.425	8686.02
541.852	8625.58
542.28	8661.9
542.707	8625.71
543.134	8591.87
543.561	8603.04
543.988	8591.66
544.415	8609.89
544.842	8602.11
545.269	8585.59
545.696	8606.45
546.123	8687.83
546.549	8656.73
546.976	8610.18
547.403	8625.31
547.829	8651.52
548.256	8676.75
548.682	8679.95
549.108	8661.44
549.535	8680.84
549.961	8707.79
550.387	8660.54
550.813	8640.94
551.24	8684.04
551.666	8706.93
552.092	8675.68
552.518	8659.43
552.943	8634.3
553.369	8669.12
553.795	8689.72
554.221	8685.65
554.646	8663.8
555.072	8696.21
555.498	8708.32
555.923	8719.96
556.349	8752.96
556.774	8756.18
557.199	8732.4
557.625	8744.96
558.05	8703.23
558.475	8747.47
558.9	8730.77
559.325	8681.65
559.75	8651.03
560.175	8622.43
560.6	8603.71
561.025	8605.43
561.449	8616.83
561.874	8642.83
562.299	8644.98
562.723	8659.77
563.148	8590.82
563.572	8595.5
563.997	8627.48
564.421	8645.95
564.846	8631.18
565.27	8623.62
565.694	8585.17
566.118	8615.25
566.542	8619.41
566.966	8571.67
567.39	8529.91
567.814	8461.26
568.238	8438.21
568.662	8452.24
569.086	8455.52
569.509	8497.72
569.933	8437.39
570.357	8431.45
570.78	8362.81
571.204	8330.01
571.627	8314.54
572.05	8338.88
572.474	8370.26
572.897	8349.92
573.32	8340.16
573.743	8322.15
574.166	8249.67
574.589	8273.58
575.012	8247.36
575.435	8252.86
575.858	8223.48
576.281	8188.67
576.704	8141.45
577.126	8118.14
577.549	8098.58
577.972	8087.43
578.394	8064.37
578.817	8055.42
579.239	8000.42
579.661	7973.21
580.084	7931.96
580.506	7908.11
580.928	7927.65
581.35	7904.82
581.772	7910.56
582.194	7858.49
582.616	7803.84
583.038	7742.19
583.46	7700.84
583.882	7681.58
584.303	7703.61
584.725	7675.72
585.147	7632.83
585.568	7628.05
585.99	7608.38
586.411	7544.3
586.833	7534.27
587.254	7476.86
587.675	7492.59
588.096	7503.82
588.518	7433.44
588.939	7309.4
589.36	7264.69
589.781	7229.42
590.202	7097.55
590.623	7091.8
591.043	7131.91
591.464	7105.9
591.885	7102.58
592.305	7082.82
592.726	7026.05
593.147	7038.98
593.567	7019.21
593.987	6985.47
594.408	6959.74
594.828	6959.32
595.248	6923.63
595.669	6828.54
596.089	6798.92
596.509	6780.19
596.929	6720.6
597.349	6720.27
597.769	6665.76
598.189	6625.28
598.608	6618.9
599.028	6612.38
599.448	6602.78
599.867	6538.86
600.287	6519.69
600.706	6498.21
601.126	6449.26
601.545	6442
601.965	6438.43
602.384	6416.71
602.803	6434.63
603.222	6411.3
603.641	6387.32
604.061	6368.56
604.48	6351.39
604.898	6382.08
605.317	6397.25
605.736	6394.16
606.155	6365.32
606.574	6308.06
606.992	6317.17
607.411	6276.87
607.829	6233.67
608.248	6205.83
608.666	6186.39
609.085	6170.08
609.503	6121.92
609.921	6080.05
610.339	6079.54
610.758	6066.45
611.176	6034.09
611.594	5984.83
612.012	5966.73
612.43	5969.53
612.847	5986.13
613.265	5970.02
613.683	5973.43
614.101	5965.63
614.518	5943.53
614.936	5898
615.353	5835.67
615.771	5826.93
616.188	5832.1
616.606	5820.3
617.023	5798.2
617.44	5751.21
617.857	5745.41
618.274	5726.2
618.691	5707.94
619.108	5673.93
619.525	5647.01
619.942	5671.32
620.359	5673.23
620.776	5640.2
621.192	5604.7
621.609	5572.78
622.026	5573.37
622.442	5568.95
622.859	5559.01
623.275	5508.84
623.691	5514.52
624.108	5545.01
624.524	5584.69
624.94	5558.79
625.356	5576.15
625.772	5613.7
626.188	5648.93
626.604	5637.11
627.02	5603.34
627.436	5575.19
627.852	5583.16
628.268	5613.83
628.683	5557.99
629.099	5512.17
629.514	5494.34
629.93	5509.38
630.345	5525.5
630.761	5511.01
631.176	5529.66
631.591	5503.35
632.007	5484.43
632.422	5488.93
632.837	5451.07
633.252	5445.89
633.667	5414.36
634.082	5384.91
634.497	5339.78
634.911	5266.05
635.326	5267.07
635.741	5210.67
636.155	5192.53
636.57	5209.41
636.984	5218.19
637.399	5230.35
637.813	5248.87
638.228	5257.71
638.642	5292.25
639.056	5264.63
639.47	5284.13
639.884	5261.15
640.298	5250.34
640.712	5260.97
641.126	5229.41
641.54	5216.11
641.954	5230.08
642.368	5198.57
642.781	5175.27
643.195	5112.94
643.609	5128.33
644.022	5113.96
644.436	5102.97
644.849	5055.08
645.262	5007.45
645.676	5021.48
646.089	4995.82
646.502	4915.55
646.915	4890.87
647.328	4829.76
647.741	4833.09
648.154	4789.01
648.567	4778.05
648.98	4727.52
649.393	4746.67
649.805	4746.34
650.218	4729.23
650.631	4677.45
651.043	4671.3
651.456	4659.93
651.868	4670.69
652.28	4748.41
652.693	4789.02
653.105	4784.23
653.517	4779.54
653.929	4733.48
654.341	4721.03
654.753	4641.96
655.165	4662.01
655.577	4649.95
655.989	4635.04
656.401	4621.04
656.813	4478.38
657.224	4440.05
657.636	4387.84
658.047	4384.62
658.459	4373.04
658.87	4407.36
659.282	4409.88
659.693	4350.92
660.104	4319.09
660.515	4290.36
660.926	4309.29
661.338	4329.94
661.749	4327.83
662.159	4299.81
662.57	4309.04
662.981	4305.56
663.392	4283.62
663.803	4322.95
664.213	4330.97
664.624	4326.45
665.035	4357.69
665.445	4304.83
665.855	4276.23
666.266	4239.67
666.676	4239.02
667.086	4199.48
667.497	4197.66
667.907	4166.89
668.317	4115.96
668.727	4077.91
669.137	4080.89
669.547	4061.4
669.956	4070.29
670.366	4072.63
670.776	4070.8
671.186	4083.4
671.595	4086.01
672.005	4095.21
672.414	4073.38
672.824	4050.58
673.233	4079.9
673.642	4076.29
674.052	4072.46
674.461	4059.33
674.87	4070.17
675.279	4037.23
675.688	4033.54
676.097	4013.7
676.506	3978.33
676.915	4037.74
677.323	4030.91
677.732	4000.07
678.141	3977.02
678.549	3910.1
678.958	3889.39
679.366	3864.99
679.775	3872.87
680.183	3884.62
680.592	3891.74
681	3889.09
681.408	3822.32
681.816	3827.93
682.224	3833.48
682.632	3832.29
683.04	3917.22
683.448	3957.22
683.856	3988.41
684.264	4011.68
684.671	4019.67
685.079	4049.73
685.487	4089.59
685.894	4191.76
686.302	4239.13
686.709	4240.61
687.116	4268.2
687.524	4260.12
687.931	4252.52
688.338	4261.1
688.745	4277.51
689.152	4305.76
689.559	4351.8
689.966	4381.48
690.373	4335.93
690.78	4339.07
691.187	4402.66
691.593	4409.1
692	4400.95
692.407	4442.09
692.813	4507.97
693.22	4539.67
693.626	4587.83
694.032	4607.49
694.439	4695.13
694.845	4747.45
695.251	4835.08
695.657	4901.71
696.063	5041.75
696.469	5116.47
696.875	5174.49
697.281	5167.64
697.687	5170.93
698.093	5145.66
698.498	5192.9
698.904	5202.95
699.31	5269.82
699.715	5293.89
700.12	5380.81
700.526	5343.26
700.931	5411.41
701.337	5452.2
701.742	5468.12
702.147	5581.19
702.552	5598.92
702.957	5671.97
703.362	5678.84
703.767	5705.39
704.172	5750.52
704.577	5645.28
704.981	5700.85
705.386	5696.8
705.791	5653.89
706.195	5748.32
706.6	5730.99
707.004	5837.85
707.408	5761.97
707.813	5779.23
708.217	5733.43
708.621	5711.6
709.025	5841.32
709.43	5809.68
709.834	5877.04
710.237	5958.16
710.641	5906.53
711.045	5911.63
711.449	5868.44
711.853	5870.66
712.256	5898.96
712.66	5914.19
713.064	5975.87
713.467	5965.87
713.87	6033.14
714.274	5971.66
714.677	5979.57
715.08	6031.01
715.484	6071.92
715.887	6133.4
716.29	6181.99
716.693	6218.9
717.096	6283.8
717.499	6237.25
717.901	6125.02
718.304	6094.25
718.707	6127.37
719.109	6066.74
719.512	6110.76
719.915	6036.88
720.317	6050.3
720.719	6157.03
721.122	6173.11
721.524	6157.62
721.926	6133.09
722.328	6249.17
722.731	6198.84
723.133	6166.79
723.535	6310.88
723.937	6251.63
724.338	6235.6
724.74	6223.68
725.142	6109.71
725.544	6093.94
725.945	6110.36
726.347	6100.05
726.748	6086.57
727.15	6102.13
727.551	6058.14
727.952	6020.41
728.354	5988.61
728.755	6002.16
729.156	5980.58
729.557	6020.85
729.958	5932.29
730.359	5934.06
730.76	5985.67
731.161	5994.54
731.562	6044.91
731.962	6126.57
732.363	6119.83
732.763	6106.3
733.164	6202.7
733.564	6160.88
733.965	6073.14
734.365	6052.35
734.766	6101.9
735.166	6058.62
735.566	5986.12
735.966	5941.69
736.366	5925.74
736.766	5849.96
737.166	5893.28
737.566	5846.89
737.966	5820.29
738.365	5867.72
738.765	5861.07
739.165	5766.82
739.564	5733.12
739.964	5795.63
740.363	5750.84
740.763	5756.81
741.162	5748.77
741.561	5711.18
741.96	5658.24
742.36	5689.12
742.759	5703.05
743.158	5756.85
743.557	5778.35
743.955	5830.22
744.354	5772.66
744.753	5837.17
745.152	5779.87
745.55	5844.83
745.949	5826.74
746.348	5818.32
746.746	5823.84
747.144	5758.75
747.543	5714.63
747.941	5757.16
748.339	5653.85
748.737	5627.04
749.136	5599.09
749.534	5661.92
749.932	5607.71
750.33	5621.96
750.727	5679.31
751.125	5643.8
751.523	5616.05
751.921	5656.74
752.318	5607.05
752.716	5666.85
753.113	5670.37
753.511	5690.36
753.908	5679.25
754.305	5643.92
754.703	5702.89
755.1	5754.4
755.497	5799
755.894	5976.9
756.291	6086.39
756.688	6268.51
757.085	6445.22
757.482	6673.35
757.878	6828.69
758.275	6854.63
758.672	7031.57
759.068	7037.89
759.465	7173.41
759.861	7375.4
760.258	7586.95
760.654	7429.34
761.05	7040.08
761.447	6669.8
761.843	6371.15
762.239	6146.78
762.635	6200.19
763.031	6232.4
763.427	6127.99
763.822	6003.14
764.218	5903.79
764.614	5669.67
765.01	5589.55
765.405	5615.86
765.801	5676
766.196	5634.21
766.592	5684.31
766.987	5582.13
767.382	5533.26
767.778	5579.57
768.173	5557.61
768.568	5564.3
768.963	5497.25
769.358	5559.25
769.753	5544.03
770.148	5479.6
770.542	5495.48
770.937	5474.97
771.332	5576.83
771.726	5600.8
772.121	5525.91
772.515	5575.64
772.91	5556.17
773.304	5625.81
773.699	5552.67
774.093	5598.87
774.487	5644.99
774.881	5676.09
775.275	5654.8
775.669	5596.84
776.063	5628.06
776.457	5654.45
776.851	5565.04
777.245	5540.64
777.638	5556.89
778.032	5654.93
778.425	5601.51
778.819	5628.43
779.212	5568.71
779.606	5515.93
779.999	5519.24
780.392	5483.87
780.786	5544.43
781.179	5542.39
781.572	5564.54
781.965	5555.23
782.358	5475.47
782.751	5506.31
783.143	5433.82
783.536	5481.22
783.929	5490.84
784.322	5570.81
784.714	5568.19
785.107	5532.91
785.499	5569.57
785.891	5509.53
786.284	5452.91
786.676	5535.18
787.068	5471.45
787.46	5474.57
787.852	5446.88
788.245	5479.42
788.636	5460.9
789.028	5477.92
789.42	5470.57
789.812	5437.94
790.204	5485.91
790.595	5535.49
790.987	5347.63
791.378	5345.38
791.77	5430.29
792.161	5522.47
792.553	5545.6
792.944	5424.41
793.335	5340.82
793.726	5373.2
794.117	5423.41
794.508	5511.38
794.899	5466.31
795.29	5553.74
795.681	5574.02
796.072	5431.91
796.463	5258.45
796.853	5235.57
797.244	5332.18
797.634	5330.08
798.025	5300.96
798.415	5274.34
798.806	5305.7
799.196	5326.47
799.586	5325.3
799.976	5252.03
800.366	5381.32
800.756	5511.47
801.146	5441.63
801.536	5423.16
801.926	5442
802.316	5424.46
802.706	5444.24
803.095	5329.81
803.485	5380.87
803.874	5383.96
804.264	5539.03
804.653	5494.26
805.043	5564.56
805.432	5609.42
805.821	5581.45
806.21	5553.96
806.599	5588.48
806.988	5566.8
807.377	5579.96
807.766	5596.14
808.155	5714.6
808.544	5475.5
808.933	5411.3
809.321	5319.86
809.71	5413.18
810.098	5403.99
810.487	5568.3
810.875	5727.91
811.264	5612.22
811.652	5635.49
812.04	5573.63
812.428	5503.64
812.816	5724.89
813.204	5753.88
813.592	5832.32
813.98	5819.14
814.368	5629.51
814.756	5703.38
815.144	5542.66
815.531	5632.01
815.919	5506.98
816.306	5549.71
816.694	5362.15
817.081	5352.04
817.469	5482.99
817.856	5500.07
818.243	5635.56
818.63	5808.24
819.017	5648.55
819.404	5651.98
819.791	5739.22
820.178	5892.55
820.565	5916.18
820.952	6223.88
821.339	5993.73
821.725	6021.54
822.112	5692.02
822.498	5615.42
822.885	5609.47
823.271	5536.24
823.657	5684.81
824.044	5725.12
824.43	5793.65
824.816	5801.48
825.202	5624.91
825.588	5956.89
825.974	5901.54
826.36	6020.8
826.746	5965.08
827.132	6027.49
827.517	5956.71
827.903	5620.14
828.289	5569.62
828.674	5252.56
829.06	5173.58
829.445	5263.46
829.83	5346.95
830.216	5473.02
830.601	5560.88
830.986	5403.69
831.371	5334.54
831.756	5488.76
832.141	5340.03
832.526	5323.58
832.911	5404.54
833.295	5359.97
833.68	5506.2
834.065	5307.17
834.449	5019.87
834.834	4999.3
835.218	4996.64
835.603	5099.09
835.987	5022.99
836.371	5267.23
836.755	5224.83
837.139	5341.21
837.524	5404.56
837.908	5333.07
838.291	5336.65
838.675	5328.83
839.059	5371.71
839.443	5342.1
839.827	5251.95
840.21	5373.35
840.594	5312.49
840.977	5348.12
841.361	5310.69
841.744	5395.68
842.127	5329.95
842.511	5379
842.894	5536.08
843.277	5627.47
843.66	5765.34
844.043	5769.33
844.426	5515.76
844.809	5395.71
845.191	5382.05
845.574	5232.08
845.957	5097.37
846.339	5030.12
846.722	4840.64
847.104	4810.45
847.487	4712.01
847.869	4672.02
848.252	4702.94
848.634	4751.44
849.016	4779.68
849.398	4767.11
849.78	4947.77
850.162	4912.32
850.544	4974.65
850.926	5083.07
851.307	5010.64
851.689	5027.45
852.071	5076.83
852.452	5104.8
852.834	5053
853.215	5112.32
853.597	5115.8
853.978	5157.06
854.359	5238.33
854.741	4989.08
855.122	4965.57
855.503	4911.72
855.884	4960.56
856.265	4967.21
856.646	4993.53
857.026	4903.6
857.407	4881.96
857.788	4909.32
858.169	4952.98
858.549	4740.53
858.93	4869.28
859.31	4859.17
859.69	4886.93
860.071	4771.82
860.451	4699.59
860.831	4510.84
861.211	4743.59
861.591	4833.21
861.971	4792.61
862.351	4804.65
862.731	4839.88
863.111	4845.21
863.491	4863.04
863.87	4984.02
864.25	4991.43
864.629	4853.39
865.009	4910.34
865.388	5033.58
865.768	5346.29
866.147	5285.8
866.526	4957.88
866.905	5000.12
867.284	5261.13
867.663	4996.99
868.042	4798.01
868.421	4791.05
868.8	4858.53
869.179	4901.5
869.558	4610.89
869.936	4251.26
870.315	4318.62
870.693	4424.22
871.072	4750.16
871.45	4512.53
871.828	4550.9
872.207	4764.01
872.585	4666.69
872.963	4777.08
873.341	4601.41
873.719	4534.62
874.097	4460.86
874.475	4526.94
874.853	4603.77
875.23	4400.97
875.608	4573.46
875.986	4934.98
876.363	4705.24
876.741	4851.58
877.118	4723.12
877.495	4932.76
877.873	4988.27
878.25	5220.08
878.627	4983.78
879.004	5033.01
879.381	4987.92
879.758	4845.99
880.135	4494.57
880.512	4730.56
880.889	4565.14
881.265	4489.32
881.642	4428.21
882.019	4497.6
882.395	4399.78
882.772	4563.51
883.148	4345.8
883.524	4310.6
883.901	4263.15
884.277	4295.53
884.653	4243.56
885.029	4356.02
885.405	4812.67
885.781	4756.28
886.157	4530.46
886.532	4559.66
886.908	4532.66
887.284	5015.86
887.659	5162.32
888.035	5301.54
888.411	5422.17
888.786	5480.46
889.161	5641.67
889.537	5496.27
889.912	5638.55
890.287	5601.99
890.662	5698.95
891.037	5546.53
891.412	5123.88
891.787	5010.08
892.162	4775.14
892.536	4821.57
892.911	4573.04
893.286	4394.55
893.66	4150.13
894.035	4177.84
894.409	4449.61
894.784	4192.94
895.158	4180.22
895.532	4337.64
895.906	4367.5
896.281	4372.54
896.655	4219.84
897.029	4723.62
897.402	4840.93
897.776	5293.71
898.15	5192.56
898.524	5076.33
898.898	5080.72
899.271	5638.58
899.645	4856.05
900.018	4629.83
900.392	4800.79
900.765	4848.48
901.138	4510.88
901.511	4469.13
901.884	4157.87
902.258	3887.08
902.631	4072.08
903.003	4734.64
903.376	4311.36
903.749	4874.18
904.122	5252.9
904.495	5798.12
904.867	5854.71
905.24	5063.35
905.612	4678.13
905.985	4712.13
906.357	4862.53
906.729	4561.16
907.102	3838.78
907.474	3642.34
907.846	3611.72
908.218	3518.53
908.59	3085.87
908.962	2961.37
909.334	3162.44
909.705	3314.27
910.077	3207.77
910.449	3313.89
910.82	3401.25
911.192	3721.08
911.563	3839.48
911.935	4077.62
912.306	4075.88
912.677	4181.66
913.048	4131.39
913.419	4458.4
913.79	4445.55
914.161	4728.16
914.532	4525.2
914.903	4130.9
915.274	3915.29
915.645	3855.17
916.015	3400.24
916.386	3243.57
916.756	3456.44
917.127	3577.91
917.497	3228.02
917.868	3547.87
918.238	3407.3
918.608	3517.53
918.978	3623.39
919.348	3871.39
919.718	4040.15
920.088	3936.37
920.458	4135.35
920.828	4366.27
921.198	4153.47
921.567	4425.34
921.937	3421.2
922.306	3446.95
922.676	3706.76
923.045	3109.1
923.415	2953.35
923.784	2676.95
924.153	2740.66
924.522	2731.3
924.891	2561.48
925.26	2721.75
925.629	2635.09
925.998	2998.49
926.367	2901.69
926.736	2747.61
927.104	3187.39
927.473	3340.11
927.842	3931.66
928.21	3766.43
928.578	3803.28
928.947	3485.62
929.315	3410.58
929.683	3893.17
930.051	3784.71
930.42	4199.39
930.788	3445.87
931.156	3295.16
931.523	3032.01
931.891	2720.19
932.259	2532.3
932.627	2844.83
932.994	3896.79
933.362	3132.8
933.729	2619.27
934.097	2440.53
934.464	2049.42
934.831	2296.62
935.199	2255.1
935.566	2146.59
935.933	2140.76
936.3	2608.61
936.667	2049.89
937.034	1962.29
937.401	1945.87
937.767	1734.06
938.134	1597.94
938.501	2309.03
938.867	2556.86
939.234	4396.27
939.6	3832.45
939.967	4403.84
940.333	3037.75
940.699	2642.03
941.065	2050.07
941.431	2735.75
941.798	2677.94
942.163	3544.51
942.529	2205.94
942.895	2000.69
943.261	1323.59
943.627	1737.91
943.992	1502.69
944.358	1495.92
944.723	1517.55
945.089	1466.92
945.454	1351.88
945.82	1422.58
946.185	1349.14
946.55	1565.61
946.915	1423.85
947.28	1643.55
947.645	1443.22
948.01	1371.86
948.375	1436.97
948.74	1691.15
949.104	1986.84
949.469	2823.34
949.834	5048.22
950.198	4934.64
950.562	2973.37
950.927	2499.17
951.291	2986.92
951.655	2522.53
952.02	2304.42
952.384	1763.02
952.748	1582.09
953.112	1578.7
953.476	1386.58
953.839	1258.61
954.203	1237.47
954.567	1538.73
954.931	2360.81
955.294	2065.6
955.658	2105.61
956.021	3610.95
956.385	5991.89
956.748	8696.62
957.111	13150.54
957.474	14660.98
957.837	16530.04
958.2	12274.91
958.563	4377.14
958.926	3005.77
959.289	4474.32
959.652	5040.72
960.015	3818.15
960.377	5495.57
960.74	6278.25
961.102	10839
961.465	11926.25
961.827	6924.55
962.189	13500.75
962.552	9539.85
962.914	7701.42
963.276	5060.16
963.638	4173.85
964	4091.95
964.362	2856.62
964.724	2775.61
965.085	2012.37
965.447	1663.44
965.809	1810.17
966.17	1792.7
966.532	1934.17
966.893	1784.29
967.255	1629.09
967.616	1935.19
967.977	1589.78
968.338	1722.56
968.699	1451.5
969.061	1469.51
969.421	1493.88
969.782	1685.38
970.143	1473.68
970.504	1599.78
970.865	1854.63
971.225	1947.37
971.586	1921.47
971.946	2710.92
972.307	2362.78
972.667	3027.43
973.027	3116.44
973.388	3761.56
973.748	2564.9
974.108	2788.83
974.468	3632.55
974.828	2843.79
975.188	2132.56
975.548	1946.49
975.907	1656.02
976.267	1848.39
976.627	1590.46
976.986	1654.58
977.346	1579.06
977.705	1534.77
978.064	1384.74
978.424	1175.3
978.783	1199.43
979.142	1392.53
979.501	1358.57
979.86	1446.28
980.219	1398.11
980.578	1774.22
980.937	1970.22
981.296	1775.85
981.654	1827.74
982.013	2854.4
982.371	3717.38
982.73	3481.76
983.088	3980.46
983.447	4267.95
983.805	6140.89
984.163	12918.33
984.521	14461.1
984.879	21256.32
985.237	-34904.16
985.595	34195.67
985.953	8423.85
986.311	4832.53
986.669	2808.19
987.026	2406.7
987.384	3203.18
987.741	3297.16
988.099	2428.58
988.456	1993.8
988.814	1925.83
989.171	1670.81
989.528	1619.11
989.885	1733.48
990.242	1404.19
990.599	1745.42
990.956	1443.29
991.313	1013.02
991.67	842.3
992.027	932.89
992.383	818.89
992.74	721.85
993.096	761.32
993.453	787.89
993.809	813.57
994.165	1074.74
994.522	1053.24
994.878	1164.15
995.234	1483.38
995.59	1480.56
995.946	1332.72
996.302	1559.35
996.658	1768.96
997.013	1946.82
997.369	2373.34
997.725	3093.1
998.08	2013.47
998.436	2880.46
998.791	4025.56
999.147	4017.12
999.502	4338.05
999.857	3130.93
1000.212	5013.32
1000.567	7161.98
1000.922	4163.67
1001.277	2665.47
1001.632	1993
1001.987	2565.37
1002.342	1888.47
1002.696	1516.55
1003.051	1244.15
1003.406	1520.62
1003.76	1514.49
1004.114	1511.26
1004.469	1279.48
1004.823	1068.57
1005.177	1130.51
1005.531	897.31
1005.885	835.36
1006.239	934.71
1006.593	1170.24
1006.947	1543.95
1007.301	1147.9
1007.655	1259
1008.008	936.6
1008.362	1063.16
1008.715	1502.46
1009.069	1344
1009.422	2120.02
1009.776	4095.02
1010.129	2736.93
1010.482	2288.55
1010.835	1888.28
1011.188	3922.91
1011.541	3738.47
1011.894	-22495.01
1012.247	67286.56
1012.6	4604.98
1012.952	3013.46
1013.305	1484.85
1013.657	1072.6
1014.01	1032.02
1014.362	843.01
1014.715	819.6
1015.067	752.58
1015.419	738.65
1015.771	661.34
1016.123	603.5
1016.475	632.63
1016.827	676.59
1017.179	751.39
1017.531	754.36
1017.883	765.16
1018.234	801.47
1018.586	992.59
1018.938	1080.17
1019.289	1507.04
1019.64	1702.3
1019.992	1563.84
1020.343	1438.62
1020.694	1184.68
1021.045	1045.67
1021.396	1219.42
1021.747	1354.62
1022.098	1580.17
1022.449	1136.64
1022.8	1025.88
1023.151	727.26
1023.501	670.75
1023.852	736.38
1024.202	770.72
1024.553	821.96
1024.903	857.84
1025.253	774.78
1025.604	716.87
1025.954	861.6
1026.304	1062.04
1026.654	1241.08
1027.004	1817.23
1027.354	2879.25
1027.703	2807.6
1028.053	3573.86
1028.403	5459.73
1028.753	7228.12
1029.102	8969.62
1029.452	42103.21
1029.801	1789.31
1030.15	1132.25
1030.499	915.91
897.758	2205.16
901.051	2138.46
904.343	2172.95
907.636	2180.02
910.928	2240.73
914.22	2161.4
917.511	2166.02
920.803	2215.98
924.094	2214.37
927.384	2215.96
930.675	2179.79
933.965	2142.65
937.255	2172.16
940.544	2139.24
943.834	2138.97
947.123	2078.96
950.411	2169.47
953.7	2149.78
956.988	2133.09
960.276	2068.81
963.563	2118.74
966.851	2129.05
970.138	2170.92
973.424	2172.82
976.711	2125.58
979.997	2174.66
983.283	2218.22
986.568	2145.69
989.853	2138.12
993.138	2165.4
996.423	2252.95
999.708	2208.72
1002.992	2240.02
1006.275	2156.83
1009.559	2161.18
1012.842	2262.52
1016.125	2212.89
1019.408	2195.3
1022.69	2251.37
1025.972	2286.41
1029.254	2260.04
1032.536	2220.52
1035.817	2234.66
1039.098	2201.97
1042.379	2255.39
1045.659	2281.84
1048.939	2230.69
1052.219	2239.28
1055.498	2232.75
1058.778	2230.24
1062.057	2205.39
1065.335	2230.67
1068.614	2240.03
1071.892	2234.52
1075.17	2293.09
1078.447	2290.75
1081.724	2288.1
1085.001	2312.7
1088.278	2295.29
1091.554	2300.77
1094.83	2297.76
1098.106	2333.63
1101.382	2363.97
1104.657	2364.71
1107.932	2365.2
1111.206	2340.38
1114.481	2296.42
1117.755	2296.04
1121.029	2289.51
1124.302	2347.03
1127.575	2313.63
1130.848	2308.11
1134.121	2277.89
1137.393	2240.87
1140.665	2299.24
1143.937	2276.01
1147.208	2223.57
1150.48	2281.06
1153.75	2270.42
1157.021	2273.91
1160.291	2249.51
1163.561	2306.19
1166.831	2274.04
1170.101	2300.81
1173.37	2259.21
1176.639	2218.66
1179.907	2263.54
1183.176	2289.1
1186.444	2289.75
1189.711	2314.29
1192.979	2335.86
1196.246	2294.74
1199.513	2302.11
1202.78	2307.86
1206.046	2316.84
1209.312	2346.24
1212.578	2363.06
1215.843	2330.75
1219.108	2297.25
1222.373	2321.3
1225.638	2293.67
1228.902	2286.28
1232.166	2238.17
1235.43	2228.74
1238.693	2254.1
1241.956	2247.34
1245.219	2293.94
1248.482	2275.86
1251.744	2273.32
1255.006	2398.32
1258.268	2344.91
1261.529	2301.12
1264.79	2302.04
1268.051	2401.53
1271.312	2411.38
1274.572	2381.11
1277.832	2369.05
1281.092	2351.35
1284.351	2343.28
1287.61	2326.45
1290.869	2260.06
1294.128	2256.82
1297.386	2307.63
1300.644	2300.45
1303.902	2310.5
1307.159	2177.87
1310.416	2230.68
1313.673	2259.25
1316.93	2253.61
1320.186	2285.45
1323.442	2319.36
1326.697	2320.33
1329.953	2294.52
1333.208	2329.79
1336.463	2301.82
1339.717	2263.26
1342.972	2369.76
1346.226	2340.2
1349.479	2288.04
1352.733	2271.32
1355.986	2275.87
1359.238	2257.11
1362.491	2263.26
1365.743	2262.71
1368.995	2255.46
1372.247	2268.3
1375.498	2287.48
1378.749	2329.88
1382	2279.95
1385.251	2316.92
1388.501	2268.34
1391.751	2269.5
1395	2236.84
1398.25	2261.51
1401.499	2284.27
1404.748	2231.56
1407.996	2209.39
1411.244	2198.96
1414.492	2183.07
1417.74	2171.2
1420.987	2174.28
1424.234	2234.41
1427.481	2197.76
1430.728	2253.91
1433.974	2229.34
1437.22	2227.54
1440.465	2225.2
1443.711	2225.61
1446.956	2248.85
1450.201	2222.89
1453.445	2259.76
1456.689	2251.58
1459.933	2261.82
1463.177	2303.17
1466.42	2274.41
1469.663	2257.89
1472.906	2273.26
1476.148	2323.05
1479.391	2296.1
1482.633	2271.51
1485.874	2295.85
1489.115	2304.92
1492.356	2288.56
1495.597	2268.67
1498.838	2262.57
1502.078	2248.41
1505.318	2218.61
1508.557	2254.61
1511.797	2249.15
1515.036	2295.34
1518.274	2268.44
1521.513	2220.48
1524.751	2233.6
1527.989	2257.53
1531.227	2275.51
1534.464	2286.88
1537.701	2283.42
1540.938	2296.33
1544.174	2242.93
1547.41	2233.73
1550.646	2271.82
1553.882	2323.22
1557.117	2380.46
1560.352	2387.66
1563.587	2349.58
1566.821	2316.14
1570.055	2334.01
1573.289	2313.61
1576.523	2372.07
1579.756	2388.58
1582.989	2410.75
1586.222	2371.29
1589.454	2398.27
1592.686	2382.71
1595.918	2411.14
1599.15	2410.72
1602.381	2456.22
1605.612	2434.31
1608.843	2529.5
1612.073	2452.57
1615.303	2439.25
1618.533	2438.08
1621.762	2435.43
1624.992	2410.06
1628.221	2413.46
1631.449	2400.96
1634.678	2429.01
1637.906	2396.53
1641.134	2425.54
1644.361	2390.07
1647.588	2380.34
1650.815	2401.92
1654.042	2363.84
1657.269	2393.67
1660.495	2373.57
1663.72	2358.66
1666.946	2328.14
1670.171	2297.18
1673.396	2272.37
1676.621	2255.89
1679.845	2251.45
1683.069	2258.29
1686.293	2289.66
1689.517	2281.24
1692.74	2229.49
1695.963	2250.81
1699.185	2291.57
1702.408	2263.35
1705.63	2293.37
1708.852	2310.96
1712.073	2281.7
1715.294	2292.83
1718.515	2335.57
1721.736	2293.66
1724.956	2270.38
1728.176	2294.03
1731.396	2317.37
1734.616	2302.29
1737.835	2339.06
1741.054	2309.52
1744.272	2300.64
1747.491	2339.05
1750.709	2364.64
1753.927	2311.56
1757.144	2338.07
1760.361	2396.66
1763.578	2372.67
1766.795	2320.92
1770.011	2311.57
1773.227	2336.37
1776.443	2380.43
1779.658	2424.35
1782.874	2361.6
1786.089	2354.54
1789.303	2356.55
1792.518	2353.22
1795.732	2341.71
1798.945	2354.02
1802.159	2396.5
1805.372	2333.98
1808.585	2330.07
1811.797	2329.71
1815.01	2350.79
1818.222	2373.36
1821.434	2334.77
1824.645	2377.45
1827.856	2385.89
1831.067	2415.05
1834.278	2354.31
1837.488	2336.34
1840.698	2462.8
1843.908	2401.19
1847.117	2369.8
1850.326	2294.2
1853.535	2357.26
1856.744	2387.4
1859.952	2311.36
1863.16	2311.85
1866.368	2325.65
1869.575	2439.27
1872.782	2320.98
1875.989	2252.72
1879.196	2303.51
1882.402	2292.44
1885.608	2325.2
1888.814	2262.8
1892.019	2169.6
1895.224	2217.17
1898.429	2184.17
1901.634	2167.49
1904.838	2139.13
1908.042	2195.3
1911.246	2206.22
1914.449	2166.66
1917.652	2149.76
1920.855	2131.98
1924.058	2156.11
1927.26	2200.66
1930.462	2222.89
1933.664	2259.36
1936.865	2201.67
1940.066	2221.62
1943.267	2164.05
1946.467	2175.83
1949.668	2193.49
1952.868	2264.65
1956.067	2252.13
1959.267	2194.67
1962.466	2218.27
1965.665	2202.63
1968.863	2196.91
1972.061	2201.73
1975.259	2189.85
1978.457	2267.48
1981.654	2227.4
1984.852	2232.46
1988.048	2182.81
1991.245	2173.71
1994.441	2261.74
1997.637	2221.01
2000.833	2203.39
2004.028	2240.36
2007.223	2300.2
2010.418	2291.98
2013.613	2242.85
2016.807	2235.75
2020.001	2231.83
2023.194	2253
2026.388	2235.68
2029.581	2184.43
2032.774	2246.38
2035.966	2257.33
2039.158	2202.08
2042.35	2219.95
2045.542	2147.53
2048.733	2230.52
2051.924	2224.36
2055.115	2242.42
2058.306	2208.53
2061.496	2264.52
2064.686	2307.43
2067.875	2214.83
2071.065	2218.27
2074.254	2237.81
2077.442	2193.84
2080.631	2275.96
2083.819	2205.9
2087.007	2199.34
2090.195	2180.02
2093.382	2197.44
2096.569	2181.09
2099.756	2144.8
2102.942	2192.87
2106.128	2206.13
2109.314	2192.73
2112.5	2179.05
2115.685	2145.57
2118.87	2153
2122.055	2213.7
2125.239	2192.22
2128.424	2180.26
2131.608	2242.81
2134.791	2227.58
2137.974	2263.02
2141.157	2253.21
2144.34	2223.73
2147.523	2215.48
2150.705	2242.1
2153.887	2211
2157.068	2181.51
2160.25	2165.77
2163.431	2186.81
2166.611	2155.87
2169.792	2176.35
2172.972	2088.54
2176.152	2138.16
2179.331	2168.32
2182.511	2170.15
2185.69	2191.74
2188.868	2196.47
2192.047	2229.98
2195.225	2244.19
2198.403	2194.83
2201.58	2177.48
2204.758	2165.08
2207.935	2240.89
2211.111	2155.82
2214.288	2142.35
2217.464	2176.36
2220.64	2132.99
2223.815	2182.33
2226.991	2115.65
2230.166	2131.85
2233.34	2173.72
2236.515	2188.85
2239.689	2252.96
2242.863	2202.81
2246.036	2256.77
2249.209	2239.95
2252.382	2258.91
2255.555	2270.13
2258.727	2217.65
2261.9	2247.67
2265.071	2239.24
2268.243	2234.5
2271.414	2184.99
2274.585	2165.88
2277.756	2227.67
2280.926	2182.06
2284.096	2211.86
2287.266	2142.15
2290.436	2185.17
2293.605	2205.82
2296.774	2241.79
2299.942	2246.27
2303.111	2264.54
2306.279	2313.89
2309.447	2298.24
2312.614	2268.88
2315.781	2294.83
2318.948	2270.16
2322.115	2306.32
2325.281	2208.72
2328.447	2218.14
2331.613	2188.51
2334.779	2180.66
2337.944	2174.46
2341.109	2174.34
2344.274	2166.29
2347.438	2132.97
2350.602	2152.72
2353.766	2165.07
2356.929	2153.01
2360.092	2188.55
2363.255	2157.8
2366.418	2123.21
2369.58	2191.06
2372.742	2064.32
2375.904	2060.54
2379.066	2043.89
2382.227	2071.31
2385.388	2033.22
2388.548	1981.8
2391.709	2023.07
2394.869	2014.65
2398.029	2068.9
2401.188	2066.62
2404.347	2027.48
2407.506	2108.02
2410.665	2145.73
2413.823	2132.76
2416.981	2110.26
2420.139	2128.17
2423.296	2168.8
2426.453	2142.97
2429.61	2162.95
2432.767	2133.76
2435.923	2172.52
2439.079	2122.15
2442.235	2155.98
2445.391	2096.18
2448.546	2137.44
2451.701	2172.23
2454.855	2167.4
2458.009	2197.72
2461.163	2187.02
2464.317	2156.82
2467.471	2183.5
2470.624	2213.09
2473.777	2199.81
2476.929	2215.05
2480.082	2240.74
2483.234	2213.83
2486.385	2154.72
2489.537	2148.76
2492.688	2137.64
2495.839	2152.99
2498.989	2168.95
2502.14	2154.05
2505.29	2146.14
2508.439	2171.16
2511.589	2113.23
2514.738	2111.28
2517.887	2133.17
2521.035	2210.63
2524.183	2169.98
2527.331	2157.46
2530.479	2151.64
2533.627	2153.32
