Data from C_1_DEC_OH_4N_Splice17_11-56-16-127.txt Node
Date: Sat Mar 14 11:56:16 EDT 2020
User: sa697716
Spectrometer: FLMS03696
Trigger mode: 0
Integration Time (sec): 3.180400E-1
Scans to average: 20
Electric dark correction enabled: true
Nonlinearity correction enabled: true
Boxcar width: 5
XAxis mode: Wavelengths
Number of Pixels in Spectrum: 2048
>>>>>Begin Spectral Data<<<<<
187.83	-230395.88
188.298	1824.43
188.766	1026.84
189.233	919.7
189.701	1347.45
190.169	1933.75
190.636	752.32
191.104	626.91
191.571	112.75
192.039	-34.35
192.506	-15.5
192.974	546.07
193.441	-679.18
193.908	-151.9
194.375	-62.57
194.842	80.4
195.31	216.63
195.777	168.11
196.244	368.28
196.711	457.95
197.177	600.08
197.644	858.13
198.111	1487.83
198.578	2106.21
199.045	1697.48
199.511	2781.52
199.978	3209.55
200.445	2730.62
200.911	3031.68
201.378	3410.7
201.844	3077.33
202.31	5245.35
202.777	5513.38
203.243	3056.48
203.709	2897.17
204.176	3450.19
204.642	2873.54
205.108	2707.14
205.574	2217
206.04	2036.17
206.506	1909.53
206.972	1813.26
207.438	1749.13
207.903	1982.48
208.369	1741.58
208.835	1741.71
209.301	1834.65
209.766	1891.84
210.232	1856.4
210.697	2292.7
211.163	2866.91
211.628	4350.12
212.094	3685.17
212.559	4529.72
213.024	2821.44
213.49	3461.65
213.955	3390.94
214.42	3320.63
214.885	3075.6
215.35	2969.54
215.815	2849.08
216.28	3006.99
216.745	2445.31
217.21	2637.63
217.675	2432.27
218.14	2751.21
218.604	3084.23
219.069	3537.68
219.534	3732.6
219.998	4366.37
220.463	5351.33
220.927	6645.84
221.392	6286.98
221.856	6410.85
222.32	8131.22
222.785	10081.98
223.249	12719.87
223.713	14253.52
224.177	14321.2
224.642	18429.04
225.106	22699.05
225.57	24811.48
226.034	18453.01
226.497	28146.86
226.961	25391.88
227.425	29565.7
227.889	32871.4
228.353	32905.95
228.816	67940.88
229.28	64932.39
229.744	54751.61
230.207	33327.89
230.671	32793.35
231.134	54334.96
231.597	62660.63
232.061	62704.1
232.524	61255.34
232.987	42161.15
233.45	37939.12
233.914	34050.76
234.377	34918.35
234.84	31987.32
235.303	37707.52
235.766	42037.08
236.229	43436.29
236.691	27356.97
237.154	30742.83
237.617	23128.52
238.08	23707.92
238.542	27782.8
239.005	19853.62
239.468	19676.13
239.93	18532.16
240.393	16837.15
240.855	14787.88
241.317	15134.09
241.78	18405.52
242.242	19024.82
242.704	20518.45
243.166	17838.79
243.629	16184.71
244.091	18640.94
244.553	20463.89
245.015	21968.62
245.477	28428.91
245.939	41682.72
246.4	44269.79
246.862	43039.74
247.324	40563.84
247.786	45370.44
248.247	59478.34
248.709	61436.49
249.17	45955.1
249.632	43249.62
250.093	50173.01
250.555	43361.63
251.016	26452.97
251.477	25075.41
251.939	27060.71
252.4	28384.69
252.861	33788.34
253.322	31470.65
253.783	37438.14
254.244	48580.17
254.705	38319.63
255.166	34090.69
255.627	33536.19
256.088	47266.34
256.549	50219.87
257.009	43247.83
257.47	52529.93
257.931	42771.14
258.391	32051.12
258.852	33047.63
259.312	34657.95
259.773	42811.21
260.233	36177.73
260.694	30515.89
261.154	34615.82
261.614	27781.02
262.074	24876.86
262.534	25842.04
262.994	24360.34
263.455	32462.55
263.915	27339.22
264.374	25741.67
264.834	28140.8
265.294	31210.79
265.754	32338.1
266.214	30646.11
266.673	28735.39
267.133	36250.56
267.593	35958.56
268.052	43972.06
268.512	38242.35
268.971	46096.14
269.431	50601.21
269.89	45304.88
270.349	67948.56
270.809	75802.63
271.268	68144.21
271.727	152813.86
272.186	98950.99
272.645	74277.33
273.104	53655.28
273.563	77725.33
274.022	61239.27
274.481	52100.28
274.94	40140.69
275.399	29846.34
275.857	34750.88
276.316	47016.25
276.775	41859.99
277.233	41241.75
277.692	38572.23
278.15	43599.3
278.609	44840.01
279.067	41509.04
279.525	38557.26
279.984	49804.86
280.442	59791.37
280.9	58928.62
281.358	38773.46
281.816	36156.76
282.274	35402.96
282.732	36639.98
283.19	36877.98
283.648	31829.31
284.106	33903
284.564	34456.75
285.021	31930.61
285.479	23796.88
285.937	21666.27
286.394	19010.56
286.852	19555.35
287.309	20542.98
287.767	19813.95
288.224	18810.81
288.682	20640.8
289.139	22643.29
289.596	20727.33
290.053	21550.27
290.511	27235.73
290.968	33016.99
291.425	44776.12
291.882	37264.29
292.339	32441.75
292.796	32218.79
293.252	30368.7
293.709	24098.7
294.166	21607.03
294.623	23884.87
295.079	22923.92
295.536	23014.59
295.992	20918.14
296.449	20701.59
296.905	21512.99
297.362	20623.39
297.818	21688.98
298.274	22516.31
298.731	22967.27
299.187	22722.49
299.643	24400.12
300.099	29512.68
300.555	32365.9
301.011	27015.05
301.467	26009.58
301.923	30448.8
302.379	29759.08
302.835	29264.88
303.291	29307.78
303.746	33408.97
304.202	42184.84
304.658	42370.32
305.113	28500.73
305.569	27939.52
306.024	29802.35
306.479	28399.78
306.935	23928.65
307.39	26154.53
307.845	24128.91
308.301	24274.95
308.756	23631.97
309.211	22786.38
309.666	23321.39
310.121	28955.01
310.576	29361.54
311.031	29118.19
311.486	33345.53
311.94	33353.05
312.395	44573.32
312.85	83678.51
313.305	411200.58
313.759	2125177.18
314.214	153924.83
314.668	122104.62
315.123	102669.95
315.577	36820.82
316.032	32749.58
316.486	41087.02
316.94	32413.67
317.394	22550.24
317.849	17546.72
318.303	16598.73
318.757	15666.7
319.211	17301.22
319.665	15121.96
320.119	15286.36
320.572	21932.5
321.026	20486.91
321.48	17031.38
321.934	18568.73
322.387	18625.57
322.841	20113.02
323.295	18062.67
323.748	20834.32
324.202	21161.79
324.655	25447.08
325.108	35563.07
325.562	25113.32
326.015	29834.69
326.468	22544.18
326.921	25194.16
327.374	23469.11
327.827	24398.53
328.28	27645.06
328.733	18484.92
329.186	16235.47
329.639	15461.48
330.092	13016.96
330.545	12397.47
330.997	12508.67
331.45	13666.14
331.903	16006.43
332.355	27566.32
332.808	26817.5
333.26	22114.01
333.713	24015.03
334.165	24224.36
334.617	32323.58
335.069	26179.74
335.522	47306.22
335.974	52348.56
336.426	47807.27
336.878	33146.06
337.33	16778.66
337.782	16395.17
338.234	20499.1
338.686	24538.86
339.137	29039.06
339.589	27350.99
340.041	21413.96
340.493	18427.72
340.944	18853.63
341.396	20318.38
341.847	17075.22
342.299	20130.02
342.75	24549.98
343.201	21484.23
343.653	24737.9
344.104	30441.65
344.555	23974.13
345.006	37298.32
345.457	28513.1
345.908	22697.2
346.359	21334.07
346.81	17387.11
347.261	18338.71
347.712	18050.51
348.163	19347.4
348.613	19544.94
349.064	18229.85
349.515	15961.33
349.965	16378.67
350.416	19719.44
350.866	21630.88
351.317	24479.26
351.767	40526.85
352.217	51135.15
352.668	42495.66
353.118	38939.19
353.568	37611.08
354.018	29736.06
354.468	31315.32
354.918	22437.62
355.368	19638.72
355.818	27733.21
356.268	79666.16
356.718	333406.71
357.168	83153.22
357.617	41703.2
358.067	46478.62
358.517	43474.82
358.966	50893.7
359.416	57109.01
359.865	61871.2
360.315	73643.17
360.764	34371.74
361.213	19306.22
361.663	18266.21
362.112	22556
362.561	36480.44
363.01	27455.66
363.459	23124.56
363.908	25099.73
364.357	21298.39
364.806	35866.42
365.255	24674.3
365.703	22567.5
366.152	22551.91
366.601	18316.55
367.05	14837.39
367.498	13458.27
367.947	14037.67
368.395	14599.55
368.844	12905.01
369.292	15544.59
369.74	10742.06
370.189	16438.79
370.637	19279.46
371.085	16618
371.533	20204.92
371.981	19470.64
372.429	18542.65
372.877	19306.7
373.325	16135.08
373.773	16437.5
374.221	14646.1
374.669	18140.66
375.116	15671.8
375.564	15804.1
376.012	17683.16
376.459	14560.94
376.907	17388.17
377.354	20996.95
377.801	19583.88
378.249	22489.69
378.696	28630.01
379.143	34643.45
379.591	36986.79
380.038	62546.92
380.485	45111.32
380.932	48679.21
381.379	44424.68
381.826	32655.83
382.273	23211.75
382.72	20251.25
383.166	19745.03
383.613	12833
384.06	11572.05
384.506	13347.9
384.953	9785.66
385.4	9839.42
385.846	8588.49
386.292	8380.41
386.739	8198.06
387.185	8086.75
387.631	8083.55
388.078	7816.32
388.524	8345.95
388.97	7684.19
389.416	6399.11
389.862	6789.51
390.308	6425.84
390.754	6524.89
391.2	7062.63
391.645	7226.52
392.091	6910.45
392.537	6676.71
392.983	6688.31
393.428	6571.91
393.874	7032.17
394.319	7045.03
394.765	6666.57
395.21	6843.78
395.655	6402.33
396.101	5990.19
396.546	5389.54
396.991	5428.65
397.436	5030.4
397.881	4847.38
398.326	4578.67
398.771	4324.44
399.216	3780.24
399.661	3404.1
400.106	3385.58
400.551	3455.6
400.995	3094.21
401.44	3058.44
401.885	2865.26
402.329	2895.88
402.774	2773.12
403.218	2680.83
403.663	2580.26
404.107	2646.61
404.551	2656.98
404.995	2433.68
405.44	2341.76
405.884	2371.33
406.328	2289.26
406.772	2276.61
407.216	2065.9
407.66	1993.26
408.104	1890.8
408.547	1765.22
408.991	1704.74
409.435	1638.2
409.879	1613.2
410.322	1592.13
410.766	1535.6
411.209	1459.11
411.653	1398.89
412.096	1367.78
412.54	1365.72
412.983	1355.88
413.426	1358.04
413.869	1354.39
414.312	1330.37
414.756	1282.36
415.199	1222.1
415.642	1184.01
416.085	1187.5
416.527	1180.59
416.97	1199.65
417.413	1137.93
417.856	1122.35
418.298	1109.19
418.741	1100.84
419.184	1096.14
419.626	1136.94
420.069	1138.31
420.511	1145.6
420.953	1116.45
421.396	1104.42
421.838	1073.53
422.28	1098.54
422.722	1104.15
423.164	1118.56
423.606	1100.67
424.048	1100.35
424.49	1046.4
424.932	1038.58
425.374	1025.28
425.816	1043.13
426.258	1060.45
426.699	1074.35
427.141	1058.62
427.582	1074.82
428.024	1072.87
428.465	1065.03
428.907	1039.08
429.348	1026.97
429.789	1026.72
430.231	1004.12
430.672	1016.09
431.113	993.8
431.554	979.64
431.995	953.6
432.436	920.03
432.877	896.65
433.318	881.97
433.759	876.4
434.2	875.82
434.64	866.71
435.081	869.07
435.522	824.24
435.962	795.4
436.403	778.52
436.843	791.16
437.284	773.9
437.724	754.79
438.164	757.08
438.604	740.92
439.045	714.16
439.485	686.14
439.925	670.35
440.365	653.32
440.805	644.02
441.245	634.39
441.685	611.01
442.125	606.94
442.564	610.04
443.004	596.29
443.444	595.74
443.883	595.02
444.323	589.14
444.762	589.39
445.202	596.77
445.641	606.51
446.081	602.54
446.52	604.86
446.959	598.29
447.398	582.22
447.837	572.69
448.276	558.43
448.716	563.24
449.154	565.57
449.593	551.82
450.032	549.26
450.471	538.16
450.91	537.13
451.349	537.14
451.787	532.25
452.226	539.57
452.664	538.25
453.103	540.26
453.541	537.64
453.98	536.74
454.418	539.56
454.856	530.33
455.295	529.49
455.733	532.66
456.171	532.87
456.609	534.55
457.047	534.81
457.485	544.41
457.923	544.37
458.361	537.31
458.798	538.95
459.236	538.78
459.674	542.53
460.111	544.77
460.549	540.76
460.987	539.91
461.424	537.64
461.862	535.06
462.299	527.07
462.736	526.63
463.173	528.64
463.611	524.97
464.048	524.35
464.485	529.7
464.922	524.84
465.359	521.44
465.796	516.49
466.233	513.33
466.67	508.87
467.106	507.9
467.543	503.14
467.98	496.96
468.416	483.28
468.853	477.68
469.29	462.35
469.726	457.19
470.162	444.98
470.599	437.32
471.035	432.74
471.471	421.61
471.907	417.06
472.344	414.89
472.78	416.01
473.216	420.28
473.652	415.95
474.088	414.99
474.523	413.67
474.959	417.08
475.395	412.36
475.831	409.45
476.266	410.92
476.702	409.71
477.138	404.56
477.573	401.78
478.008	400.12
478.444	401.54
478.879	404.51
479.314	405.06
479.75	404.74
480.185	406.2
480.62	409.11
481.055	410.66
481.49	413.26
481.925	418.61
482.36	426.25
482.795	436.81
483.229	447.68
483.664	456.51
484.099	458.09
484.534	464.45
484.968	468.6
485.403	468.66
485.837	466.97
486.271	465.93
486.706	465.99
487.14	459.95
487.574	453.02
488.009	448.26
488.443	443.12
488.877	447.91
489.311	448.3
489.745	453.33
490.179	458.22
490.613	467.62
491.046	470.72
491.48	473.9
491.914	474.38
492.348	477.93
492.781	481.17
493.215	482.99
493.648	482.87
494.082	487.05
494.515	486.59
494.948	492.67
495.382	494.92
495.815	498.66
496.248	502.16
496.681	510.57
497.114	517.5
497.547	524.67
497.98	535.01
498.413	539.63
498.846	546.66
499.279	553.91
499.711	556.82
500.144	559.58
500.577	568.34
501.009	577.66
501.442	586.35
501.874	589.29
502.306	591.95
502.739	598.73
503.171	611.42
503.603	616.14
504.036	624.94
504.468	631.81
504.9	643.32
505.332	649.98
505.764	655.64
506.196	663.67
506.627	678.04
507.059	691.37
507.491	700.55
507.923	702.99
508.354	717.32
508.786	729.19
509.217	746.26
509.649	761.42
510.08	780.75
510.512	797.99
510.943	814.15
511.374	827.48
511.805	847.58
512.237	868.56
512.668	899.22
513.099	927.12
513.53	954.63
513.961	976.92
514.391	1008.56
514.822	1041.22
515.253	1077.11
515.684	1104.22
516.114	1134.37
516.545	1159.05
516.975	1187.44
517.406	1208.63
517.836	1216.09
518.267	1228.2
518.697	1250.15
519.127	1260
519.558	1272.36
519.988	1281.08
520.418	1296.35
520.848	1318.13
521.278	1330.75
521.708	1352.94
522.138	1369.39
522.567	1402.93
522.997	1429.92
523.427	1448.76
523.857	1468.58
524.286	1482.09
524.716	1500.29
525.145	1521.15
525.575	1533.54
526.004	1550.86
526.433	1547.85
526.863	1551.38
527.292	1544.94
527.721	1552.91
528.15	1560.95
528.579	1564.25
529.008	1577.18
529.437	1600.48
529.866	1615.2
530.295	1633.68
530.724	1647.16
531.152	1673.62
531.581	1688.78
532.01	1706.75
532.438	1717.07
532.867	1731.16
533.295	1749.28
533.723	1755.85
534.152	1755.18
534.58	1756.62
535.008	1743.45
535.436	1745.97
535.865	1755.27
536.293	1771.2
536.721	1788.38
537.149	1812.62
537.576	1817.46
538.004	1831.38
538.432	1840.76
538.86	1840.23
539.287	1848.12
539.715	1861.79
540.143	1866.03
540.57	1862.21
540.998	1858.47
541.425	1837.74
541.852	1819.19
542.28	1816.64
542.707	1801.43
543.134	1788.43
543.561	1785.08
543.988	1778.06
544.415	1778.97
544.842	1773.36
545.269	1767.54
545.696	1768.69
546.123	1779.3
546.549	1769.08
546.976	1758
547.403	1757.02
547.829	1758.93
548.256	1760.37
548.682	1756.25
549.108	1748.6
549.535	1748.32
549.961	1749.28
550.387	1736.41
550.813	1730.83
551.24	1736.79
551.666	1736.18
552.092	1726.1
552.518	1717.71
552.943	1711.25
553.369	1717.38
553.795	1720.49
554.221	1720.91
554.646	1716.4
555.072	1725.08
555.498	1727.77
555.923	1734.6
556.349	1748.22
556.774	1755.3
557.199	1755.54
557.625	1760.08
558.05	1752.89
558.475	1761.55
558.9	1758.13
559.325	1748.68
559.75	1740.64
560.175	1733.01
560.6	1724.77
561.025	1719.29
561.449	1717.1
561.874	1719.71
562.299	1719.59
562.723	1723.61
563.148	1710.98
563.572	1710.72
563.997	1716.98
564.421	1719.98
564.846	1716.56
565.27	1714.87
565.694	1709.99
566.118	1717.3
566.542	1720.02
566.966	1710.67
567.39	1702.37
567.814	1688.46
568.238	1684.15
568.662	1684.53
569.086	1681.64
569.509	1684.73
569.933	1666.97
570.357	1655.88
570.78	1633.16
571.204	1618
571.627	1605.68
572.05	1599.75
572.474	1595.65
572.897	1581.05
573.32	1571.02
573.743	1559
574.166	1540.21
574.589	1537.5
575.012	1527.49
575.435	1523.26
575.858	1511.56
576.281	1496.7
576.704	1480.19
577.126	1466.76
577.549	1453.98
577.972	1441.85
578.394	1429.55
578.817	1420.87
579.239	1402.09
579.661	1387.5
580.084	1371.36
580.506	1357.65
580.928	1353.3
581.35	1341.01
581.772	1334.7
582.194	1321.13
582.616	1308.27
583.038	1294.64
583.46	1282.44
583.882	1278.43
584.303	1280.23
584.725	1273.46
585.147	1273.79
585.568	1279.64
585.99	1287.99
586.411	1291.82
586.833	1303.49
587.254	1302.82
587.675	1312.49
588.096	1322.22
588.518	1315.97
588.939	1300.1
589.36	1298.86
589.781	1288.66
590.202	1265.25
590.623	1257.93
591.043	1255.29
591.464	1243.65
591.885	1242.24
592.305	1236.52
592.726	1223.53
593.147	1223.07
593.567	1219.05
593.987	1211.54
594.408	1206.27
594.828	1203.85
595.248	1197.58
595.669	1181.7
596.089	1175.24
596.509	1166.95
596.929	1155.22
597.349	1155.26
597.769	1146.24
598.189	1139.9
598.608	1140.38
599.028	1140.78
599.448	1138.81
599.867	1127.51
600.287	1122.24
600.706	1117.12
601.126	1108.24
601.545	1106.38
601.965	1104.19
602.384	1099.3
602.803	1100.45
603.222	1094.77
603.641	1088.3
604.061	1084.4
604.48	1079.69
604.898	1084.87
605.317	1087.33
605.736	1088.59
606.155	1085.99
606.574	1076.56
606.992	1079.2
607.411	1073.74
607.829	1065.68
608.248	1060.63
608.666	1056.7
609.085	1055.36
609.503	1047.18
609.921	1039.81
610.339	1038.74
610.758	1034.96
611.176	1030.29
611.594	1021.58
612.012	1016.48
612.43	1017.15
612.847	1020.19
613.265	1019.78
613.683	1020.78
614.101	1020.75
614.518	1017.25
614.936	1007.98
615.353	995.08
615.771	990.24
616.188	988.3
616.606	985.4
617.023	978.7
617.44	966.97
617.857	959.78
618.274	951.91
618.691	945.01
619.108	935.6
619.525	929.18
619.942	933.6
620.359	934.13
620.776	929.02
621.192	924.86
621.609	922.2
622.026	926.35
622.442	930.12
622.859	931.91
623.275	925.69
623.691	930.19
624.108	938.24
624.524	947.22
624.94	947.66
625.356	954.41
625.772	963.52
626.188	971.35
626.604	972.02
627.02	969.38
627.436	968.1
627.852	973.74
628.268	982.23
628.683	976.23
629.099	970.29
629.514	965.86
629.93	967.93
630.345	971.34
630.761	968.47
631.176	971.27
631.591	966.25
632.007	961.33
632.422	959.32
632.837	949.9
633.252	946.66
633.667	938.72
634.082	931.18
634.497	921.29
634.911	905.96
635.326	902.16
635.741	888.43
636.155	878.6
636.57	877.99
636.984	875.9
637.399	876.18
637.813	873.69
638.228	869.99
638.642	871.15
639.056	861.5
639.47	858.69
639.884	850.61
640.298	843.03
640.712	841.04
641.126	828.42
641.54	819.62
641.954	811.96
642.368	800.93
642.781	793.96
643.195	779.02
643.609	778.12
644.022	771.93
644.436	766.51
644.849	756.59
645.262	745.33
645.676	745.21
646.089	739.74
646.502	729.17
646.915	724.25
647.328	711.14
647.741	708.66
648.154	697.66
648.567	694.36
648.98	684.81
649.393	683.57
649.805	681.75
650.218	675.6
650.631	664.46
651.043	659.19
651.456	654.75
651.868	654.04
652.28	664.11
652.693	672.05
653.105	675.78
653.517	681.31
653.929	681.34
654.341	682.94
654.753	674.32
655.165	677.91
655.577	675.25
655.989	671.3
656.401	665.39
656.813	643.41
657.224	631.19
657.636	611.61
658.047	599.62
658.459	587.64
658.87	582.12
659.282	574.85
659.693	563.08
660.104	555.1
660.515	545.98
660.926	544.72
661.338	541.72
661.749	537.21
662.159	531.85
662.57	530.11
662.981	527.15
663.392	522.69
663.803	525.45
664.213	523.95
664.624	521.04
665.035	525.24
665.445	517.43
665.855	514.04
666.266	510.14
666.676	510.6
667.086	505.14
667.497	506.15
667.907	503.23
668.317	498.83
668.727	498.9
669.137	500.51
669.547	499.8
669.956	502.59
670.366	506.54
670.776	508.75
671.186	512.56
671.595	516.34
672.005	519.07
672.414	520.62
672.824	520.93
673.233	524.08
673.642	526.64
674.052	529.74
674.461	533.15
674.87	536.15
675.279	536.75
675.688	537.69
676.097	540.2
676.506	539.74
676.915	550.94
677.323	552.66
677.732	551.96
678.141	552.28
678.549	546.06
678.958	546.28
679.366	546.15
679.775	549.05
680.183	556.58
680.592	559.88
681	563.34
681.408	558.47
681.816	564.14
682.224	569.75
682.632	577.55
683.04	596.66
683.448	611.69
683.856	633
684.264	657.29
684.671	678.87
685.079	706.49
685.487	736.65
685.894	778.81
686.302	814.24
686.709	842.1
687.116	875.98
687.524	905.85
687.931	933.37
688.338	956.34
688.745	976.98
689.152	1003.02
689.559	1037.04
689.966	1074.17
690.373	1096.66
690.78	1134.47
691.187	1190.06
691.593	1237.25
692	1279.63
692.407	1339.25
692.813	1412.04
693.22	1473.21
693.626	1536.9
694.032	1591.03
694.439	1667.26
694.845	1730.01
695.251	1809.2
695.657	1882.84
696.063	1983.12
696.469	2065.32
696.875	2142.43
697.281	2193.86
697.687	2255.32
698.093	2309.53
698.498	2397.92
698.904	2471.43
699.31	2572.19
699.715	2647.81
700.12	2751.22
700.526	2785.36
700.931	2868.72
701.337	2935.62
701.742	2984.41
702.147	3081.41
702.552	3127.82
702.957	3202.27
703.362	3236.15
703.767	3281.23
704.172	3336.26
704.577	3305.52
704.981	3368.2
705.386	3399.35
705.791	3404.65
706.195	3494.79
706.6	3517.32
707.004	3610.76
707.408	3591.48
707.813	3632.46
708.217	3631.91
708.621	3647.03
709.025	3758.55
709.43	3770.96
709.834	3845.14
710.237	3930.05
710.641	3923.79
711.045	3957.49
711.449	3962.61
711.853	4002.94
712.256	4058.4
712.66	4107.19
713.064	4195.67
713.467	4251.08
713.87	4381.99
714.274	4439.39
714.677	4566.85
715.08	4751.12
715.484	4941.47
715.887	5168.3
716.29	5395.18
716.693	5629.36
717.096	5899.52
717.499	6052.14
717.901	6089.77
718.304	6128.51
718.707	6167.55
719.109	6062.56
719.512	6037.5
719.915	5896.5
720.317	5843.98
720.719	5898.9
721.122	5872.48
721.524	5825.16
721.926	5786.2
722.328	5899.94
722.731	5895.49
723.133	5932.4
723.535	6153.82
723.937	6184.18
724.338	6249.86
724.74	6302.61
725.142	6219.69
725.544	6221.21
725.945	6250.82
726.347	6253.18
726.748	6251.59
727.15	6270.18
727.551	6228.86
727.952	6203.13
728.354	6173.23
728.755	6178.82
729.156	6132.54
729.557	6142.02
729.958	6014.14
730.359	5960.01
730.76	5942.78
731.161	5880.02
731.562	5856.66
731.962	5866.67
732.363	5794.95
732.763	5725.74
733.164	5769.11
733.564	5698.54
733.965	5591.68
734.365	5552.89
734.766	5586.05
735.166	5544.54
735.566	5482.63
735.966	5453.03
736.366	5448.04
736.766	5384.69
737.166	5422.06
737.566	5375.33
737.966	5347.07
738.365	5392.33
738.765	5387.44
739.165	5305.47
739.564	5276.05
739.964	5329.37
740.363	5278.33
740.763	5278.55
741.162	5262.9
741.561	5228.21
741.96	5178.5
742.36	5203.1
742.759	5211.62
743.158	5257.18
743.557	5274.84
743.955	5321.29
744.354	5268.82
744.753	5335.86
745.152	5287.54
745.55	5351.77
745.949	5345.42
746.348	5347.78
746.746	5367
747.144	5320.73
747.543	5295.98
747.941	5351.71
748.339	5270.91
748.737	5264.16
749.136	5253.09
749.534	5327.25
749.932	5295.65
750.33	5321.25
750.727	5383.23
751.125	5355.55
751.523	5338.81
751.921	5385.32
752.318	5347.87
752.716	5415.41
753.113	5432.4
753.511	5461.38
753.908	5463.16
754.305	5443.19
754.703	5515.04
755.1	5584.73
755.497	5653.03
755.894	5868.76
756.291	6073.39
756.688	6443.97
757.085	6936.44
757.482	7631.63
757.878	8393.62
758.275	9079.39
758.672	10027.25
759.068	10793.54
759.465	11890.14
759.861	13309.26
760.258	14953.76
760.654	15800.84
761.05	15675.52
761.447	14972.95
761.843	13940.2
762.239	12874.51
762.635	12395.2
763.031	11932.2
763.427	11266.92
763.822	10569.67
764.218	9875.91
764.614	8971.21
765.01	8367.73
765.405	7981.7
765.801	7682.34
766.196	7306.44
766.592	7096.95
766.987	6739.83
767.382	6500.93
767.778	6400.54
768.173	6252.63
768.568	6169.07
768.963	6031.73
769.358	6053.95
769.753	5997.19
770.148	5902.38
770.542	5902.63
770.937	5866.3
771.332	5969.67
771.726	5992.12
772.121	5918.13
772.515	5979
772.91	5965.39
773.304	6044.66
773.699	5969.36
774.093	6030.37
774.487	6095.34
774.881	6143.42
775.275	6141.65
775.669	6095.94
776.063	6145.35
776.457	6188.14
776.851	6103.62
777.245	6094.68
777.638	6131.33
778.032	6263.91
778.425	6224.06
778.819	6268.68
779.212	6220.22
779.606	6170.72
779.999	6191.77
780.392	6173.49
780.786	6266.1
781.179	6288.99
781.572	6336.75
781.965	6352.08
782.358	6284.46
782.751	6350.6
783.143	6295.62
783.536	6374.28
783.929	6424.36
784.322	6552.03
784.714	6585.42
785.107	6582.13
785.499	6665.66
785.891	6639.47
786.284	6619.05
786.676	6781.01
787.068	6753.99
787.46	6815.81
787.852	6841.68
788.245	6936.89
788.636	6971.52
789.028	7048.94
789.42	7091.89
789.812	7097.63
790.204	7209.3
790.595	7320.58
790.987	7095.27
791.378	7122.26
791.77	7267.43
792.161	7419.86
792.553	7484.29
792.944	7358.17
793.335	7280.01
793.726	7363.62
794.117	7470.4
794.508	7620.96
794.899	7589.03
795.29	7748.68
795.681	7814.45
796.072	7654.61
796.463	7441.02
796.853	7451.24
797.244	7626.03
797.634	7664.79
798.025	7661.16
798.415	7670.62
798.806	7767.56
799.196	7861.49
799.586	7918.03
799.976	7875.41
800.366	8133.05
800.756	8408.9
801.146	8361.81
801.536	8396.03
801.926	8478.29
802.316	8509.09
802.706	8587.8
803.095	8453.51
803.485	8565.08
803.874	8614.64
804.264	8903.91
804.653	8873.78
805.043	9036.55
805.432	9159.98
805.821	9158.9
806.21	9185.72
806.599	9317.82
806.988	9369.72
807.377	9488.7
807.766	9634.18
808.155	9947.08
808.544	9652.95
808.933	9672.06
809.321	9644.57
809.71	9974.25
810.098	10152.98
810.487	10664.98
810.875	11196.34
811.264	11222.53
811.652	11542.18
812.04	11702.69
812.428	11882.3
812.816	12737.24
813.204	13192.49
813.592	13804.87
813.98	14172.74
814.368	14060.61
814.756	14593.61
815.144	14505.03
815.531	15016.35
815.919	14930.29
816.306	15258.59
816.694	14907.32
817.081	14960.25
817.469	15349.56
817.856	15343.36
818.243	15643.83
818.63	16078.26
819.017	15605.35
819.404	15679.07
819.791	16107.92
820.178	16793.32
820.565	17081.09
820.952	18123.08
821.339	17567.95
821.725	17766.73
822.112	16935.65
822.498	16895.19
822.885	17050.38
823.271	16958.14
823.657	17421.37
824.044	17425.37
824.43	17505.71
824.816	17467.69
825.202	16984.07
825.588	18127.01
825.974	18151.8
826.36	18732.98
826.746	18772.83
827.132	19160.47
827.517	19122.48
827.903	18256.65
828.289	18302.6
828.674	17434.62
829.06	17321.64
829.445	17768.61
829.83	18159.51
830.216	18698.69
830.601	19113.21
830.986	18656.94
831.371	18523.52
831.756	19147.56
832.141	18663.95
832.526	18655.77
832.911	18980.64
833.295	18853.74
833.68	19374.61
834.065	18692.49
834.449	17667
834.834	17586.48
835.218	17586.37
835.603	17953.33
835.987	17715.25
836.371	18642.17
836.755	18537.96
837.139	18997.05
837.524	19276.62
837.908	19078.65
838.291	19148.7
838.675	19224.81
839.059	19462.41
839.443	19445.85
839.827	19196.24
840.21	19741.33
840.594	19580.03
840.977	19805.98
841.361	19782.35
841.744	20205.28
842.127	20040.68
842.511	20318.33
842.894	20995.14
843.277	21419.63
843.66	22031.44
844.043	22130.3
844.426	21226.93
844.809	20885.43
845.191	20922.86
845.574	20397.72
845.957	19982.44
846.339	19862.09
846.722	19271.51
847.104	19348.19
847.487	19158.15
847.869	19174.27
848.252	19481.46
848.634	19847.89
849.016	20136.73
849.398	20271.59
849.78	21227.15
850.162	21233.53
850.544	21688.32
850.926	22390.64
851.307	22289.2
851.689	22597.96
852.071	23099.59
852.452	23456.59
852.834	23435.94
853.215	23882.21
853.597	24060.15
853.978	24390.08
854.359	24897.97
854.741	23800.94
855.122	23689.68
855.503	23357.53
855.884	23504.25
856.265	23432.73
856.646	23569.61
857.026	23134.47
857.407	23053.76
857.788	23226.7
858.169	23537.37
858.549	22582.58
858.93	23274.92
859.31	23333.18
859.69	23568.25
860.071	23122.68
860.451	22886.18
860.831	22050.27
861.211	23342.3
861.591	23967.06
861.971	23938.96
862.351	24153.32
862.731	24596.75
863.111	24880
863.491	25241.72
863.87	26216.91
864.25	26607.31
864.629	26159.93
865.009	26741.16
865.388	27689.11
865.768	29664.27
866.147	29545.7
866.526	27919.67
866.905	28257.57
867.284	29855.74
867.663	28347.03
868.042	27181.93
868.421	27093.2
868.8	27541.83
869.179	27809.62
869.558	26200.6
869.936	24160.3
870.315	24589.66
870.693	25180.32
871.072	27148.85
871.45	25863.17
871.828	26205.96
872.207	27542.01
872.585	27126.78
872.963	27879.87
873.341	26918.57
873.719	26591.22
874.097	26263.95
874.475	26782.39
874.853	27402.76
875.23	26257.84
875.608	27345.22
875.986	29562.16
876.363	28277.73
876.741	29124.49
877.118	28382.5
877.495	29778.58
877.873	30274.85
878.25	31868.64
878.627	30552.64
879.004	30984.03
879.381	30845.73
879.758	30042.64
880.135	27969.29
880.512	29578.74
880.889	28796.9
881.265	28506.05
881.642	28275.81
882.019	28752.95
882.395	28150.97
882.772	29259.42
883.148	27993.32
883.524	27866.82
883.901	27706.21
884.277	28127.02
884.653	27950.17
885.029	28749.75
885.405	31818.01
885.781	31563.8
886.157	30262.55
886.532	30637.32
886.908	30631.24
887.284	34049.82
887.659	35165.09
888.035	36243.35
888.411	37182.12
888.786	37670.8
889.161	38971.32
889.537	38265.66
889.912	39486.06
890.287	39448.05
890.662	40462.51
891.037	39733.82
891.412	37054.05
891.787	36692.33
892.162	35418.75
892.536	36241.37
892.911	34878.79
893.286	34152.23
893.66	32769.77
894.035	33623.66
894.409	36625.08
894.784	35160.12
895.158	35742.89
895.532	37875.49
895.906	38896.36
896.281	39820.72
896.655	39195.68
897.029	44779.34
897.402	46661.92
897.776	51947
898.15	51747.96
898.524	51171.53
898.898	51852.33
899.271	58036.58
899.645	50236.48
900.018	48269.82
900.392	50045.77
900.765	50433.99
901.138	46665.03
901.511	45939.49
901.884	42177.83
902.258	38916.42
902.631	40213.09
903.003	46270.96
903.376	41743.88
903.749	46814.16
904.122	50096.54
904.495	55150.01
904.867	55852.25
905.24	48513.98
905.612	45144.1
905.985	46182.28
906.357	48269.8
906.729	46078.52
907.102	39353.28
907.474	37852.12
907.846	38094.99
908.218	37591.51
908.59	33222.83
908.962	32133.6
909.334	34594.98
909.705	36356.81
910.077	35297.46
910.449	36748.76
910.82	37776.67
911.192	41557.88
911.563	43165.29
911.935	46190.97
912.306	46258.15
912.677	47779.96
913.048	47265.86
913.419	51257.41
913.79	51523.1
914.161	55237.97
914.532	52767.81
914.903	48474.05
915.274	46040.62
915.645	45366.88
916.015	39911.91
916.386	38056.6
916.756	40478.34
917.127	41778.54
917.497	37347.18
917.868	40663.3
918.238	38618.73
918.608	39727.7
918.978	40560.47
919.348	42951.26
919.718	44359.78
920.088	42722.82
920.458	44364.5
920.828	46674.01
921.198	44223.29
921.567	47236.55
921.937	36575.92
922.306	36912.12
922.676	39786.07
923.045	33179.11
923.415	31505.72
923.784	28711.78
924.153	29520.5
924.522	29510.42
924.891	27754.15
925.26	29741.59
925.629	29034.51
925.998	33372.52
926.367	32600.03
926.736	31033.9
927.104	36938.07
927.473	39740.27
927.842	47991.34
928.21	47567.03
928.578	49966.79
928.947	47265.58
929.315	47512.74
929.683	55698.23
930.051	56136.99
930.42	65136.64
930.788	55730.66
931.156	55352.76
931.523	51874.85
931.891	47913.07
932.259	45982.08
932.627	53249.39
932.994	75329.91
933.362	62321.13
933.729	54112.81
934.097	51793.13
934.464	43849.53
934.831	50582.78
935.199	49838.02
935.566	48290.36
935.933	48888
936.3	59227.78
936.667	46145.31
937.034	41604.95
937.401	41141.37
937.767	35545.1
938.134	31627.55
938.501	44604.29
938.867	47512.02
939.234	80414.98
939.6	68672.07
939.967	75825.07
940.333	50764.43
940.699	43195.68
941.065	34675.74
941.431	45466.98
941.798	43828.87
942.163	57613.71
942.529	35993.94
942.895	33171.47
943.261	21440.25
943.627	28110.96
943.992	24624.69
944.358	24663.45
944.723	24760.22
945.089	24131.9
945.454	22294.2
945.82	23795.93
946.185	22877.59
946.55	26534.73
946.915	23808.6
947.28	27929.01
947.645	24593.04
948.01	22680.25
948.375	23657.65
948.74	28392.43
949.104	33123.75
949.469	47817.51
949.834	84500.74
950.198	80005.4
950.562	47910.16
950.927	39903.93
951.291	48050.36
951.655	40948.56
952.02	38442.21
952.384	29031.83
952.748	25249.6
953.112	24602.4
953.476	21404.59
953.839	19782.69
954.203	19591.29
954.567	24500.3
954.931	38547.93
955.294	32945.92
955.658	33108.77
956.021	56317.43
956.385	95508.43
956.748	140926.6
957.111	218660.58
957.474	245506.4
957.837	276410.1
958.2	209172.31
958.563	75263.41
958.926	50915.54
959.289	77313.19
959.652	86478.42
960.015	64911.27
960.377	93198.99
960.74	106330.04
961.102	183638.78
961.465	197107.16
961.827	105428.14
962.189	202209.05
962.552	140191.84
962.914	112487.52
963.276	72920.76
963.638	60193.61
964	59568.22
964.362	40278.65
964.724	38951.69
965.085	27752.54
965.447	22736.25
965.809	25963.36
966.17	26004.36
966.532	28120.72
966.893	25786.54
967.255	23483.05
967.616	27722.45
967.977	22192.15
968.338	24233.55
968.699	19921.61
969.061	19930.21
969.421	20050.52
969.782	22483.96
970.143	18978.1
970.504	19653.41
970.865	22324.66
971.225	22797.7
971.586	22325.88
971.946	31850.34
972.307	27639.15
972.667	36135.6
973.027	37210.8
973.388	45195.03
973.748	30749.3
974.108	33483.67
974.468	45310.09
974.828	34910.73
975.188	26894.38
975.548	24676.46
975.907	20708.33
976.267	23230.06
976.627	19526.87
976.986	20221.53
977.346	19252.94
977.705	18495.1
978.064	16835.93
978.424	14012.4
978.783	14511.4
979.142	16551.92
979.501	15850.68
979.86	16735.55
980.219	16114.47
980.578	20752.86
980.937	23290.95
981.296	20772.27
981.654	21398.5
982.013	33314.34
982.371	43177.8
982.73	40256.84
983.088	45563.79
983.447	48612.78
983.805	69459.1
984.163	145318.43
984.521	161400.18
984.879	236559.95
985.237	-384828.46
985.595	370631.72
985.953	92161.41
986.311	53197.33
986.669	30917.75
987.026	26737.16
987.384	35966.52
987.741	37243.8
988.099	26566.09
988.456	21152.93
988.814	19790.82
989.171	17203.71
989.528	16992.78
989.885	17937.85
990.242	14221.46
990.599	17706.05
990.956	14476.31
991.313	10125.58
991.67	8303.96
992.027	8800.86
992.383	7816.02
992.74	6844.83
993.096	7179.91
993.453	7452.64
993.809	7724.25
994.165	10297.77
994.522	9419.16
994.878	10361.64
995.234	12997.14
995.59	12832.88
995.946	12153.75
996.302	13873.17
996.658	16042.39
997.013	17652.4
997.369	20884.3
997.725	26731.94
998.08	17294.69
998.436	26741.76
998.791	36815.07
999.147	36783.93
999.502	40153.18
999.857	29221.47
1000.212	47569.73
1000.567	67666.2
1000.922	39050.48
1001.277	24818.06
1001.632	18393.35
1001.987	23704.32
1002.342	17009.94
1002.696	13674.98
1003.051	10892.22
1003.406	13183.08
1003.76	13128.47
1004.114	12975.07
1004.469	10926.28
1004.823	9035.98
1005.177	9746.87
1005.531	7733.34
1005.885	6865.82
1006.239	7724.3
1006.593	9665.24
1006.947	12950.79
1007.301	9706.34
1007.655	10568.01
1008.008	7763.17
1008.362	8726.71
1008.715	12466.22
1009.069	11340.48
1009.422	17005
1009.776	34092.98
1010.129	22672.22
1010.482	18920.87
1010.835	15991.37
1011.188	33309.04
1011.541	31382.5
1011.894	-191023.05
1012.247	562045.24
1012.6	38245.64
1012.952	24053.04
1013.305	12471.74
1013.657	8970.61
1014.01	8492.74
1014.362	7009.09
1014.715	6216.5
1015.067	5403.58
1015.419	5279.86
1015.771	4690.44
1016.123	4177.1
1016.475	4303.98
1016.827	4585.97
1017.179	4920.95
1017.531	4963.7
1017.883	5077.32
1018.234	4890.92
1018.586	6186.82
1018.938	6548.98
1019.289	9044.47
1019.64	10351.54
1019.992	9619.46
1020.343	8783.7
1020.694	6951.67
1021.045	6142.22
1021.396	7038.56
1021.747	7551.19
1022.098	9080.95
1022.449	6591.94
1022.8	6132.34
1023.151	4256.17
1023.501	3770.91
1023.852	4099.05
1024.202	4245.68
1024.553	4659.84
1024.903	4555.42
1025.253	3877.29
1025.604	3475.37
1025.954	4322.98
1026.304	5270.99
1026.654	6146.84
1027.004	9054.35
1027.354	14674.98
1027.703	13838.73
1028.053	18270.77
1028.403	26517.16
1028.753	38522.85
1029.102	52506.82
1029.452	270401.88
1029.801	11638.23
1030.15	7516.25
1030.499	6374.75
897.758	2188.17
901.051	2123.34
904.343	2158.13
907.636	2163.46
910.928	2226.74
914.22	2147.25
917.511	2151.02
920.803	2199.74
924.094	2198.11
927.384	2200.55
930.675	2166.83
933.965	2130.14
937.255	2159.71
940.544	2126.94
943.834	2129.34
947.123	2068.32
950.411	2157.1
953.7	2139.33
956.988	2124.21
960.276	2059.44
963.563	2109.6
966.851	2116.8
970.138	2159.37
973.424	2162.13
976.711	2115.2
979.997	2161.98
983.283	2204.78
986.568	2134.88
989.853	2127.6
993.138	2153.78
996.423	2240.36
999.708	2197.63
1002.992	2230.6
1006.275	2148.57
1009.559	2152.99
1012.842	2251.25
1016.125	2206.22
1019.408	2187.6
1022.69	2242.11
1025.972	2277.59
1029.254	2253.77
1032.536	2215.72
1035.817	2226.15
1039.098	2194.58
1042.379	2243.85
1045.659	2270.32
1048.939	2221.01
1052.219	2228.6
1055.498	2221
1058.778	2221.02
1062.057	2195.09
1065.335	2218.97
1068.614	2229.59
1071.892	2226.31
1075.17	2282.57
1078.447	2283.82
1081.724	2281.22
1085.001	2306.42
1088.278	2281.03
1091.554	2289.34
1094.83	2283.97
1098.106	2318.03
1101.382	2348.86
1104.657	2350.76
1107.932	2350.49
1111.206	2325.75
1114.481	2280.96
1117.755	2279.82
1121.029	2273.99
1124.302	2334.54
1127.575	2300.37
1130.848	2296.57
1134.121	2268.98
1137.393	2231.24
1140.665	2288.49
1143.937	2265.89
1147.208	2212.8
1150.48	2270.4
1153.75	2257.91
1157.021	2262.3
1160.291	2238.84
1163.561	2293.5
1166.831	2259.56
1170.101	2286.21
1173.37	2245.68
1176.639	2203.06
1179.907	2247.03
1183.176	2271.59
1186.444	2272.67
1189.711	2298.44
1192.979	2319.92
1196.246	2277.23
1199.513	2288.61
1202.78	2295.52
1206.046	2303.87
1209.312	2331.85
1212.578	2349.27
1215.843	2316.73
1219.108	2284.83
1222.373	2308.15
1225.638	2282.39
1228.902	2273.44
1232.166	2228.58
1235.43	2217.38
1238.693	2243.25
1241.956	2233.59
1245.219	2282.56
1248.482	2266.11
1251.744	2265.3
1255.006	2388.28
1258.268	2335.42
1261.529	2289.85
1264.79	2290.21
1268.051	2391.16
1271.312	2399.94
1274.572	2369.88
1277.832	2358.94
1281.092	2341.56
1284.351	2332.35
1287.61	2315.23
1290.869	2249.59
1294.128	2246.16
1297.386	2296.08
1300.644	2290.41
1303.902	2298.52
1307.159	2167.4
1310.416	2219.36
1313.673	2248.96
1316.93	2241.7
1320.186	2273.96
1323.442	2307.25
1326.697	2308.76
1329.953	2282.33
1333.208	2316.6
1336.463	2288.4
1339.717	2249.22
1342.972	2354.52
1346.226	2326.11
1349.479	2273.44
1352.733	2255.63
1355.986	2259.69
1359.238	2240.47
1362.491	2245.64
1365.743	2245.91
1368.995	2239.22
1372.247	2251.16
1375.498	2271.09
1378.749	2312.22
1382	2262.25
1385.251	2299.09
1388.501	2249.13
1391.751	2250.08
1395	2215.97
1398.25	2241.65
1401.499	2261.6
1404.748	2209.84
1407.996	2189.05
1411.244	2177.32
1414.492	2163.72
1417.74	2146.25
1420.987	2150.81
1424.234	2213.21
1427.481	2175.31
1430.728	2232.63
1433.974	2207.44
1437.22	2208.71
1440.465	2204.46
1443.711	2202.06
1446.956	2226.35
1450.201	2197.25
1453.445	2238.92
1456.689	2228.12
1459.933	2237.77
1463.177	2276.91
1466.42	2250.47
1469.663	2233.43
1472.906	2247.25
1476.148	2297.66
1479.391	2271.38
1482.633	2247.49
1485.874	2271.34
1489.115	2279.6
1492.356	2263.94
1495.597	2245.82
1498.838	2237.71
1502.078	2222.64
1505.318	2193.76
1508.557	2227.83
1511.797	2223.37
1515.036	2269.17
1518.274	2241.34
1521.513	2193.99
1524.751	2205.62
1527.989	2229.06
1531.227	2245.1
1534.464	2260.83
1537.701	2256.01
1540.938	2269.66
1544.174	2217.71
1547.41	2207.32
1550.646	2244.92
1553.882	2295.92
1557.117	2353.57
1560.352	2362.14
1563.587	2325.66
1566.821	2292.57
1570.055	2309.38
1573.289	2290.63
1576.523	2347.73
1579.756	2364.67
1582.989	2386.62
1586.222	2347.28
1589.454	2376.07
1592.686	2360.72
1595.918	2388.52
1599.15	2387.23
1602.381	2431.91
1605.612	2413.86
1608.843	2507.39
1612.073	2429.96
1615.303	2416.27
1618.533	2415.85
1621.762	2411.57
1624.992	2385.54
1628.221	2389.35
1631.449	2377.32
1634.678	2405.42
1637.906	2376.14
1641.134	2401.21
1644.361	2364.88
1647.588	2353.69
1650.815	2375.66
1654.042	2338.98
1657.269	2370.54
1660.495	2350.23
1663.72	2335
1666.946	2303.53
1670.171	2274.67
1673.396	2244.6
1676.621	2228.87
1679.845	2229.47
1683.069	2238.39
1686.293	2268.21
1689.517	2259.27
1692.74	2209.83
1695.963	2230.11
1699.185	2271.62
1702.408	2244
1705.63	2272.85
1708.852	2292.47
1712.073	2263.67
1715.294	2272.43
1718.515	2314.67
1721.736	2273.49
1724.956	2252.63
1728.176	2274.2
1731.396	2297.8
1734.616	2281.96
1737.835	2320.09
1741.054	2291.64
1744.272	2280.74
1747.491	2319.66
1750.709	2343.94
1753.927	2292.41
1757.144	2318.22
1760.361	2376.07
1763.578	2351.22
1766.795	2300.01
1770.011	2288.59
1773.227	2313.31
1776.443	2355.53
1779.658	2401.22
1782.874	2339.12
1786.089	2330.57
1789.303	2332.79
1792.518	2329.58
1795.732	2314.2
1798.945	2329.95
1802.159	2370.13
1805.372	2313.55
1808.585	2308.56
1811.797	2307.84
1815.01	2329.32
1818.222	2351.67
1821.434	2310.67
1824.645	2354.5
1827.856	2363.53
1831.067	2393.72
1834.278	2329.32
1837.488	2314.78
1840.698	2436.35
1843.908	2375.93
1847.117	2344.6
1850.326	2268.23
1853.535	2331.82
1856.744	2365.44
1859.952	2287.47
1863.16	2289.38
1866.368	2304.11
1869.575	2415.3
1872.782	2297.09
1875.989	2228.05
1879.196	2278.62
1882.402	2266.98
1885.608	2301.36
1888.814	2239.35
1892.019	2148.09
1895.224	2196.57
1898.429	2161.54
1901.634	2144.59
1904.838	2119.84
1908.042	2175.44
1911.246	2190.63
1914.449	2152.16
1917.652	2134.63
1920.855	2115.39
1924.058	2140.6
1927.26	2184.67
1930.462	2206.87
1933.664	2245.39
1936.865	2188.39
1940.066	2204.63
1943.267	2149.07
1946.467	2160.47
1949.668	2179.43
1952.868	2247.95
1956.067	2237.83
1959.267	2176.73
1962.466	2200.48
1965.665	2183.69
1968.863	2178.24
1972.061	2182.16
1975.259	2174.49
1978.457	2250.99
1981.654	2210.46
1984.852	2211.87
1988.048	2166.35
1991.245	2155.96
1994.441	2245.12
1997.637	2204.06
2000.833	2186.04
2004.028	2221.61
2007.223	2281.53
2010.418	2271.82
2013.613	2219.47
2016.807	2212.4
2020.001	2207.37
2023.194	2230.67
2026.388	2212.89
2029.581	2158.24
2032.774	2222.01
2035.966	2232.32
2039.158	2177.47
2042.35	2197.77
2045.542	2124.17
2048.733	2206.05
2051.924	2202.35
2055.115	2220.3
2058.306	2184.3
2061.496	2239.65
2064.686	2286.87
2067.875	2192.34
2071.065	2196.72
2074.254	2215.81
2077.442	2170.35
2080.631	2253.39
2083.819	2186.58
2087.007	2175.27
2090.195	2161.28
2093.382	2176.08
2096.569	2160.74
2099.756	2122.72
2102.942	2170.59
2106.128	2184.38
2109.314	2170.84
2112.5	2157.8
2115.685	2126.08
2118.87	2132.7
2122.055	2191.88
2125.239	2170.56
2128.424	2160.62
2131.608	2222.38
2134.791	2209.12
2137.974	2246.11
2141.157	2234.3
2144.34	2206.4
2147.523	2196.54
2150.705	2222.38
2153.887	2192.02
2157.068	2164.96
2160.25	2146.8
2163.431	2169.55
2166.611	2136.45
2169.792	2156.03
2172.972	2067.98
2176.152	2118.16
2179.331	2147.55
2182.511	2149.82
2185.69	2170.05
2188.868	2176.27
2192.047	2209.39
2195.225	2222.67
2198.403	2173.89
2201.58	2161.73
2204.758	2148.87
2207.935	2222.61
2211.111	2141.25
2214.288	2127.7
2217.464	2159.98
2220.64	2120.85
2223.815	2168.07
2226.991	2102.36
2230.166	2117.85
2233.34	2159.45
2236.515	2172.58
2239.689	2236.97
2242.863	2185.48
2246.036	2236.95
2249.209	2222.74
2252.382	2243.79
2255.555	2248
2258.727	2198.23
2261.9	2228.32
2265.071	2221.67
2268.243	2217.37
2271.414	2166.42
2274.585	2149.29
2277.756	2212.45
2280.926	2166.67
2284.096	2195.59
2287.266	2123.79
2290.436	2170.92
2293.605	2189.85
2296.774	2228.06
2299.942	2231.3
2303.111	2246.43
2306.279	2298.57
2309.447	2282.49
2312.614	2252.05
2315.781	2280.57
2318.948	2254.96
2322.115	2292.75
2325.281	2194.05
2328.447	2202.01
2331.613	2171.4
2334.779	2164.27
2337.944	2159.34
2341.109	2159.37
2344.274	2148.43
2347.438	2117.46
2350.602	2135.1
2353.766	2143.93
2356.929	2132.75
2360.092	2171.31
2363.255	2143.07
2366.418	2108.74
2369.58	2174.95
2372.742	2051.78
2375.904	2046.1
2379.066	2032.51
2382.227	2059.07
2385.388	2021.64
2388.548	1976.53
2391.709	2016.12
2394.869	2005.03
2398.029	2059.16
2401.188	2054.2
2404.347	2016.71
2407.506	2095.79
2410.665	2134.64
2413.823	2120.42
2416.981	2099.26
2420.139	2115.86
2423.296	2153.59
2426.453	2128.36
2429.61	2149.64
2432.767	2119.16
2435.923	2160.45
2439.079	2109.92
2442.235	2140.1
2445.391	2080.69
2448.546	2124
2451.701	2157.5
2454.855	2153.9
2458.009	2184.07
2461.163	2173.85
2464.317	2144.69
2467.471	2171.99
2470.624	2198.73
2473.777	2187.28
2476.929	2207.44
2480.082	2229.91
2483.234	2202.76
2486.385	2144.44
2489.537	2137.33
2492.688	2127.07
2495.839	2141.28
2498.989	2156.28
2502.14	2142.81
2505.29	2136.76
2508.439	2159.96
2511.589	2100.48
2514.738	2101.74
2517.887	2125.06
2521.035	2200.7
2524.183	2158.58
2527.331	2147.09
2530.479	2143.21
2533.627	2144.34
