Data from C_1_HIR_WI_4N_Splice17_11-42-10-220.txt Node
Date: Sat Mar 14 11:42:10 EDT 2020
User: sa697716
Spectrometer: FLMS03696
Trigger mode: 0
Integration Time (sec): 3.180400E-1
Scans to average: 20
Electric dark correction enabled: true
Nonlinearity correction enabled: true
Boxcar width: 5
XAxis mode: Wavelengths
Number of Pixels in Spectrum: 2048
>>>>>Begin Spectral Data<<<<<
187.83	-207346.76
188.298	1606.68
188.766	843.72
189.233	757.17
189.701	1109.62
190.169	1501.05
190.636	609.29
191.104	494.57
191.571	79.46
192.039	-61.68
192.506	-85.06
192.974	301.92
193.441	-502.88
193.908	-93.86
194.375	-36.86
194.842	53.87
195.31	97.27
195.777	145.11
196.244	228.92
196.711	97.84
197.177	68.22
197.644	22.14
198.111	45.1
198.578	48.58
199.045	-4.42
199.511	-39.73
199.978	-127.47
200.445	-80.04
200.911	-111.5
201.378	-218.49
201.844	-138.57
202.31	-301.2
202.777	-265.81
203.243	-151.2
203.709	-131.03
204.176	-125.2
204.642	-81.14
205.108	-59.45
205.574	-56.18
206.04	-73.71
206.506	-51.86
206.972	-76.23
207.438	-68.99
207.903	-100.21
208.369	-56.09
208.835	-44.08
209.301	-19.62
209.766	-39.34
210.232	-26.63
210.697	-50.4
211.163	-74.43
211.628	-162.85
212.094	-113.78
212.559	-67.26
213.024	-18.43
213.49	-24.84
213.955	-29.2
214.42	-110.04
214.885	-84.58
215.35	-71.72
215.815	12.42
216.28	30.51
216.745	40.25
217.21	77.43
217.675	40.43
218.14	40.59
218.604	16.18
219.069	11.79
219.534	64.77
219.998	50.16
220.463	39.86
220.927	-37.75
221.392	-43.07
221.856	-19.65
222.32	-87.91
222.785	-91.47
223.249	-98.13
223.713	-106.99
224.177	-97.84
224.642	-209.6
225.106	-273.81
225.57	-332.36
226.034	-180.87
226.497	-260.53
226.961	-231.88
227.425	-208.75
227.889	-260.47
228.353	-288.43
228.816	-687.6
229.28	-592.72
229.744	-482.49
230.207	-206.95
230.671	-173.19
231.134	-416.66
231.597	-381.64
232.061	-375.26
232.524	-451.64
232.987	-272.94
233.45	-222.61
233.914	-176.47
234.377	-240.46
234.84	-218.83
235.303	-303.57
235.766	-350.86
236.229	-348.56
236.691	-266.56
237.154	-329.92
237.617	-225.63
238.08	-239.87
238.542	-282.12
239.005	-184.57
239.468	-152.96
239.93	-136.82
240.393	-107.84
240.855	-81.54
241.317	-86.61
241.78	-121.8
242.242	-101.56
242.704	-70.92
243.166	-52.64
243.629	-27.93
244.091	-37.75
244.553	-51.32
245.015	-48.32
245.477	-74.11
245.939	-135.48
246.4	-150.24
246.862	-127.92
247.324	-140.9
247.786	-227.11
248.247	-354.44
248.709	-459.61
249.17	-333.16
249.632	-245.15
250.093	-214.46
250.555	-216.64
251.016	-94.88
251.477	-83.33
251.939	-76.99
252.4	-86.05
252.861	-112.83
253.322	-76.39
253.783	-125.31
254.244	-170.26
254.705	-194.17
255.166	-224.06
255.627	-204.72
256.088	-295.11
256.549	-273.07
257.009	-251.51
257.47	-297.93
257.931	-256.28
258.391	-171.7
258.852	-156.37
259.312	-175.52
259.773	-217.35
260.233	-119.89
260.694	-65.52
261.154	-100.08
261.614	-35.87
262.074	-34.07
262.534	-28.84
262.994	1.57
263.455	-25.56
263.915	-12.33
264.374	-9.56
264.834	-1.69
265.294	-47.34
265.754	-59.99
266.214	-48.76
266.673	-78.31
267.133	-109.67
267.593	-139.13
268.052	-174.25
268.512	-160.63
268.971	-134.65
269.431	-122.31
269.89	-117.08
270.349	-133.63
270.809	-130.94
271.268	-118.45
271.727	-398.45
272.186	-230.92
272.645	-124.63
273.104	-127.67
273.563	-177.64
274.022	-259.14
274.481	-198.89
274.94	-158.46
275.399	-151.76
275.857	-201.04
276.316	-270.66
276.775	-239.53
277.233	-229.55
277.692	-186.93
278.15	-192.69
278.609	-143.15
279.067	-97.03
279.525	-74.86
279.984	-108.52
280.442	-88.2
280.9	-10.67
281.358	-14.99
281.816	-2.12
282.274	-9.49
282.732	-66.66
283.19	-101.12
283.648	-133.91
284.106	-154.47
284.564	-174.92
285.021	-118.59
285.479	-94.77
285.937	-131.35
286.394	-89.31
286.852	-84
287.309	-90.5
287.767	-48.39
288.224	-29.76
288.682	-23.66
289.139	-2.95
289.596	1.92
290.053	-23.96
290.511	-53.89
290.968	-54.61
291.425	-141.41
291.882	-97.74
292.339	-61.88
292.796	-101.71
293.252	-106.96
293.709	-55.62
294.166	-61.12
294.623	-87.42
295.079	-109.13
295.536	-91.59
295.992	-54.46
296.449	-33.46
296.905	-18.22
297.362	-7.92
297.818	-8.25
298.274	12.96
298.731	-10.96
299.187	1.84
299.643	-1.44
300.099	26.6
300.555	43.75
301.011	21.64
301.467	55.22
301.923	-11.79
302.379	0.93
302.835	-7.24
303.291	-15.66
303.746	-18.53
304.202	-80.37
304.658	-73.53
305.113	-49.7
305.569	-61.06
306.024	-94.83
306.479	-158.18
306.935	-104.57
307.39	-171.85
307.845	-148.01
308.301	-133.19
308.756	-154.46
309.211	-130.63
309.666	-139.92
310.121	-129.96
310.576	-156.64
311.031	-142.27
311.486	-205.34
311.94	-236.15
312.395	-305.49
312.85	-790.09
313.305	-4880.6
313.759	-19765.26
314.214	-1532.29
314.668	-1202.03
315.123	-1024.1
315.577	-318.58
316.032	-281.63
316.486	-325.49
316.94	-203.26
317.394	-126.77
317.849	-61.55
318.303	-59.48
318.757	-56.39
319.211	-51.45
319.665	-30.76
320.119	-37.36
320.572	-79.81
321.026	-54.45
321.48	-39.68
321.934	-67.69
322.387	-59.55
322.841	-45.47
323.295	29.43
323.748	-21.14
324.202	-19.44
324.655	-21.78
325.108	22.63
325.562	54.69
326.015	38.78
326.468	41.35
326.921	50.56
327.374	64.03
327.827	83.96
328.28	45.44
328.733	61.37
329.186	53.92
329.639	49.99
330.092	24.7
330.545	27.47
330.997	38.64
331.45	66.5
331.903	103.89
332.355	112.8
332.808	49.69
333.26	30.35
333.713	36.64
334.165	29.28
334.617	-21.54
335.069	-95.96
335.522	-274.66
335.974	-371.02
336.426	-455.72
336.878	-418.18
337.33	-172.33
337.782	-155.31
338.234	-180.07
338.686	-265.76
339.137	-336.15
339.589	-308.84
340.041	-165.82
340.493	-154.27
340.944	-142.64
341.396	-111.92
341.847	-57.69
342.299	-58.95
342.75	-17.54
343.201	-48.86
343.653	-47.17
344.104	-59.21
344.555	-40.36
345.006	-165.68
345.457	-3.26
345.908	-27.33
346.359	-38.02
346.81	-43.01
347.261	-68.31
347.712	-109.66
348.163	-138.38
348.613	-82.05
349.064	-67.56
349.515	-55.07
349.965	-34.85
350.416	-94.3
350.866	-98.33
351.317	-147.94
351.767	-204.41
352.217	-265.92
352.668	-180.78
353.118	-104.5
353.568	-175.43
354.018	-130.37
354.468	-154.27
354.918	-69.85
355.368	-59.31
355.818	-85.49
356.268	-352.62
356.718	-1168.11
357.168	-229.26
357.617	-165.71
358.067	-270.27
358.517	-283.11
358.966	-255.85
359.416	-156.45
359.865	-330.5
360.315	-444.25
360.764	-219.51
361.213	-97.43
361.663	-159.7
362.112	-220.41
362.561	-357.89
363.01	-208.74
363.459	-163.83
363.908	-223.7
364.357	-137.96
364.806	-298.23
365.255	-224.86
365.703	-176.74
366.152	-197.52
366.601	-122.22
367.05	-69.45
367.498	-41.59
367.947	-90.48
368.395	-111.29
368.844	-83.07
369.292	-183.56
369.74	-92.1
370.189	-147.84
370.637	-197.9
371.085	-152.77
371.533	-212.19
371.981	-256.97
372.429	-215.91
372.877	-197.9
373.325	-150.12
373.773	-159.24
374.221	-149.08
374.669	-212.96
375.116	-184.43
375.564	-170.94
376.012	-204.74
376.459	-144.1
376.907	-169.28
377.354	-245.42
377.801	-191.33
378.249	-206.21
378.696	-328.02
379.143	-360.54
379.591	-393.17
380.038	-674.1
380.485	-475.94
380.932	-519.01
381.379	-411.53
381.826	-216.42
382.273	-155.76
382.72	-179.74
383.166	-149.98
383.613	-70.02
384.06	-58.77
384.506	-69.89
384.953	-30.07
385.4	-43.67
385.846	-29.16
386.292	-48.62
386.739	-70.29
387.185	-84.56
387.631	-77.75
388.078	-67.86
388.524	-81.63
388.97	-66.97
389.416	-37.48
389.862	-43.42
390.308	-31.82
390.754	-27.58
391.2	-33.17
391.645	-29.39
392.091	9.8
392.537	15.72
392.983	-1.16
393.428	27.7
393.874	15.63
394.319	24.49
394.765	47.98
395.21	37.8
395.655	26.59
396.101	35.74
396.546	35.22
396.991	12.99
397.436	11.88
397.881	9.3
398.326	-11.83
398.771	0.35
399.216	-2.35
399.661	-11.29
400.106	-2.03
400.551	6.53
400.995	1.9
401.44	3.98
401.885	8.72
402.329	6.99
402.774	10.28
403.218	29.16
403.663	24.17
404.107	21.69
404.551	25.73
404.995	19.33
405.44	11.61
405.884	9.4
406.328	4.35
406.772	0.67
407.216	1.08
407.66	0.12
408.104	-13.68
408.547	-15.5
408.991	-14.85
409.435	-19.08
409.879	-15.8
410.322	-12.86
410.766	-8.26
411.209	-4.19
411.653	-3.23
412.096	-1.1
412.54	-3.99
412.983	-1.51
413.426	3.79
413.869	2.11
414.312	5.67
414.756	3.76
415.199	4.81
415.642	6.55
416.085	4.66
416.527	4.4
416.97	3.59
417.413	5.28
417.856	2.94
418.298	2.11
418.741	0
419.184	-2.97
419.626	-7.46
420.069	-9.04
420.511	-11.12
420.953	-9.01
421.396	-10.44
421.838	-12.34
422.28	-13.05
422.722	-9.91
423.164	-13.68
423.606	-12.43
424.048	-13.76
424.49	-10.49
424.932	-12.69
425.374	-13.99
425.816	-16.95
426.258	-16.18
426.699	-14.34
427.141	-8.38
427.582	-11
428.024	-10.3
428.465	-13.02
428.907	-14.24
429.348	-14.01
429.789	-10.13
430.231	-6.18
430.672	-5.67
431.113	-5.49
431.554	-5.57
431.995	-9.79
432.436	-5.51
432.877	-4.61
433.318	-0.12
433.759	0.73
434.2	0.24
434.64	-0.61
435.081	-0.72
435.522	0.57
435.962	-0.06
436.403	1.17
436.843	-1.1
437.284	-3.9
437.724	-3.77
438.164	-6.98
438.604	-4.24
439.045	-1.61
439.485	-1.43
439.925	-2.67
440.365	-2.74
440.805	-2.7
441.245	-1.48
441.685	0.23
442.125	-1.55
442.564	-3.79
443.004	-2.09
443.444	-3.43
443.883	-3.73
444.323	-6.02
444.762	-10.28
445.202	-10.51
445.641	-9.41
446.081	-12.32
446.52	-12.75
446.959	-9.81
447.398	-6.54
447.837	-6.85
448.276	-7.46
448.716	-6.39
449.154	-7.48
449.593	-3.9
450.032	-4.79
450.471	-6.3
450.91	-6.63
451.349	-3.85
451.787	-5.26
452.226	-6.68
452.664	-6.57
453.103	-6.44
453.541	-8.47
453.98	-4.95
454.418	-5.4
454.856	-3.35
455.295	-3.03
455.733	-2.16
456.171	-2.6
456.609	-0.53
457.047	-0.08
457.485	1.8
457.923	3.31
458.361	2.24
458.798	0.87
459.236	1.56
459.674	0.2
460.111	0.45
460.549	1.25
460.987	-1.27
461.424	-3.02
461.862	-2.77
462.299	-3.12
462.736	-2.89
463.173	-2.21
463.611	1.3
464.048	1.39
464.485	2.52
464.922	2.07
465.359	1.66
465.796	9.85
466.233	11.97
466.67	14.62
467.106	16.85
467.543	15.24
467.98	15.28
468.416	12.83
468.853	11.01
469.29	9.66
469.726	9.65
470.162	8.71
470.599	2.5
471.035	0.73
471.471	-1.13
471.907	-4.85
472.344	-5.12
472.78	-4.89
473.216	-6.59
473.652	-5.45
474.088	-5.4
474.523	-4.89
474.959	-5.13
475.395	-4.87
475.831	-4.22
476.266	-3.99
476.702	-3.71
477.138	-2.7
477.573	-2.3
478.008	-0.94
478.444	-0.82
478.879	0.98
479.314	1.06
479.75	1.69
480.185	0.94
480.62	-0.17
481.055	-0.47
481.49	0.06
481.925	-0.05
482.36	1.61
482.795	0.62
483.229	-0.18
483.664	-1.7
484.099	-1.78
484.534	-1.99
484.968	-1.07
485.403	-1.03
485.837	-1.53
486.271	-1.25
486.706	-1.59
487.14	-3.16
487.574	-2.97
488.009	-2.45
488.443	-2.27
488.877	-1.29
489.311	-1.36
489.745	-1.12
490.179	-0.35
490.613	1.78
491.046	1.44
491.48	1.71
491.914	2.03
492.348	2.31
492.781	2.82
493.215	3.09
493.648	1.99
494.082	2.04
494.515	1.89
494.948	2.43
495.382	0.68
495.815	0.94
496.248	1.27
496.681	0.55
497.114	0.01
497.547	0.12
497.98	0.99
498.413	2.26
498.846	2.94
499.279	2.47
499.711	1.27
500.144	1.09
500.577	1.65
501.009	1.2
501.442	2.22
501.874	3.36
502.306	2.61
502.739	4.62
503.171	4.06
503.603	4.28
504.036	3.7
504.468	4.27
504.9	3.87
505.332	3.1
505.764	3.55
506.196	3.22
506.627	2.97
507.059	3.15
507.491	0.26
507.923	0.32
508.354	-0.08
508.786	0.77
509.217	0.83
509.649	1.41
510.08	0.9
510.512	1.71
510.943	1.79
511.374	1.88
511.805	1.5
512.237	0.43
512.668	-0.88
513.099	-1.86
513.53	-2.41
513.961	-1.85
514.391	-2.16
514.822	0.16
515.253	0.06
515.684	-0.19
516.114	0.03
516.545	1.25
516.975	1.92
517.406	2.81
517.836	2.28
518.267	2.81
518.697	3.29
519.127	2.69
519.558	0.84
519.988	-0.44
520.418	-0.82
520.848	-2.08
521.278	-3.29
521.708	29.25
522.138	29.88
522.567	29.93
522.997	29.73
523.427	28.65
523.857	29.5
524.286	29.62
524.716	30.37
525.145	31.05
525.575	32.01
526.004	31.64
526.433	-0.06
526.863	-1.25
527.292	0.4
527.721	0.98
528.15	0.91
528.579	0.89
529.008	1.1
529.437	-0.15
529.866	-0.57
530.295	-1.44
530.724	-0.14
531.152	-0.03
531.581	1.19
532.01	1.02
532.438	0.12
532.867	-0.35
533.295	0.35
533.723	0.09
534.152	0.6
534.58	1.18
535.008	1.73
535.436	2.68
535.865	2.23
536.293	1.35
536.721	0.61
537.149	0.96
537.576	2.08
538.004	2.29
538.432	1.97
538.86	2.75
539.287	2.13
539.715	2.09
540.143	0.43
540.57	1.03
540.998	0.7
541.425	2.37
541.852	2.25
542.28	1.63
542.707	0.49
543.134	0.93
543.561	0.76
543.988	0.78
544.415	0.56
544.842	0.15
545.269	0.15
545.696	0.64
546.123	-0.02
546.549	0.54
546.976	0.82
547.403	0.94
547.829	-0.01
548.256	-0.42
548.682	-0.12
549.108	0.91
549.535	1.43
549.961	0.92
550.387	0.6
550.813	1.48
551.24	1.18
551.666	0.13
552.092	0.35
552.518	0.77
552.943	1.71
553.369	1.08
553.795	0.75
554.221	0.67
554.646	0.86
555.072	2.42
555.498	0.47
555.923	-0.61
556.349	0.32
556.774	-0.08
557.199	-0.03
557.625	-1.44
558.05	-0.74
558.475	-1.2
558.9	-0.76
559.325	0
559.75	-0.15
560.175	-0.34
560.6	-0.35
561.025	-0.86
561.449	-0.43
561.874	-0.44
562.299	0.86
562.723	0.65
563.148	0.69
563.572	0.22
563.997	-0.41
564.421	-1.96
564.846	-1.73
565.27	-1.16
565.694	-0.67
566.118	-1.32
566.542	-0.43
566.966	-1.18
567.39	-1.21
567.814	-1.06
568.238	-0.84
568.662	-1.41
569.086	-0.54
569.509	-0.93
569.933	0.96
570.357	0.6
570.78	0.94
571.204	1.64
571.627	1.64
572.05	1.58
572.474	2.98
572.897	3.02
573.32	4.77
573.743	3.88
574.166	4.91
574.589	3
575.012	3.15
575.435	2.65
575.858	1.76
576.281	1.69
576.704	1.57
577.126	-0.42
577.549	-1.03
577.972	-3.03
578.394	-2.79
578.817	-0.78
579.239	-0.77
579.661	-0.47
580.084	1.24
580.506	1.64
580.928	1.45
581.35	1.38
581.772	1.88
582.194	2.28
582.616	2.39
583.038	1.89
583.46	0.2
583.882	0.77
584.303	-0.31
584.725	-1.72
585.147	2.29
585.568	2.78
585.99	3.38
586.411	3.93
586.833	4.31
587.254	5.02
587.675	5.58
588.096	4.67
588.518	4.32
588.939	5.1
589.36	5.62
589.781	-0.05
590.202	2.61
590.623	3.03
591.043	1.79
591.464	1.66
591.885	1.9
592.305	1.75
592.726	2.09
593.147	2.23
593.567	2.37
593.987	2.54
594.408	2.4
594.828	-0.71
595.248	-0.68
595.669	0.77
596.089	0.7
596.509	-0.37
596.929	-0.93
597.349	-0.72
597.769	-1.06
598.189	-1.32
598.608	-1.59
599.028	-1.16
599.448	-1.58
599.867	-2.28
600.287	-3.43
600.706	-3.19
601.126	-2.13
601.545	-1.27
601.965	-1.67
602.384	-1.55
602.803	-1.65
603.222	-1.35
603.641	-1.05
604.061	0.24
604.48	0
604.898	0.1
605.317	-0.26
605.736	-0.4
606.155	0.22
606.574	0.42
606.992	0.4
607.411	0.76
607.829	-0.02
608.248	-0.64
608.666	-1.54
609.085	-0.82
609.503	-0.69
609.921	-0.22
610.339	-0.59
610.758	-1.63
611.176	-1.83
611.594	-1.23
612.012	-1.47
612.43	-0.66
612.847	-0.84
613.265	0.39
613.683	-0.11
614.101	-0.09
614.518	-0.79
614.936	-1.02
615.353	-0.1
615.771	0.17
616.188	0.58
616.606	0.74
617.023	0.97
617.44	1.3
617.857	-0.29
618.274	-0.56
618.691	0.49
619.108	0.66
619.525	0.68
619.942	0.46
620.359	-0.13
620.776	-0.48
621.192	0.04
621.609	0.2
622.026	0.61
622.442	0.96
622.859	0.22
623.275	-0.84
623.691	-1.03
624.108	-1.04
624.524	-1.29
624.94	-0.62
625.356	-1.83
625.772	-2.9
626.188	-4.02
626.604	-4.54
627.02	-4.73
627.436	-3.75
627.852	-2.67
628.268	-1.97
628.683	-2.09
629.099	-2.19
629.514	-2.49
629.93	-1.27
630.345	-1.16
630.761	-1.04
631.176	-0.54
631.591	2.1
632.007	3.02
632.422	1.26
632.837	0.39
633.252	1.85
633.667	1.62
634.082	1.57
634.497	1.59
634.911	3.3
635.326	3.75
635.741	4.27
636.155	2.96
636.57	3.49
636.984	4.62
637.399	6.02
637.813	4.66
638.228	4.72
638.642	4.47
639.056	3.95
639.47	3.57
639.884	3.72
640.298	2.89
640.712	3.03
641.126	1.79
641.54	0.83
641.954	-1.36
642.368	-0.94
642.781	1.61
643.195	1.84
643.609	2.57
644.022	1.62
644.436	0.73
644.849	0.02
645.262	-1.18
645.676	-2.04
646.089	-1.75
646.502	0.1
646.915	-0.07
647.328	-1.43
647.741	-0.77
648.154	-0.5
648.567	2
648.98	2.53
649.393	2.64
649.805	3.2
650.218	3.41
650.631	4.29
651.043	4.08
651.456	4.54
651.868	4.05
652.28	2.83
652.693	0.67
653.105	-1.41
653.517	-1.6
653.929	-0.83
654.341	-0.15
654.753	0.06
655.165	-0.59
655.577	-1.45
655.989	-1.45
656.401	-2.45
656.813	-0.71
657.224	0.46
657.636	-0.07
658.047	0.75
658.459	0.59
658.87	-1.21
659.282	-0.92
659.693	-0.49
660.104	0.83
660.515	-0.11
660.926	-0.59
661.338	-1.27
661.749	-2.36
662.159	-1.11
662.57	-2.29
662.981	-2.42
663.392	-2.03
663.803	-2.19
664.213	-2.47
664.624	-3.38
665.035	-3.91
665.445	-3.85
665.855	-2.89
666.266	-0.94
666.676	-1.57
667.086	-2
667.497	-1.69
667.907	-2.02
668.317	-2.07
668.727	1.17
669.137	0.11
669.547	0.72
669.956	0.19
670.366	-0.58
670.776	-0.99
671.186	-1.9
671.595	-0.82
672.005	-1.38
672.414	0.02
672.824	0.97
673.233	-2.43
673.642	-1.26
674.052	0.2
674.461	2.06
674.87	1.81
675.279	2.72
675.688	1.4
676.097	1.6
676.506	0.94
676.915	-0.1
677.323	-0.79
677.732	-1.04
678.141	-1.63
678.549	-3.49
678.958	-4.7
679.366	-5.95
679.775	-7.45
680.183	-4.45
680.592	-5.11
681	-3.96
681.408	-3.58
681.816	-4.07
682.224	-3.62
682.632	-1.66
683.04	-0.92
683.448	-1.31
683.856	-0.29
684.264	0.9
684.671	-1.19
685.079	-1.27
685.487	-2.03
685.894	-2.8
686.302	-3.88
686.709	-4.56
687.116	-5.36
687.524	-4.49
687.931	-3.26
688.338	-1.89
688.745	-3.36
689.152	-3.06
689.559	-2.83
689.966	-0.34
690.373	0.56
690.78	1.99
691.187	3.05
691.593	3.68
692	3.08
692.407	3.34
692.813	5.61
693.22	6.6
693.626	5.62
694.032	6.44
694.439	5.18
694.845	4.24
695.251	3.43
695.657	3.44
696.063	1.41
696.469	0.96
696.875	0.37
697.281	-2.41
697.687	-3.21
698.093	-2
698.498	-1.68
698.904	-3.16
699.31	-2.48
699.715	0.19
700.12	-0.54
700.526	-0.07
700.931	0.08
701.337	1.68
701.742	2.49
702.147	2.04
702.552	2.91
702.957	0.92
703.362	1.49
703.767	1.28
704.172	-1.23
704.577	-1.72
704.981	-2.54
705.386	-2.42
705.791	-2.92
706.195	-4.93
706.6	-3.73
707.004	-5.66
707.408	-5.76
707.813	-4.72
708.217	-3.5
708.621	-3
709.025	-3.65
709.43	-2.09
709.834	-1.81
710.237	-2.53
710.641	-1.18
711.045	-1.66
711.449	0.16
711.853	4.66
712.256	3.84
712.66	3.05
713.064	3
713.467	4.76
713.87	4.79
714.274	4.6
714.677	5.08
715.08	5.09
715.484	5.68
715.887	7.63
716.29	2.9
716.693	3.65
717.096	4.44
717.499	4.29
717.901	4.26
718.304	3.32
718.707	2.18
719.109	1.7
719.512	0.52
719.915	3.14
720.317	1.36
720.719	0.79
721.122	1.13
721.524	0.87
721.926	6.64
722.328	6.15
722.731	5.24
723.133	5.64
723.535	4.93
723.937	5.64
724.338	4.77
724.74	4.66
725.142	57.15
725.544	59.81
725.945	72.87
726.347	67.88
726.748	67.55
727.15	69.76
727.551	75.45
727.952	75.02
728.354	73.95
728.755	73.41
729.156	72.74
729.557	22.09
729.958	18.23
730.359	4.72
730.76	5.07
731.161	4.82
731.562	2.36
731.962	-2.53
732.363	-2.43
732.763	-2.28
733.164	-4.83
733.564	-5.02
733.965	-2.63
734.365	-1.76
734.766	-0.53
735.166	-2.03
735.566	-0.32
735.966	1.26
736.366	1.3
736.766	1.6
737.166	1.37
737.566	1.48
737.966	2.2
738.365	1.54
738.765	1.93
739.165	0.94
739.564	0.99
739.964	-1.28
740.363	-2.28
740.763	-3.37
741.162	-1.73
741.561	-2.25
741.96	-0.72
742.36	-2.09
742.759	-1.88
743.158	-3.06
743.557	-3.19
743.955	-3.27
744.354	-2.76
744.753	-3.37
745.152	-1.27
745.55	-3.73
745.949	-3.59
746.348	-4.65
746.746	-5.7
747.144	-3.98
747.543	-4.87
747.941	-4.86
748.339	-4.6
748.737	-3.74
749.136	-2.06
749.534	-4.65
749.932	-1.55
750.33	-1.42
750.727	-2.2
751.125	-1.05
751.523	-3.15
751.921	0.47
752.318	0.74
752.716	2.95
753.113	2.39
753.511	2.07
753.908	3.76
754.305	7.29
754.703	7.65
755.1	7.76
755.497	7.55
755.894	7.47
756.291	5.04
756.688	5.97
757.085	4.17
757.482	4.06
757.878	5.26
758.275	6.45
758.672	-4.25
759.068	-6.42
759.465	-7.71
759.861	-10.56
760.258	-14.59
760.654	-16.83
761.05	-17.74
761.447	-20.49
761.843	-16.8
762.239	-15.47
762.635	-18.14
763.031	-15.8
763.427	-11.93
763.822	-8.48
764.218	-7.04
764.614	-5.23
765.01	-5.35
765.405	-5.65
765.801	-3.4
766.196	-4.88
766.592	-6.78
766.987	-5.17
767.382	-4.57
767.778	-4.83
768.173	-5.59
768.568	-5.99
768.963	-5.86
769.358	-5.28
769.753	-3.31
770.148	-3.6
770.542	-3.25
770.937	-3.53
771.332	-3.81
771.726	-6.13
772.121	-3.05
772.515	-2.57
772.91	-2.36
773.304	-1.97
773.699	-2.75
774.093	-4.9
774.487	-4.37
774.881	-5.03
775.275	-3.46
775.669	-3.57
776.063	-3.4
776.457	-5.3
776.851	-6
777.245	-4.83
777.638	-4.28
778.032	-4.05
778.425	-2.25
778.819	0.59
779.212	4.5
779.606	6.17
779.999	5.72
780.392	9
780.786	6
781.179	7.37
781.572	7.37
781.965	7.44
782.358	8.65
782.751	6.66
783.143	3.44
783.536	0.09
783.929	-2.94
784.322	-3.85
784.714	-6.07
785.107	-3.18
785.499	-1.49
785.891	0.92
786.284	-0.22
786.676	-2.14
787.068	0.32
787.46	1.18
787.852	-0.86
788.245	-1.45
788.636	-1.61
789.028	1.02
789.42	0.59
789.812	-0.13
790.204	-3.87
790.595	-1.21
790.987	2.15
791.378	2.18
791.77	-0.44
792.161	1.44
792.553	1.79
792.944	2.37
793.335	-0.32
793.726	0.57
794.117	1.22
794.508	-0.17
794.899	-3.65
795.29	-6.94
795.681	-8.17
796.072	-6.2
796.463	14.46
796.853	20.3
797.244	21.34
797.634	22.86
798.025	22.28
798.415	18.79
798.806	22.2
799.196	25.59
799.586	29.21
799.976	30.62
800.366	30.78
800.756	8.48
801.146	4.36
801.536	2.89
801.926	0.93
802.316	0.75
802.706	1.13
803.095	0.71
803.485	-1.64
803.874	-4.89
804.264	-7.88
804.653	-8.3
805.043	-5
805.432	-2.6
805.821	1.21
806.21	4.13
806.599	2.13
806.988	4.5
807.377	0.72
807.766	-0.58
808.155	-0.61
808.544	1.36
808.933	1.34
809.321	2.53
809.71	-1.69
810.098	-3.74
810.487	-9.31
810.875	-9.75
811.264	-10.75
811.652	2.33
812.04	4.23
812.428	5.96
812.816	0.4
813.204	4.57
813.592	-2.8
813.98	-4.91
814.368	-0.93
814.756	3.7
815.144	2.74
815.531	6.44
815.919	-4.67
816.306	-5.3
816.694	-4.06
817.081	2.96
817.469	1.09
817.856	1.57
818.243	0.87
818.63	-4.45
819.017	-2.42
819.404	3.19
819.791	-1.75
820.178	-5.36
820.565	-2.75
820.952	6.56
821.339	5.75
821.725	5.17
822.112	10.04
822.498	13.46
822.885	13.34
823.271	9.04
823.657	3.76
824.044	8.06
824.43	7.18
824.816	13.32
825.202	6.34
825.588	6.14
825.974	7.74
826.36	6.97
826.746	5.97
827.132	6.2
827.517	13.5
827.903	16.31
828.289	17.89
828.674	20.2
829.06	14.39
829.445	9
829.83	5.39
830.216	3.75
830.601	6.84
830.986	14.56
831.371	15.74
831.756	16.55
832.141	20.92
832.526	18.95
832.911	21.87
833.295	20.02
833.68	22.7
834.065	26.49
834.449	26.13
834.834	26.08
835.218	25.3
835.603	27.57
835.987	22.53
836.371	19.11
836.755	20.37
837.139	16.21
837.524	12.98
837.908	9.84
838.291	13.04
838.675	12.08
839.059	8.79
839.443	3.22
839.827	-3.56
840.21	-5.66
840.594	-2.52
840.977	-1
841.361	-0.55
841.744	-1.09
842.127	2.56
842.511	-3.15
842.894	-6.03
843.277	-7.58
843.66	-10.23
844.043	-5.12
844.426	-2.02
844.809	-7.48
845.191	-10.39
845.574	-7.28
845.957	-3.48
846.339	-1.45
846.722	0.21
847.104	1.61
847.487	-1.76
847.869	1.28
848.252	3.53
848.634	3.57
849.016	5.03
849.398	1.43
849.78	-1.32
850.162	0.94
850.544	-1.11
850.926	-3.91
851.307	-2.25
851.689	1.33
852.071	-5.44
852.452	-10.88
852.834	-11.55
853.215	-6.09
853.597	-2.04
853.978	4.89
854.359	1.86
854.741	2.66
855.122	1.99
855.503	-1.54
855.884	-2.86
856.265	4.23
856.646	-0.32
857.026	3.44
857.407	2.02
857.788	-0.85
858.169	-10.54
858.549	-1.1
858.93	-1.2
859.31	3.23
859.69	8.33
860.071	8.57
860.451	8.21
860.831	13.95
861.211	10.12
861.591	6.03
861.971	1.69
862.351	1.49
862.731	-9.86
863.111	-8.18
863.491	-7.91
863.87	-10.54
864.25	-11.51
864.629	-4.31
865.009	-7.81
865.388	-8.5
865.768	-14.24
866.147	-6.27
866.526	-1.04
866.905	4.54
867.284	-6.35
867.663	-14.82
868.042	-19.26
868.421	-14.6
868.8	-27.26
869.179	-22.6
869.558	-22.55
869.936	-15.58
870.315	-20.92
870.693	-17.56
871.072	-24.26
871.45	-23.27
871.828	-13.94
872.207	-12.72
872.585	-15.58
872.963	-15.66
873.341	-7.35
873.719	3.03
874.097	4.04
874.475	4.76
874.853	-1.14
875.23	2.35
875.608	7.69
875.986	4.57
876.363	7.38
876.741	20.07
877.118	29.98
877.495	27.62
877.873	26.77
878.25	24.13
878.627	25.47
879.004	28.16
879.381	21.43
879.758	20.46
880.135	18.43
880.512	20.84
880.889	7.48
881.265	-1.37
881.642	-10.02
882.019	-17.42
882.395	-9.55
882.772	-3.89
883.148	-0.69
883.524	7.73
883.901	10.82
884.277	9.87
884.653	3.01
885.029	11.9
885.405	25.2
885.781	28.22
886.157	23.3
886.532	19.06
886.908	14.16
887.284	8.59
887.659	4.69
888.035	1.55
888.411	-0.45
888.786	6.9
889.161	0.41
889.537	-10.3
889.912	-13.73
890.287	-6.82
890.662	-9.96
891.037	-19.19
891.412	-15.46
891.787	-15.98
892.162	-13.27
892.536	-8.53
892.911	-4.41
893.286	-4.6
893.66	-3.79
894.035	2.56
894.409	-3.58
894.784	0.53
895.158	6.62
895.532	9.53
895.906	13.52
896.281	19.78
896.655	21
897.029	15.74
897.402	14.82
897.776	7.44
898.15	1.66
898.524	7.41
898.898	12
899.271	14.13
899.645	17.74
900.018	16.48
900.392	9.73
900.765	-3.66
901.138	1.09
901.511	-1.91
901.884	19.52
902.258	24.58
902.631	27.7
903.003	18.82
903.376	15.65
903.749	16.78
904.122	6.57
904.495	1.97
904.867	-1.63
905.24	3.48
905.612	-1.9
905.985	-24.02
906.357	-37.72
906.729	-32.11
907.102	-12.33
907.474	-6.84
907.846	-2.9
908.218	-0.75
908.59	10.98
908.962	20.24
909.334	25.83
909.705	35.38
910.077	35.71
910.449	42.15
910.82	40.57
911.192	36.06
911.563	38.36
911.935	23.35
912.306	19.1
912.677	8.76
913.048	18.68
913.419	-0.65
913.79	-13.54
914.161	-3.69
914.532	4.52
914.903	6.74
915.274	2.79
915.645	6.57
916.015	5.71
916.386	3.09
916.756	-7.32
917.127	-28.96
917.497	-14.08
917.868	-10.12
918.238	-10.85
918.608	-24.38
918.978	-28.62
919.348	-31.7
919.718	-37.23
920.088	-34
920.458	-9.53
920.828	-9.75
921.198	7.8
921.567	-7.63
921.937	-1.16
922.306	-22.53
922.676	-29.87
923.045	-7.35
923.415	1.69
923.784	5.12
924.153	19.23
924.522	16.54
924.891	20.25
925.26	17.78
925.629	18.72
925.998	18.93
926.367	39.35
926.736	70.27
927.104	61.06
927.473	46.53
927.842	39.43
928.21	-0.1
928.578	-28.67
928.947	-18.78
929.315	-11.06
929.683	10.03
930.051	-4.73
930.42	-44.13
930.788	-72.5
931.156	-60.53
931.523	-19.59
931.891	-0.45
932.259	33.45
932.627	64.06
932.994	70.12
933.362	101.81
933.729	94.4
934.097	104.9
934.464	118.36
934.831	112.85
935.199	99.93
935.566	83.18
935.933	57.73
936.3	55.36
936.667	35.38
937.034	109.56
937.401	64.41
937.767	40.11
938.134	30.05
938.501	14.45
938.867	49.53
939.234	53.86
939.6	23.25
939.967	68.44
940.333	70.05
940.699	31.25
941.065	-56.18
941.431	-59.24
941.798	-16.13
942.163	22.18
942.529	12.17
942.895	-13.91
943.261	5.42
943.627	5.59
943.992	14.63
944.358	-2.17
944.723	33.66
945.089	34.85
945.454	44.91
945.82	36.88
946.185	10.14
946.55	24.04
946.915	29.77
947.28	32.09
947.645	17.39
948.01	26.76
948.375	67.7
948.74	55.86
949.104	53.79
949.469	7.46
949.834	-49.5
950.198	129.36
950.562	120.82
950.927	130.95
951.291	146.58
951.655	133.62
952.02	73.75
952.384	28.71
952.748	50.23
953.112	93.03
953.476	90.81
953.839	88.4
954.203	91.91
954.567	89.83
954.931	74.27
955.294	81.14
955.658	92.45
956.021	148.98
956.385	172.01
956.748	249.96
957.111	97
957.474	65.36
957.837	-223.47
958.2	-524.27
958.563	-144.4
958.926	-39.55
959.289	-154.34
959.652	-160.61
960.015	-76.91
960.377	-101.73
960.74	-192.59
961.102	-450.86
961.465	-334.73
961.827	329.7
962.189	754.57
962.552	559.83
962.914	384.85
963.276	305.25
963.638	236.65
964	200.87
964.362	179.25
964.724	163.54
965.085	141.72
965.447	121.55
965.809	41.35
966.17	8.22
966.532	-16.18
966.893	-0.48
967.255	-2.46
967.616	-28.39
967.977	-18.28
968.338	-50.52
968.699	-17.25
969.061	-29.61
969.421	-38.3
969.782	-48.72
970.143	-2.31
970.504	41.13
970.865	56.71
971.225	90.13
971.586	91.95
971.946	114.13
972.307	103.26
972.667	81.23
973.027	98.23
973.388	79.53
973.748	54.95
974.108	13.97
974.468	-116.26
974.828	-43.9
975.188	-69.26
975.548	-52.38
975.907	-29.03
976.267	-32.51
976.627	5.48
976.986	-8.77
977.346	-11.16
977.705	-8.01
978.064	-3.41
978.424	17.57
978.783	-19.39
979.142	-29.88
979.501	-12.79
979.86	-6.14
980.219	-19.2
980.578	-54.55
980.937	-67.47
981.296	-40.16
981.654	-29.49
982.013	-64.45
982.371	-79.2
982.73	-51.07
983.088	-36.48
983.447	-55.93
983.805	-40.31
984.163	-112.44
984.521	-197.5
984.879	-402.67
985.237	1051.08
985.595	-723.47
985.953	-259.36
986.311	-194.46
986.669	-109.14
987.026	-99.41
987.384	-212.08
987.741	-257.97
988.099	-126.94
988.456	-95.15
988.814	-63.05
989.171	-48.6
989.528	-95.71
989.885	-100.01
990.242	-72.37
990.599	-117.34
990.956	-98
991.313	-42.26
991.67	-36.46
992.027	6.28
992.383	13.47
992.74	16.23
993.096	26.46
993.453	37.07
993.809	34.99
994.165	45.65
994.522	96.93
994.878	104.76
995.234	114.38
995.59	110.24
995.946	16.46
996.302	20.14
996.658	-2.36
997.013	-20.96
997.369	-12.31
997.725	34.27
998.08	22.02
998.436	-118.98
998.791	-172.83
999.147	-164.74
999.502	-143.42
999.857	-105.76
1000.212	-220.09
1000.567	-183.5
1000.922	-116.45
1001.277	-91.75
1001.632	-80.57
1001.987	-87.56
1002.342	-43.87
1002.696	-12.79
1003.051	10.52
1003.406	22.9
1003.76	17.41
1004.114	25.73
1004.469	15.63
1004.823	22.23
1005.177	31.61
1005.531	27.09
1005.885	32.03
1006.239	51.77
1006.593	73.54
1006.947	95.99
1007.301	52.43
1007.655	69.27
1008.008	57.35
1008.362	57.18
1008.715	72.11
1009.069	47.3
1009.422	161.2
1009.776	224.53
1010.129	51.16
1010.482	-14.7
1010.835	-62.8
1011.188	-222.67
1011.541	-253.17
1011.894	1965.38
1012.247	-5590.65
1012.6	-369.42
1012.952	-176.63
1013.305	-159.79
1013.657	-70.55
1014.01	-63.59
1014.362	-63.12
1014.715	7.88
1015.067	25.51
1015.419	26.03
1015.771	30.23
1016.123	42.19
1016.475	43.15
1016.827	39.65
1017.179	49.04
1017.531	17.3
1017.883	7.44
1018.234	73.58
1018.586	62.06
1018.938	104.85
1019.289	133.9
1019.64	136.38
1019.992	115.93
1020.343	94.15
1020.694	119.13
1021.045	112.02
1021.396	128.8
1021.747	165.91
1022.098	113.52
1022.449	81.46
1022.8	64.66
1023.151	76.14
1023.501	77.39
1023.852	70.6
1024.202	105.5
1024.553	74.56
1024.903	99.25
1025.253	125.54
1025.604	121.41
1025.954	125.81
1026.304	121.67
1026.654	118.72
1027.004	112.09
1027.354	110.49
1027.703	208.1
1028.053	87.02
1028.403	471.84
1028.753	240.85
1029.102	-594.99
1029.452	-6137.31
1029.801	-309.42
1030.15	-203.12
1030.499	-202.93
897.758	1827.24
901.051	1758.23
904.343	1792.33
907.636	1799.04
910.928	1851.59
914.22	1785.95
917.511	1789.12
920.803	1828.12
924.094	1819
927.384	1826.93
930.675	1793.99
933.965	1766.27
937.255	1800.59
940.544	1774.86
943.834	1762.03
947.123	1713.01
950.411	1786.11
953.7	1770.74
956.988	1762.11
960.276	1703
963.563	1735.76
966.851	1746.32
970.138	1778.31
973.424	1778.18
976.711	1735.07
979.997	1782.15
983.283	1815.03
986.568	1760.57
989.853	1743.16
993.138	1763.43
996.423	1839.92
999.708	1810.28
1002.992	1833.69
1006.275	1754.42
1009.559	1757.56
1012.842	1836.89
1016.125	1798.27
1019.408	1781.55
1022.69	1821.41
1025.972	1851.66
1029.254	1832.97
1032.536	1806.91
1035.817	1806.47
1039.098	1780.48
1042.379	1819.44
1045.659	1840
1048.939	1796.66
1052.219	1798.28
1055.498	1786.83
1058.778	1784.03
1062.057	1762.5
1065.335	1782.57
1068.614	1786.14
1071.892	1786.3
1075.17	1825
1078.447	1831.27
1081.724	1823.84
1085.001	1842.2
1088.278	1821.07
1091.554	1820.96
1094.83	1817.3
1098.106	1846.75
1101.382	1867.14
1104.657	1866.1
1107.932	1866.35
1111.206	1847.01
1114.481	1805.13
1117.755	1808.65
1121.029	1803.73
1124.302	1855.82
1127.575	1833.27
1130.848	1831.67
1134.121	1809.86
1137.393	1777.42
1140.665	1825
1143.937	1804.94
1147.208	1761.48
1150.48	1814.54
1153.75	1802.67
1157.021	1798.59
1160.291	1779.4
1163.561	1824.18
1166.831	1790.82
1170.101	1809.13
1173.37	1774.19
1176.639	1741.63
1179.907	1777.32
1183.176	1799.66
1186.444	1798.99
1189.711	1817.6
1192.979	1841.36
1196.246	1806.09
1199.513	1814.73
1202.78	1819.73
1206.046	1828.25
1209.312	1852.4
1212.578	1862.58
1215.843	1837.28
1219.108	1813.08
1222.373	1830.38
1225.638	1812.07
1228.902	1806.72
1232.166	1771.75
1235.43	1763.99
1238.693	1791.42
1241.956	1782.46
1245.219	1828.66
1248.482	1811.48
1251.744	1810.94
1255.006	1901.93
1258.268	1861.15
1261.529	1828.5
1264.79	1824.69
1268.051	1900.49
1271.312	1907.9
1274.572	1879.7
1277.832	1867.91
1281.092	1847.84
1284.351	1846.12
1287.61	1833.81
1290.869	1786.17
1294.128	1785.35
1297.386	1813.73
1300.644	1808.86
1303.902	1819.79
1307.159	1711.21
1310.416	1753.31
1313.673	1779.63
1316.93	1779.58
1320.186	1802.11
1323.442	1828.07
1326.697	1832.17
1329.953	1807.63
1333.208	1843.19
1336.463	1821.47
1339.717	1794.96
1342.972	1880.18
1346.226	1859.64
1349.479	1824.55
1352.733	1811.1
1355.986	1813.63
1359.238	1800.5
1362.491	1805.44
1365.743	1806.38
1368.995	1799.95
1372.247	1816.17
1375.498	1831.6
1378.749	1874.37
1382	1834.32
1385.251	1858.86
1388.501	1819.49
1391.751	1826.2
1395	1799.29
1398.25	1821.51
1401.499	1850.04
1404.748	1813.53
1407.996	1792.75
1411.244	1786.18
1414.492	1776.98
1417.74	1765.5
1420.987	1768.48
1424.234	1820.76
1427.481	1785.42
1430.728	1835.07
1433.974	1815.44
1437.22	1807.68
1440.465	1802.65
1443.711	1811.4
1446.956	1826.3
1450.201	1797.21
1453.445	1832.51
1456.689	1823.95
1459.933	1831.65
1463.177	1866.06
1466.42	1842.54
1469.663	1827.73
1472.906	1843.81
1476.148	1883.58
1479.391	1841.66
1482.633	1824.33
1485.874	1848.42
1489.115	1854.68
1492.356	1837.53
1495.597	1820.56
1498.838	1807.06
1502.078	1796.89
1505.318	1776.01
1508.557	1799.96
1511.797	1795.49
1515.036	1846.45
1518.274	1809.17
1521.513	1760.51
1524.751	1768.25
1527.989	1786.78
1531.227	1800.58
1534.464	1816.15
1537.701	1805.27
1540.938	1811.64
1544.174	1766.27
1547.41	1753.02
1550.646	1782.36
1553.882	1826.48
1557.117	1876.34
1560.352	1879.15
1563.587	1848.5
1566.821	1823.24
1570.055	1830.05
1573.289	1811.64
1576.523	1854.43
1579.756	1867.43
1582.989	1886.61
1586.222	1848.06
1589.454	1873.86
1592.686	1860.9
1595.918	1882.55
1599.15	1879.3
1602.381	1912.38
1605.612	1902.04
1608.843	1979.45
1612.073	1915.99
1615.303	1907.94
1618.533	1905.1
1621.762	1905.85
1624.992	1876.81
1628.221	1881.63
1631.449	1871.68
1634.678	1887.86
1637.906	1859.67
1641.134	1880.58
1644.361	1850.8
1647.588	1846.86
1650.815	1865.98
1654.042	1830.78
1657.269	1853.31
1660.495	1845.64
1663.72	1824.85
1666.946	1800.46
1670.171	1788.9
1673.396	1765.35
1676.621	1749.16
1679.845	1742.84
1683.069	1743.67
1686.293	1765.29
1689.517	1763.85
1692.74	1728.73
1695.963	1744.11
1699.185	1781.59
1702.408	1762
1705.63	1782.64
1708.852	1801.46
1712.073	1774.99
1715.294	1791.68
1718.515	1826.5
1721.736	1796.16
1724.956	1777.53
1728.176	1795.34
1731.396	1812.63
1734.616	1803.38
1737.835	1836.62
1741.054	1807.87
1744.272	1804.01
1747.491	1842.52
1750.709	1853.91
1753.927	1822.19
1757.144	1838.72
1760.361	1889.61
1763.578	1862.9
1766.795	1823.6
1770.011	1811.7
1773.227	1828.46
1776.443	1867.6
1779.658	1900.2
1782.874	1851.85
1786.089	1850.46
1789.303	1851.31
1792.518	1848.21
1795.732	1840.15
1798.945	1857.9
1802.159	1892.51
1805.372	1854.85
1808.585	1850.98
1811.797	1851.36
1815.01	1865.03
1818.222	1891.16
1821.434	1852.65
1824.645	1884.86
1827.856	1899.59
1831.067	1921.48
1834.278	1867.27
1837.488	1855.18
1840.698	1951.83
1843.908	1912.05
1847.117	1887.7
1850.326	1835.63
1853.535	1878.59
1856.744	1917.32
1859.952	1856.22
1863.16	1858.29
1866.368	1874.21
1869.575	1972.87
1872.782	1874.26
1875.989	1821.3
1879.196	1857.58
1882.402	1854.85
1885.608	1882.43
1888.814	1844.33
1892.019	1771.29
1895.224	1818.34
1898.429	1787.16
1901.634	1775.61
1904.838	1757.87
1908.042	1812.1
1911.246	1825.03
1914.449	1800.6
1917.652	1782.94
1920.855	1767.39
1924.058	1782.11
1927.26	1825.34
1930.462	1841.23
1933.664	1881.58
1936.865	1834.45
1940.066	1850.1
1943.267	1801.39
1946.467	1809.95
1949.668	1822.26
1952.868	1882.43
1956.067	1878.92
1959.267	1829.34
1962.466	1848.18
1965.665	1831.13
1968.863	1827.48
1972.061	1822.2
1975.259	1814.58
1978.457	1879.34
1981.654	1844.28
1984.852	1848.68
1988.048	1814.4
1991.245	1799.6
1994.441	1875.92
1997.637	1829.68
2000.833	1817.1
2004.028	1843.52
2007.223	1902.81
2010.418	1894.82
2013.613	1847.32
2016.807	1848.82
2020.001	1839.79
2023.194	1853.77
2026.388	1840.99
2029.581	1793.15
2032.774	1854.98
2035.966	1862.15
2039.158	1819.72
2042.35	1834.94
2045.542	1768.39
2048.733	1837.06
2051.924	1819.56
2055.115	1830.55
2058.306	1806.27
2061.496	1850.45
2064.686	1889.29
2067.875	1807.23
2071.065	1805.61
2074.254	1819.34
2077.442	1779.85
2080.631	1853.16
2083.819	1803.72
2087.007	1800.88
2090.195	1791.99
2093.382	1796.74
2096.569	1788.11
2099.756	1757.56
2102.942	1803.66
2106.128	1819.57
2109.314	1808.38
2112.5	1802.08
2115.685	1769.18
2118.87	1775.74
2122.055	1828.24
2125.239	1813.48
2128.424	1807.7
2131.608	1845.67
2134.791	1832.53
2137.974	1861.14
2141.157	1851.51
2144.34	1831.7
2147.523	1814.84
2150.705	1843.03
2153.887	1809.83
2157.068	1794.02
2160.25	1769.34
2163.431	1785.32
2166.611	1766.62
2169.792	1786.29
2172.972	1710.33
2176.152	1751.42
2179.331	1772.86
2182.511	1781.69
2185.69	1798.96
2188.868	1805.45
2192.047	1829.3
2195.225	1854.34
2198.403	1807.55
2201.58	1793.23
2204.758	1779.19
2207.935	1843.32
2211.111	1776.34
2214.288	1766.78
2217.464	1794.52
2220.64	1751.9
2223.815	1794.89
2226.991	1739.33
2230.166	1750.09
2233.34	1793.72
2236.515	1803.81
2239.689	1858.32
2242.863	1818.2
2246.036	1859.58
2249.209	1844.28
2252.382	1856.54
2255.555	1870.7
2258.727	1831.19
2261.9	1852.61
2265.071	1848.18
2268.243	1845.98
2271.414	1805.34
2274.585	1795.85
2277.756	1846.88
2280.926	1812.77
2284.096	1833.07
2287.266	1779.08
2290.436	1818.39
2293.605	1832.57
2296.774	1870.45
2299.942	1868.48
2303.111	1880.85
2306.279	1929.34
2309.447	1915.72
2312.614	1890.26
2315.781	1911.82
2318.948	1892.55
2322.115	1925.76
2325.281	1835.61
2328.447	1839.49
2331.613	1812.94
2334.779	1811.36
2337.944	1804.91
2341.109	1806.81
2344.274	1799.07
2347.438	1771.58
2350.602	1789.33
2353.766	1795.27
2356.929	1787.13
2360.092	1818.04
2363.255	1798.04
2366.418	1776.44
2369.58	1814.19
2372.742	1754.64
2375.904	1735.56
2379.066	1726.81
2382.227	1745.6
2385.388	1712.85
2388.548	1675.57
2391.709	1706.52
2394.869	1705.11
2398.029	1736.61
2401.188	1725.32
2404.347	1710.6
2407.506	1738.57
2410.665	1786.04
2413.823	1765.43
2416.981	1753.53
2420.139	1764.14
2423.296	1800.2
2426.453	1776.09
2429.61	1793.14
2432.767	1782.04
2435.923	1819.53
2439.079	1762.07
2442.235	1790.23
2445.391	1741
2448.546	1782.16
2451.701	1810.42
2454.855	1812.75
2458.009	1829.92
2461.163	1817.16
2464.317	1794.4
2467.471	1813.96
2470.624	1836.33
2473.777	1838.05
2476.929	1851.38
2480.082	1869.35
2483.234	1852.11
2486.385	1793.79
2489.537	1787.96
2492.688	1788.8
2495.839	1804.17
2498.989	1816.52
2502.14	1807.83
2505.29	1805.38
2508.439	1822.6
2511.589	1776.41
2514.738	1773.27
2517.887	1789.31
2521.035	1861.66
2524.183	1817.57
2527.331	1807.4
2530.479	1807.4
2533.627	1808.5
