Data from C_1_DEC_OH_4N_Splice17_11-56-05-627.txt Node
Date: Sat Mar 14 11:56:05 EDT 2020
User: sa697716
Spectrometer: FLMS03696
Trigger mode: 0
Integration Time (sec): 3.180400E-1
Scans to average: 20
Electric dark correction enabled: true
Nonlinearity correction enabled: true
Boxcar width: 5
XAxis mode: Wavelengths
Number of Pixels in Spectrum: 2048
>>>>>Begin Spectral Data<<<<<
187.83	-144878.89
188.298	1152.33
188.766	672.18
189.233	543.83
189.701	789.97
190.169	1287.18
190.636	513.3
191.104	446.34
191.571	94.65
192.039	-44.98
192.506	-95.52
192.974	488.37
193.441	-923.86
193.908	-332.75
194.375	-146.41
194.842	-83.43
195.31	-22.11
195.777	102.67
196.244	303.83
196.711	432.82
197.177	564.42
197.644	828.27
198.111	1448.12
198.578	2050.88
199.045	1634.03
199.511	2698.34
199.978	3178.32
200.445	2747
200.911	3057.01
201.378	3433.07
201.844	3115.45
202.31	5336.53
202.777	5555.61
203.243	3092.77
203.709	2971.29
204.176	3571.88
204.642	2945.6
205.108	2715.63
205.574	2212.36
206.04	2001.96
206.506	1876.77
206.972	1781.67
207.438	1722.45
207.903	1963.61
208.369	1721.34
208.835	1686.9
209.301	1766.85
209.766	1809.16
210.232	1808.78
210.697	2240.94
211.163	2797.59
211.628	4226.56
212.094	3536.93
212.559	4344.82
213.024	2701.68
213.49	3289.35
213.955	3249.32
214.42	3180.24
214.885	2961.92
215.35	2834.47
215.815	2704.87
216.28	2873.63
216.745	2339.4
217.21	2555.31
217.675	2360.92
218.14	2685.59
218.604	3029.22
219.069	3499.81
219.534	3701
219.998	4362.72
220.463	5341.95
220.927	6669.13
221.392	6320.43
221.856	6435.68
222.32	8151.44
222.785	10121.05
223.249	12771.86
223.713	14334.58
224.177	14359.13
224.642	18457.23
225.106	22748.83
225.57	24890.57
226.034	18534.21
226.497	28253.18
226.961	25541.17
227.425	29738.08
227.889	33036.16
228.353	33088.57
228.816	68172.54
229.28	65219.66
229.744	55053.07
230.207	33473.88
230.671	32983.33
231.134	54613.62
231.597	63006.78
232.061	62984.36
232.524	61476.57
232.987	42379.42
233.45	38090.48
233.914	34229.65
234.377	35125.88
234.84	32181.52
235.303	37968.52
235.766	42374.1
236.229	43747.85
236.691	27574.2
237.154	31011.86
237.617	23321.37
238.08	23859.56
238.542	27964.72
239.005	19980.49
239.468	19821.32
239.93	18662.58
240.393	16944.23
240.855	14867.01
241.317	15230.64
241.78	18503.69
242.242	19111.1
242.704	20627.37
243.166	17947.39
243.629	16285.73
244.091	18757.58
244.553	20538.08
245.015	22089.87
245.477	28591.82
245.939	41914.62
246.4	44469.6
246.862	43275.22
247.324	40818.64
247.786	45652.58
248.247	59846.93
248.709	61729.69
249.17	46160.63
249.632	43489.3
250.093	50383.59
250.555	43506.53
251.016	26507.27
251.477	25144.91
251.939	27106.52
252.4	28421.63
252.861	33826.04
253.322	31468.25
253.783	37492.51
254.244	48679.33
254.705	38422.66
255.166	34200.68
255.627	33670.44
256.088	47545.24
256.549	50531.87
257.009	43526.04
257.47	52859.59
257.931	43047.26
258.391	32307.45
258.852	33323.67
259.312	34954.73
259.773	43188.84
260.233	36484.7
260.694	30759.14
261.154	34899.14
261.614	27997.2
262.074	25055.02
262.534	26030.36
262.994	24551.81
263.455	32709.05
263.915	27568.94
264.374	25972.24
264.834	28364.09
265.294	31459.12
265.754	32614.52
266.214	30869.89
266.673	28937.81
267.133	36546.17
267.593	36291.97
268.052	44418.65
268.512	38605.77
268.971	46570
269.431	51063.07
269.89	45731.81
270.349	68550.96
270.809	76433.13
271.268	68745.72
271.727	154285.15
272.186	99999.78
272.645	75013.93
273.104	54151.25
273.563	78456.04
274.022	61730.87
274.481	52504.49
274.94	40457.52
275.399	30083.97
275.857	35074.02
276.316	47447.09
276.775	42230.07
277.233	41538.61
277.692	38859.51
278.15	43911.54
278.609	45196.81
279.067	41805.61
279.525	38880.86
279.984	50248.46
280.442	60378.59
280.9	59441.03
281.358	39127.42
281.816	36455.54
282.274	35712.01
282.732	36956.17
283.19	37193.52
283.648	32105.31
284.106	34176.21
284.564	34739.61
285.021	32193.69
285.479	23986.2
285.937	21830.24
286.394	19135.63
286.852	19687.49
287.309	20709.73
287.767	19987.88
288.224	19002.79
288.682	20842.71
289.139	22886.55
289.596	20938.44
290.053	21758.4
290.511	27475.47
290.968	33329.29
291.425	45312.04
291.882	37702.15
292.339	32785.32
292.796	32532.13
293.252	30664.33
293.709	24351.23
294.166	21831.39
294.623	24143.63
295.079	23171.34
295.536	23287.31
295.992	21130.64
296.449	20870.6
296.905	21703.7
297.362	20793.76
297.818	21866.85
298.274	22671.01
298.731	23114.23
299.187	22872.7
299.643	24545.73
300.099	29695.29
300.555	32528.34
301.011	27195.85
301.467	26193.55
301.923	30686.27
302.379	29997.6
302.835	29488.22
303.291	29506.76
303.746	33602.36
304.202	42482.14
304.658	42633.02
305.113	28663.73
305.569	28116.39
306.024	30012.89
306.479	28621.51
306.935	24108.57
307.39	26315.99
307.845	24286.44
308.301	24472.93
308.756	23844.73
309.211	22939.9
309.666	23509.3
310.121	29180.05
310.576	29587.64
311.031	29321.52
311.486	33561.35
311.94	33528.62
312.395	44828.24
312.85	84267.83
313.305	413821.66
313.759	2138771.89
314.214	155016.66
314.668	122873.8
315.123	103238.74
315.577	37028.93
316.032	32936.99
316.486	41235.72
316.94	32509.31
317.394	22642.03
317.849	17594.32
318.303	16638.14
318.757	15678.11
319.211	17328.16
319.665	15165.78
320.119	15359.59
320.572	22035.86
321.026	20568.71
321.48	17118.41
321.934	18682.25
322.387	18710.06
322.841	20202.6
323.295	18179.55
323.748	20962.7
324.202	21279.42
324.655	25542.98
325.108	35614.3
325.562	25151.05
326.015	29881.91
326.468	22577.44
326.921	25226.71
327.374	23529.79
327.827	24458.21
328.28	27600.05
328.733	18514.77
329.186	16280.94
329.639	15494.12
330.092	13074.23
330.545	12428.44
330.997	12546.94
331.45	13721.25
331.903	16074.48
332.355	27671.65
332.808	26957.8
333.26	22280.03
333.713	24178.02
334.165	24347.67
334.617	32527.29
335.069	26319.38
335.522	47679.01
335.974	52710.57
336.426	48190.91
336.878	33438.55
337.33	16935.09
337.782	16518.29
338.234	20664.51
338.686	24723.14
339.137	29314.16
339.589	27612.7
340.041	21602.66
340.493	18552
340.944	18989.22
341.396	20431
341.847	17157.75
342.299	20243.61
342.75	24705.14
343.201	21637.16
343.653	24884.84
344.104	30555.37
344.555	24048.12
345.006	37468.92
345.457	28640.58
345.908	22768.15
346.359	21431.48
346.81	17476.25
347.261	18423.88
347.712	18128.59
348.163	19432.53
348.613	19635.83
349.064	18338.73
349.515	16081.5
349.965	16493.07
350.416	19887.55
350.866	21853.63
351.317	24705.95
351.767	40853.14
352.217	51606.24
352.668	42848.04
353.118	39226.39
353.568	37907.55
354.018	29983.94
354.468	31603.28
354.918	22663.76
355.368	19862.51
355.818	28037.16
356.268	80595.35
356.718	336886.07
357.168	83808.22
357.617	42075.65
358.067	46862.88
358.517	43822.95
358.966	51365.17
359.416	57553.87
359.865	62189.89
360.315	73908.89
360.764	34468.98
361.213	19333.59
361.663	18327.07
362.112	22655.73
362.561	36598.02
363.01	27567.78
363.459	23198.07
363.908	25141.06
364.357	21299.79
364.806	36004.47
365.255	24776.72
365.703	22692.09
366.152	22693.85
366.601	18398.68
367.05	14917.05
367.498	13530.08
367.947	14127.38
368.395	14687.8
368.844	12981.16
369.292	15659.61
369.74	10823.22
370.189	16527.55
370.637	19367.41
371.085	16704.64
371.533	20380.03
371.981	19644.48
372.429	18721.88
372.877	19507.98
373.325	16350.83
373.773	16652.83
374.221	14809.61
374.669	18332.65
375.116	15860.18
375.564	15958.58
376.012	17812.93
376.459	14649.98
376.907	17493.46
377.354	21166.64
377.801	19722.9
378.249	22624.41
378.696	28895.27
379.143	35011.82
379.591	37294.84
380.038	63149.11
380.485	45660.23
380.932	49317.03
381.379	45072.29
381.826	33183.88
382.273	23517.46
382.72	20504.47
383.166	19956.68
383.613	12905.03
384.06	11632.21
384.506	13467.6
384.953	9865.41
385.4	9907.77
385.846	8668.95
386.292	8442.85
386.739	8235.88
387.185	8148.15
387.631	8158.41
388.078	7898
388.524	8448.93
388.97	7784.85
389.416	6470.8
389.862	6866.33
390.308	6507.52
390.754	6584.79
391.2	7126.97
391.645	7275.65
392.091	6933.84
392.537	6674.56
392.983	6681.06
393.428	6563.75
393.874	7023.69
394.319	7041.64
394.765	6670.46
395.21	6850.6
395.655	6422.18
396.101	6007.79
396.546	5419.68
396.991	5464.43
397.436	5068.17
397.881	4887.46
398.326	4620.45
398.771	4359.12
399.216	3802.26
399.661	3417.71
400.106	3395.52
400.551	3468.34
400.995	3102.36
401.44	3064.81
401.885	2875.65
402.329	2899.28
402.774	2773.03
403.218	2681.84
403.663	2580.9
404.107	2646.61
404.551	2660.53
404.995	2436.4
405.44	2345
405.884	2377.13
406.328	2296.48
406.772	2282.96
407.216	2078.54
407.66	2010.79
408.104	1905.8
408.547	1783.99
408.991	1725.92
409.435	1659.93
409.879	1635.19
410.322	1609.75
410.766	1554.44
411.209	1477.03
411.653	1419.11
412.096	1389.3
412.54	1385.24
412.983	1373.33
413.426	1374.11
413.869	1369.09
414.312	1341.41
414.756	1290.62
415.199	1231.28
415.642	1194.1
416.085	1194.31
416.527	1186.35
416.97	1201.72
417.413	1140.49
417.856	1124.75
418.298	1110.51
418.741	1102.92
419.184	1101.89
419.626	1144.14
420.069	1142.55
420.511	1146.8
420.953	1120.16
421.396	1105.5
421.838	1076.25
422.28	1098.81
422.722	1108.51
423.164	1125.62
423.606	1105.92
424.048	1100.23
424.49	1048.1
424.932	1042.9
425.374	1028.46
425.816	1047.12
426.258	1068.58
426.699	1080.58
427.141	1065
427.582	1077.38
428.024	1068.9
428.465	1061.84
428.907	1035.9
429.348	1021.63
429.789	1020.22
430.231	999.01
430.672	1009.82
431.113	983.17
431.554	969.18
431.995	943.35
432.436	910.77
432.877	891.65
433.318	878.87
433.759	874.77
434.2	874.55
434.64	867.36
435.081	869.57
435.522	825.35
435.962	796.39
436.403	778.99
436.843	791.31
437.284	773.86
437.724	753.37
438.164	752.35
438.604	737.01
439.045	708.67
439.485	679.55
439.925	665.8
440.365	648.18
440.805	639.02
441.245	629.63
441.685	605.13
442.125	599.21
442.564	602.23
443.004	588.34
443.444	585.76
443.883	586.89
444.323	580.32
444.762	579.44
445.202	586.01
445.641	595.92
446.081	591.61
446.52	595.48
446.959	588.86
447.398	573.63
447.837	565.94
448.276	555.08
448.716	560.08
449.154	563.38
449.593	549.49
450.032	547.51
450.471	536.56
450.91	536.99
451.349	536.15
451.787	533.76
452.226	541.1
452.664	540.33
453.103	540.32
453.541	536.11
453.98	534.7
454.418	537.24
454.856	529.57
455.295	528.55
455.733	531.43
456.171	533.71
456.609	533.71
457.047	533.02
457.485	541.24
457.923	541.48
458.361	534.56
458.798	537.05
459.236	535.92
459.674	538.94
460.111	541.41
460.549	536.99
460.987	534.46
461.424	532.56
461.862	530.38
462.299	522.16
462.736	522.09
463.173	523.81
463.611	518.87
464.048	518.95
464.485	523.59
464.922	519.68
465.359	517.05
465.796	512.75
466.233	510.44
466.67	506.67
467.106	506.75
467.543	502.09
467.98	496.9
468.416	484
468.853	478.23
469.29	464.54
469.726	458.26
470.162	446.38
470.599	438.94
471.035	433.58
471.471	422.96
471.907	419.13
472.344	417.04
472.78	417.3
473.216	420.51
473.652	416.08
474.088	413.06
474.523	411.38
474.959	414.49
475.395	410.32
475.831	407.79
476.266	408.51
476.702	406.37
477.138	400.41
477.573	398.21
478.008	396.94
478.444	397.88
478.879	401.09
479.314	402.64
479.75	400.69
480.185	402.11
480.62	404.66
481.055	406.41
481.49	409.06
481.925	414.42
482.36	422.12
482.795	433.62
483.229	444.28
483.664	452.78
484.099	453.95
484.534	461.81
484.968	465.9
485.403	467.4
485.837	466.64
486.271	465.46
486.706	465.53
487.14	459.17
487.574	451.18
488.009	447.26
488.443	443.31
488.877	447.59
489.311	447.97
489.745	452.81
490.179	456.44
490.613	465.57
491.046	469.03
491.48	471.68
491.914	472.86
492.348	475.84
492.781	478.61
493.215	479.64
493.648	479.72
494.082	483.2
494.515	483.03
494.948	488.07
495.382	490.23
495.815	493.59
496.248	497.68
496.681	506.58
497.114	515.28
497.547	522.42
497.98	532.23
498.413	538.17
498.846	545.75
499.279	552.4
499.711	556.41
500.144	559.26
500.577	566.96
501.009	576.2
501.442	584.1
501.874	586.51
502.306	588.91
502.739	595.68
503.171	606.88
503.603	611.44
504.036	620.62
504.468	627.06
504.9	637.47
505.332	645.3
505.764	651.3
506.196	659.01
506.627	672.35
507.059	685.99
507.491	695.68
507.923	698.29
508.354	712.93
508.786	724.47
509.217	742.33
509.649	757.09
510.08	775.67
510.512	792.21
510.943	808.76
511.374	822.43
511.805	842.62
512.237	862.6
512.668	892.8
513.099	919.75
513.53	946.87
513.961	968.45
514.391	999.71
514.822	1032.73
515.253	1068.69
515.684	1094.8
516.114	1125.16
516.545	1149.28
516.975	1177.01
517.406	1198.07
517.836	1205.53
518.267	1217.12
518.697	1238.94
519.127	1248.11
519.558	1259.75
519.988	1268.24
520.418	1283.54
520.848	1304.3
521.278	1317.38
521.708	1339.85
522.138	1356.39
522.567	1389.06
522.997	1415.7
523.427	1433.51
523.857	1454.26
524.286	1468.62
524.716	1486.23
525.145	1506.97
525.575	1519.83
526.004	1536.48
526.433	1534.53
526.863	1537.62
527.292	1532.02
527.721	1540.5
528.15	1548.12
528.579	1550.45
529.008	1562.94
529.437	1586.85
529.866	1601.67
530.295	1620.38
530.724	1632.93
531.152	1659.8
531.581	1675.4
532.01	1694.31
532.438	1703.14
532.867	1719.12
533.295	1739
533.723	1746.55
534.152	1745.64
534.58	1746.67
535.008	1733.03
535.436	1737.37
535.865	1745.42
536.293	1760.33
536.721	1775.98
537.149	1802.5
537.576	1805.93
538.004	1818.45
538.432	1825.73
538.86	1825.04
539.287	1833.53
539.715	1847.48
540.143	1851.25
540.57	1849.41
540.998	1847.26
541.425	1827.02
541.852	1807.26
542.28	1806.21
542.707	1791.18
543.134	1778.61
543.561	1774.59
543.988	1767.44
544.415	1767.72
544.842	1762.44
545.269	1754.16
545.696	1753.85
546.123	1764.18
546.549	1752.96
546.976	1740.69
547.403	1740.55
547.829	1742.55
548.256	1745.34
548.682	1740.59
549.108	1732.24
549.535	1732
549.961	1733.36
550.387	1721.16
550.813	1715.46
551.24	1722.65
551.666	1723.22
552.092	1712.83
552.518	1705.9
552.943	1698.86
553.369	1705.44
553.795	1709.98
554.221	1708.69
554.646	1705.29
555.072	1714.64
555.498	1719.38
555.923	1724.84
556.349	1737.4
556.774	1744.32
557.199	1743.4
557.625	1746.61
558.05	1738.58
558.475	1746.17
558.9	1742.17
559.325	1731.2
559.75	1722.97
560.175	1713.8
560.6	1706.62
561.025	1701.98
561.449	1700.15
561.874	1702.7
562.299	1704.21
562.723	1708.34
563.148	1697.28
563.572	1699.23
563.997	1705.77
564.421	1708.09
564.846	1704.55
565.27	1703.93
565.694	1697.93
566.118	1704.38
566.542	1708.09
566.966	1698.66
567.39	1691.39
567.814	1676.74
568.238	1672.08
568.662	1673.17
569.086	1671.13
569.509	1673.73
569.933	1656.55
570.357	1646.18
570.78	1624.25
571.204	1608.33
571.627	1595.06
572.05	1589.31
572.474	1585.95
572.897	1571.09
573.32	1561.44
573.743	1548.74
574.166	1530.25
574.589	1526.18
575.012	1516.82
575.435	1512.16
575.858	1502.04
576.281	1488.91
576.704	1472.41
577.126	1458.82
577.549	1446.29
577.972	1434.37
578.394	1423.91
578.817	1414.41
579.239	1395.95
579.661	1381.72
580.084	1365.16
580.506	1349.33
580.928	1342.83
581.35	1331.05
581.772	1324.35
582.194	1311.37
582.616	1297.89
583.038	1282.74
583.46	1271.97
583.882	1266.8
584.303	1267.63
584.725	1262.41
585.147	1263.25
585.568	1271.27
585.99	1279.17
586.411	1281.52
586.833	1291.36
587.254	1290.91
587.675	1299.89
588.096	1308.22
588.518	1303.02
588.939	1288
589.36	1284.81
589.781	1273.06
590.202	1248.41
590.623	1240.28
591.043	1238.84
591.464	1227.96
591.885	1224.49
592.305	1219.89
592.726	1207.42
593.147	1207.15
593.567	1202.15
593.987	1195.48
594.408	1191.74
594.828	1189.75
595.248	1183.37
595.669	1167.49
596.089	1160.57
596.509	1153.98
596.929	1141.8
597.349	1141.44
597.769	1132.91
598.189	1127.14
598.608	1126.74
599.028	1126.78
599.448	1125.19
599.867	1114.39
600.287	1109.63
600.706	1104.96
601.126	1096.34
601.545	1095.03
601.965	1093.21
602.384	1087.43
602.803	1087.47
603.222	1083.1
603.641	1076.5
604.061	1072.75
604.48	1067.96
604.898	1072.67
605.317	1075.58
605.736	1075.22
606.155	1071.21
606.574	1061.63
606.992	1064.37
607.411	1059.35
607.829	1050.66
608.248	1046.7
608.666	1042.76
609.085	1040.35
609.503	1032.77
609.921	1026.13
610.339	1026.12
610.758	1023.05
611.176	1018.19
611.594	1009.46
612.012	1005.07
612.43	1006.4
612.847	1009.45
613.265	1008.91
613.683	1011.08
614.101	1009.94
614.518	1005.55
614.936	996.15
615.353	983.84
615.771	980.03
616.188	978.76
616.606	974.56
617.023	966.22
617.44	953.98
617.857	946.7
618.274	938.3
618.691	931.68
619.108	922.86
619.525	917.47
619.942	920.95
620.359	922.11
620.776	917.52
621.192	914.19
621.609	913.25
622.026	918.13
622.442	921.61
622.859	923.45
623.275	918
623.691	921.95
624.108	930.23
624.524	941.03
624.94	940.39
625.356	946.91
625.772	955.34
626.188	962.32
626.604	962.85
627.02	960.12
627.436	958.64
627.852	964.53
628.268	973.13
628.683	965.56
629.099	959.05
629.514	954.78
629.93	957.22
630.345	960.82
630.761	958.18
631.176	960.16
631.591	955.49
632.007	950.38
632.422	947.69
632.837	938.22
633.252	936.24
633.667	926.8
634.082	919.47
634.497	908.64
634.911	893.01
635.326	889.14
635.741	874.59
636.155	865.85
636.57	865.21
636.984	862.7
637.399	862.44
637.813	859.69
638.228	856.85
638.642	857.42
639.056	848.88
639.47	846.02
639.884	838.08
640.298	831.56
640.712	828.68
641.126	818.4
641.54	809.24
641.954	802.76
642.368	792
642.781	785.85
643.195	772.34
643.609	770.11
644.022	764.93
644.436	759.68
644.849	749.04
645.262	738.79
645.676	736.66
646.089	732.35
646.502	721.12
646.915	715.94
647.328	702.44
647.741	699.5
648.154	688.82
648.567	685.54
648.98	675.9
649.393	676.77
649.805	673.41
650.218	668.18
650.631	656.62
651.043	652.21
651.456	648.5
651.868	647.36
652.28	657.49
652.693	665.64
653.105	668.89
653.517	674.47
653.929	673.89
654.341	677.67
654.753	669.16
655.165	674.22
655.577	671
655.989	667.05
656.401	661.79
656.813	638.71
657.224	625.71
657.636	607.14
658.047	595.85
658.459	582.61
658.87	575.23
659.282	568.15
659.693	554.29
660.104	544.49
660.515	535.55
660.926	533.73
661.338	531.76
661.749	527.88
662.159	523.08
662.57	520.94
662.981	518.96
663.392	515.67
663.803	518.34
664.213	518.43
664.624	518.29
665.035	521.97
665.445	514.99
665.855	512.25
666.266	509.57
666.676	509.23
667.086	504.19
667.497	505.93
667.907	503.54
668.317	498.82
668.727	498.37
669.137	499.26
669.547	498.85
669.956	502.11
670.366	503.9
670.776	505.89
671.186	510.28
671.595	514.17
672.005	516.87
672.414	518.22
672.824	518.96
673.233	522.58
673.642	525.38
674.052	528.85
674.461	531.77
674.87	535.87
675.279	536.15
675.688	537.88
676.097	539.98
676.506	538.52
676.915	548.48
677.323	550.57
677.732	550.9
678.141	552.22
678.549	545.56
678.958	545.15
679.366	545.66
679.775	548.37
680.183	556.88
680.592	561.56
681	566.22
681.408	562.16
681.816	568.3
682.224	572.05
682.632	578.42
683.04	598.51
683.448	614.65
683.856	635.35
684.264	658.88
684.671	678.92
685.079	704.65
685.487	733.94
685.894	775.31
686.302	809.58
686.709	840.24
687.116	874.42
687.524	903.43
687.931	929.9
688.338	953.16
688.745	974.1
689.152	999.21
689.559	1034.99
689.966	1071.04
690.373	1092.58
690.78	1128.19
691.187	1182.57
691.593	1227.81
692	1269.73
692.407	1328.31
692.813	1399.8
693.22	1460.43
693.626	1524
694.032	1577.18
694.439	1653.35
694.845	1717.26
695.251	1796.64
695.657	1869.01
696.063	1969.38
696.469	2051.46
696.875	2128.57
697.281	2180
697.687	2240.24
698.093	2292.89
698.498	2378.64
698.904	2450.97
699.31	2549.04
699.715	2624.1
700.12	2726.68
700.526	2762.05
700.931	2844.35
701.337	2909.52
701.742	2958.79
702.147	3056.57
702.552	3104.4
702.957	3178.55
703.362	3211.13
703.767	3255.7
704.172	3312.12
704.577	3280.36
704.981	3341.41
705.386	3369.31
705.791	3377.28
706.195	3466.24
706.6	3488.08
707.004	3580.74
707.408	3563.05
707.813	3606.8
708.217	3605.63
708.621	3620.52
709.025	3732.71
709.43	3746.86
709.834	3821.96
710.237	3905.21
710.641	3901.54
711.045	3936.11
711.449	3943.1
711.853	3982.55
712.256	4037.21
712.66	4087.38
713.064	4175.48
713.467	4229.96
713.87	4357.44
714.274	4417.44
714.677	4545.22
715.08	4727.26
715.484	4917.98
715.887	5142.65
716.29	5369.64
716.693	5602.42
717.096	5873.45
717.499	6023.95
717.901	6059.31
718.304	6099.76
718.707	6137.34
719.109	6036.72
719.512	6011.61
719.915	5871.34
720.317	5819.66
720.719	5873.92
721.122	5847.96
721.524	5801.05
721.926	5762.81
722.328	5881.55
722.731	5875.87
723.133	5911.88
723.535	6129.22
723.937	6155.95
724.338	6218.29
724.74	6266.91
725.142	6186.85
725.544	6188.63
725.945	6218.25
726.347	6218.96
726.748	6218.02
727.15	6238.62
727.551	6199.9
727.952	6173.99
728.354	6146.74
728.755	6153.83
729.156	6110.44
729.557	6118
729.958	5987.01
730.359	5933.9
730.76	5919.14
731.161	5851.72
731.562	5831.02
731.962	5834.62
732.363	5763.68
732.763	5697.44
733.164	5740.85
733.564	5669.86
733.965	5564.25
734.365	5526.22
734.766	5558.88
735.166	5516.41
735.566	5458.9
735.966	5428.73
736.366	5427.98
736.766	5360.71
737.166	5394.13
737.566	5347.02
737.966	5319.46
738.365	5364.29
738.765	5361.77
739.165	5279.72
739.564	5250.81
739.964	5302.92
740.363	5254.79
740.763	5254.45
741.162	5243.78
741.561	5212.11
741.96	5164.04
742.36	5187.76
742.759	5197.22
743.158	5241.15
743.557	5258.95
743.955	5307.92
744.354	5257.1
744.753	5319.97
745.152	5273.19
745.55	5335.77
745.949	5329.78
746.348	5330.44
746.746	5351.71
747.144	5305.62
747.543	5280.1
747.941	5335.45
748.339	5252.05
748.737	5245.52
749.136	5234.58
749.534	5307.85
749.932	5277.42
750.33	5302.72
750.727	5366.43
751.125	5338.55
751.523	5319.29
751.921	5368.14
752.318	5332.13
752.716	5400.61
753.113	5416.75
753.511	5447.36
753.908	5449.12
754.305	5427.78
754.703	5494.19
755.1	5560.92
755.497	5628.06
755.894	5845.26
756.291	6047.54
756.688	6414.38
757.085	6910.48
757.482	7603.37
757.878	8359.56
758.275	9042.21
758.672	9987.57
759.068	10761.67
759.465	11862.63
759.861	13281.63
760.258	14923.07
760.654	15772.95
761.05	15653.83
761.447	14934.66
761.843	13902.93
762.239	12838.7
762.635	12357.59
763.031	11896.71
763.427	11234.02
763.822	10532.16
764.218	9839.85
764.614	8943.78
765.01	8346.98
765.405	7955.32
765.801	7660.62
766.196	7284.53
766.592	7080.02
766.987	6725.67
767.382	6485.79
767.778	6384.83
768.173	6239.67
768.568	6158.06
768.963	6016.17
769.358	6033.98
769.753	5984.19
770.148	5887.79
770.542	5888.74
770.937	5849.19
771.332	5953.12
771.726	5976.37
772.121	5904.18
772.515	5968.2
772.91	5951.71
773.304	6031.18
773.699	5958.67
774.093	6018.08
774.487	6084.67
774.881	6130.45
775.275	6127.2
775.669	6077.98
776.063	6127.15
776.457	6168.46
776.851	6080.94
777.245	6071.14
777.638	6108.16
778.032	6236.06
778.425	6194.52
778.819	6237.74
779.212	6191.79
779.606	6147.89
779.999	6172.4
780.392	6154.21
780.786	6246.38
781.179	6269.34
781.572	6318.04
781.965	6332.58
782.358	6268.08
782.751	6330.14
783.143	6277.56
783.536	6356.23
783.929	6402.81
784.322	6531.8
784.714	6567.58
785.107	6560.51
785.499	6643.22
785.891	6617.07
786.284	6596.08
786.676	6755.01
787.068	6730.46
787.46	6788.68
787.852	6813.38
788.245	6908.14
788.636	6937.31
789.028	7009.9
789.42	7055.4
789.812	7061.95
790.204	7168.98
790.595	7278.2
790.987	7060.02
791.378	7087.73
791.77	7232.4
792.161	7384.04
792.553	7447.3
792.944	7326.85
793.335	7248.91
793.726	7332.96
794.117	7430.7
794.508	7583.21
794.899	7552.59
795.29	7708.74
795.681	7774.69
796.072	7614.8
796.463	7399.5
796.853	7407.47
797.244	7583.61
797.634	7621.99
798.025	7619.53
798.415	7638.78
798.806	7739.51
799.196	7829.23
799.586	7883.17
799.976	7839.25
800.366	8097.02
800.756	8374.2
801.146	8333.62
801.536	8367.09
801.926	8448.02
802.316	8477.16
802.706	8553.6
803.095	8415.24
803.485	8530.68
803.874	8578.31
804.264	8868.71
804.653	8836.76
805.043	8995.83
805.432	9116.63
805.821	9113.12
806.21	9136.73
806.599	9265.06
806.988	9314.66
807.377	9434.9
807.766	9578.69
808.155	9891.57
808.544	9594.3
808.933	9611.94
809.321	9586.43
809.71	9916.89
810.098	10092.91
810.487	10606.33
810.875	11143.18
811.264	11168.31
811.652	11491.01
812.04	11648.56
812.428	11828.44
812.816	12672.92
813.204	13134.89
813.592	13747.62
813.98	14111.33
814.368	14005.37
814.756	14538.16
815.144	14441.06
815.531	14950.12
815.919	14861.18
816.306	15200.65
816.694	14856.42
817.081	14925.16
817.469	15306.31
817.856	15300.02
818.243	15594.39
818.63	16027.87
819.017	15564.46
819.404	15627.06
819.791	16054.92
820.178	16740.04
820.565	17022.38
820.952	18054.8
821.339	17506.57
821.725	17720.01
822.112	16902.03
822.498	16861.79
822.885	17007.21
823.271	16897.2
823.657	17371.65
824.044	17379.3
824.43	17458.43
824.816	17416.29
825.202	16934.85
825.588	18061.23
825.974	18073.4
826.36	18647.95
826.746	18689.56
827.132	19083.2
827.517	19059.6
827.903	18194.97
828.289	18236.61
828.674	17374.32
829.06	17261.08
829.445	17708.44
829.83	18101.38
830.216	18638.43
830.601	19046.77
830.986	18595.82
831.371	18449
831.756	19067.38
832.141	18582.38
832.526	18577.44
832.911	18897.21
833.295	18774.91
833.68	19297.31
834.065	18611.12
834.449	17594.02
834.834	17510.82
835.218	17510.27
835.603	17894.86
835.987	17663.74
836.371	18597.05
836.755	18494.57
837.139	18939.56
837.524	19214.29
837.908	19017.39
838.291	19092.29
838.675	19167.12
839.059	19410.35
839.443	19399.16
839.827	19148.95
840.21	19682.18
840.594	19514.13
840.977	19738.03
841.361	19716.35
841.744	20132.92
842.127	19956.49
842.511	20236.39
842.894	20910.27
843.277	21326.82
843.66	21934.89
844.043	22017.38
844.426	21118.04
844.809	20780.79
845.191	20817.94
845.574	20306.36
845.957	19896.19
846.339	19778.07
846.722	19192.63
847.104	19266.72
847.487	19076.28
847.869	19086.29
848.252	19394.87
848.634	19767.94
849.016	20061.65
849.398	20200.48
849.78	21149.57
850.162	21156.48
850.544	21619.98
850.926	22312.79
851.307	22213.53
851.689	22519.68
852.071	23025.95
852.452	23387.75
852.834	23361.57
853.215	23802.53
853.597	23969.73
853.978	24287.73
854.359	24790.31
854.741	23682.24
855.122	23568.69
855.503	23237.85
855.884	23389.91
856.265	23321.53
856.646	23454.9
857.026	23010.58
857.407	22925.68
857.788	23099.57
858.169	23425.57
858.549	22482.31
858.93	23169.04
859.31	23228.7
859.69	23464.85
860.071	23012.83
860.451	22765.31
860.831	21938.64
861.211	23241.63
861.591	23860.03
861.971	23835.63
862.351	24050.75
862.731	24486.87
863.111	24784.78
863.491	25149.23
863.87	26134.12
864.25	26519.12
864.629	26077.63
865.009	26652.57
865.388	27597.11
865.768	29579.17
866.147	29455.23
866.526	27837.99
866.905	28171.44
867.284	29741.96
867.663	28239.25
868.042	27064.73
868.421	26991.06
868.8	27441.47
869.179	27712.56
869.558	26095.78
869.936	24050.39
870.315	24488.1
870.693	25068.39
871.072	27035.86
871.45	25766.83
871.828	26105.72
872.207	27439.96
872.585	27026.63
872.963	27762.41
873.341	26799.88
873.719	26486.01
874.097	26179.59
874.475	26674.73
874.853	27295.28
875.23	26162.83
875.608	27262.41
875.986	29470.31
876.363	28189.38
876.741	29039.14
877.118	28304.49
877.495	29708.01
877.873	30203.76
878.25	31770.69
878.627	30473.85
879.004	30901.4
879.381	30758.89
879.758	29943.36
880.135	27883.78
880.512	29474.74
880.889	28697.36
881.265	28413.58
881.642	28162.69
882.019	28633.24
882.395	28047.22
882.772	29162.81
883.148	27896.5
883.524	27779.39
883.901	27609.91
884.277	28026.32
884.653	27850.1
885.029	28643.39
885.405	31702.43
885.781	31463.86
886.157	30164.01
886.532	30535.11
886.908	30505.61
887.284	33913.62
887.659	35016.25
888.035	36110.42
888.411	37043.79
888.786	37535.89
889.161	38844.69
889.537	38136.13
889.912	39339.38
890.287	39314.16
890.662	40321.1
891.037	39596.02
891.412	36922.35
891.787	36553.2
892.162	35281.64
892.536	36110.09
892.911	34759.77
893.286	34024.04
893.66	32649.5
894.035	33498.38
894.409	36470.03
894.784	35001.66
895.158	35584.75
895.532	37692.99
895.906	38725.79
896.281	39641.81
896.655	39004.54
897.029	44558.56
897.402	46402.32
897.776	51653.15
898.15	51451.79
898.524	50897.82
898.898	51583.75
899.271	57745.69
899.645	50021.09
900.018	48043.45
900.392	49777.37
900.765	50190.38
901.138	46445.42
901.511	45723.91
901.884	41979.63
902.258	38721.31
902.631	40017.1
903.003	46048.9
903.376	41563.26
903.749	46589.09
904.122	49864.95
904.495	54958.36
904.867	55641.41
905.24	48307.77
905.612	44983.73
905.985	46007.49
906.357	48127.35
906.729	45934.21
907.102	39239.71
907.474	37721.95
907.846	37969.18
908.218	37459.89
908.59	33098.09
908.962	31993.72
909.334	34452.89
909.705	36190.49
910.077	35131.03
910.449	36567.16
910.82	37582.62
911.192	41347.22
911.563	42962.34
911.935	45959.33
912.306	46004.22
912.677	47490.32
913.048	47039.15
913.419	51041.96
913.79	51348.47
914.161	55036.57
914.532	52572.81
914.903	48299.46
915.274	45862.41
915.645	45197.92
916.015	39778.94
916.386	37919.55
916.756	40339.45
917.127	41605.48
917.497	37145.83
917.868	40419.13
918.238	38429.44
918.608	39541.81
918.978	40354.44
919.348	42733.93
919.718	44142.98
920.088	42529.1
920.458	44212.89
920.828	46550.35
921.198	44127.95
921.567	47157.5
921.937	36516.52
922.306	36847.47
922.676	39742.25
923.045	33145.36
923.415	31473.66
923.784	28659.11
924.153	29459.47
924.522	29415.38
924.891	27656.45
925.26	29620.07
925.629	28917.95
925.998	33239.83
926.367	32454.74
926.736	30875.34
927.104	36784.12
927.473	39543.01
927.842	47747.16
928.21	47306.26
928.578	49747.65
928.947	47018.11
929.315	47286.42
929.683	55440.65
930.051	55861.75
930.42	64866.21
930.788	55472.85
931.156	55061.92
931.523	51639.18
931.891	47724.59
932.259	45841.49
932.627	53109.83
932.994	75134.44
933.362	62102.37
933.729	53961.7
934.097	51651.96
934.464	43685.05
934.831	50419.94
935.199	49706.93
935.566	48199.47
935.933	48793.06
936.3	59029.76
936.667	45972.22
937.034	41440.74
937.401	40978.4
937.767	35358.01
938.134	31472.38
938.501	44423.97
938.867	47347.8
939.234	80004.26
939.6	68245.81
939.967	75318.35
940.333	50445.67
940.699	42929.03
941.065	34487.81
941.431	45209.67
941.798	43565.53
942.163	57217.17
942.529	35723.97
942.895	32873.88
943.261	21274.26
943.627	27925.1
943.992	24445.41
944.358	24479.55
944.723	24567.82
945.089	23931.78
945.454	22144.63
945.82	23644.21
946.185	22738.01
946.55	26340.61
946.915	23639.42
947.28	27715.79
947.645	24395.78
948.01	22518.12
948.375	23491.34
948.74	28163.3
949.104	32871.87
949.469	47448.94
949.834	83812.86
950.198	79365.24
950.562	47551.41
950.927	39623.54
951.291	47709.47
951.655	40662.33
952.02	38205.38
952.384	28878.45
952.748	25112.62
953.112	24484.06
953.476	21289.72
953.839	19689.97
954.203	19490.88
954.567	24395.21
954.931	38389
955.294	32836.51
955.658	32996.68
956.021	56085.85
956.385	95154.38
956.748	140411.76
957.111	217823.78
957.474	244574.97
957.837	275415.76
958.2	208547.33
958.563	74988.59
958.926	50693.59
959.289	76865.8
959.652	85884.69
960.015	64430.07
960.377	92379.79
960.74	105525
961.102	182036.92
961.465	195387.52
961.827	104589.64
962.189	200704.6
962.552	139045.49
962.914	111428.62
963.276	72333.67
963.638	59794.9
964	59211.58
964.362	40027.66
964.724	38697.8
965.085	27629.59
965.447	22668.31
965.809	25845.31
966.17	25875.7
966.532	28032.59
966.893	25739.01
967.255	23413.03
967.616	27631.5
967.977	22109.08
968.338	24158.74
968.699	19840.69
969.061	19826.25
969.421	19940.6
969.782	22371.86
970.143	18874.85
970.504	19509.51
970.865	22169.81
971.225	22656.4
971.586	22156.79
971.946	31598.68
972.307	27425.3
972.667	35843.67
973.027	36912.74
973.388	44736.39
973.748	30435.16
974.108	33143.85
974.468	44886.38
974.828	34583.89
975.188	26640.51
975.548	24480.23
975.907	20549.91
976.267	23050.75
976.627	19350.39
976.986	20040.07
977.346	19105.83
977.705	18367.05
978.064	16741.57
978.424	13932.07
978.783	14410.13
979.142	16447.4
979.501	15719.56
979.86	16610.61
980.219	16000.28
980.578	20644.44
980.937	23144.96
981.296	20626.1
981.654	21213.78
982.013	32996.5
982.371	42872.74
982.73	40034.58
983.088	45341.67
983.447	48441.61
983.805	69336.01
984.163	144998.33
984.521	160907.47
984.879	235668.3
985.237	-382919.13
985.595	369224.88
985.953	91740.97
986.311	52920.77
986.669	30728.12
987.026	26535.98
987.384	35676.45
987.741	36785.72
988.099	26211.79
988.456	20919.82
988.814	19593.83
989.171	17055.79
989.528	16835.64
989.885	17772.37
990.242	14074.83
990.599	17546.53
990.956	14331.21
991.313	10021.37
991.67	8243.21
992.027	8743.59
992.383	7772.07
992.74	6813.34
993.096	7136.43
993.453	7398.44
993.809	7679.09
994.165	10217.3
994.522	9338.61
994.878	10282.42
995.234	12906.91
995.59	12722.21
995.946	12047.46
996.302	13717.52
996.658	15866.67
997.013	17500.74
997.369	20765.55
997.725	26543.82
998.08	17192.9
998.436	26576.94
998.791	36724.07
999.147	36639.34
999.502	40009.53
999.857	29081.79
1000.212	47394.87
1000.567	67441.37
1000.922	38919.85
1001.277	24660.33
1001.632	18305.55
1001.987	23620.9
1002.342	16941.63
1002.696	13538.36
1003.051	10797.72
1003.406	13059.44
1003.76	13016.76
1004.114	12827.78
1004.469	10781.72
1004.823	8920.7
1005.177	9644.03
1005.531	7634.96
1005.885	6782
1006.239	7645.87
1006.593	9586.24
1006.947	12814.03
1007.301	9618.75
1007.655	10467.87
1008.008	7680.9
1008.362	8652.73
1008.715	12354.66
1009.069	11225.53
1009.422	16906.53
1009.776	33849.39
1010.129	22443.63
1010.482	18743.15
1010.835	15873.32
1011.188	33029.05
1011.541	31093.06
1011.894	-190362.99
1012.247	559076.73
1012.6	38012.41
1012.952	23939.28
1013.305	12366.46
1013.657	8902.59
1014.01	8433.56
1014.362	6981.12
1014.715	6202.63
1015.067	5395.86
1015.419	5280.86
1015.771	4673.08
1016.123	4154.17
1016.475	4265.27
1016.827	4561.94
1017.179	4889.5
1017.531	4937.63
1017.883	5059.34
1018.234	4851.33
1018.586	6142.11
1018.938	6507.86
1019.289	8983.92
1019.64	10294.68
1019.992	9612.81
1020.343	8814.52
1020.694	6941.72
1021.045	6135.7
1021.396	6968.39
1021.747	7438.26
1022.098	8963.1
1022.449	6514.23
1022.8	6041.66
1023.151	4215.93
1023.501	3738
1023.852	4074.37
1024.202	4217.4
1024.553	4628.7
1024.903	4510.68
1025.253	3861.24
1025.604	3480.79
1025.954	4331.85
1026.304	5264.66
1026.654	6150.72
1027.004	9024.23
1027.354	14621.77
1027.703	13667.57
1028.053	18014.32
1028.403	26214.03
1028.753	38026.61
1029.102	51870.65
1029.452	266864.01
1029.801	11464.2
1030.15	7389.85
1030.499	6251.76
897.758	2189.74
901.051	2122.81
904.343	2155.62
907.636	2162.24
910.928	2224.64
914.22	2145.97
917.511	2149.18
920.803	2196.44
924.094	2195.41
927.384	2197.27
930.675	2163.51
933.965	2126.13
937.255	2157.86
940.544	2126.58
943.834	2126.22
947.123	2066.06
950.411	2153.61
953.7	2136.53
956.988	2122.55
960.276	2056.68
963.563	2107.14
966.851	2117.85
970.138	2159.32
973.424	2159.14
976.711	2112.45
979.997	2159.93
983.283	2203.37
986.568	2134.61
989.853	2126.67
993.138	2153.83
996.423	2239.65
999.708	2198.15
1002.992	2227.27
1006.275	2146.4
1009.559	2152.53
1012.842	2252.05
1016.125	2206.76
1019.408	2188.53
1022.69	2242.96
1025.972	2278.71
1029.254	2253.86
1032.536	2217.62
1035.817	2226.46
1039.098	2195.01
1042.379	2244.46
1045.659	2271.75
1048.939	2221.59
1052.219	2230.18
1055.498	2221.16
1058.778	2221.54
1062.057	2195.97
1065.335	2219.68
1068.614	2230.55
1071.892	2227.13
1075.17	2283.18
1078.447	2284.49
1081.724	2280.35
1085.001	2307.05
1088.278	2283.02
1091.554	2291.09
1094.83	2284.8
1098.106	2319.26
1101.382	2350.27
1104.657	2353.6
1107.932	2353.11
1111.206	2330.55
1114.481	2285.51
1117.755	2283.43
1121.029	2274.94
1124.302	2335.46
1127.575	2301.47
1130.848	2298.23
1134.121	2268.93
1137.393	2231.72
1140.665	2287.43
1143.937	2264.95
1147.208	2212.03
1150.48	2269.37
1153.75	2258.25
1157.021	2263.75
1160.291	2240.72
1163.561	2295.09
1166.831	2261.65
1170.101	2289.81
1173.37	2248.25
1176.639	2206.15
1179.907	2249.98
1183.176	2274.32
1186.444	2274.97
1189.711	2300.68
1192.979	2322.17
1196.246	2278.72
1199.513	2291.17
1202.78	2298.54
1206.046	2306.84
1209.312	2333.98
1212.578	2352.14
1215.843	2320.17
1219.108	2287.5
1222.373	2311.7
1225.638	2285.66
1228.902	2277.59
1232.166	2232.99
1235.43	2220.12
1238.693	2244.46
1241.956	2235.56
1245.219	2287.08
1248.482	2268.29
1251.744	2265.87
1255.006	2389.67
1258.268	2336.75
1261.529	2291.8
1264.79	2293.51
1268.051	2391.52
1271.312	2401.69
1274.572	2371.55
1277.832	2361.65
1281.092	2343.18
1284.351	2333.8
1287.61	2319.87
1290.869	2251.87
1294.128	2249.87
1297.386	2297.9
1300.644	2291.16
1303.902	2302.71
1307.159	2168.77
1310.416	2221.31
1313.673	2248.83
1316.93	2240.67
1320.186	2273.44
1323.442	2305.08
1326.697	2308.83
1329.953	2280.32
1333.208	2315.83
1336.463	2285.66
1339.717	2245.75
1342.972	2352.27
1346.226	2324.4
1349.479	2272.53
1352.733	2255.35
1355.986	2259.28
1359.238	2241.23
1362.491	2245.36
1365.743	2245.47
1368.995	2237.81
1372.247	2252.63
1375.498	2272.51
1378.749	2314.84
1382	2262.19
1385.251	2297.84
1388.501	2250.82
1391.751	2250.96
1395	2217.45
1398.25	2241.56
1401.499	2263.09
1404.748	2212.14
1407.996	2187.5
1411.244	2175.21
1414.492	2162.59
1417.74	2147.54
1420.987	2150.77
1424.234	2210.34
1427.481	2173.09
1430.728	2228.04
1433.974	2204.43
1437.22	2203.16
1440.465	2199.26
1443.711	2198.61
1446.956	2221.99
1450.201	2192.62
1453.445	2233.1
1456.689	2224.34
1459.933	2233.35
1463.177	2273.59
1466.42	2245.55
1469.663	2229.37
1472.906	2244.67
1476.148	2293.63
1479.391	2266.76
1482.633	2242.6
1485.874	2267.69
1489.115	2274.86
1492.356	2257.89
1495.597	2239.7
1498.838	2232.75
1502.078	2219.18
1505.318	2189.03
1508.557	2225.06
1511.797	2221.18
1515.036	2267.08
1518.274	2240.23
1521.513	2192.07
1524.751	2204.59
1527.989	2229.94
1531.227	2246.54
1534.464	2261.47
1537.701	2257.12
1540.938	2270.49
1544.174	2217.03
1547.41	2207.33
1550.646	2245.67
1553.882	2296.43
1557.117	2353.78
1560.352	2362.93
1563.587	2325.19
1566.821	2292.32
1570.055	2309.42
1573.289	2289.66
1576.523	2348.53
1579.756	2364.94
1582.989	2388
1586.222	2347.48
1589.454	2376.93
1592.686	2360.99
1595.918	2389.59
1599.15	2387.75
1602.381	2433.74
1605.612	2414.75
1608.843	2509.9
1612.073	2431
1615.303	2416.68
1618.533	2415.75
1621.762	2415.21
1624.992	2387.52
1628.221	2391.12
1631.449	2378.41
1634.678	2408.29
1637.906	2375.67
1641.134	2401.13
1644.361	2364.3
1647.588	2355.76
1650.815	2378.98
1654.042	2342.68
1657.269	2370.34
1660.495	2351.2
1663.72	2337.06
1666.946	2304.21
1670.171	2275.74
1673.396	2247
1676.621	2232.18
1679.845	2231.05
1683.069	2237.19
1686.293	2266.75
1689.517	2257.35
1692.74	2208.83
1695.963	2228.71
1699.185	2270.85
1702.408	2245.25
1705.63	2273.81
1708.852	2293
1712.073	2262.69
1715.294	2273.05
1718.515	2316.5
1721.736	2274.79
1724.956	2251.98
1728.176	2273.41
1731.396	2297.05
1734.616	2281.39
1737.835	2318.03
1741.054	2287.6
1744.272	2280.03
1747.491	2318.21
1750.709	2341.92
1753.927	2289.36
1757.144	2315.94
1760.361	2375.3
1763.578	2349.26
1766.795	2298.62
1770.011	2285.96
1773.227	2309.75
1776.443	2352.72
1779.658	2395.48
1782.874	2335.68
1786.089	2327.2
1789.303	2329.19
1792.518	2326.4
1795.732	2311.24
1798.945	2327.05
1802.159	2367.04
1805.372	2310.67
1808.585	2306.18
1811.797	2304.84
1815.01	2325.62
1818.222	2347.24
1821.434	2307.66
1824.645	2350.62
1827.856	2359.1
1831.067	2390.29
1834.278	2327.75
1837.488	2312.39
1840.698	2432.99
1843.908	2373.37
1847.117	2342.86
1850.326	2267.03
1853.535	2330.67
1856.744	2362.48
1859.952	2284.36
1863.16	2285.2
1866.368	2298.25
1869.575	2409.86
1872.782	2293.56
1875.989	2224.49
1879.196	2272.9
1882.402	2262.45
1885.608	2297.46
1888.814	2233.84
1892.019	2142.55
1895.224	2191.71
1898.429	2159.54
1901.634	2143.11
1904.838	2115.11
1908.042	2170.99
1911.246	2184.85
1914.449	2148.2
1917.652	2131.17
1920.855	2110.79
1924.058	2137.96
1927.26	2183.37
1930.462	2205.68
1933.664	2241.87
1936.865	2184.87
1940.066	2202.58
1943.267	2143.99
1946.467	2156.12
1949.668	2175
1952.868	2242.31
1956.067	2232.41
1959.267	2171.03
1962.466	2194.5
1965.665	2177.85
1968.863	2173.08
1972.061	2176.04
1975.259	2168.93
1978.457	2244.95
1981.654	2205.72
1984.852	2208.02
1988.048	2161.45
1991.245	2150.81
1994.441	2238.66
1997.637	2197.58
2000.833	2178.67
2004.028	2214.15
2007.223	2277
2010.418	2268.25
2013.613	2217.93
2016.807	2210.54
2020.001	2205.62
2023.194	2228.22
2026.388	2213.72
2029.581	2158.35
2032.774	2222.34
2035.966	2233.46
2039.158	2178.98
2042.35	2197.46
2045.542	2124.04
2048.733	2204.73
2051.924	2200.78
2055.115	2217.67
2058.306	2184.09
2061.496	2236.37
2064.686	2284.78
2067.875	2190.79
2071.065	2195.89
2074.254	2214.46
2077.442	2169.84
2080.631	2249.89
2083.819	2185.11
2087.007	2174.23
2090.195	2159.4
2093.382	2173.05
2096.569	2158.03
2099.756	2120.02
2102.942	2167.99
2106.128	2180.35
2109.314	2168.34
2112.5	2153.44
2115.685	2123.97
2118.87	2129.84
2122.055	2187.81
2125.239	2167.32
2128.424	2158.9
2131.608	2219.39
2134.791	2204.64
2137.974	2242.3
2141.157	2231.6
2144.34	2202.04
2147.523	2193.42
2150.705	2218.4
2153.887	2188.02
2157.068	2162.73
2160.25	2144.64
2163.431	2165.17
2166.611	2135
2169.792	2155.6
2172.972	2066.7
2176.152	2116.48
2179.331	2144.24
2182.511	2145.45
2185.69	2166.92
2188.868	2173.2
2192.047	2205.64
2195.225	2219.17
2198.403	2169.75
2201.58	2156.3
2204.758	2143.76
2207.935	2217.98
2211.111	2134.65
2214.288	2123.39
2217.464	2157.83
2220.64	2114.79
2223.815	2162.43
2226.991	2097.4
2230.166	2112.34
2233.34	2154.71
2236.515	2165.95
2239.689	2231.06
2242.863	2179.87
2246.036	2232.52
2249.209	2216.26
2252.382	2234.98
2255.555	2242.48
2258.727	2192.02
2261.9	2221.9
2265.071	2214.62
2268.243	2211.2
2271.414	2162.16
2274.585	2143.86
2277.756	2205.11
2280.926	2160.45
2284.096	2192.75
2287.266	2122.3
2290.436	2169.69
2293.605	2189.55
2296.774	2226.42
2299.942	2231.86
2303.111	2246.99
2306.279	2299.24
2309.447	2282.48
2312.614	2254.51
2315.781	2281.11
2318.948	2255.67
2322.115	2292.57
2325.281	2192.17
2328.447	2200
2331.613	2170.96
2334.779	2162.79
2337.944	2156.52
2341.109	2158.55
2344.274	2147.45
2347.438	2114.54
2350.602	2132.62
2353.766	2141.93
2356.929	2131.55
2360.092	2170.02
2363.255	2142.04
2366.418	2107.76
2369.58	2172.33
2372.742	2050.76
2375.904	2042.97
2379.066	2030.21
2382.227	2055.17
2385.388	2020.22
2388.548	1972.4
2391.709	2011.6
2394.869	2001.61
2398.029	2054.56
2401.188	2049.71
2404.347	2012.76
2407.506	2091.33
2410.665	2129.77
2413.823	2116.67
2416.981	2096.98
2420.139	2112.44
2423.296	2150.13
2426.453	2125.23
2429.61	2146.3
2432.767	2116.13
2435.923	2155.55
2439.079	2105.09
2442.235	2137.39
2445.391	2078.06
2448.546	2119.24
2451.701	2151.28
2454.855	2149.4
2458.009	2179.29
2461.163	2168.45
2464.317	2137.81
2467.471	2166.06
2470.624	2194.6
2473.777	2181.36
2476.929	2198.99
2480.082	2224.28
2483.234	2197.52
2486.385	2140.38
2489.537	2131.79
2492.688	2122.15
2495.839	2136.71
2498.989	2152.64
2502.14	2138.72
2505.29	2132.21
2508.439	2158.22
2511.589	2098.45
2514.738	2097.61
2517.887	2121.8
2521.035	2198.09
2524.183	2156.3
2527.331	2142.94
2530.479	2138.83
2533.627	2140.82
