Data from C_1_DIV_WI_4N_Splice17_11-47-54-510.txt Node
Date: Sat Mar 14 11:47:54 EDT 2020
User: sa697716
Spectrometer: FLMS03696
Trigger mode: 0
Integration Time (sec): 3.180400E-1
Scans to average: 20
Electric dark correction enabled: true
Nonlinearity correction enabled: true
Boxcar width: 5
XAxis mode: Wavelengths
Number of Pixels in Spectrum: 2048
>>>>>Begin Spectral Data<<<<<
187.83	-186700.37
188.298	1484.91
188.766	894.05
189.233	798.89
189.701	1081.99
190.169	1594.93
190.636	580.69
191.104	423.84
191.571	54.98
192.039	-59.28
192.506	-79.99
192.974	355.9
193.441	-480.38
193.908	112.83
194.375	37.72
194.842	50.52
195.31	154.62
195.777	168.3
196.244	265.84
196.711	251.72
197.177	280.58
197.644	373.18
198.111	596.17
198.578	857.85
199.045	678.77
199.511	1093.45
199.978	1250.19
200.445	1075.35
200.911	1144.64
201.378	1257.53
201.844	1176.05
202.31	2003.38
202.777	2104.38
203.243	1200.09
203.709	1139.54
204.176	1351.71
204.642	1125.16
205.108	1068.61
205.574	875.92
206.04	781.53
206.506	732.45
206.972	667.78
207.438	639.97
207.903	709.73
208.369	630.64
208.835	633.99
209.301	671.3
209.766	669.23
210.232	662.78
210.697	810.05
211.163	1018.8
211.628	1530.41
212.094	1324.37
212.559	1688.59
213.024	1084.39
213.49	1361.65
213.955	1333.86
214.42	1282.6
214.885	1246.92
215.35	1223.03
215.815	1239.48
216.28	1334.74
216.745	1111.47
217.21	1231.81
217.675	1130.25
218.14	1295.42
218.604	1481.01
219.069	1737.98
219.534	1893.79
219.998	2241.85
220.463	2773.85
220.927	3432.63
221.392	3287.25
221.856	3387.58
222.32	4318.8
222.785	5404.21
223.249	6862.24
223.713	7698.8
224.177	7761.55
224.642	9983.11
225.106	12332.77
225.57	13542.03
226.034	10166.36
226.497	15537.36
226.961	14082.39
227.425	16429.53
227.889	18292.43
228.353	18359.54
228.816	37968.22
229.28	36356.33
229.744	30722.45
230.207	18696.87
230.671	18427.1
231.134	30462.44
231.597	35239.66
232.061	35263.57
232.524	34412.46
232.987	23674
233.45	21331.7
233.914	19142.01
234.377	19589.79
234.84	17958.12
235.303	21190.68
235.766	23582.03
236.229	24328.43
236.691	15323.99
237.154	17203.12
237.617	12943.68
238.08	13270.69
238.542	15480.33
239.005	11070.99
239.468	10991
239.93	10333.97
240.393	9384.9
240.855	8240.99
241.317	8430.3
241.78	10224.69
242.242	10565.67
242.704	11410.05
243.166	9931.6
243.629	9040.48
244.091	10399.1
244.553	11391.43
245.015	12231.36
245.477	15793.23
245.939	23093.44
246.4	24495.93
246.862	23756.68
247.324	22368.49
247.786	24974.01
248.247	32719.55
248.709	33705.12
249.17	25208.29
249.632	23764.18
250.093	27536.97
250.555	23785.23
251.016	14525.06
251.477	13782.81
251.939	14900.23
252.4	15609.36
252.861	18561.59
253.322	17229.36
253.783	20479.34
254.244	26526.41
254.705	20876.91
255.166	18539.57
255.627	18229.54
256.088	25655.21
256.549	27211.64
257.009	23377.31
257.47	28368.6
257.931	23082.96
258.391	17313.04
258.852	17854.71
259.312	18717.83
259.773	23148.16
260.233	19598.02
260.694	16539.78
261.154	18769.49
261.614	15086.05
262.074	13494.83
262.534	14030.8
262.994	13220.92
263.455	17598.3
263.915	14829.31
264.374	13949.83
264.834	15200
265.294	16851.88
265.754	17452.77
266.214	16532.35
266.673	15489.53
267.133	19554.43
267.593	19386.64
268.052	23715.83
268.512	20610.49
268.971	24819.1
269.431	27225.25
269.89	24354.09
270.349	36479.36
270.809	40593.12
271.268	36452.69
271.727	81540.8
272.186	52759.99
272.645	39504.65
273.104	28467.19
273.563	41197.61
274.022	32351.77
274.481	27500.33
274.94	21185.82
275.399	15724.74
275.857	18291.01
276.316	24672.48
276.775	21931.81
277.233	21551.25
277.692	20180.6
278.15	22796.76
278.609	23420.89
279.067	21662.9
279.525	20101.41
279.984	25929.96
280.442	31095.6
280.9	30683.35
281.358	20164.32
281.816	18776.63
282.274	18377.83
282.732	18925.71
283.19	19004.28
283.648	16377.23
284.106	17429.63
284.564	17715.25
285.021	16404.14
285.479	12203.75
285.937	11070.27
286.394	9729.77
286.852	9992.51
287.309	10473.53
287.767	10112.37
288.224	9597.36
288.682	10523.57
289.139	11534.09
289.596	10536.61
290.053	10930.56
290.511	13784.61
290.968	16708.2
291.425	22630.67
291.882	18846.49
292.339	16425.09
292.796	16278.9
293.252	15323.33
293.709	12175.42
294.166	10904.9
294.623	12026.11
295.079	11541.33
295.536	11586.66
295.992	10504.25
296.449	10367.85
296.905	10770.12
297.362	10327.67
297.818	10855.5
298.274	11260.74
298.731	11454.89
299.187	11337.47
299.643	12177.23
300.099	14692.48
300.555	16093.99
301.011	13445.61
301.467	12984.32
301.923	15172.58
302.379	14777.18
302.835	14495.46
303.291	14499.5
303.746	16460.44
304.202	20727.96
304.658	20748.58
305.113	13945.58
305.569	13666.39
306.024	14523.7
306.479	13777.24
306.935	11604.94
307.39	12646.35
307.845	11652.87
308.301	11722.81
308.756	11414.63
309.211	10972.22
309.666	11233.62
310.121	13937.01
310.576	14100.12
311.031	13965.46
311.486	15939.86
311.94	15893.38
312.395	21208.32
312.85	39823.59
313.305	194882.43
313.759	1010205.44
314.214	73270.5
314.668	58020.03
315.123	48830.53
315.577	17522.63
316.032	15577.87
316.486	19568.9
316.94	15451.63
317.394	10784.64
317.849	8383.05
318.303	7922.93
318.757	7442.84
319.211	8220.96
319.665	7190.32
320.119	7248.39
320.572	10363.64
321.026	9695.02
321.48	8038.61
321.934	8742.06
322.387	8727.8
322.841	9414.76
323.295	8474.08
323.748	9755.2
324.202	9890.85
324.655	11846.6
325.108	16547.17
325.562	11688.79
326.015	13866.13
326.468	10449.98
326.921	11674.18
327.374	10889.47
327.827	11333.09
328.28	12839.57
328.733	8598.26
329.186	7539.73
329.639	7189.14
330.092	6059.98
330.545	5754.4
330.997	5797.88
331.45	6358.23
331.903	7447.91
332.355	12749.53
332.808	12377.67
333.26	10156.11
333.713	11000.16
334.165	11071.59
334.617	14737.87
335.069	11846.6
335.522	21453.54
335.974	23746.79
336.426	21610.38
336.878	14890.1
337.33	7570.22
337.782	7364.75
338.234	9214.7
338.686	10995.68
339.137	13000.3
339.589	12231.38
340.041	9602.68
340.493	8226.07
340.944	8398.35
341.396	9048.42
341.847	7628.27
342.299	9015.85
342.75	11023.3
343.201	9643.25
343.653	11093.41
344.104	13635.06
344.555	10758.24
345.006	16734.27
345.457	12839.51
345.908	10167.89
346.359	9570.58
346.81	7806.89
347.261	8208.07
347.712	8064.37
348.163	8625.42
348.613	8774.29
349.064	8182.79
349.515	7139.59
349.965	7309.16
350.416	8786.7
350.866	9638.35
351.317	10895.97
351.767	17975.89
352.217	22664.03
352.668	18839.77
353.118	17233.03
353.568	16497.88
354.018	13035.45
354.468	13787.49
354.918	9879.18
355.368	8630.98
355.818	12219.91
356.268	35068.75
356.718	147242.64
357.168	36670.23
357.617	18407.76
358.067	20515.32
358.517	19211.56
358.966	22551.09
359.416	25237.19
359.865	27309.69
360.315	32496.82
360.764	15156.78
361.213	8484.1
361.663	8008.27
362.112	9882.29
362.561	15918.2
363.01	11964.28
363.459	10050.29
363.908	10871.36
364.357	9234.94
364.806	15630.55
365.255	10745.84
365.703	9862.12
366.152	9909.79
366.601	8014.27
367.05	6502.38
367.498	5904.69
367.947	6170.48
368.395	6449.53
368.844	5707.59
369.292	6844.31
369.74	4708.7
370.189	7186.91
370.637	8414.14
371.085	7226.18
371.533	8814.34
371.981	8493.87
372.429	8124.46
372.877	8480.26
373.325	7108.54
373.773	7240.83
374.221	6465.41
374.669	8061.97
375.116	6999.27
375.564	7083.08
376.012	7933.97
376.459	6575.61
376.907	7871
377.354	9536.87
377.801	8934.8
378.249	10308.34
378.696	13231.37
379.143	16124.38
379.591	17170.95
380.038	29103.26
380.485	21076.86
380.932	22830.02
381.379	20992.86
381.826	15551.19
382.273	11056.41
382.72	9650.58
383.166	9449.78
383.613	6137.71
384.06	5541.55
384.506	6443.35
384.953	4758.79
385.4	4788.07
385.846	4208.16
386.292	4092.21
386.739	3990.11
387.185	3942.49
387.631	3952.72
388.078	3831.57
388.524	4112.17
388.97	3813.75
389.416	3184.21
389.862	3386.99
390.308	3222.54
390.754	3272.86
391.2	3556.56
391.645	3650.53
392.091	3523.31
392.537	3412.39
392.983	3410.39
393.428	3372.23
393.874	3599.79
394.319	3620.98
394.765	3440.62
395.21	3524.98
395.655	3302.56
396.101	3094.34
396.546	2793.29
396.991	2806.28
397.436	2601.67
397.881	2518.49
398.326	2368.93
398.771	2239.67
399.216	1944.33
399.661	1746.85
400.106	1740.55
400.551	1783.45
400.995	1594.29
401.44	1574.78
401.885	1474.62
402.329	1496.06
402.774	1430.71
403.218	1389.99
403.663	1339.84
404.107	1373.9
404.551	1382.11
404.995	1264.37
405.44	1210.08
405.884	1223.32
406.328	1174.96
406.772	1167.85
407.216	1056.82
407.66	1016.01
408.104	955.98
408.547	891
408.991	864.15
409.435	827.93
409.879	818.61
410.322	811.02
410.766	783.29
411.209	748.46
411.653	717.44
412.096	702.83
412.54	700.09
412.983	694.95
413.426	698.38
413.869	695.73
414.312	680.74
414.756	652.5
415.199	620.78
415.642	602.31
416.085	601.72
416.527	595.22
416.97	601.01
417.413	573.24
417.856	565.99
418.298	558.37
418.741	553.68
419.184	552.08
419.626	570.39
420.069	567.46
420.511	569.21
420.953	555.97
421.396	549.79
421.838	534.07
422.28	545.09
422.722	546.57
423.164	551.74
423.606	542.19
424.048	540.68
424.49	515.44
424.932	513.61
425.374	507.6
425.816	515.24
426.258	525.43
426.699	532.2
427.141	524.86
427.582	530.6
428.024	524.72
428.465	518.53
428.907	506.03
429.348	500.53
429.789	501.61
430.231	490.97
430.672	498.43
431.113	485.7
431.554	478.72
431.995	464.81
432.436	451.32
432.877	444.24
433.318	438.6
433.759	435.64
434.2	436.43
434.64	428.97
435.081	429.9
435.522	407.92
435.962	393.44
436.403	385.22
436.843	390.01
437.284	381.27
437.724	369.61
438.164	369.16
438.604	359.78
439.045	347.53
439.485	335.39
439.925	327.18
440.365	317.04
440.805	313.23
441.245	309.93
441.685	297.73
442.125	294.33
442.564	295.8
443.004	290.38
443.444	290.15
443.883	287.49
444.323	283.48
444.762	281.2
445.202	284.41
445.641	290.42
446.081	286.16
446.52	290.8
446.959	288.12
447.398	283.56
447.837	279.02
448.276	274.78
448.716	280
449.154	283.55
449.593	279.22
450.032	279.61
450.471	271
450.91	271.42
451.349	269.86
451.787	268.35
452.226	269.95
452.664	270.51
453.103	270.17
453.541	268.51
453.98	269.29
454.418	271.55
454.856	268
455.295	269.68
455.733	272.96
456.171	273.08
456.609	274
457.047	274.83
457.485	279.38
457.923	279.26
458.361	273.68
458.798	272.63
459.236	270.59
459.674	271.14
460.111	271.81
460.549	268.24
460.987	266.91
461.424	265.95
461.862	264
462.299	259.87
462.736	260.93
463.173	261.53
463.611	260.28
464.048	260.82
464.485	263.78
464.922	262.4
465.359	259.82
465.796	262.04
466.233	260.93
466.67	260.68
467.106	260.68
467.543	257.38
467.98	254.67
468.416	247.34
468.853	243.9
469.29	235.92
469.726	232
470.162	227.54
470.599	220.38
471.035	217
471.471	210.69
471.907	207.82
472.344	206.04
472.78	207.53
473.216	208.44
473.652	206.88
474.088	206.02
474.523	205.99
474.959	206.8
475.395	205.22
475.831	204.28
476.266	204.09
476.702	203.64
477.138	201.98
477.573	199.71
478.008	199.69
478.444	200.82
478.879	202.69
479.314	203.58
479.75	203.11
480.185	203.47
480.62	204.2
481.055	205.19
481.49	205.81
481.925	207.87
482.36	213.41
482.795	218.45
483.229	223.26
483.664	227.11
484.099	227.66
484.534	231.6
484.968	233.63
485.403	234.2
485.837	233.28
486.271	233.46
486.706	233.21
487.14	229.14
487.574	225.5
488.009	222.55
488.443	220.8
488.877	222.56
489.311	222.64
489.745	224.43
490.179	226.1
490.613	231.03
491.046	232.06
491.48	233.36
491.914	233.98
492.348	235.19
492.781	236.88
493.215	236.69
493.648	235.72
494.082	236.84
494.515	236.84
494.948	239.14
495.382	238.8
495.815	239.39
496.248	241.21
496.681	243.86
497.114	246.34
497.547	249.15
497.98	253.37
498.413	256.32
498.846	258.66
499.279	260.58
499.711	261.2
500.144	261.47
500.577	265.13
501.009	267.56
501.442	270.32
501.874	270.4
502.306	269.87
502.739	272.9
503.171	276.33
503.603	276.57
504.036	278.89
504.468	279.52
504.9	282.63
505.332	283.09
505.764	284.29
506.196	285.54
506.627	289.54
507.059	293.27
507.491	293.21
507.923	292.04
508.354	296.96
508.786	299.77
509.217	304.96
509.649	309.59
510.08	315.17
510.512	320.02
510.943	324.36
511.374	327.8
511.805	333.8
512.237	339.39
512.668	348.41
513.099	355.52
513.53	363.67
513.961	370.93
514.391	379.85
514.822	391.52
515.253	402.83
515.684	411.17
516.114	420.75
516.545	427.99
516.975	436.73
517.406	443.57
517.836	445.64
518.267	448.38
518.697	454.88
519.127	457.46
519.558	459.13
519.988	459.94
520.418	463.4
520.848	468.22
521.278	471.64
521.708	488.97
522.138	493.01
522.567	502.84
522.997	511.41
523.427	516.41
523.857	522.48
524.286	526.22
524.716	532.79
525.145	540.17
525.575	545.73
526.004	550.32
526.433	538.68
526.863	539.6
527.292	537.95
527.721	540.97
528.15	543.11
528.579	544.08
529.008	548.98
529.437	555.77
529.866	560.1
530.295	566.03
530.724	571.31
531.152	580.02
531.581	585.18
532.01	591.11
532.438	593.74
532.867	598.96
533.295	605.49
533.723	608.08
534.152	608.25
534.58	609.03
535.008	604.53
535.436	606.19
535.865	608.68
536.293	614.18
536.721	619.3
537.149	628
537.576	630.22
538.004	634.76
538.432	637.43
538.86	637.44
539.287	639.94
539.715	644.21
540.143	644.55
540.57	644.97
540.998	643.08
541.425	637.61
541.852	631.13
542.28	630.2
542.707	624.31
543.134	618.98
543.561	617.28
543.988	614.75
544.415	614.32
544.842	611.91
545.269	608.39
545.696	609.79
546.123	612.41
546.549	608.45
546.976	603.16
547.403	603.07
547.829	603.4
548.256	604.19
548.682	602.46
549.108	600.14
549.535	599.91
549.961	600.32
550.387	595.1
550.813	593.2
551.24	594.87
551.666	595.39
552.092	591.68
552.518	588.99
552.943	586.45
553.369	588.51
553.795	590.18
554.221	590.46
554.646	589.04
555.072	592.79
555.498	593.19
555.923	595.35
556.349	599.98
556.774	602.38
557.199	602.27
557.625	603.52
558.05	600.55
558.475	602.46
558.9	601.52
559.325	598.49
559.75	595.48
560.175	593.39
560.6	590.57
561.025	588.34
561.449	587.72
561.874	588.5
562.299	589.63
562.723	591.76
563.148	588.33
563.572	588.17
563.997	590.22
564.421	590.5
564.846	589.19
565.27	590.19
565.694	589.65
566.118	592.89
566.542	595.93
566.966	593.25
567.39	591.06
567.814	586.58
568.238	586.3
568.662	586.91
569.086	587.51
569.509	588.64
569.933	583.53
570.357	579.93
570.78	573.16
571.204	568.07
571.627	563.03
572.05	561.85
572.474	562.17
572.897	556.64
573.32	554.38
573.743	550.48
574.166	545.17
574.589	543.79
575.012	540.8
575.435	538.77
575.858	535.11
576.281	531.42
576.704	525.45
577.126	519.59
577.549	515.52
577.972	511.34
578.394	507.26
578.817	505.34
579.239	498.62
579.661	494.14
580.084	489.33
580.506	484.71
580.928	482.8
581.35	478.24
581.772	476.91
582.194	472.62
582.616	467.07
583.038	461.81
583.46	456.25
583.882	454.6
584.303	453.8
584.725	451.12
585.147	454.25
585.568	457.27
585.99	461.11
586.411	462.52
586.833	466.38
587.254	467.93
587.675	471.73
588.096	474.48
588.518	473.13
588.939	468.74
589.36	468.6
589.781	461.39
590.202	454.01
590.623	450.79
591.043	448.92
591.464	444.81
591.885	443.87
592.305	441.96
592.726	438.99
593.147	439.17
593.567	437.8
593.987	434.85
594.408	432.8
594.828	430.04
595.248	428.64
595.669	424.24
596.089	422.29
596.509	419.19
596.929	415.04
597.349	414.92
597.769	411.47
598.189	409
598.608	409.47
599.028	410.25
599.448	409.55
599.867	405.12
600.287	402.83
600.706	401.46
601.126	398.8
601.545	398.71
601.965	397.93
602.384	395.99
602.803	396.72
603.222	395.37
603.641	393.14
604.061	392.75
604.48	391.66
604.898	393.5
605.317	394.06
605.736	393.87
606.155	393.28
606.574	390.13
606.992	391.78
607.411	390.42
607.829	386.72
608.248	384.98
608.666	383.64
609.085	383.19
609.503	381.05
609.921	379.72
610.339	380.68
610.758	379.65
611.176	378.79
611.594	375.82
612.012	374.78
612.43	376.33
612.847	378.51
613.265	379.5
613.683	381.22
614.101	380.59
614.518	379.14
614.936	375.39
615.353	371.52
615.771	370.79
616.188	371.34
616.606	369.5
617.023	367.54
617.44	363.07
617.857	359.85
618.274	356.95
618.691	356.35
619.108	353.88
619.525	352.03
619.942	353.39
620.359	353.53
620.776	351.32
621.192	350.54
621.609	350.19
622.026	352.62
622.442	353.99
622.859	353.75
623.275	350.85
623.691	352
624.108	356.03
624.524	359.57
624.94	359.35
625.356	362.12
625.772	365.29
626.188	367.9
626.604	367.01
627.02	366.51
627.436	367.19
627.852	370.1
628.268	373.68
628.683	370
629.099	367.86
629.514	366.08
629.93	366.89
630.345	368.39
630.761	366.91
631.176	368.77
631.591	368.03
632.007	366.44
632.422	364.55
632.837	360.45
633.252	359.98
633.667	356.58
634.082	354.47
634.497	351.51
634.911	347.43
635.326	346.34
635.741	340.78
636.155	335.92
636.57	335.89
636.984	335.79
637.399	337.85
637.813	337
638.228	336.2
638.642	336.81
639.056	333.55
639.47	331.34
639.884	328.88
640.298	327.28
640.712	327.73
641.126	323.86
641.54	320.87
641.954	316.39
642.368	313.38
642.781	313.09
643.195	307.49
643.609	307.38
644.022	306.74
644.436	305.06
644.849	300.76
645.262	296.71
645.676	295.99
646.089	295.66
646.502	293.37
646.915	292.17
647.328	287.11
647.741	287.58
648.154	283.43
648.567	283.37
648.98	280.2
649.393	280.76
649.805	280.79
650.218	279.22
650.631	274.27
651.043	272.8
651.456	271.49
651.868	271.3
652.28	274.69
652.693	278.35
653.105	278.63
653.517	280.97
653.929	281.86
654.341	283.1
654.753	280.58
655.165	282.59
655.577	282.18
655.989	281.35
656.401	278.83
656.813	271.51
657.224	267.11
657.636	259.56
658.047	256.7
658.459	251.56
658.87	248.81
659.282	245.68
659.693	240.96
660.104	238.23
660.515	234.61
660.926	234.2
661.338	233.13
661.749	231.84
662.159	231.72
662.57	229.39
662.981	229.1
663.392	228.62
663.803	230.88
664.213	230.74
664.624	229.66
665.035	231.63
665.445	228.79
665.855	227.77
666.266	227.29
666.676	226.26
667.086	224.37
667.497	225.28
667.907	223.77
668.317	221.17
668.727	223.22
669.137	222.71
669.547	222.47
669.956	223.72
670.366	224.35
670.776	224.64
671.186	226.19
671.595	228.41
672.005	229.43
672.414	231.27
672.824	232.31
673.233	231.48
673.642	233.24
674.052	234.48
674.461	236.57
674.87	238.49
675.279	238.59
675.688	238.93
676.097	240.49
676.506	240
676.915	243.4
677.323	244.33
677.732	245.09
678.141	245.42
678.549	242.43
678.958	241.86
679.366	241.25
679.775	241.73
680.183	246.71
680.592	247.57
681	249.42
681.408	247.7
681.816	249.76
682.224	251.53
682.632	254.66
683.04	263.37
683.448	270.16
683.856	280.17
684.264	290.87
684.671	297.15
685.079	306.74
685.487	316.43
685.894	330.99
686.302	341.69
686.709	351.71
687.116	363.55
687.524	374.05
687.931	382.69
688.338	388.57
688.745	391.29
689.152	397.56
689.559	408.3
689.966	420.55
690.373	425.42
690.78	436.42
691.187	451.72
691.593	464.23
692	471.97
692.407	488.18
692.813	509.9
693.22	528.55
693.626	546.44
694.032	562.65
694.439	585.18
694.845	602.43
695.251	624.88
695.657	647.22
696.063	677.57
696.469	702.74
696.875	726.06
697.281	740.16
697.687	758.2
698.093	775.55
698.498	801.96
698.904	823.07
699.31	855.39
699.715	881.7
700.12	915.08
700.526	925.13
700.931	952.42
701.337	974.39
701.742	991.81
702.147	1022.95
702.552	1037.66
702.957	1062.76
703.362	1076.2
703.767	1091.93
704.172	1110.51
704.577	1100.09
704.981	1123.04
705.386	1136.19
705.791	1139.73
706.195	1169.19
706.6	1180.9
707.004	1214.22
707.408	1209.2
707.813	1225.8
708.217	1228.62
708.621	1234.64
709.025	1274.51
709.43	1282.1
709.834	1308.44
710.237	1338.79
710.641	1339.51
711.045	1352.87
711.449	1358.38
711.853	1377.53
712.256	1396.86
712.66	1416.42
713.064	1448.47
713.467	1471.04
713.87	1519.1
714.274	1543.9
714.677	1591.6
715.08	1658.55
715.484	1728.64
715.887	1812.29
716.29	1891.99
716.693	1977.29
717.096	2075.95
717.499	2136.62
717.901	2151.35
718.304	2165.22
718.707	2178.52
719.109	2145.41
719.512	2140.94
719.915	2094.56
720.317	2076.85
720.719	2098.38
721.122	2092
721.524	2077.17
721.926	2066.11
722.328	2112.63
722.731	2114.09
723.133	2129.59
723.535	2210.29
723.937	2219.87
724.338	2245.38
724.74	2265.54
725.142	2272.46
725.544	2278.64
725.945	2298.71
726.347	2299.61
726.748	2297.79
727.15	2306.99
727.551	2297.16
727.952	2289.18
728.354	2282.25
728.755	2284.76
729.156	2271.01
729.557	2242.84
729.958	2193.83
730.359	2169.4
730.76	2165.16
731.161	2145.45
731.562	2136.64
731.962	2139.95
732.363	2115.59
732.763	2091.79
733.164	2107.87
733.564	2083.12
733.965	2046.25
734.365	2034.36
734.766	2046.68
735.166	2031.38
735.566	2010.74
735.966	2003.1
736.366	2001.7
736.766	1977.3
737.166	1990.1
737.566	1973.98
737.966	1964.22
738.365	1981.08
738.765	1980.2
739.165	1951.01
739.564	1942.45
739.964	1962.89
740.363	1945.28
740.763	1944.19
741.162	1941.29
741.561	1930.66
741.96	1914.14
742.36	1923.14
742.759	1926.03
743.158	1941.4
743.557	1947.59
743.955	1964.33
744.354	1943.92
744.753	1967.33
745.152	1952.81
745.55	1976.85
745.949	1973.72
746.348	1973.84
746.746	1980.27
747.144	1965.67
747.543	1958.74
747.941	1978.16
748.339	1949.19
748.737	1949.81
749.136	1946.16
749.534	1973.31
749.932	1962.5
750.33	1972.67
750.727	1995.29
751.125	1983.83
751.523	1977.08
751.921	1996.71
752.318	1985.06
752.716	2010.9
753.113	2014.55
753.511	2025.72
753.908	2025.57
754.305	2020.65
754.703	2049
755.1	2075.87
755.497	2103.49
755.894	2182.6
756.291	2255.85
756.688	2393.99
757.085	2576.04
757.482	2834.31
757.878	3119.61
758.275	3375.21
758.672	3722.3
759.068	4003.08
759.465	4409.63
759.861	4935.75
760.258	5542.25
760.654	5861.16
761.05	5810.72
761.447	5544.54
761.843	5160.53
762.239	4760.91
762.635	4580.55
763.031	4404.34
763.427	4163
763.822	3903.61
764.218	3644.97
764.614	3315.55
765.01	3089.02
765.405	2943.52
765.801	2836.04
766.196	2699.03
766.592	2621.8
766.987	2492.21
767.382	2403.36
767.778	2362.33
768.173	2305.95
768.568	2276.05
768.963	2222.37
769.358	2230.2
769.753	2213.45
770.148	2180.45
770.542	2178.24
770.937	2165.37
771.332	2204.83
771.726	2213.91
772.121	2190.47
772.515	2214.51
772.91	2210.54
773.304	2240.13
773.699	2212.18
774.093	2234.63
774.487	2256.93
774.881	2276.16
775.275	2274.41
775.669	2255.33
776.063	2274.44
776.457	2288.34
776.851	2256.83
777.245	2251.74
777.638	2265.68
778.032	2312.54
778.425	2298.41
778.819	2315.17
779.212	2297.95
779.606	2281.18
779.999	2288.35
780.392	2280.26
780.786	2313.92
781.179	2324.03
781.572	2341.4
781.965	2348.91
782.358	2326.77
782.751	2348.25
783.143	2326.63
783.536	2355.92
783.929	2373.43
784.322	2420.32
784.714	2431.35
785.107	2431.78
785.499	2459.89
785.891	2452.6
786.284	2441.19
786.676	2500.26
787.068	2491.51
787.46	2512.92
787.852	2519.75
788.245	2553.68
788.636	2563.75
789.028	2596.44
789.42	2612.67
789.812	2617.78
790.204	2656.09
790.595	2701.71
790.987	2622
791.378	2632.52
791.77	2687.88
792.161	2744.91
792.553	2765.8
792.944	2721.14
793.335	2690.79
793.726	2716.32
794.117	2753.98
794.508	2808.24
794.899	2792.53
795.29	2846.87
795.681	2870.41
796.072	2813.62
796.463	2746.89
796.853	2754.35
797.244	2819.45
797.634	2832.66
798.025	2836.15
798.415	2839.58
798.806	2878.5
799.196	2911.44
799.586	2933.76
799.976	2917.43
800.366	3010.67
800.756	3098.67
801.146	3077.93
801.536	3088.98
801.926	3118.77
802.316	3127.31
802.706	3157.25
803.095	3103.68
803.485	3146.48
803.874	3159.28
804.264	3267.54
804.653	3255.36
805.043	3317.2
805.432	3367.01
805.821	3369.88
806.21	3378.47
806.599	3421.28
806.988	3438.44
807.377	3486.1
807.766	3540.26
808.155	3659.53
808.544	3550.03
808.933	3556.37
809.321	3544.56
809.71	3663.8
810.098	3726.71
810.487	3915.55
810.875	4115.68
811.264	4124.69
811.652	4245.41
812.04	4300.47
812.428	4368.35
812.816	4678.55
813.204	4853.67
813.592	5082.42
813.98	5217.5
814.368	5182.25
814.756	5374.86
815.144	5347.23
815.531	5543.29
815.919	5503.27
816.306	5629.71
816.694	5504.16
817.081	5527.68
817.469	5665.91
817.856	5662.24
818.243	5773.22
818.63	5928.47
819.017	5761.47
819.404	5784.2
819.791	5933.29
820.178	6187.33
820.565	6292.97
820.952	6679.8
821.339	6475.94
821.725	6553.24
822.112	6251.44
822.498	6236.58
822.885	6295.32
823.271	6256.44
823.657	6427.49
824.044	6433.08
824.43	6470.99
824.816	6468.9
825.202	6286.72
825.588	6706.37
825.974	6711.78
826.36	6924.66
826.746	6939.32
827.132	7081.92
827.517	7072.76
827.903	6750.5
828.289	6773.64
828.674	6457.84
829.06	6411.26
829.445	6576.02
829.83	6720.54
830.216	6919.85
830.601	7074.28
830.986	6911.56
831.371	6864.24
831.756	7096.56
832.141	6929.28
832.526	6921.92
832.911	7034.26
833.295	6986.05
833.68	7176.38
834.065	6927.82
834.449	6549.04
834.834	6517.85
835.218	6520.99
835.603	6662.93
835.987	6572.7
836.371	6915.46
836.755	6875.99
837.139	7038.53
837.524	7136.37
837.908	7063.14
838.291	7089.19
838.675	7119.13
839.059	7203.35
839.443	7193.26
839.827	7092.18
840.21	7290.85
840.594	7228.35
840.977	7312.13
841.361	7305.93
841.744	7468.17
842.127	7409.33
842.511	7508.83
842.894	7754.39
843.277	7913.77
843.66	8130.95
844.043	8173.75
844.426	7849.96
844.809	7720.53
845.191	7738.42
845.574	7547.51
845.957	7392.87
846.339	7345.49
846.722	7132.29
847.104	7162.77
847.487	7090.54
847.869	7101.19
848.252	7214.59
848.634	7341.84
849.016	7454.99
849.398	7505.97
849.78	7861.74
850.162	7865.07
850.544	8036
850.926	8292.42
851.307	8250.48
851.689	8362.24
852.071	8547.57
852.452	8678.08
852.834	8678.79
853.215	8837.33
853.597	8898.93
853.978	9021.09
854.359	9209.88
854.741	8802.9
855.122	8765.46
855.503	8648.21
855.884	8704.27
856.265	8679.42
856.646	8725.38
857.026	8564.62
857.407	8543.23
857.788	8602.9
858.169	8712.94
858.549	8359.74
858.93	8615.05
859.31	8626.23
859.69	8712.7
860.071	8550.71
860.451	8458.16
860.831	8151.43
861.211	8625
861.591	8848.35
861.971	8842.9
862.351	8926.96
862.731	9084.49
863.111	9190
863.491	9336.74
863.87	9702.16
864.25	9840.04
864.629	9685.22
865.009	9891.1
865.388	10247.99
865.768	10983
866.147	10942.31
866.526	10334.27
866.905	10459.41
867.284	11046.36
867.663	10485.2
868.042	10045.93
868.421	10019.36
868.8	10170.91
869.179	10282.56
869.558	9674.04
869.936	8918.23
870.315	9071.93
870.693	9296.8
871.072	10027.09
871.45	9556.39
871.828	9673.35
872.207	10177.86
872.585	10029.75
872.963	10307.73
873.341	9951.03
873.719	9840.89
874.097	9715.98
874.475	9897.66
874.853	10123.56
875.23	9698.29
875.608	10096.6
875.986	10925.6
876.363	10438.58
876.741	10757.21
877.118	10496.27
877.495	11018.13
877.873	11197.78
878.25	11781.13
878.627	11308.88
879.004	11460.85
879.381	11415.76
879.758	11128.44
880.135	10358.3
880.512	10949.22
880.889	10645.24
881.265	10528.55
881.642	10436.89
882.019	10619.4
882.395	10406.92
882.772	10835.07
883.148	10377.7
883.524	10334.31
883.901	10269.43
884.277	10427.51
884.653	10368.66
885.029	10674.72
885.405	11827.25
885.781	11738.73
886.157	11257.43
886.532	11398.21
886.908	11375.08
887.284	12642.25
887.659	13054.57
888.035	13465.03
888.411	13806.64
888.786	13978.33
889.161	14456.53
889.537	14193.1
889.912	14652.44
890.287	14636.76
890.662	15015.56
891.037	14743.4
891.412	13753.77
891.787	13616.2
892.162	13143.44
892.536	13460.78
892.911	12972.51
893.286	12706.07
893.66	12197.4
894.035	12507.58
894.409	13608.64
894.784	13067.58
895.158	13289.71
895.532	14075.05
895.906	14461.79
896.281	14809.24
896.655	14570.4
897.029	16640.82
897.402	17324.99
897.776	19275.66
898.15	19192.16
898.524	18994.69
898.898	19239.64
899.271	21528.91
899.645	18655.13
900.018	17910.6
900.392	18553.2
900.765	18680.86
901.138	17294.76
901.511	17019.73
901.884	15624.59
902.258	14416.07
902.631	14893.09
903.003	17126.12
903.376	15442.02
903.749	17296.68
904.122	18515.46
904.495	20369.61
904.867	20642.35
905.24	17911.87
905.612	16682.7
905.985	17068.51
906.357	17854.85
906.729	17047.99
907.102	14558.19
907.474	14007.16
907.846	14100.32
908.218	13909.94
908.59	12299.74
908.962	11898.08
909.334	12801.27
909.705	13457.88
910.077	13053.48
910.449	13575.32
910.82	13951.57
911.192	15353.38
911.563	15948.83
911.935	17035.94
912.306	17034.81
912.677	17574.68
913.048	17356.93
913.419	18821.46
913.79	18905.6
914.161	20257.93
914.532	19366.63
914.903	17794.67
915.274	16895.01
915.645	16638.91
916.015	14640.58
916.386	13966.23
916.756	14865.68
917.127	15363.52
917.497	13733.49
917.868	14940.77
918.238	14201.01
918.608	14598.5
918.978	14883.1
919.348	15737.98
919.718	16258.14
920.088	15684.7
920.458	16290.5
920.828	17133.54
921.198	16240.92
921.567	17346.75
921.937	13437.38
922.306	13563.62
922.676	14629.86
923.045	12229.18
923.415	11626.39
923.784	10589.53
924.153	10882.29
924.522	10868.85
924.891	10219.32
925.26	10938.5
925.629	10669.27
925.998	12260.44
926.367	11965.4
926.736	11405.14
927.104	13552.42
927.473	14560.21
927.842	17600.92
928.21	17432.39
928.578	18318.3
928.947	17330.64
929.315	17432.15
929.683	20455.17
930.051	20613.57
930.42	23935.97
930.788	20437.82
931.156	20288.44
931.523	19041.99
931.891	17587.49
932.259	16863.4
932.627	19552.33
932.994	27667.05
933.362	22893.43
933.729	19880.68
934.097	19026.26
934.464	16091.08
934.831	18562.96
935.199	18302.06
935.566	17764.85
935.933	18037.51
936.3	21885.53
936.667	17022.97
937.034	15387.73
937.401	15213.06
937.767	13132.1
938.134	11693.8
938.501	16472.38
938.867	17556.41
939.234	29599.41
939.6	25170.58
939.967	27543.67
940.333	18426.59
940.699	15687.93
941.065	12531.7
941.431	16423.52
941.798	15801.69
942.163	20756.7
942.529	12963.67
942.895	11909.22
943.261	7696.94
943.627	10100.72
943.992	8856.46
944.358	8847.91
944.723	8901.46
945.089	8680.46
945.454	8008.86
945.82	8564.24
946.185	8210.37
946.55	9511.24
946.915	8517.39
947.28	10005.47
947.645	8814.99
948.01	8172.33
948.375	8553.82
948.74	10236.99
949.104	11944
949.469	17216.58
949.834	30448.3
950.198	28969.88
950.562	17429.79
950.927	14541.73
951.291	17517.29
951.655	14896.62
952.02	13926.61
952.384	10523.71
952.748	9178.03
953.112	8971.98
953.476	7806.07
953.839	7209.6
954.203	7138.75
954.567	8911.63
954.931	14033.56
955.294	12025.78
955.658	12104.35
956.021	20695.54
956.385	35088.49
956.748	51723.28
957.111	80068.03
957.474	89812.64
957.837	101188.89
958.2	76330.49
958.563	27466.65
958.926	18552.21
959.289	28177.58
959.652	31527.85
960.015	23590.58
960.377	33812.04
960.74	38634.1
961.102	66624.94
961.465	71797.97
961.827	38641.08
962.189	74247.64
962.552	51547.89
962.914	41371.8
963.276	26833.64
963.638	22189.98
964	21946.13
964.362	14861.1
964.724	14315.5
965.085	10214.15
965.447	8366.29
965.809	9496.51
966.17	9501.1
966.532	10264
966.893	9441.9
967.255	8576.95
967.616	10112.46
967.977	8114.97
968.338	8850.66
968.699	7304.15
969.061	7315.89
969.421	7370.69
969.782	8266.57
970.143	6999.21
970.504	7276.71
970.865	8266.48
971.225	8470.86
971.586	8291.41
971.946	11796.84
972.307	10228.61
972.667	13348.32
973.027	13711.4
973.388	16595.06
973.748	11278.86
974.108	12264.17
974.468	16519.44
974.828	12760.7
975.188	9803.21
975.548	9006.69
975.907	7564.88
976.267	8482.13
976.627	7136.45
976.986	7398.38
977.346	7039.65
977.705	6770.34
978.064	6154.69
978.424	5116.26
978.783	5266.77
979.142	6003.96
979.501	5741.43
979.86	6077.47
980.219	5865.35
980.578	7537.69
980.937	8421.87
981.296	7537.78
981.654	7774.09
982.013	12108.31
982.371	15723.92
982.73	14695.67
983.088	16646.49
983.447	17813.66
983.805	25435.07
984.163	53073.11
984.521	58792.03
984.879	86207.66
985.237	-139443.57
985.595	134391.56
985.953	33351.57
986.311	19275.4
986.669	11221.85
987.026	9678.56
987.384	12917.16
987.741	13320.66
988.099	9564.42
988.456	7660.12
988.814	7199.02
989.171	6268.6
989.528	6159.62
989.885	6494.54
990.242	5151.41
990.599	6377.08
990.956	5221.6
991.313	3674.43
991.67	3018.31
992.027	3219.4
992.383	2863.17
992.74	2511.56
993.096	2649.58
993.453	2751.79
993.809	2861.92
994.165	3807.7
994.522	3517.46
994.878	3868.24
995.234	4861.2
995.59	4795.69
995.946	4481.88
996.302	5113.19
996.658	5892.34
997.013	6467.18
997.369	7703.29
997.725	9856.91
998.08	6363.25
998.436	9740.7
998.791	13454.41
999.147	13390.37
999.502	14595.23
999.857	10615.65
1000.212	17172.11
1000.567	24559.3
1000.922	14167.87
1001.277	8979.14
1001.632	6651.88
1001.987	8563.55
1002.342	6176.95
1002.696	4943.63
1003.051	3956.13
1003.406	4791.33
1003.76	4778.83
1004.114	4734.22
1004.469	3989.39
1004.823	3313.55
1005.177	3578.23
1005.531	2851.75
1005.885	2557.74
1006.239	2884.59
1006.593	3637.13
1006.947	4862.35
1007.301	3677.25
1007.655	3997.3
1008.008	2953.79
1008.362	3309.76
1008.715	4734.97
1009.069	4269.42
1009.422	6427.21
1009.776	12810.71
1010.129	8444.03
1010.482	7026.3
1010.835	5907.73
1011.188	12214.93
1011.541	11489.28
1011.894	-69781.93
1012.247	203838.7
1012.6	13631.84
1012.952	8582.95
1013.305	4388.07
1013.657	3163.73
1014.01	3006.23
1014.362	2486.97
1014.715	2256.7
1015.067	1972.65
1015.419	1929.58
1015.771	1707.78
1016.123	1531.6
1016.475	1582.36
1016.827	1689.25
1017.179	1841
1017.531	1843.47
1017.883	1875.36
1018.234	1831.09
1018.586	2275.21
1018.938	2431.21
1019.289	3356.52
1019.64	3813.21
1019.992	3561.04
1020.343	3240.98
1020.694	2600.79
1021.045	2266
1021.396	2597.4
1021.747	2823.72
1022.098	3321.14
1022.449	2424.72
1022.8	2247.66
1023.151	1585.37
1023.501	1433.51
1023.852	1551.81
1024.202	1634.69
1024.553	1781.21
1024.903	1758.64
1025.253	1503.3
1025.604	1341.88
1025.954	1660.34
1026.304	2009.78
1026.654	2304.76
1027.004	3327.29
1027.354	5274.84
1027.703	4973.24
1028.053	6427.08
1028.403	9314.02
1028.753	13240.1
1029.102	17935.42
1029.452	91635.21
1029.801	3976.48
1030.15	2550.42
1030.499	2151.97
897.758	1984.22
901.051	1909.63
904.343	1941.96
907.636	1953.41
910.928	2012.7
914.22	1937.79
917.511	1942.29
920.803	1985.73
924.094	1974.42
927.384	1985.21
930.675	1948.32
933.965	1917.12
937.255	1954.28
940.544	1929.48
943.834	1912.04
947.123	1858.6
950.411	1942.68
953.7	1925.61
956.988	1917.05
960.276	1852.94
963.563	1891.4
966.851	1904.24
970.138	1941.41
973.424	1944.41
976.711	1897.39
979.997	1951.41
983.283	1989.37
986.568	1930.82
989.853	1911.63
993.138	1936.53
996.423	2025.95
999.708	1992.4
1002.992	2022.27
1006.275	1934.22
1009.559	1936.25
1012.842	2028.32
1016.125	1988.64
1019.408	1971.27
1022.69	2016.39
1025.972	2056.94
1029.254	2034.82
1032.536	2005.92
1035.817	2007.44
1039.098	1978.74
1042.379	2026.85
1045.659	2053.73
1048.939	2007.86
1052.219	2010.18
1055.498	1995.43
1058.778	1996.57
1062.057	1968.33
1065.335	1992.59
1068.614	1999.76
1071.892	2004.69
1075.17	2049.61
1078.447	2056.82
1081.724	2051.69
1085.001	2075.73
1088.278	2055.42
1091.554	2060.6
1094.83	2052.69
1098.106	2094.45
1101.382	2117.29
1104.657	2117.81
1107.932	2116.61
1111.206	2099.8
1114.481	2050.94
1117.755	2051.33
1121.029	2046.63
1124.302	2108.73
1127.575	2080.65
1130.848	2081.92
1134.121	2052.76
1137.393	2022.69
1140.665	2073.77
1143.937	2056.21
1147.208	1998.49
1150.48	2063.66
1153.75	2054.1
1157.021	2045.31
1160.291	2025.06
1163.561	2078.78
1166.831	2038.51
1170.101	2063.78
1173.37	2018.1
1176.639	1983.15
1179.907	2020.95
1183.176	2051.01
1186.444	2051.92
1189.711	2072.81
1192.979	2102.4
1196.246	2058.74
1199.513	2070.54
1202.78	2079.67
1206.046	2089.07
1209.312	2117.58
1212.578	2131.69
1215.843	2103.17
1219.108	2069.71
1222.373	2091.15
1225.638	2069.22
1228.902	2063.29
1232.166	2015.9
1235.43	2005.27
1238.693	2033.09
1241.956	2021.64
1245.219	2073.4
1248.482	2051.96
1251.744	2051.71
1255.006	2161.9
1258.268	2106.53
1261.529	2068.57
1264.79	2065.92
1268.051	2160.22
1271.312	2167.29
1274.572	2139.58
1277.832	2127.46
1281.092	2105.12
1284.351	2104.54
1287.61	2091.34
1290.869	2033.82
1294.128	2039.06
1297.386	2071.12
1300.644	2066.64
1303.902	2076.59
1307.159	1951.45
1310.416	1999.65
1313.673	2029.27
1316.93	2031.05
1320.186	2055.87
1323.442	2082.05
1326.697	2089.95
1329.953	2055.67
1333.208	2095.62
1336.463	2064.06
1339.717	2033.67
1342.972	2128.71
1346.226	2098.88
1349.479	2055.38
1352.733	2037.85
1355.986	2035.01
1359.238	2020.37
1362.491	2025.69
1365.743	2025.71
1368.995	2014.19
1372.247	2028.8
1375.498	2045.71
1378.749	2094.5
1382	2046.18
1385.251	2074.13
1388.501	2023.17
1391.751	2031.67
1395	1996.45
1398.25	2017.88
1401.499	2045.64
1404.748	2004.23
1407.996	1980.72
1411.244	1971.96
1414.492	1958.84
1417.74	1945.6
1420.987	1947.3
1424.234	2007.38
1427.481	1963.58
1430.728	2018.59
1433.974	1994.45
1437.22	1987.34
1440.465	1981.63
1443.711	1990.81
1446.956	2010.24
1450.201	1977.39
1453.445	2017.07
1456.689	2011.05
1459.933	2020.98
1463.177	2065.12
1466.42	2038.48
1469.663	2023.35
1472.906	2046.77
1476.148	2090.91
1479.391	2045.41
1482.633	2024.55
1485.874	2056.32
1489.115	2067.26
1492.356	2046.32
1495.597	2028.6
1498.838	2016.1
1502.078	2007.11
1505.318	1986.65
1508.557	2014.64
1511.797	2017.47
1515.036	2072.62
1518.274	2037.61
1521.513	1983.31
1524.751	1990.87
1527.989	2016.59
1531.227	2036.71
1534.464	2060.34
1537.701	2046.87
1540.938	2057.18
1544.174	2004.82
1547.41	1989.84
1550.646	2030.58
1553.882	2082.81
1557.117	2141.13
1560.352	2148.4
1563.587	2116.2
1566.821	2085.88
1570.055	2091.82
1573.289	2078.36
1576.523	2127.45
1579.756	2148.29
1582.989	2170
1586.222	2128.85
1589.454	2154.9
1592.686	2143.02
1595.918	2170.75
1599.15	2170.52
1602.381	2204.05
1605.612	2197.2
1608.843	2285.55
1612.073	2212.99
1615.303	2201.62
1618.533	2205.29
1621.762	2202.17
1624.992	2173.16
1628.221	2181.71
1631.449	2170.27
1634.678	2184.74
1637.906	2158.19
1641.134	2179.54
1644.361	2148.44
1647.588	2140.36
1650.815	2163.09
1654.042	2118.59
1657.269	2147.55
1660.495	2136.76
1663.72	2108.51
1666.946	2079.62
1670.171	2065.73
1673.396	2039.11
1676.621	2019.04
1679.845	2009.26
1683.069	2009.96
1686.293	2035.53
1689.517	2034.65
1692.74	1992.85
1695.963	2010.98
1699.185	2060.28
1702.408	2035.18
1705.63	2057.73
1708.852	2079.04
1712.073	2049.5
1715.294	2069.36
1718.515	2104.55
1721.736	2069.52
1724.956	2041.88
1728.176	2061.15
1731.396	2082.14
1734.616	2068.34
1737.835	2105.62
1741.054	2074.89
1744.272	2065.71
1747.491	2109.95
1750.709	2121.68
1753.927	2088.65
1757.144	2101.97
1760.361	2168.45
1763.578	2135.48
1766.795	2088.44
1770.011	2072.17
1773.227	2092.56
1776.443	2134.61
1779.658	2176.78
1782.874	2112.9
1786.089	2111.45
1789.303	2113.62
1792.518	2109.49
1795.732	2094.66
1798.945	2113
1802.159	2149.69
1805.372	2106.19
1808.585	2101.42
1811.797	2103.1
1815.01	2110.93
1818.222	2143.46
1821.434	2092.88
1824.645	2130.43
1827.856	2146.25
1831.067	2173.99
1834.278	2107.02
1837.488	2092.81
1840.698	2202.6
1843.908	2152.13
1847.117	2120.92
1850.326	2064.23
1853.535	2107.81
1856.744	2150.81
1859.952	2076.04
1863.16	2078.71
1866.368	2087.29
1869.575	2201.5
1872.782	2085.22
1875.989	2019.81
1879.196	2053.78
1882.402	2046.52
1885.608	2073.92
1888.814	2029.06
1892.019	1942.89
1895.224	1991.89
1898.429	1951.8
1901.634	1938.06
1904.838	1912.92
1908.042	1970.8
1911.246	1981.29
1914.449	1956.18
1917.652	1934.96
1920.855	1917.02
1924.058	1930.58
1927.26	1976.69
1930.462	1996.02
1933.664	2039.13
1936.865	1987.51
1940.066	2004.57
1943.267	1948.49
1946.467	1956.78
1949.668	1971.82
1952.868	2039.79
1956.067	2034.44
1959.267	1979.97
1962.466	2001.01
1965.665	1981.88
1968.863	1976.36
1972.061	1975.19
1975.259	1967.88
1978.457	2039.24
1981.654	2002.94
1984.852	2007.66
1988.048	1967.5
1991.245	1949.91
1994.441	2040.88
1997.637	1989.45
2000.833	1974.22
2004.028	2007.83
2007.223	2068.5
2010.418	2060.16
2013.613	2006.25
2016.807	2007.9
2020.001	1998.17
2023.194	2014.48
2026.388	2003.4
2029.581	1946.39
2032.774	2014.19
2035.966	2026.81
2039.158	1977.71
2042.35	1996.14
2045.542	1924.57
2048.733	2000.45
2051.924	1979.61
2055.115	1992.51
2058.306	1964.82
2061.496	2017.33
2064.686	2059.64
2067.875	1965.86
2071.065	1962.97
2074.254	1979.55
2077.442	1935.36
2080.631	2013.98
2083.819	1963.28
2087.007	1961.29
2090.195	1950.43
2093.382	1957.25
2096.569	1943.7
2099.756	1911.33
2102.942	1966.33
2106.128	1986.21
2109.314	1971.31
2112.5	1964.48
2115.685	1930.68
2118.87	1937.48
2122.055	1993.18
2125.239	1978.11
2128.424	1973.06
2131.608	2013.55
2134.791	1999.84
2137.974	2028.22
2141.157	2017.56
2144.34	1998.51
2147.523	1980.35
2150.705	2009.46
2153.887	1971.11
2157.068	1955.14
2160.25	1927.51
2163.431	1946.54
2166.611	1926.07
2169.792	1947.26
2172.972	1868.66
2176.152	1907.03
2179.331	1931.85
2182.511	1941.8
2185.69	1960.26
2188.868	1969.01
2192.047	1993.57
2195.225	2020.79
2198.403	1966.24
2201.58	1952.34
2204.758	1934.46
2207.935	2003.51
2211.111	1932.56
2214.288	1921.23
2217.464	1952.31
2220.64	1901.36
2223.815	1946.65
2226.991	1887.2
2230.166	1900.68
2233.34	1949.09
2236.515	1958.39
2239.689	2019.27
2242.863	1972.97
2246.036	2020.01
2249.209	1998.51
2252.382	2013.17
2255.555	2029.95
2258.727	1988.23
2261.9	2008.59
2265.071	2001.92
2268.243	1995.7
2271.414	1952.33
2274.585	1944.38
2277.756	2001.15
2280.926	1959.98
2284.096	1984.07
2287.266	1924.33
2290.436	1970.11
2293.605	1983.79
2296.774	2027.8
2299.942	2026.53
2303.111	2042.19
2306.279	2094.42
2309.447	2076.95
2312.614	2047.04
2315.781	2075.37
2318.948	2053.23
2322.115	2087.36
2325.281	1988.46
2328.447	1991.91
2331.613	1961.19
2334.779	1958.97
2337.944	1950.21
2341.109	1952.49
2344.274	1943.57
2347.438	1912.71
2350.602	1930.02
2353.766	1939.66
2356.929	1930.01
2360.092	1963.03
2363.255	1942.78
2366.418	1920.05
2369.58	1965.34
2372.742	1880.91
2375.904	1865.21
2379.066	1855.88
2382.227	1876.09
2385.388	1840.92
2388.548	1799.83
2391.709	1835.42
2394.869	1830.46
2398.029	1866.37
2401.188	1855.74
2404.347	1833.02
2407.506	1883.17
2410.665	1926.88
2413.823	1905.97
2416.981	1894.43
2420.139	1904.83
2423.296	1941.15
2426.453	1915.53
2429.61	1933.74
2432.767	1919.28
2435.923	1962.76
2439.079	1900.75
2442.235	1929.24
2445.391	1878.95
2448.546	1924.86
2451.701	1951.39
2454.855	1955.21
2458.009	1974.05
2461.163	1957.01
2464.317	1936.34
2467.471	1959.21
2470.624	1980.74
2473.777	1982.34
2476.929	1998.82
2480.082	2018.91
2483.234	1996.5
2486.385	1935.73
2489.537	1929.81
2492.688	1930.47
2495.839	1947.03
2498.989	1959.96
2502.14	1949.22
2505.29	1945.81
2508.439	1966.01
2511.589	1916.08
2514.738	1909.29
2517.887	1930.28
2521.035	2008.56
2524.183	1958.6
2527.331	1950.06
2530.479	1951.17
2533.627	1951.33
