Data from C_1_DIV_PA_2N_Splice17_12-01-17-293.txt Node
Date: Sat Mar 14 12:01:17 EDT 2020
User: sa697716
Spectrometer: FLMS03696
Trigger mode: 0
Integration Time (sec): 3.180400E-1
Scans to average: 20
Electric dark correction enabled: true
Nonlinearity correction enabled: true
Boxcar width: 5
XAxis mode: Wavelengths
Number of Pixels in Spectrum: 2048
>>>>>Begin Spectral Data<<<<<
187.83	-261479.58
188.298	1944.37
188.766	1061.46
189.233	943.61
189.701	1349.57
190.169	1834.45
190.636	721.26
191.104	596.69
191.571	122.18
192.039	-37.6
192.506	48.4
192.974	395.01
193.441	-457.35
193.908	137.58
194.375	34.31
194.842	71.4
195.31	134.93
195.777	178.69
196.244	414.76
196.711	536.72
197.177	647.94
197.644	924.2
198.111	1608.07
198.578	2215.83
199.045	1752.81
199.511	2883.77
199.978	3397.99
200.445	2882.8
200.911	3194.3
201.378	3553.99
201.844	3210.52
202.31	5532.93
202.777	5774.2
203.243	3168.76
203.709	3037.9
204.176	3645.14
204.642	2994.12
205.108	2790.83
205.574	2295.75
206.04	2104.83
206.506	1971.74
206.972	1861.74
207.438	1795.98
207.903	2028.19
208.369	1783.68
208.835	1771.87
209.301	1839.03
209.766	1898.19
210.232	1882.18
210.697	2316.02
211.163	2851.49
211.628	4308.74
212.094	3629.01
212.559	4436.95
213.024	2761.86
213.49	3364.29
213.955	3282.09
214.42	3222.89
214.885	2994.34
215.35	2889.77
215.815	2761.23
216.28	2916.84
216.745	2375.72
217.21	2547.18
217.675	2335.72
218.14	2613.4
218.604	2912.57
219.069	3325.79
219.534	3469.7
219.998	4037.54
220.463	4860.39
220.927	6002.78
221.392	5660.68
221.856	5756.85
222.32	7286.22
222.785	9004.58
223.249	11371.84
223.713	12694.57
224.177	12712.61
224.642	16342.39
225.106	20157.39
225.57	22100.76
226.034	16449.66
226.497	25152.75
226.961	22750.85
227.425	26509.15
227.889	29509.58
228.353	29594.71
228.816	61341.49
229.28	58775.45
229.744	49830.71
230.207	30362.1
230.671	29960.09
231.134	49815.77
231.597	57497.1
232.061	57663.61
232.524	56454.71
232.987	39058.14
233.45	35225.78
233.914	31688.58
234.377	32617.05
234.84	29916.38
235.303	35413.58
235.766	39671.47
236.229	41092.45
236.691	26001.81
237.154	29282.05
237.617	22086.51
238.08	22659.95
238.542	26633.47
239.005	19076.01
239.468	18978.98
239.93	17914.31
240.393	16316.92
240.855	14346.01
241.317	14727.27
241.78	17941.78
242.242	18579.29
242.704	20091.52
243.166	17527.13
243.629	15929.15
244.091	18388.82
244.553	20168.84
245.015	21725.26
245.477	28108.05
245.939	41253.05
246.4	43775.56
246.862	42626.54
247.324	40260.21
247.786	45101.47
248.247	59152.18
248.709	61176.32
249.17	45793.9
249.632	43182.4
250.093	50106.02
250.555	43382.8
251.016	26497.12
251.477	25216.73
251.939	27240.32
252.4	28616.36
252.861	34114.11
253.322	31783.04
253.783	37904.66
254.244	49263.9
254.705	38906.94
255.166	34673.21
255.627	34156.04
256.088	48211.7
256.549	51187.83
257.009	44127.48
257.47	53583.57
257.931	43672.37
258.391	32740.57
258.852	33746.41
259.312	35375.01
259.773	43779.64
260.233	36957.26
260.694	31190.58
261.154	35396.99
261.614	28416.55
262.074	25413.83
262.534	26405.82
262.994	24883.64
263.455	33170.3
263.915	27946.01
264.374	26335.46
264.834	28755.06
265.294	31909.89
265.754	33071.26
266.214	31300.14
266.673	29348.69
267.133	37070.3
267.593	36806.22
268.052	45033
268.512	39182.37
268.971	47283.4
269.431	51893.31
269.89	46463.52
270.349	69649.69
270.809	77635.87
271.268	69915.77
271.727	156859.22
272.186	101599.15
272.645	76184.34
273.104	55010.99
273.563	79743.09
274.022	62739.56
274.481	53341.26
274.94	41078.97
275.399	30551.87
275.857	35598.67
276.316	48117.73
276.775	42866.81
277.233	42240.5
277.692	39562.68
278.15	44720.89
278.609	45981.79
279.067	42587.78
279.525	39618.88
279.984	51252.8
280.442	61646.05
280.9	60775.03
281.358	40026.28
281.816	37284.36
282.274	36527
282.732	37792.64
283.19	38045.25
283.648	32887.35
284.106	35062.31
284.564	35666.36
285.021	33080.54
285.479	24670.44
285.937	22481
286.394	19746.1
286.852	20346.84
287.309	21394.98
287.767	20658.62
288.224	19667.84
288.682	21600.08
289.139	23734.81
289.596	21743.89
290.053	22646.65
290.511	28610.33
290.968	34763.67
291.425	47253.12
291.882	39335.37
292.339	34262.39
292.796	34098.46
293.252	32203.24
293.709	25604.41
294.166	22976.58
294.623	25435.02
295.079	24439.29
295.536	24582.34
295.992	22329.98
296.449	22105.34
296.905	23033.12
297.362	22126.53
297.818	23302.72
298.274	24186.75
298.731	24667.69
299.187	24461.24
299.643	26298.87
300.099	31839.81
300.555	34953
301.011	29249.4
301.467	28186.38
301.923	33051.48
302.379	32332.45
302.835	31782.51
303.291	31854.41
303.746	36349.73
304.202	45940.23
304.658	46202.16
305.113	31078.84
305.569	30507.26
306.024	32553.74
306.479	31090.46
306.935	26224.81
307.39	28682.72
307.845	26507.41
308.301	26686.3
308.756	26006.31
309.211	25065.62
309.666	25680.18
310.121	31892.43
310.576	32418.77
311.031	32210.88
311.486	36917.31
311.94	36928.94
312.395	49396.73
312.85	92947.02
313.305	457319.34
313.759	2365308.89
314.214	171512.92
314.668	135999.95
315.123	114463.77
315.577	41007.38
316.032	36470.06
316.486	45712.43
316.94	36052.37
317.394	25125.63
317.849	19544.15
318.303	18526.64
318.757	17495.83
319.211	19355.26
319.665	16982.04
320.119	17229.77
320.572	24781.3
321.026	23167.91
321.48	19310.15
321.934	21106.98
322.387	21164.39
322.841	22866.74
323.295	20541.67
323.748	23708.31
324.202	24045.75
324.655	28867.21
325.108	40240.64
325.562	28415.63
326.015	33804.59
326.468	25539.71
326.921	28574.06
327.374	26656.01
327.827	27771.86
328.28	31483.03
328.733	21098.04
329.186	18585.79
329.639	17711.22
330.092	14961.41
330.545	14245.65
330.997	14369.17
331.45	15707.06
331.903	18402.66
332.355	31699.38
332.808	30827.5
333.26	25436.57
333.713	27654.95
334.165	27854.67
334.617	37250.71
335.069	30139.86
335.522	54557.73
335.974	60489.99
336.426	55396.32
336.878	38382.13
337.33	19461.08
337.782	19008.9
338.234	23811.31
338.686	28502.03
339.137	33815.23
339.589	31843.44
340.041	24984.97
340.493	21476.59
340.944	22003.35
341.396	23647.97
341.847	19878.53
342.299	23436.03
342.75	28624.66
343.201	25036.61
343.653	28779.38
344.104	35454.24
344.555	27904.27
345.006	43477.22
345.457	33253.15
345.908	26426.87
346.359	24898.19
346.81	20321.82
347.261	21478.06
347.712	21150.12
348.163	22670.79
348.613	22909.01
349.064	21373.22
349.515	18735.26
349.965	19191.75
350.416	23159.25
350.866	25462.98
351.317	28826.73
351.767	47678.64
352.217	60152.37
352.668	49948.62
353.118	45807.17
353.568	44291.03
354.018	34984.88
354.468	36891.63
354.918	26467.09
355.368	23181.34
355.818	32753.24
356.268	94217.9
356.718	394850.93
357.168	98313.36
357.617	49397.53
358.067	55036.85
358.517	51626.85
358.966	60561.61
359.416	67871.17
359.865	73463.97
360.315	87607.94
360.764	40876.5
361.213	22928.6
361.663	21748.01
362.112	26912.44
362.561	43537.01
363.01	32912.68
363.459	27752.85
363.908	30091.49
364.357	25606.86
364.806	43407.2
365.255	29885.98
365.703	27406
366.152	27477.24
366.601	22312.74
367.05	18117.71
367.498	16478.61
367.947	17260.93
368.395	17968.14
368.844	15942.75
369.292	19294.93
369.74	13327.81
370.189	20452.04
370.637	24023.83
371.085	20802.97
371.533	25414.96
371.981	24539.82
372.429	23424.46
372.877	24432.25
373.325	20522.88
373.773	20976
374.221	18726.92
374.669	23329.19
375.116	20237.71
375.564	20472.81
376.012	22930.31
376.459	18951.34
376.907	22769.64
377.354	27665.98
377.801	25844.96
378.249	29766.65
378.696	38181.71
379.143	46347.42
379.591	49594.2
380.038	84029.78
380.485	60896.22
380.932	66050.06
381.379	60451.36
381.826	44571.24
382.273	31739.24
382.72	27868.08
383.166	27232.05
383.613	17721.77
384.06	16011.02
384.506	18553.21
384.953	13675.4
385.4	13815.95
385.846	12121.17
386.292	11857.46
386.739	11630.51
387.185	11533.57
387.631	11550.75
388.078	11218.63
388.524	12021.69
388.97	11127.18
389.416	9287.43
389.862	9876.98
390.308	9366.74
390.754	9512.68
391.2	10334.74
391.645	10587.31
392.091	10115.51
392.537	9767.47
392.983	9798.8
393.428	9617.95
393.874	10328.69
394.319	10358.13
394.765	9821.41
395.21	10110.07
395.655	9499.17
396.101	8919.85
396.546	8062.18
396.991	8156.22
397.436	7590.01
397.881	7344.45
398.326	6981.89
398.771	6599.55
399.216	5788.3
399.661	5223.84
400.106	5204.61
400.551	5330.42
400.995	4787.53
401.44	4747.23
401.885	4465.46
402.329	4521.29
402.774	4341.08
403.218	4201.06
403.663	4056.57
404.107	4174.52
404.551	4214.2
404.995	3874.35
405.44	3745.81
405.884	3814.83
406.328	3696.83
406.772	3699.65
407.216	3381.24
407.66	3278.86
408.104	3125.98
408.547	2933.99
408.991	2845.63
409.435	2743.7
409.879	2712.15
410.322	2683.13
410.766	2594.38
411.209	2470.34
411.653	2374.89
412.096	2327.47
412.54	2334.5
412.983	2322.2
413.426	2330.78
413.869	2334.45
414.312	2295.14
414.756	2216.48
415.199	2117.41
415.642	2056.26
416.085	2062.52
416.527	2050.09
416.97	2085.43
417.413	1981.32
417.856	1966.16
418.298	1953.78
418.741	1947.64
419.184	1946.22
419.626	2031.64
420.069	2033.09
420.511	2047.44
420.953	2006.09
421.396	1989.11
421.838	1941.44
422.28	1986.63
422.722	1996.57
423.164	2023.9
423.606	1987.34
424.048	1988.59
424.49	1890.42
424.932	1884.19
425.374	1861.28
425.816	1893.88
426.258	1933.47
426.699	1956.89
427.141	1930.17
427.582	1961.68
428.024	1958.12
428.465	1952.56
428.907	1906.33
429.348	1885.62
429.789	1884.21
430.231	1841.89
430.672	1870.86
431.113	1826.43
431.554	1801.58
431.995	1757.15
432.436	1694.09
432.877	1653.57
433.318	1621.9
433.759	1613.6
434.2	1614.3
434.64	1599.14
435.081	1604.18
435.522	1519.04
435.962	1465.85
436.403	1433.09
436.843	1455.25
437.284	1425.18
437.724	1387.73
438.164	1392.74
438.604	1361.92
439.045	1307.05
439.485	1249.29
439.925	1223.6
440.365	1192.32
440.805	1174.36
441.245	1158.09
441.685	1113.6
442.125	1106.3
442.564	1112.71
443.004	1085.93
443.444	1082.15
443.883	1083.25
444.323	1077.59
444.762	1079.18
445.202	1092.16
445.641	1108.75
446.081	1101.35
446.52	1106.63
446.959	1090.76
447.398	1061.18
447.837	1045.63
448.276	1025.14
448.716	1032.51
449.154	1038.62
449.593	1010.53
450.032	1003.78
450.471	984.53
450.91	983.03
451.349	979.24
451.787	973.01
452.226	984.84
452.664	983.61
453.103	984.41
453.541	980.24
453.98	976.44
454.418	982.52
454.856	964.94
455.295	961.97
455.733	968.89
456.171	972.47
456.609	974.38
457.047	973.54
457.485	986.24
457.923	984.84
458.361	972.56
458.798	976.18
459.236	972.97
459.674	982.3
460.111	987.74
460.549	977.32
460.987	975.09
461.424	972.63
461.862	968.77
462.299	953.78
462.736	955.03
463.173	958.08
463.611	943.77
464.048	943.29
464.485	950.31
464.922	941.1
465.359	937.11
465.796	920.99
466.233	912.56
466.67	902.12
467.106	899.45
467.543	888.9
467.98	877.73
468.416	857.81
468.853	851.23
469.29	825.5
469.726	816.23
470.162	793.74
470.599	786
471.035	779.48
471.471	761.6
471.907	757.73
472.344	753.55
472.78	753.18
473.216	762.11
473.652	749.95
474.088	747.03
474.523	743.61
474.959	749.65
475.395	741.16
475.831	734.71
476.266	736.4
476.702	732.53
477.138	723.37
477.573	719.29
478.008	714.23
478.444	716.48
478.879	721.06
479.314	722.77
479.75	721.24
480.185	723.62
480.62	728.91
481.055	732.28
481.49	736.33
481.925	745.73
482.36	758.82
482.795	780.4
483.229	800.6
483.664	816.8
484.099	819.56
484.534	830.93
484.968	837.11
485.403	838.31
485.837	836.79
486.271	834.57
486.706	833.32
487.14	822.04
487.574	805.66
488.009	796.39
488.443	787.58
488.877	792.05
489.311	791.62
489.745	798.42
490.179	803.18
490.613	813.51
491.046	816.58
491.48	818.48
491.914	815.12
492.348	817.76
492.781	818.17
493.215	814.32
493.648	811.44
494.082	812.68
494.515	808.4
494.948	810.29
495.382	809.95
495.815	809.35
496.248	809.43
496.681	817.21
497.114	823.25
497.547	827.42
497.98	835.26
498.413	834.48
498.846	837.18
499.279	838.03
499.711	836.06
500.144	830.45
500.577	832.37
501.009	834.96
501.442	835.78
501.874	827.25
502.306	819.96
502.739	817.04
503.171	821
503.603	813.71
504.036	811.78
504.468	805.49
504.9	804.94
505.332	800.37
505.764	793.07
506.196	787.42
506.627	789.12
507.059	788.74
507.491	784.33
507.923	771.26
508.354	772.82
508.786	769.62
509.217	772.43
509.649	772.83
510.08	775.05
510.512	777.15
510.943	777.66
511.374	774.26
511.805	777.93
512.237	780.16
512.668	791.01
513.099	797.93
513.53	805.85
513.961	808.75
514.391	818.83
514.822	829.68
515.253	840.8
515.684	846.6
516.114	854.71
516.545	857.73
516.975	864.11
517.406	866.21
517.836	857.9
518.267	852.96
518.697	855.85
519.127	850.31
519.558	846.38
519.988	841.26
520.418	840.91
520.848	843.78
521.278	842
521.708	862.16
522.138	863.87
522.567	876.29
522.997	885.82
523.427	889.53
523.857	894.92
524.286	897.35
524.716	902.13
525.145	908.33
525.575	911.65
526.004	916.23
526.433	893.09
526.863	890.71
527.292	883.79
527.721	885.25
528.15	886.43
528.579	884.97
529.008	888.59
529.437	898.61
529.866	903.8
530.295	912.02
530.724	917.84
531.152	931.16
531.581	938.11
532.01	946.16
532.438	948.16
532.867	955.22
533.295	964.41
533.723	967.72
534.152	966.92
534.58	967.01
535.008	957.77
535.436	959.56
535.865	963.04
536.293	969.68
536.721	978.16
537.149	992.03
537.576	994.11
538.004	1000.79
538.432	1004.22
538.86	1003.02
539.287	1006.55
539.715	1014.13
540.143	1014.63
540.57	1013.69
540.998	1011.74
541.425	999.28
541.852	988.28
542.28	985.87
542.707	976.83
543.134	969.36
543.561	966.89
543.988	963.2
544.415	962.32
544.842	959.06
545.269	954.51
545.696	955.91
546.123	962.22
546.549	956.59
546.976	950.08
547.403	949.74
547.829	950.17
548.256	950.95
548.682	948.88
549.108	945.02
549.535	944.27
549.961	943.74
550.387	935.93
550.813	933.01
551.24	935.85
551.666	935.73
552.092	930.2
552.518	926.94
552.943	923.64
553.369	926.75
553.795	929.47
554.221	929.96
554.646	928.27
555.072	933.06
555.498	934.74
555.923	938.27
556.349	945.34
556.774	948.95
557.199	948.89
557.625	950.96
558.05	947.07
558.475	951.47
558.9	949.92
559.325	945.45
559.75	942.16
560.175	938.14
560.6	934.65
561.025	932.34
561.449	932.73
561.874	934.13
562.299	936.2
562.723	938.84
563.148	932.66
563.572	934.58
563.997	939.74
564.421	941.5
564.846	941.85
565.27	943.4
565.694	942.39
566.118	947.88
566.542	952.17
566.966	948.88
567.39	947.48
567.814	942.61
568.238	942.45
568.662	945.66
569.086	948.53
569.509	952.41
569.933	946.21
570.357	943.36
570.78	932.92
571.204	928.46
571.627	924.01
572.05	923.73
572.474	925.41
572.897	920.48
573.32	917.87
573.743	913.77
574.166	906.47
574.589	907.55
575.012	904.22
575.435	905.02
575.858	900.5
576.281	896.67
576.704	890.51
577.126	884.93
577.549	879.71
577.972	875.52
578.394	871.82
578.817	870.45
579.239	861.53
579.661	857.47
580.084	852.17
580.506	847.09
580.928	845.69
581.35	841.39
581.772	840.48
582.194	834.77
582.616	829.1
583.038	821.89
583.46	815.87
583.882	815.34
584.303	817.19
584.725	814.95
585.147	819.81
585.568	827.01
585.99	834.94
586.411	840.07
586.833	850.08
587.254	852.65
587.675	862.32
588.096	870.89
588.518	869.08
588.939	861.49
589.36	861.77
589.781	854.01
590.202	840.55
590.623	835.39
591.043	834.04
591.464	827.96
591.885	826.63
592.305	823.19
592.726	816
593.147	817.37
593.567	814.86
593.987	811.13
594.408	809.23
594.828	807.38
595.248	805.76
595.669	796.88
596.089	793.22
596.509	789.4
596.929	781.98
597.349	783.83
597.769	778.86
598.189	776.29
598.608	777.1
599.028	778.03
599.448	777.9
599.867	770.72
600.287	768
600.706	766.33
601.126	761.64
601.545	762.45
601.965	761.76
602.384	759.02
602.803	761.31
603.222	759.83
603.641	757.49
604.061	757.04
604.48	755.77
604.898	762.29
605.317	767.05
605.736	769.62
606.155	769.76
606.574	765.48
606.992	770.32
607.411	769.9
607.829	766.99
608.248	766.92
608.666	768.38
609.085	770.52
609.503	768.1
609.921	766.77
610.339	770.89
610.758	772.68
611.176	773.48
611.594	771.7
612.012	772.01
612.43	777.44
612.847	784.43
613.265	787.42
613.683	792.55
614.101	795.85
614.518	795.2
614.936	791.79
615.353	785.7
615.771	786.29
616.188	789.25
616.606	789.81
617.023	787.7
617.44	781.03
617.857	778.29
618.274	775.33
618.691	772.79
619.108	769.6
619.525	767.72
619.942	773.88
620.359	777.77
620.776	775.83
621.192	775.19
621.609	775.69
622.026	781.78
622.442	787.23
622.859	791.21
623.275	788.2
623.691	792.94
624.108	801.69
624.524	811.29
624.94	811.91
625.356	818.93
625.772	827.11
626.188	833.96
626.604	835.21
627.02	833.3
627.436	831.78
627.852	838.78
628.268	847.07
628.683	840.49
629.099	835.04
629.514	832.02
629.93	835.04
630.345	839.73
630.761	838.46
631.176	841.53
631.591	839.11
632.007	836.48
632.422	834.84
632.837	828.47
633.252	829.31
633.667	825.4
634.082	820.47
634.497	814.82
634.911	804.42
635.326	804.65
635.741	795.87
636.155	791.95
636.57	796.62
636.984	800.13
637.399	805.53
637.813	809.65
638.228	812.92
638.642	821.17
639.056	819.69
639.47	824.57
639.884	823.82
640.298	825.8
640.712	831.47
641.126	829.8
641.54	830.18
641.954	833.04
642.368	830.44
642.781	833.01
643.195	827.92
643.609	834.63
644.022	837.98
644.436	843.52
644.849	842.04
645.262	840.05
645.676	847.66
646.089	851.09
646.502	846.26
646.915	849.31
647.328	842.54
647.741	846.3
648.154	841.26
648.567	844.27
648.98	837.91
649.393	843.44
649.805	846.08
650.218	843.85
650.631	835.12
651.043	834
651.456	832.5
651.868	835.72
652.28	853.85
652.693	869.64
653.105	878.91
653.517	891.26
653.929	895.26
654.341	903.56
654.753	896.76
655.165	905.72
655.577	907.79
655.989	909.93
656.401	909.05
656.813	882.88
657.224	870.61
657.636	851.33
658.047	841.59
658.459	830.16
658.87	828.74
659.282	826.79
659.693	815.91
660.104	809.92
660.515	805.17
660.926	810.21
661.338	815.79
661.749	818.56
662.159	818.11
662.57	821.24
662.981	825.12
663.392	826.13
663.803	837.41
664.213	843.2
664.624	847.6
665.035	858.3
665.445	851.82
665.855	850.3
666.266	847.65
666.676	850.68
667.086	847.99
667.497	853.28
667.907	851.49
668.317	845.23
668.727	844.78
669.137	849.38
669.547	849.02
669.956	856.06
670.366	863.19
670.776	867.91
671.186	875.46
671.595	881.43
672.005	886.75
672.414	887.76
672.824	888.21
673.233	894.74
673.642	898.75
674.052	903.26
674.461	905.54
674.87	910.49
675.279	908.66
675.688	910.77
676.097	912.37
676.506	908.55
676.915	925.68
677.323	928.57
677.732	926.09
678.141	924.23
678.549	911.22
678.958	908.97
679.366	906.29
679.775	908.28
680.183	917.32
680.592	921.66
681	923.88
681.408	910.85
681.816	914.9
682.224	918.37
682.632	922.86
683.04	947.44
683.448	964.24
683.856	986.28
684.264	1011.73
684.671	1029.42
685.079	1052.4
685.487	1078.24
685.894	1117.05
686.302	1140.5
686.709	1152.76
687.116	1166.94
687.524	1170.01
687.931	1168.84
688.338	1160.74
688.745	1145
689.152	1135.49
689.559	1131.67
689.966	1127.65
690.373	1107.03
690.78	1101.35
691.187	1112.14
691.593	1111.88
692	1107.97
692.407	1116.02
692.813	1133.47
693.22	1145.41
693.626	1155.23
694.032	1161.28
694.439	1182.18
694.845	1196.78
695.251	1221.63
695.657	1242.64
696.063	1282.95
696.469	1311.73
696.875	1338.93
697.281	1352.56
697.687	1371.81
698.093	1390.65
698.498	1430.49
698.904	1462.55
699.31	1513.32
699.715	1551.89
700.12	1608.56
700.526	1625.68
700.931	1672.71
701.337	1714.51
701.742	1745.55
702.147	1807.09
702.552	1840.49
702.957	1889.01
703.362	1917.45
703.767	1950.42
704.172	1992.13
704.577	1982.1
704.981	2031.51
705.386	2063.33
705.791	2079.31
706.195	2145.85
706.6	2172.47
707.004	2245.54
707.408	2250.23
707.813	2292.12
708.217	2308.97
708.621	2335.14
709.025	2426.78
709.43	2453.2
709.834	2518.17
710.237	2592.42
710.641	2611.47
711.045	2655.79
711.449	2680.44
711.853	2729.9
712.256	2788.57
712.66	2845.83
713.064	2931.89
713.467	2991.18
713.87	3107.68
714.274	3177.33
714.677	3294.25
715.08	3451.82
715.484	3619.67
715.887	3815.85
716.29	4015.27
716.693	4225.54
717.096	4462.66
717.499	4611.41
717.901	4677.41
718.304	4740.8
718.707	4804.71
719.109	4758.81
719.512	4773.01
719.915	4695.31
720.317	4684.71
720.719	4761.43
721.122	4775.15
721.524	4769.67
721.926	4773.23
722.328	4900.83
722.731	4930.11
723.133	4990.82
723.535	5208.64
723.937	5266.52
724.338	5353.14
724.74	5430.39
725.142	5400.61
725.544	5431.97
725.945	5490.79
726.347	5522.7
726.748	5552.79
727.15	5602.4
727.551	5598.23
727.952	5602.01
728.354	5601.58
728.755	5630.78
729.156	5615.76
729.557	5636.54
729.958	5536.54
730.359	5505.44
730.76	5506.72
731.161	5464
731.562	5456.76
731.962	5481.36
732.363	5435.04
732.763	5390.75
733.164	5450.8
733.564	5399.17
733.965	5316.29
734.365	5299.61
734.766	5347.39
735.166	5323.76
735.566	5283.96
735.966	5272.21
736.366	5282.24
736.766	5228.71
737.166	5276.97
737.566	5244.7
737.966	5230.3
738.365	5287.47
738.765	5294.65
739.165	5225.11
739.564	5208
739.964	5267.82
740.363	5228.27
740.763	5236.68
741.162	5235.86
741.561	5210.52
741.96	5166.26
742.36	5197.68
742.759	5214.75
743.158	5266.79
743.557	5294.38
743.955	5346.47
744.354	5304.13
744.753	5376.94
745.152	5337.41
745.55	5407.82
745.949	5406.63
746.348	5419.23
746.746	5444.66
747.144	5403.46
747.543	5382.21
747.941	5443.47
748.339	5369.75
748.737	5366.4
749.136	5361.28
749.534	5441.56
749.932	5414.8
750.33	5445.05
750.727	5511.08
751.125	5486.07
751.523	5469.56
751.921	5523.03
752.318	5486.46
752.716	5559.25
753.113	5579.06
753.511	5612.93
753.908	5617.88
754.305	5597.56
754.703	5675.19
755.1	5750.84
755.497	5823.92
755.894	6050.91
756.291	6264.1
756.688	6652.57
757.085	7167.11
757.482	7886.99
757.878	8675.48
758.275	9384.66
758.672	10371.16
759.068	11171.43
759.465	12315.81
759.861	13794.02
760.258	15509.35
760.654	16397.18
761.05	16264.14
761.447	15518.95
761.843	14456.48
762.239	13350.19
762.635	12857.95
763.031	12383.57
763.427	11693.75
763.822	10966.43
764.218	10249.29
764.614	9316.4
765.01	8693.11
765.405	8292.18
765.801	7985.75
766.196	7593.69
766.592	7380.02
766.987	7010.68
767.382	6759.98
767.778	6656.91
768.173	6505.86
768.568	6419.69
768.963	6274.07
769.358	6292.98
769.753	6237.08
770.148	6141.89
770.542	6141.88
770.937	6101.53
771.332	6209.12
771.726	6232.91
772.121	6158.74
772.515	6221.97
772.91	6208.86
773.304	6291.69
773.699	6216.11
774.093	6280.72
774.487	6347.59
774.881	6399.83
775.275	6397.61
775.669	6351.96
776.063	6404.37
776.457	6447.58
776.851	6359.14
777.245	6350.09
777.638	6389.25
778.032	6525.36
778.425	6481.58
778.819	6528.58
779.212	6478.47
779.606	6430.93
779.999	6453.92
780.392	6430.94
780.786	6527.14
781.179	6553.38
781.572	6603.15
781.965	6616.82
782.358	6547.08
782.751	6614.11
783.143	6557.3
783.536	6643.15
783.929	6694.91
784.322	6826.9
784.714	6866.73
785.107	6865.5
785.499	6948.94
785.891	6921.91
786.284	6902.4
786.676	7069.43
787.068	7046.92
787.46	7108.99
787.852	7134.28
788.245	7235.59
788.636	7268.95
789.028	7349.44
789.42	7393.32
789.812	7405.06
790.204	7520.65
790.595	7637.4
790.987	7409.41
791.378	7438.36
791.77	7596.32
792.161	7756.11
792.553	7819.43
792.944	7688.24
793.335	7609.21
793.726	7691.84
794.117	7797.46
794.508	7954.67
794.899	7921.1
795.29	8089.79
795.681	8158.6
796.072	7986.25
796.463	7760.05
796.853	7773.26
797.244	7960.7
797.634	7999.18
798.025	8002.46
798.415	8021
798.806	8126.39
799.196	8224.64
799.586	8281.1
799.976	8234.09
800.366	8506.41
800.756	8794.28
801.146	8750.25
801.536	8781.65
801.926	8866.75
802.316	8894.38
802.706	8975.11
803.095	8832.4
803.485	8949.35
803.874	8996.24
804.264	9299.72
804.653	9267.31
805.043	9436.67
805.432	9564.09
805.821	9569.12
806.21	9597.05
806.599	9734.58
806.988	9786.34
807.377	9906.46
807.766	10059.18
808.155	10388.56
808.544	10078.72
808.933	10093.3
809.321	10067.95
809.71	10411.34
810.098	10599.32
810.487	11135.22
810.875	11698.02
811.264	11723.95
811.652	12062.22
812.04	12232.38
812.428	12424.75
812.816	13315.2
813.204	13804.62
813.592	14453.48
813.98	14846.2
814.368	14727.18
814.756	15287.83
815.144	15190.89
815.531	15729.08
815.919	15643.59
816.306	15996.06
816.694	15632.5
817.081	15703.5
817.469	16104.59
817.856	16099.15
818.243	16415.5
818.63	16873.13
819.017	16374.25
819.404	16450.5
819.791	16893.89
820.178	17617.23
820.565	17902.14
820.952	18988.04
821.339	18404.27
821.725	18626.88
822.112	17761.7
822.498	17707.9
822.885	17868.72
823.271	17764.16
823.657	18251.06
824.044	18259.79
824.43	18349.37
824.816	18322.87
825.202	17820.06
825.588	19014.54
825.974	19031.54
826.36	19644.87
826.746	19689.67
827.132	20100.61
827.517	20081.23
827.903	19167.73
828.289	19212.44
828.674	18295.51
829.06	18173.14
829.445	18634.52
829.83	19054.08
830.216	19609.49
830.601	20028.16
830.986	19550.58
831.371	19397.51
831.756	20049.35
832.141	19540.46
832.526	19536.91
832.911	19873.06
833.295	19745.31
833.68	20294.75
834.065	19566.23
834.449	18502.7
834.834	18416.82
835.218	18416.24
835.603	18810.42
835.987	18561.72
836.371	19549.46
836.755	19438.83
837.139	19910.2
837.524	20199.46
837.908	19996.15
838.291	20073.88
838.675	20153
839.059	20417.17
839.443	20413.46
839.827	20154.34
840.21	20728
840.594	20552.5
840.977	20799.47
841.361	20783.68
841.744	21224.83
842.127	21053.08
842.511	21349.84
842.894	22069.29
843.277	22510.76
843.66	23150.53
844.043	23244.22
844.426	22289.26
844.809	21923.95
845.191	21959.77
845.574	21421.2
845.957	20993.64
846.339	20859.05
846.722	20239.82
847.104	20314.19
847.487	20112.74
847.869	20125.8
848.252	20464.17
848.634	20859.91
849.016	21170.68
849.398	21315.39
849.78	22314.57
850.162	22312.98
850.544	22800.09
850.926	23540.65
851.307	23430.14
851.689	23759.36
852.071	24290.08
852.452	24657.2
852.834	24623.24
853.215	25089.61
853.597	25270.3
853.978	25607.78
854.359	26138.68
854.741	24973.98
855.122	24856.9
855.503	24525.75
855.884	24678.96
856.265	24606.57
856.646	24750.61
857.026	24299.01
857.407	24219.69
857.788	24403.06
858.169	24738.81
858.549	23751.24
858.93	24482.49
859.31	24543.55
859.69	24779.74
860.071	24307.88
860.451	24047.81
860.831	23170.6
861.211	24524.14
861.591	25174.08
861.971	25139.9
862.351	25369.69
862.731	25824.11
863.111	26138.17
863.491	26519.39
863.87	27554.72
864.25	27969.84
864.629	27512.35
865.009	28133.32
865.388	29132.65
865.768	31218.06
866.147	31102
866.526	29380.57
866.905	29728.92
867.284	31399.51
867.663	29813.97
868.042	28580.22
868.421	28474.34
868.8	28944.96
869.179	29224.57
869.558	27537.36
869.936	25384.3
870.315	25841.2
870.693	26476.99
871.072	28549.01
871.45	27202.76
871.828	27551.61
872.207	28960.58
872.585	28536.86
872.963	29314.96
873.341	28300.24
873.719	27953.34
874.097	27619.52
874.475	28145.96
874.853	28786.79
875.23	27592.56
875.608	28738.69
875.986	31099.2
876.363	29745.33
876.741	30637.41
877.118	29867.26
877.495	31330.19
877.873	31864.65
878.25	33536.74
878.627	32163.17
879.004	32625.26
879.381	32476.13
879.758	31619.85
880.135	29442.46
880.512	31135.85
880.889	30322.43
881.265	30003.6
881.642	29756.33
882.019	30248.78
882.395	29626.64
882.772	30802.07
883.148	29456.1
883.524	29331.86
883.901	29167.62
884.277	29597.72
884.653	29400.69
885.029	30245.81
885.405	33499.86
885.781	33241.01
886.157	31871.91
886.532	32274.07
886.908	32258.02
887.284	35874.32
887.659	37048.95
888.035	38191.89
888.411	39173.5
888.786	39688.25
889.161	41058.02
889.537	40307.18
889.912	41599.99
890.287	41568.07
890.662	42622.45
891.037	41863.86
891.412	39030.15
891.787	38644.07
892.162	37305.51
892.536	38174.22
892.911	36761.34
893.286	35995.74
893.66	34536.37
894.035	35423.25
894.409	38583.22
894.784	37024.42
895.158	37629.8
895.532	39865.54
895.906	40955.41
896.281	41926.06
896.655	41242.61
897.029	47117.57
897.402	49050.84
897.776	54606.82
898.15	54394.43
898.524	53788.51
898.898	54505.58
899.271	61019.7
899.645	52829.08
900.018	50738.93
900.392	52603.4
900.765	53070.34
901.138	49101.98
901.511	48380.18
901.884	44433.98
902.258	41003.27
902.631	42374.65
903.003	48771.34
903.376	44018.38
903.749	49386.8
904.122	52879.76
904.495	58227.57
904.867	58938.39
905.24	51167.07
905.612	47622.32
905.985	48685.81
906.357	50902.61
906.729	48563.94
907.102	41489.99
907.474	39892.66
907.846	40151.13
908.218	39615.01
908.59	35017.11
908.962	33865.01
909.334	36487.27
909.705	38345.58
910.077	37237.01
910.449	38758.38
910.82	39848.06
911.192	43846.27
911.563	45551
911.935	48756.21
912.306	48814.7
912.677	50384.57
913.048	49873.54
913.419	54095.69
913.79	54379.87
914.161	58286.49
914.532	55707.93
914.903	51229.36
915.274	48641.92
915.645	47930.46
916.015	42161.46
916.386	40200.94
916.756	42770.3
917.127	44134.47
917.497	39428.93
917.868	42907.42
918.238	40779.29
918.608	41943.67
918.978	42782.71
919.348	45314.29
919.718	46819.46
920.088	45106.65
920.458	46854.53
920.828	49338.61
921.198	46771.02
921.567	49937.16
921.937	38663.84
922.306	39044.21
922.676	42103.1
923.045	35114
923.415	33341.38
923.784	30371.87
924.153	31219.94
924.522	31178.49
924.891	29295.81
925.26	31378.32
925.629	30648.45
925.998	35240.71
926.367	34378.33
926.736	32732.18
927.104	39002.42
927.473	41961.26
927.842	50686.78
928.21	50230.77
928.578	52817.41
928.947	49960
929.315	50267.79
929.683	58943.86
930.051	59405.58
930.42	68966.19
930.788	58975.29
931.156	58530.02
931.523	54856.27
931.891	50654.45
932.259	48643.9
932.627	56377.92
932.994	79761.48
933.362	65885.09
933.729	57215.34
934.097	54789.77
934.464	46375.8
934.831	53478.09
935.199	52703.6
935.566	51100.76
935.933	51752.73
936.3	62629.22
936.667	48779.66
937.034	43958.71
937.401	43489.65
937.767	37548.56
938.134	33415.42
938.501	47139
938.867	50274.61
939.234	85036.54
939.6	72585.56
939.967	80017.31
940.333	53582.69
940.699	45623.71
941.065	36643.08
941.431	48037.62
941.798	46307.04
942.163	60753.44
942.529	37949.23
942.895	34924.2
943.261	22578.97
943.627	29628.7
943.992	25962.85
944.358	26013.1
944.723	26055.44
945.089	25407.48
945.454	23470.65
945.82	25045.69
946.185	24102.37
946.55	27925.19
946.915	25072.2
947.28	29446.74
947.645	25896.23
948.01	23889.57
948.375	24885.57
948.74	29828.73
949.104	34810.15
949.469	50303.66
949.834	88867.46
950.198	84124.76
950.562	50412.19
950.927	41996.45
951.291	50434.61
951.655	42987.76
952.02	40408.96
952.384	30548.81
952.748	26599.42
953.112	25908.58
953.476	22518.62
953.839	20838.54
954.203	20598.13
954.567	25763.06
954.931	40548.04
955.294	34708.07
955.658	34875.21
956.021	59273.92
956.385	100556.09
956.748	148510.15
957.111	230609.04
957.474	258992.86
957.837	291922.87
958.2	221282.74
958.563	79613.87
958.926	53802.47
959.289	81704.09
959.652	91271.1
960.015	68512.11
960.377	98283.54
960.74	112186.15
961.102	193438.47
961.465	207727.96
961.827	110918.92
962.189	212934.97
962.552	147643.31
962.914	118458.93
963.276	76813.89
963.638	63509.56
964	62831.9
964.362	42486.54
964.724	41057.59
965.085	29298.8
965.447	24007.81
965.809	27408.14
966.17	27420.03
966.532	29660.21
966.893	27194.57
967.255	24766.51
967.616	29256.38
967.977	23434.44
968.338	25581.74
968.699	20982.47
969.061	20968.9
969.421	21107.86
969.782	23701.62
970.143	20011.4
970.504	20708
970.865	23542.92
971.225	24046.78
971.586	23510.54
971.946	33519.26
972.307	29102.67
972.667	38112.87
973.027	39261.99
973.388	47599.14
973.748	32366.48
974.108	35280.33
974.468	47761.99
974.828	36800.71
975.188	28303.14
975.548	26000.16
975.907	21816.24
976.267	24459.41
976.627	20544.59
976.986	21310.68
977.346	20325.44
977.705	19550.97
978.064	17790.96
978.424	14811.46
978.783	15322.32
979.142	17505.14
979.501	16737.02
979.86	17707.05
980.219	17056.64
980.578	21969.07
980.937	24606.56
981.296	21928.4
981.654	22564.89
982.013	35102.28
982.371	45531.11
982.73	42493.42
983.088	48082.58
983.447	51441.08
983.805	73463.82
984.163	153769.14
984.521	170910.92
984.879	250255.08
985.237	-406514.12
985.595	391268.08
985.953	97313.91
986.311	56269.03
986.669	32672.88
987.026	28207.13
987.384	37894.33
987.741	39191.03
988.099	27921.11
988.456	22245.67
988.814	20852.73
989.171	18144.52
989.528	17944.94
989.885	18971.98
990.242	14993.9
990.599	18715.62
990.956	15308.99
991.313	10675.54
991.67	8754.5
992.027	9281.86
992.383	8246.36
992.74	7219.61
993.096	7562.92
993.453	7835.7
993.809	8127.81
994.165	10841.16
994.522	9897.45
994.878	10913.35
995.234	13725.57
995.59	13560.79
995.946	12855.34
996.302	14655.83
996.658	16965.81
997.013	18721.42
997.369	22185.72
997.725	28330.72
998.08	18361.99
998.436	28384.23
998.791	39132.57
999.147	39148.42
999.502	42654.87
999.857	31041.01
1000.212	50627.26
1000.567	72019.88
1000.922	41539.33
1001.277	26380.42
1001.632	19577.7
1001.987	25169.54
1002.342	18061.89
1002.696	14461.52
1003.051	11512.96
1003.406	13966.94
1003.76	13900.3
1004.114	13700.5
1004.469	11533.01
1004.823	9547.57
1005.177	10329.07
1005.531	8175.2
1005.885	7241.38
1006.239	8165.39
1006.593	10227.84
1006.947	13722.59
1007.301	10268.56
1007.655	11176.75
1008.008	8203.12
1008.362	9194.47
1008.715	13144.65
1009.069	11893.19
1009.422	17859.46
1009.776	35907.36
1010.129	23822.52
1010.482	19909.25
1010.835	16768.72
1011.188	35028.53
1011.541	33063.26
1011.894	-202376.22
1012.247	596531.75
1012.6	40503.5
1012.952	25563.54
1013.305	13255.46
1013.657	9534.12
1014.01	9048.09
1014.362	7475.07
1014.715	6645.16
1015.067	5773.94
1015.419	5639.5
1015.771	4991.31
1016.123	4431.49
1016.475	4552
1016.827	4862.09
1017.179	5218.8
1017.531	5265.75
1017.883	5380.66
1018.234	5168.52
1018.586	6526.11
1018.938	6907.29
1019.289	9542.89
1019.64	10948.94
1019.992	10230.49
1020.343	9369.55
1020.694	7384.37
1021.045	6508
1021.396	7456.97
1021.747	7973.81
1022.098	9605.48
1022.449	6996.75
1022.8	6491.78
1023.151	4514.51
1023.501	3987.15
1023.852	4324.67
1024.202	4483.06
1024.553	4921.14
1024.903	4805.84
1025.253	4075.8
1025.604	3678.85
1025.954	4573.71
1026.304	5554.74
1026.654	6487.49
1027.004	9541.08
1027.354	15510.84
1027.703	14618.36
1028.053	19260
1028.403	27890
1028.753	40649.3
1029.102	55630.22
1029.452	285451.21
1029.801	12284.27
1030.15	7929.07
1030.499	6715.01
897.758	2231.57
901.051	2164.29
904.343	2197.57
907.636	2204.74
910.928	2267.88
914.22	2187.32
917.511	2191.59
920.803	2240.39
924.094	2239.41
927.384	2243.55
930.675	2207.24
933.965	2169.1
937.255	2198.32
940.544	2166.38
943.834	2168.17
947.123	2107.3
950.411	2195.09
953.7	2177.55
956.988	2158.16
960.276	2092.86
963.563	2144.71
966.851	2154.74
970.138	2198.92
973.424	2200.1
976.711	2154.18
979.997	2200.1
983.283	2245.2
986.568	2175.42
989.853	2165.26
993.138	2195.09
996.423	2282.79
999.708	2238.72
1002.992	2270.14
1006.275	2180.66
1009.559	2188.12
1012.842	2287.37
1016.125	2242.93
1019.408	2219.98
1022.69	2279.45
1025.972	2316.68
1029.254	2291.41
1032.536	2251.29
1035.817	2263.51
1039.098	2233.04
1042.379	2288.72
1045.659	2315.24
1048.939	2263.8
1052.219	2271.17
1055.498	2268.04
1058.778	2264.93
1062.057	2237.88
1065.335	2262.08
1068.614	2275.66
1071.892	2269.42
1075.17	2324.46
1078.447	2327.06
1081.724	2324.44
1085.001	2352.31
1088.278	2327.48
1091.554	2334.53
1094.83	2327.41
1098.106	2365.44
1101.382	2398.66
1104.657	2396.76
1107.932	2398.11
1111.206	2373.85
1114.481	2327.09
1117.755	2326.66
1121.029	2319.8
1124.302	2383.32
1127.575	2347.14
1130.848	2344.53
1134.121	2313.96
1137.393	2274.32
1140.665	2332.35
1143.937	2310.35
1147.208	2260.77
1150.48	2318.23
1153.75	2307.73
1157.021	2308.5
1160.291	2284.27
1163.561	2338.95
1166.831	2306.52
1170.101	2333.98
1173.37	2292.15
1176.639	2251.41
1179.907	2296.46
1183.176	2318.32
1186.444	2321.23
1189.711	2345.05
1192.979	2368.67
1196.246	2322.32
1199.513	2334.9
1202.78	2341.42
1206.046	2350.7
1209.312	2377.63
1212.578	2396.75
1215.843	2361.84
1219.108	2327.24
1222.373	2351.03
1225.638	2324.25
1228.902	2316.33
1232.166	2271.5
1235.43	2258.28
1238.693	2281.4
1241.956	2274.59
1245.219	2324.53
1248.482	2304.4
1251.744	2302.97
1255.006	2428.78
1258.268	2377.52
1261.529	2331.04
1264.79	2331.87
1268.051	2434.38
1271.312	2443
1274.572	2415.96
1277.832	2402.45
1281.092	2382.93
1284.351	2374.98
1287.61	2359.22
1290.869	2292.92
1294.128	2287.28
1297.386	2338.62
1300.644	2331.37
1303.902	2341.03
1307.159	2207.81
1310.416	2259.82
1313.673	2286.72
1316.93	2284.12
1320.186	2316.07
1323.442	2350.35
1326.697	2350.61
1329.953	2323.84
1333.208	2359.64
1336.463	2329.81
1339.717	2288.23
1342.972	2396.13
1346.226	2365.94
1349.479	2313.98
1352.733	2294.11
1355.986	2298.82
1359.238	2278.98
1362.491	2283.03
1365.743	2282.18
1368.995	2273.02
1372.247	2284.9
1375.498	2305.76
1378.749	2346.07
1382	2295.06
1385.251	2330.63
1388.501	2283.46
1391.751	2280.84
1395	2245.33
1398.25	2272.08
1401.499	2292.33
1404.748	2238.97
1407.996	2217.59
1411.244	2204.34
1414.492	2189.31
1417.74	2174.63
1420.987	2180.14
1424.234	2238
1427.481	2200.92
1430.728	2259.4
1433.974	2233.52
1437.22	2232.54
1440.465	2228.99
1443.711	2225.25
1446.956	2250.77
1450.201	2224.63
1453.445	2265.63
1456.689	2254.31
1459.933	2262.58
1463.177	2303.22
1466.42	2274.21
1469.663	2258.55
1472.906	2271.72
1476.148	2323.48
1479.391	2299.36
1482.633	2272.82
1485.874	2296.95
1489.115	2302.69
1492.356	2285.79
1495.597	2266.16
1498.838	2260.77
1502.078	2245.29
1505.318	2214.46
1508.557	2251.39
1511.797	2246.27
1515.036	2287.76
1518.274	2263.07
1521.513	2215.16
1524.751	2228.19
1527.989	2253.19
1531.227	2271.49
1534.464	2285.05
1537.701	2281.05
1540.938	2294.29
1544.174	2243.39
1547.41	2233.46
1550.646	2272.65
1553.882	2321.33
1557.117	2379.23
1560.352	2387.58
1563.587	2350.85
1566.821	2317.57
1570.055	2333.75
1573.289	2314.66
1576.523	2374.62
1579.756	2388.01
1582.989	2411.14
1586.222	2371.72
1589.454	2399.15
1592.686	2385.37
1595.918	2411.38
1599.15	2408.79
1602.381	2457.04
1605.612	2436.69
1608.843	2529.21
1612.073	2451.95
1615.303	2440.5
1618.533	2436.98
1621.762	2437.09
1624.992	2414.88
1628.221	2415.43
1631.449	2405.06
1634.678	2433.64
1637.906	2400.85
1641.134	2429.81
1644.361	2396.09
1647.588	2387.17
1650.815	2408.15
1654.042	2372.07
1657.269	2401.62
1660.495	2380.5
1663.72	2365.56
1666.946	2335.4
1670.171	2305.77
1673.396	2277.97
1676.621	2261.64
1679.845	2259.16
1683.069	2264.82
1686.293	2295.75
1689.517	2285.13
1692.74	2234.17
1695.963	2255.83
1699.185	2296.06
1702.408	2268.31
1705.63	2299.17
1708.852	2316.58
1712.073	2287.62
1715.294	2297.93
1718.515	2339.43
1721.736	2297.22
1724.956	2279.6
1728.176	2301.2
1731.396	2323.56
1734.616	2309.17
1737.835	2344.9
1741.054	2315.32
1744.272	2308.41
1747.491	2345.46
1750.709	2370
1753.927	2316.94
1757.144	2345.36
1760.361	2400.42
1763.578	2375.01
1766.795	2324.54
1770.011	2313.35
1773.227	2339.1
1776.443	2380.9
1779.658	2423.21
1782.874	2362.92
1786.089	2355.43
1789.303	2359.28
1792.518	2352.8
1795.732	2340.19
1798.945	2356.11
1802.159	2397.89
1805.372	2338.08
1808.585	2332.63
1811.797	2334.03
1815.01	2355
1818.222	2377.31
1821.434	2335.65
1824.645	2379.15
1827.856	2388.58
1831.067	2419.9
1834.278	2357.58
1837.488	2339.95
1840.698	2464.57
1843.908	2404.65
1847.117	2372.46
1850.326	2296.59
1853.535	2356.56
1856.744	2390.25
1859.952	2311.93
1863.16	2312.58
1866.368	2327.39
1869.575	2438.71
1872.782	2321.1
1875.989	2255.04
1879.196	2306.3
1882.402	2294.64
1885.608	2329.97
1888.814	2270.07
1892.019	2178.34
1895.224	2228.12
1898.429	2195.73
1901.634	2179
1904.838	2152.59
1908.042	2211.08
1911.246	2222.59
1914.449	2183.4
1917.652	2165.87
1920.855	2147.39
1924.058	2171.81
1927.26	2217.69
1930.462	2239.86
1933.664	2279.8
1936.865	2220.91
1940.066	2240.68
1943.267	2182.74
1946.467	2191.82
1949.668	2209.52
1952.868	2284.64
1956.067	2271.73
1959.267	2213.98
1962.466	2236.69
1965.665	2219.52
1968.863	2210.32
1972.061	2212.67
1975.259	2207.48
1978.457	2283.47
1981.654	2245.33
1984.852	2250.75
1988.048	2198.65
1991.245	2188.52
1994.441	2276.39
1997.637	2236.95
2000.833	2218.31
2004.028	2254.13
2007.223	2316.52
2010.418	2301.9
2013.613	2252.72
2016.807	2245.4
2020.001	2238.32
2023.194	2263.78
2026.388	2248.24
2029.581	2191.7
2032.774	2252.53
2035.966	2265.62
2039.158	2211.1
2042.35	2230.36
2045.542	2157.24
2048.733	2240.28
2051.924	2235.68
2055.115	2251.94
2058.306	2215.08
2061.496	2269.25
2064.686	2320.4
2067.875	2227.6
2071.065	2229.28
2074.254	2249.59
2077.442	2202.73
2080.631	2286.6
2083.819	2216.97
2087.007	2204.04
2090.195	2189.87
2093.382	2206.63
2096.569	2190.66
2099.756	2152.22
2102.942	2198.06
2106.128	2212.88
2109.314	2201.76
2112.5	2188.08
2115.685	2153.07
2118.87	2159.85
2122.055	2225.09
2125.239	2204.42
2128.424	2188.88
2131.608	2252.16
2134.791	2235.93
2137.974	2273.09
2141.157	2261.52
2144.34	2230.87
2147.523	2222.79
2150.705	2249.29
2153.887	2218.9
2157.068	2189.5
2160.25	2172.71
2163.431	2196.68
2166.611	2163.5
2169.792	2186.01
2172.972	2098.79
2176.152	2149
2179.331	2177.95
2182.511	2181.34
2185.69	2203.69
2188.868	2207.63
2192.047	2242.07
2195.225	2254.79
2198.403	2207.01
2201.58	2195.61
2204.758	2179.71
2207.935	2255.33
2211.111	2170.35
2214.288	2157.96
2217.464	2189.74
2220.64	2147.65
2223.815	2197.87
2226.991	2130.07
2230.166	2147.66
2233.34	2189.22
2236.515	2202.06
2239.689	2267.32
2242.863	2217.09
2246.036	2272.06
2249.209	2254.66
2252.382	2275.06
2255.555	2283.69
2258.727	2232.49
2261.9	2262.12
2265.071	2253.16
2268.243	2249.78
2271.414	2197.85
2274.585	2181.87
2277.756	2242.71
2280.926	2196.62
2284.096	2229.84
2287.266	2158.47
2290.436	2204.05
2293.605	2222.72
2296.774	2262.57
2299.942	2266.92
2303.111	2282.49
2306.279	2333
2309.447	2319.09
2312.614	2287.66
2315.781	2314.62
2318.948	2290.08
2322.115	2328.44
2325.281	2227.16
2328.447	2239.26
2331.613	2207.34
2334.779	2198.13
2337.944	2194.17
2341.109	2197.47
2344.274	2184.86
2347.438	2152.39
2350.602	2174.06
2353.766	2183.41
2356.929	2171.82
2360.092	2211.01
2363.255	2178.61
2366.418	2143.35
2369.58	2212.38
2372.742	2081.95
2375.904	2075.5
2379.066	2059.58
2382.227	2089.97
2385.388	2050.8
2388.548	1997.41
2391.709	2041.61
2394.869	2029.26
2398.029	2087.77
2401.188	2084.47
2404.347	2045.81
2407.506	2129.07
2410.665	2168.69
2413.823	2155.89
2416.981	2131.47
2420.139	2149.5
2423.296	2193.83
2426.453	2164.19
2429.61	2185.73
2432.767	2153.53
2435.923	2194.73
2439.079	2141.58
2442.235	2176.06
2445.391	2116.77
2448.546	2157.64
2451.701	2194.41
2454.855	2187.97
2458.009	2216.05
2461.163	2210.13
2464.317	2179.58
2467.471	2204.34
2470.624	2233.45
2473.777	2224.29
2476.929	2240.52
2480.082	2264.77
2483.234	2237.86
2486.385	2176.94
2489.537	2172.26
2492.688	2160.23
2495.839	2174.57
2498.989	2191.32
2502.14	2180.55
2505.29	2171.24
2508.439	2195.19
2511.589	2135.61
2514.738	2132.39
2517.887	2156.08
2521.035	2233.86
2524.183	2192.55
2527.331	2180.55
2530.479	2172.32
2533.627	2174.35
