Data from C_1_HIR_IL_4N_Splice17_11-52-03-927.txt Node
Date: Sat Mar 14 11:52:03 EDT 2020
User: sa697716
Spectrometer: FLMS03696
Trigger mode: 0
Integration Time (sec): 3.180400E-1
Scans to average: 20
Electric dark correction enabled: true
Nonlinearity correction enabled: true
Boxcar width: 5
XAxis mode: Wavelengths
Number of Pixels in Spectrum: 2048
>>>>>Begin Spectral Data<<<<<
187.83	-184101.74
188.298	1457.43
188.766	842.1
189.233	783.39
189.701	1060.91
190.169	1423.21
190.636	443.21
191.104	357.68
191.571	14
192.039	-101.37
192.506	-84.24
192.974	533.26
193.441	-724.83
193.908	-141.36
194.375	-22.36
194.842	21.91
195.31	119.45
195.777	131.32
196.244	364.68
196.711	474.43
197.177	611.61
197.644	881.07
198.111	1552.63
198.578	2127.71
199.045	1710.06
199.511	2824.47
199.978	3310.38
200.445	2765.71
200.911	3079.07
201.378	3461.74
201.844	3159.17
202.31	5355.02
202.777	5559.23
203.243	3089.15
203.709	2974.9
204.176	3540.91
204.642	2929.03
205.108	2727.02
205.574	2241.24
206.04	2064.98
206.506	1920.42
206.972	1807.84
207.438	1753.82
207.903	2009.61
208.369	1779.68
208.835	1777.1
209.301	1862.57
209.766	1902.64
210.232	1900.09
210.697	2365.46
211.163	2907.42
211.628	4420.39
212.094	3709.59
212.559	4536.63
213.024	2815.69
213.49	3404.89
213.955	3300.45
214.42	3241.86
214.885	3014.29
215.35	2888.02
215.815	2764.02
216.28	2924.18
216.745	2390.85
217.21	2594.08
217.675	2381.45
218.14	2693.22
218.604	3008.3
219.069	3461.02
219.534	3629.1
219.998	4226.61
220.463	5120.19
220.927	6327.15
221.392	5977.02
221.856	6055.91
222.32	7636.36
222.785	9487.55
223.249	11973.59
223.713	13409.6
224.177	13393.79
224.642	17251.16
225.106	21306.04
225.57	23347.42
226.034	17409.37
226.497	26525.46
226.961	24013.4
227.425	28072.11
227.889	31155.48
228.353	31199.98
228.816	64564.31
229.28	61964.11
229.744	52320.87
230.207	31826.65
230.671	31418.96
231.134	52123.9
231.597	60282.33
232.061	60377.58
232.524	59028.58
232.987	40784.98
233.45	36778.96
233.914	33066.08
234.377	33954.24
234.84	31140.59
235.303	36839.15
235.766	41133.81
236.229	42550.42
236.691	26826.25
237.154	30212.58
237.617	22743.95
238.08	23332.49
238.542	27352.82
239.005	19583.73
239.468	19466.66
239.93	18373.03
240.393	16716.42
240.855	14691.77
241.317	15071.6
241.78	18376.98
242.242	19030.67
242.704	20567.4
243.166	17923.51
243.629	16284.03
244.091	18776.86
244.553	20613.22
245.015	22199.25
245.477	28748.7
245.939	42237.74
246.4	44892.58
246.862	43675.48
247.324	41200.7
247.786	46199.16
248.247	60717.39
248.709	62852.43
249.17	47088.44
249.632	44371.43
250.093	51442.14
250.555	44536.83
251.016	27178.17
251.477	25819.36
251.939	27937.29
252.4	29342.61
252.861	34936.56
253.322	32494.36
253.783	38715.07
254.244	50305.28
254.705	39723.6
255.166	35371.68
255.627	34799.77
256.088	49096.01
256.549	52135.58
257.009	44872.68
257.47	54512.39
257.931	44410.05
258.391	33304.32
258.852	34358.06
259.312	36058.62
259.773	44619.23
260.233	37736.79
260.694	31878.39
261.154	36232.27
261.614	29095.78
262.074	26071.64
262.534	27115.19
262.994	25582.37
263.455	34113.05
263.915	28751.57
264.374	27080.94
264.834	29580.83
265.294	32812.38
265.754	33970.47
266.214	32167.4
266.673	30169.83
267.133	38080.67
267.593	37793.98
268.052	46255.17
268.512	40273.09
268.971	48537.53
269.431	53286.07
269.89	47737.38
270.349	71640.67
270.809	80030.47
271.268	71988.92
271.727	161567.62
272.186	104650.5
272.645	78575.34
273.104	56746.76
273.563	82181.31
274.022	64722.97
274.481	55000.34
274.94	42374.19
275.399	31526.26
275.857	36739.38
276.316	49692.77
276.775	44255.95
277.233	43601.07
277.692	40757.4
278.15	46094.42
278.609	47419.06
279.067	43911.6
279.525	40831.88
279.984	52751.5
280.442	63311.65
280.9	62315.14
281.358	41001.27
281.816	38200.52
282.274	37432.12
282.732	38736.01
283.19	38944.62
283.648	33670.45
284.106	35875.71
284.564	36507.46
285.021	33861.24
285.479	25232.02
285.937	22959.58
286.394	20152.73
286.852	20744.01
287.309	21833.89
287.767	21093.3
288.224	20080.41
288.682	22030.03
289.139	24202.68
289.596	22164.64
290.053	23064.19
290.511	29161.38
290.968	35451.55
291.425	48175.33
291.882	40109.59
292.339	34896.46
292.796	34684.31
293.252	32698.38
293.709	25956.04
294.166	23273.41
294.623	25703.71
295.079	24686.79
295.536	24805.81
295.992	22503.45
296.449	22252.29
296.905	23135.56
297.362	22198.96
297.818	23357.22
298.274	24228.12
298.731	24726.2
299.187	24472.22
299.643	26313.04
300.099	31833.59
300.555	34936.2
301.011	29240.28
301.467	28191.27
301.923	33065.47
302.379	32301.18
302.835	31744.63
303.291	31827.03
303.746	36251.99
304.202	45812.19
304.658	45984.92
305.113	30955.02
305.569	30349.31
306.024	32336.19
306.479	30823.63
306.935	25981.48
307.39	28399.86
307.845	26206.54
308.301	26360.28
308.756	25680.34
309.211	24753.19
309.666	25378.92
310.121	31463.56
310.576	31960.93
311.031	31763.03
311.486	36400.42
311.94	36383.92
312.395	48625.31
312.85	91470.23
313.305	449413.18
313.759	2324671.4
314.214	168543.95
314.668	133710.45
315.123	112618.31
315.577	40330.59
316.032	35863.12
316.486	44930.18
316.94	35452.82
317.394	24691.52
317.849	19190.41
318.303	18201.47
318.757	17201.97
319.211	19015.73
319.665	16656.83
320.119	16864.31
320.572	24211.36
321.026	22607.2
321.48	18826.82
321.934	20550.44
322.387	20597.44
322.841	22281.36
323.295	20014.3
323.748	23067
324.202	23425.32
324.655	28134.92
325.108	39285.1
325.562	27770.36
326.015	33051.64
326.468	25028.04
326.921	27991.06
327.374	26136.33
327.827	27223.92
328.28	30807.04
328.733	20629.03
329.186	18160.16
329.639	17291.31
330.092	14573.56
330.545	13884.06
330.997	14001.56
331.45	15276.06
331.903	17894.87
332.355	30787.84
332.808	29900.36
333.26	24706.94
333.713	26834.29
334.165	27031.76
334.617	36127.69
335.069	29262.59
335.522	52924.45
335.974	58593.28
336.426	53593.01
336.878	37160.87
337.33	18847.72
337.782	18410.2
338.234	23073.08
338.686	27649.26
339.137	32732.78
339.589	30843.07
340.041	24167.25
340.493	20785.33
340.944	21294.29
341.396	22905.95
341.847	19235.26
342.299	22699.87
342.75	27675.14
343.201	24186.41
343.653	27800.99
344.104	34178.45
344.555	26902.54
345.006	41921.69
345.457	32081.33
345.908	25523.11
346.359	24038.51
346.81	19598.24
347.261	20648.58
347.712	20363.6
348.163	21820.47
348.613	22062.4
349.064	20628.25
349.515	18071.99
349.965	18541.58
350.416	22354.71
350.866	24532.53
351.317	27766.9
351.767	45978.58
352.217	58115.8
352.668	48263.92
353.118	44196.77
353.568	42699.16
354.018	33707.5
354.468	35521.69
354.918	25450.35
355.368	22269.3
355.818	31454.44
356.268	90470.25
356.718	378477.34
357.168	94211.2
357.617	47284.85
358.067	52723.28
358.517	49367.32
358.966	57906.03
359.416	64958.09
359.865	70273.01
360.315	83626.96
360.764	39033.96
361.213	21869.44
361.663	20766.16
362.112	25664.18
362.561	41432.29
363.01	31216.03
363.459	26310.41
363.908	28483.62
364.357	24170.95
364.806	40814.06
365.255	28084.16
365.703	25746.35
366.152	25784.12
366.601	20894.18
367.05	16928.11
367.498	15399.31
367.947	16089.33
368.395	16725.62
368.844	14811.32
369.292	17888.58
369.74	12346.05
370.189	18908.56
370.637	22154.55
371.085	19139.85
371.533	23325.11
371.981	22531.52
372.429	21462.83
372.877	22421.22
373.325	18790.42
373.773	19222.1
374.221	17150.87
374.669	21313.15
375.116	18458.15
375.564	18655.15
376.012	20900.67
376.459	17272.48
376.907	20683.46
377.354	25083.79
377.801	23415.03
378.249	26941.3
378.696	34430.06
379.143	41765.05
379.591	44708.25
380.038	75893.35
380.485	54944.69
380.932	59442.42
381.379	54427.26
381.826	40159.32
382.273	28610.95
382.72	25050.64
383.166	24488.91
383.613	15920.92
384.06	14392.17
384.506	16683.44
384.953	12282.84
385.4	12398.23
385.846	10885.19
386.292	10636.11
386.739	10428.8
387.185	10326.01
387.631	10330.21
388.078	10009.3
388.524	10711.89
388.97	9888.66
389.416	8238.81
389.862	8756.48
390.308	8285.9
390.754	8403.01
391.2	9121.69
391.645	9330.62
392.091	8908.71
392.537	8616.65
392.983	8648.52
393.428	8481.64
393.874	9099.68
394.319	9126.63
394.765	8622.85
395.21	8870
395.655	8308.79
396.101	7766.88
396.546	6985.29
396.991	7036.72
397.436	6521.72
397.881	6284.81
398.326	5954.25
398.771	5603.86
399.216	4890.02
399.661	4397.24
400.106	4367.98
400.551	4456.75
400.995	3982.57
401.44	3931.4
401.885	3689.76
402.329	3718.71
402.774	3555.51
403.218	3427.5
403.663	3292.91
404.107	3372.66
404.551	3384.42
404.995	3090.11
405.44	2974.89
405.884	3016.44
406.328	2911.28
406.772	2893.53
407.216	2624.79
407.66	2531.44
408.104	2397.42
408.547	2243.02
408.991	2166.84
409.435	2081.86
409.879	2050.56
410.322	2012.47
410.766	1934.36
411.209	1832.34
411.653	1754.08
412.096	1717.13
412.54	1711.86
412.983	1697.12
413.426	1696.35
413.869	1688.2
414.312	1653.51
414.756	1587.51
415.199	1511.66
415.642	1466.83
416.085	1467.05
416.527	1452.02
416.97	1469.49
417.413	1390.74
417.856	1372.47
418.298	1355.51
418.741	1344.16
419.184	1341.15
419.626	1394.31
420.069	1394.96
420.511	1399.03
420.953	1366.88
421.396	1353.63
421.838	1316.23
422.28	1346.82
422.722	1353.06
423.164	1369.97
423.606	1346.92
424.048	1339.61
424.49	1272.92
424.932	1264.3
425.374	1247.06
425.816	1267.07
426.258	1288.11
426.699	1302.98
427.141	1281.03
427.582	1298.5
428.024	1288.47
428.465	1278.23
428.907	1245.32
429.348	1229.77
429.789	1225.41
430.231	1195.86
430.672	1209.37
431.113	1179.57
431.554	1160.22
431.995	1128.63
432.436	1084.8
432.877	1058.83
433.318	1038.26
433.759	1031.06
434.2	1029.52
434.64	1018.91
435.081	1021.67
435.522	970.26
435.962	934.36
436.403	913.46
436.843	925.48
437.284	906.87
437.724	884.43
438.164	887.02
438.604	869.89
439.045	834.86
439.485	800.02
439.925	782.06
440.365	760.23
440.805	749.4
441.245	737.75
441.685	710.02
442.125	701.01
442.564	703.61
443.004	686.2
443.444	679.9
443.883	679.82
444.323	673.07
444.762	672.54
445.202	680.48
445.641	690.24
446.081	684.28
446.52	687.78
446.959	681.93
447.398	663.51
447.837	653.78
448.276	642.01
448.716	646.1
449.154	649.7
449.593	633.19
450.032	629.97
450.471	617.57
450.91	616.38
451.349	613.51
451.787	609.1
452.226	617.83
452.664	616.97
453.103	616.02
453.541	613.18
453.98	611.56
454.418	613.48
454.856	602.92
455.295	601.34
455.733	605.91
456.171	607.64
456.609	609.55
457.047	606.92
457.485	614.98
457.923	617.02
458.361	609.06
458.798	610.38
459.236	609.4
459.674	612.96
460.111	615.1
460.549	608.21
460.987	606.66
461.424	603.79
461.862	601.7
462.299	592.84
462.736	590.38
463.173	592.19
463.611	586.46
464.048	585.42
464.485	590.62
464.922	585.55
465.359	583.54
465.796	576.19
466.233	571.01
466.67	566.29
467.106	565.54
467.543	560.22
467.98	552.78
468.416	539.3
468.853	534.59
469.29	517.68
469.726	512.26
470.162	497.72
470.599	491.57
471.035	487.21
471.471	474.8
471.907	471.68
472.344	469.22
472.78	469.57
473.216	474.16
473.652	467.61
474.088	466.29
474.523	463.97
474.959	468.82
475.395	463.42
475.831	459.78
476.266	461.13
476.702	458.01
477.138	452.68
477.573	451.02
478.008	447.84
478.444	450.13
478.879	452.64
479.314	453.33
479.75	451.93
480.185	453.95
480.62	456.93
481.055	458.51
481.49	461.14
481.925	465.99
482.36	473.84
482.795	486.04
483.229	498.15
483.664	508.98
484.099	510.03
484.534	517.5
484.968	521.34
485.403	523.02
485.837	522.78
486.271	522.2
486.706	523.33
487.14	516.47
487.574	508.57
488.009	502.93
488.443	498.27
488.877	503.87
489.311	504.55
489.745	509.72
490.179	513.41
490.613	521.86
491.046	524.98
491.48	527.63
491.914	527.79
492.348	530.4
492.781	533.41
493.215	533.35
493.648	533.61
494.082	537.59
494.515	537.46
494.948	543.13
495.382	545.73
495.815	548.62
496.248	552.71
496.681	562.1
497.114	570.4
497.547	577.44
497.98	587.81
498.413	591.83
498.846	598.4
499.279	605.07
499.711	607.81
500.144	610.42
500.577	618.55
501.009	626.61
501.442	634.51
501.874	636.33
502.306	638.15
502.739	643.88
503.171	655.11
503.603	658.13
504.036	665.07
504.468	670.47
504.9	680.25
505.332	686.43
505.764	690.85
506.196	696.43
506.627	708.18
507.059	719.37
507.491	726.6
507.923	727.43
508.354	740.19
508.786	750.29
509.217	765.71
509.649	778.2
510.08	794.93
510.512	810.23
510.943	824.26
511.374	835.64
511.805	853.25
512.237	871.92
512.668	899.85
513.099	925.37
513.53	950.98
513.961	970.59
514.391	999.48
514.822	1030.01
515.253	1062.33
515.684	1086.66
516.114	1114.39
516.545	1136.47
516.975	1162.05
517.406	1181.37
517.836	1187.61
518.267	1196.36
518.697	1217.05
519.127	1225.4
519.558	1236
519.988	1243.36
520.418	1257.32
520.848	1277.07
521.278	1288.82
521.708	1309.33
522.138	1324.25
522.567	1354.54
522.997	1380.18
523.427	1396.57
523.857	1415.21
524.286	1426.71
524.716	1443.55
525.145	1463.61
525.575	1476.73
526.004	1492.11
526.433	1488.35
526.863	1491.14
527.292	1484.79
527.721	1492.83
528.15	1501.2
528.579	1503.4
529.008	1516.36
529.437	1539.1
529.866	1552.72
530.295	1568.78
530.724	1583.45
531.152	1610.57
531.581	1625.39
532.01	1642.41
532.438	1651.99
532.867	1665.6
533.295	1684.46
533.723	1690.88
534.152	1690.01
534.58	1690.65
535.008	1678.74
535.436	1681.21
535.865	1688.21
536.293	1702.91
536.721	1719.97
537.149	1744.36
537.576	1747.4
538.004	1759.74
538.432	1767.99
538.86	1767.66
539.287	1775.56
539.715	1788.93
540.143	1792.54
540.57	1791.08
540.998	1787.13
541.425	1765.75
541.852	1746.46
542.28	1746.78
542.707	1732.12
543.134	1719.94
543.561	1716
543.988	1709.97
544.415	1708.91
544.842	1703.95
545.269	1695.9
545.696	1697.52
546.123	1709.16
546.549	1699.49
546.976	1686.12
547.403	1685.69
547.829	1686.51
548.256	1688.14
548.682	1683.19
549.108	1676.61
549.535	1674.97
549.961	1677.43
550.387	1664.85
550.813	1660.06
551.24	1665.45
551.666	1665.88
552.092	1656.15
552.518	1649.78
552.943	1643.01
553.369	1649
553.795	1653.12
554.221	1652.73
554.646	1647.96
555.072	1656.99
555.498	1659.66
555.923	1665.86
556.349	1678.99
556.774	1685.21
557.199	1685.18
557.625	1689.95
558.05	1682.66
558.475	1690.32
558.9	1688.19
559.325	1679.8
559.75	1671.71
560.175	1664.19
560.6	1657.63
561.025	1651.96
561.449	1651.25
561.874	1653.39
562.299	1654.53
562.723	1658.53
563.148	1646.33
563.572	1646.87
563.997	1652.53
564.421	1654.34
564.846	1651.59
565.27	1650.68
565.694	1645.91
566.118	1652.34
566.542	1656.11
566.966	1647.08
567.39	1640.78
567.814	1628.21
568.238	1624.73
568.662	1626.26
569.086	1625.41
569.509	1628.18
569.933	1612.13
570.357	1603.09
570.78	1582.34
571.204	1567.38
571.627	1555.36
572.05	1550.22
572.474	1546.22
572.897	1531.84
573.32	1521.93
573.743	1509.9
574.166	1491.03
574.589	1487.75
575.012	1478.64
575.435	1474.37
575.858	1463.9
576.281	1451.09
576.704	1434.64
577.126	1421.51
577.549	1409.81
577.972	1398.46
578.394	1387.94
578.817	1380.11
579.239	1361.51
579.661	1347.74
580.084	1331.83
580.506	1317.35
580.928	1310.88
581.35	1299.54
581.772	1293.77
582.194	1280.91
582.616	1268.47
583.038	1255.15
583.46	1243.83
583.882	1238.48
584.303	1239.27
584.725	1233.53
585.147	1234.64
585.568	1242.16
585.99	1250.65
586.411	1255.55
586.833	1265.24
587.254	1264.57
587.675	1273.69
588.096	1281.3
588.518	1276.81
588.939	1262.21
589.36	1259.47
589.781	1248.72
590.202	1225.43
590.623	1216.01
591.043	1212.38
591.464	1200.98
591.885	1197.09
592.305	1190.89
592.726	1180.04
593.147	1180
593.567	1176.28
593.987	1169.75
594.408	1165
594.828	1162.55
595.248	1157.21
595.669	1141.9
596.089	1135.98
596.509	1130.53
596.929	1119.63
597.349	1119.47
597.769	1110.54
598.189	1104.33
598.608	1104.33
599.028	1106.13
599.448	1105.66
599.867	1095.44
600.287	1090.75
600.706	1087.29
601.126	1078.08
601.545	1076.41
601.965	1075.01
602.384	1070.09
602.803	1071.07
603.222	1066.91
603.641	1060.82
604.061	1056.56
604.48	1052.51
604.898	1058
605.317	1060.53
605.736	1061.2
606.155	1058.05
606.574	1049.13
606.992	1052.87
607.411	1048.23
607.829	1039.63
608.248	1034.7
608.666	1031.55
609.085	1030.53
609.503	1021.98
609.921	1016.08
610.339	1016.32
610.758	1013.62
611.176	1008.5
611.594	999
612.012	995.21
612.43	996.9
612.847	1000.38
613.265	1000.03
613.683	1001.37
614.101	1001.14
614.518	996.07
614.936	986.82
615.353	975.38
615.771	972.85
616.188	972.59
616.606	968.06
617.023	961.87
617.44	950.72
617.857	944.68
618.274	937.2
618.691	932.25
619.108	924.79
619.525	920.51
619.942	923.75
620.359	924.24
620.776	919.31
621.192	915.49
621.609	913.39
622.026	917.64
622.442	921.34
622.859	923.08
623.275	917.57
623.691	921.49
624.108	928.35
624.524	938.87
624.94	939.19
625.356	946.36
625.772	956.01
626.188	963.64
626.604	963.7
627.02	959.33
627.436	957.92
627.852	962.6
628.268	970.85
628.683	965.07
629.099	959.18
629.514	955.54
629.93	958.16
630.345	961.5
630.761	959.15
631.176	962.72
631.591	959.41
632.007	954.16
632.422	952.06
632.837	942.42
633.252	939.47
633.667	930.53
634.082	922.64
634.497	912.44
634.911	897.06
635.326	893.19
635.741	878.83
636.155	869.35
636.57	869.46
636.984	868.21
637.399	869.33
637.813	867.65
638.228	865.9
638.642	866.56
639.056	857.07
639.47	855.72
639.884	847.7
640.298	842.58
640.712	840.08
641.126	829.99
641.54	822.69
641.954	816.18
642.368	806.43
642.781	800.38
643.195	787.79
643.609	788.5
644.022	784
644.436	780.99
644.849	770.86
645.262	762.68
645.676	763.04
646.089	758.56
646.502	749.67
646.915	744.72
647.328	731.81
647.741	730.35
648.154	720.34
648.567	717.83
648.98	707.46
649.393	707.48
649.805	705.1
650.218	700.13
650.631	689.68
651.043	684.34
651.456	680.77
651.868	681.08
652.28	691.72
652.693	700.61
653.105	704.11
653.517	711.15
653.929	710.94
654.341	714.92
654.753	706.98
655.165	711.44
655.577	710.03
655.989	709.02
656.401	704.06
656.813	681.1
657.224	667.49
657.636	649.1
658.047	638.62
658.459	626.42
658.87	619.4
659.282	611.23
659.693	597.55
660.104	588.19
660.515	578.26
660.926	577
661.338	575.37
661.749	572.01
662.159	567.46
662.57	564.25
662.981	562.73
663.392	559.76
663.803	563.81
664.213	563.84
664.624	562.41
665.035	566.43
665.445	559.07
665.855	555.66
666.266	552.07
666.676	550.77
667.086	546.39
667.497	547.57
667.907	545.02
668.317	540.05
668.727	540.3
669.137	541.83
669.547	541.48
669.956	544.85
670.366	547.57
670.776	551.17
671.186	556.2
671.595	559.85
672.005	562.96
672.414	563.97
672.824	564.15
673.233	566.61
673.642	570.19
674.052	572.46
674.461	574.83
674.87	580.26
675.279	578.45
675.688	579.52
676.097	580.73
676.506	579.13
676.915	589.53
677.323	591.92
677.732	591.55
678.141	591.04
678.549	584.45
678.958	584.49
679.366	582.55
679.775	585.53
680.183	593.92
680.592	598.49
681	602.65
681.408	596.87
681.816	600.62
682.224	606.32
682.632	612.63
683.04	632.8
683.448	648.41
683.856	668.94
684.264	692.91
684.671	712.21
685.079	736.81
685.487	762.9
685.894	804.11
686.302	835.85
686.709	860.65
687.116	890.98
687.524	914.77
687.931	934.74
688.338	951.74
688.745	966.25
689.152	984.08
689.559	1012.65
689.966	1042.45
690.373	1055.75
690.78	1085.86
691.187	1131.97
691.593	1167.68
692	1200.87
692.407	1249.73
692.813	1311.14
693.22	1362.08
693.626	1416.14
694.032	1461.26
694.439	1528.01
694.845	1581.84
695.251	1649.68
695.657	1712.34
696.063	1802.99
696.469	1875.84
696.875	1947.52
697.281	1993.33
697.687	2048.25
698.093	2096.91
698.498	2175.82
698.904	2242.5
699.31	2336.59
699.715	2408.77
700.12	2504.49
700.526	2539.03
700.931	2617.5
701.337	2681.68
701.742	2730.42
702.147	2823.78
702.552	2868.93
702.957	2941.57
703.362	2977.41
703.767	3023.07
704.172	3077.31
704.577	3053.61
704.981	3115.29
705.386	3148.16
705.791	3158.09
706.195	3246.41
706.6	3271.72
707.004	3366.77
707.408	3356.64
707.813	3400.71
708.217	3404.74
708.621	3424.33
709.025	3536.36
709.43	3554.23
709.834	3630.22
710.237	3715.78
710.641	3717.04
711.045	3756.85
711.449	3769.2
711.853	3814.63
712.256	3872.24
712.66	3927.22
713.064	4021.66
713.467	4079.04
713.87	4210.26
714.274	4275.52
714.677	4403.26
715.08	4586.15
715.484	4777.35
715.887	5002.28
716.29	5226.86
716.693	5463.52
717.096	5731.89
717.499	5887.43
717.901	5932.87
718.304	5977.84
718.707	6019.09
719.109	5927.49
719.512	5912.69
719.915	5781.4
720.317	5734.87
720.719	5793.35
721.122	5775.19
721.524	5736.06
721.926	5700.76
722.328	5822.24
722.731	5825.4
723.133	5869.02
723.535	6090.69
723.937	6123
724.338	6191.82
724.74	6250.71
725.142	6174.62
725.544	6185.44
725.945	6220.87
726.347	6230.31
726.748	6230.65
727.15	6252.85
727.551	6216.38
727.952	6195.32
728.354	6172.5
728.755	6181.88
729.156	6139.12
729.557	6154.75
729.958	6021.29
730.359	5969.78
730.76	5953.52
731.161	5892.88
731.562	5873.44
731.962	5884.97
732.363	5818.55
732.763	5752.77
733.164	5798.38
733.564	5731.67
733.965	5623.44
734.365	5588.88
734.766	5624.28
735.166	5584.37
735.566	5528.51
735.966	5501.8
736.366	5500.99
736.766	5433.48
737.166	5472.76
737.566	5428.03
737.966	5401.3
738.365	5450.33
738.765	5448.91
739.165	5366.89
739.564	5339.95
739.964	5393.51
740.363	5343.79
740.763	5342.84
741.162	5334.57
741.561	5299.9
741.96	5250.27
742.36	5275.47
742.759	5284.52
743.158	5330.63
743.557	5350.38
743.955	5397.9
744.354	5347.08
744.753	5415.16
745.152	5365.98
745.55	5429.05
745.949	5423.5
746.348	5427
746.746	5446.38
747.144	5402.29
747.543	5380.79
747.941	5436.21
748.339	5358.32
748.737	5348.35
749.136	5339.26
749.534	5417.63
749.932	5387.69
750.33	5415.67
750.727	5480.05
751.125	5452.18
751.523	5433.18
751.921	5478.52
752.318	5440.35
752.716	5505.97
753.113	5523.8
753.511	5552.26
753.908	5552.24
754.305	5530.84
754.703	5601.17
755.1	5672.28
755.497	5743.02
755.894	5962.58
756.291	6168.6
756.688	6547.95
757.085	7052.41
757.482	7761.85
757.878	8534.34
758.275	9234.24
758.672	10199.45
759.068	10984.68
759.465	12106.08
759.861	13549.92
760.258	15231.82
760.654	16103.14
761.05	15969.38
761.447	15241.89
761.843	14190.6
762.239	13105.66
762.635	12617.97
763.031	12151.94
763.427	11472.5
763.822	10757.33
764.218	10050.53
764.614	9129.94
765.01	8515.88
765.405	8121.43
765.801	7819.54
766.196	7434.17
766.592	7221.83
766.987	6858.69
767.382	6614.28
767.778	6511.84
768.173	6362.1
768.568	6279.59
768.963	6136.92
769.358	6157.36
769.753	6104.04
770.148	6009.09
770.542	6011.2
770.937	5974.16
771.332	6078.58
771.726	6097.26
772.121	6021.92
772.515	6084.17
772.91	6069.55
773.304	6153.29
773.699	6078.32
774.093	6140.73
774.487	6205.63
774.881	6255.59
775.275	6252.08
775.669	6206.58
776.063	6258.37
776.457	6304.87
776.851	6220.34
777.245	6209.58
777.638	6246.82
778.032	6378.73
778.425	6337.26
778.819	6383.02
779.212	6332.15
779.606	6286.51
779.999	6309.87
780.392	6291.33
780.786	6385.67
781.179	6406.53
781.572	6455.02
781.965	6470.65
782.358	6405.15
782.751	6469.21
783.143	6416.82
783.536	6502.12
783.929	6550.51
784.322	6680.4
784.714	6716.87
785.107	6709.79
785.499	6792.89
785.891	6765.48
786.284	6740.38
786.676	6901.27
787.068	6880.97
787.46	6935.67
787.852	6958.26
788.245	7055.79
788.636	7092.12
789.028	7166.99
789.42	7210.42
789.812	7221.33
790.204	7336.99
790.595	7450.3
790.987	7225.3
791.378	7251.92
791.77	7402.37
792.161	7555.87
792.553	7621.16
792.944	7489.62
793.335	7409.3
793.726	7491.56
794.117	7593.81
794.508	7746.94
794.899	7713.09
795.29	7876.29
795.681	7941.82
796.072	7779.61
796.463	7561.15
796.853	7569.13
797.244	7746.45
797.634	7789.05
798.025	7788.16
798.415	7799.46
798.806	7895.41
799.196	7992.18
799.586	8047.7
799.976	7999.17
800.366	8260.68
800.756	8538.04
801.146	8489.97
801.536	8525.45
801.926	8607.57
802.316	8633.36
802.706	8714.6
803.095	8580.61
803.485	8695.75
803.874	8743.45
804.264	9037.29
804.653	9008.93
805.043	9174.47
805.432	9300.61
805.821	9303.79
806.21	9324.68
806.599	9463.66
806.988	9514.61
807.377	9630.32
807.766	9780.74
808.155	10100.81
808.544	9802.37
808.933	9816.03
809.321	9789.23
809.71	10127.03
810.098	10302.63
810.487	10832.01
810.875	11375.8
811.264	11400.07
811.652	11730.7
812.04	11891.57
812.428	12078.27
812.816	12951.87
813.204	13424.83
813.592	14052.68
813.98	14426.49
814.368	14316.12
814.756	14856.32
815.144	14763.57
815.531	15289.36
815.919	15203.52
816.306	15550.33
816.694	15195.98
817.081	15246.58
817.469	15630.84
817.856	15632.79
818.243	15943.68
818.63	16392.03
819.017	15914
819.404	15989.66
819.791	16424.34
820.178	17124.71
820.565	17405.77
820.952	18445.11
821.339	17876.95
821.725	18094.58
822.112	17245.47
822.498	17194.99
822.885	17343.97
823.271	17235.41
823.657	17713.11
824.044	17724.14
824.43	17809.05
824.816	17767.93
825.202	17289.68
825.588	18453.89
825.974	18463.23
826.36	19054.61
826.746	19097.6
827.132	19493.64
827.517	19471.98
827.903	18569.1
828.289	18602.65
828.674	17721.55
829.06	17604.27
829.445	18058.11
829.83	18460.55
830.216	19004.63
830.601	19419.65
830.986	18949.44
831.371	18802.21
831.756	19422.68
832.141	18933.93
832.526	18930.3
832.911	19243.57
833.295	19117.4
833.68	19643.55
834.065	18944.14
834.449	17914.43
834.834	17828.07
835.218	17832.08
835.603	18215.86
835.987	17980.88
836.371	18928.67
836.755	18817.84
837.139	19283.39
837.524	19557.68
837.908	19361.74
838.291	19431.73
838.675	19521.8
839.059	19771.64
839.443	19760.17
839.827	19508.05
840.21	20056.69
840.594	19900.41
840.977	20136.79
841.361	20110.98
841.744	20544.72
842.127	20369.88
842.511	20664.75
842.894	21338.49
843.277	21770.35
843.66	22391.52
844.043	22491.5
844.426	21577.25
844.809	21225.39
845.191	21263.63
845.574	20740.88
845.957	20330.48
846.339	20208.62
846.722	19594.41
847.104	19678.52
847.487	19478.1
847.869	19490.96
848.252	19801.59
848.634	20180.75
849.016	20474.74
849.398	20613.79
849.78	21588.52
850.162	21586.92
850.544	22054.59
850.926	22771.67
851.307	22666.93
851.689	22983.77
852.071	23501.28
852.452	23865.26
852.834	23840.59
853.215	24292.8
853.597	24463.2
853.978	24789.68
854.359	25306.34
854.741	24186.71
855.122	24079.56
855.503	23739.17
855.884	23893.68
856.265	23813.07
856.646	23942.86
857.026	23497.95
857.407	23415.11
857.788	23605.49
858.169	23920.29
858.549	22957.51
858.93	23663.42
859.31	23716.26
859.69	23962.62
860.071	23500.34
860.451	23253.06
860.831	22408.85
861.211	23722.8
861.591	24342.75
861.971	24308.26
862.351	24536.08
862.731	24969.23
863.111	25260.74
863.491	25630.6
863.87	26626.48
864.25	27021.64
864.629	26576.74
865.009	27169.83
865.388	28133.89
865.768	30166.31
866.147	30043.88
866.526	28381.59
866.905	28722.33
867.284	30334.86
867.663	28811.31
868.042	27616.36
868.421	27519.35
868.8	27972.99
869.179	28244.46
869.558	26598.03
869.936	24514.32
870.315	24954.39
870.693	25559.66
871.072	27561.87
871.45	26256.41
871.828	26593.47
872.207	27954.43
872.585	27550.43
872.963	28303.59
873.341	27332.64
873.719	27006.99
874.097	26677.97
874.475	27186.21
874.853	27810.73
875.23	26660.05
875.608	27775.91
875.986	30042.42
876.363	28734.49
876.741	29595.52
877.118	28852.44
877.495	30263
877.873	30775.03
878.25	32392.5
878.627	31075.6
879.004	31523.01
879.381	31372.89
879.758	30552.28
880.135	28439.87
880.512	30062.44
880.889	29274.67
881.265	28970.15
881.642	28728.77
882.019	29211.11
882.395	28609.46
882.772	29734.2
883.148	28439.21
883.524	28328.85
883.901	28146.74
884.277	28575.94
884.653	28387.88
885.029	29194.81
885.405	32338.04
885.781	32089.32
886.157	30770.23
886.532	31143.14
886.908	31137.62
887.284	34617.38
887.659	35729.46
888.035	36858.86
888.411	37811.02
888.786	38315.22
889.161	39649.64
889.537	38925.07
889.912	40169.22
890.287	40122.64
890.662	41177.98
891.037	40429.56
891.412	37705.23
891.787	37330.53
892.162	36042.03
892.536	36887.61
892.911	35510.15
893.286	34771.09
893.66	33363.24
894.035	34218.65
894.409	37276.55
894.784	35775.08
895.158	36380.03
895.532	38543.08
895.906	39605.54
896.281	40521.3
896.655	39869.77
897.029	45573.17
897.402	47454.23
897.776	52826.73
898.15	52635.61
898.524	52053.09
898.898	52737.86
899.271	59021.42
899.645	51103.33
900.018	49090.54
900.392	50906.73
900.765	51325.13
901.138	47493.24
901.511	46771.3
901.884	42938.78
902.258	39620.03
902.631	40941.9
903.003	47119.07
903.376	42506.89
903.749	47675.92
904.122	51042.06
904.495	56205.18
904.867	56920.22
905.24	49414.75
905.612	46005.13
905.985	47033.35
906.357	49182.83
906.729	46946.71
907.102	40091.01
907.474	38577.93
907.846	38815.74
908.218	38304.42
908.59	33844.55
908.962	32713.77
909.334	35224.23
909.705	36999.38
910.077	35933.97
910.449	37386.36
910.82	38422.22
911.192	42279.76
911.563	43906.75
911.935	46971.81
912.306	47014.85
912.677	48555.88
913.048	48044.79
913.419	52099.52
913.79	52362.21
914.161	56153.42
914.532	53646.03
914.903	49290.3
915.274	46798.5
915.645	46110.38
916.015	40592.37
916.386	38697.83
916.756	41170.96
917.127	42492.88
917.497	37963.94
917.868	41352.01
918.238	39283.03
918.608	40446.35
918.978	41287.97
919.348	43722.09
919.718	45193.86
920.088	43535.73
920.458	45226.71
920.828	47609.26
921.198	45153.4
921.567	48242.24
921.937	37347.89
922.306	37717.51
922.676	40663.06
923.045	33930.01
923.415	32232.78
923.784	29338.86
924.153	30163.4
924.522	30143.11
924.891	28326.65
925.26	30333.5
925.629	29622.56
925.998	34040.37
926.367	33202.9
926.736	31588.12
927.104	37612.2
927.473	40434.63
927.842	48837.75
928.21	48374.63
928.578	50826.51
928.947	48067.52
929.315	48341.37
929.683	56678.89
930.051	57130.84
930.42	66301.24
930.788	56709.74
931.156	56253.01
931.523	52761.9
931.891	48729.77
932.259	46792.78
932.627	54225.56
932.994	76693.58
933.362	63400.35
933.729	55051.62
934.097	52684.96
934.464	44632.21
934.831	51532.05
935.199	50833.19
935.566	49259.8
935.933	49971.39
936.3	60555.66
936.667	47173.52
937.034	42566.93
937.401	42104.57
937.767	36350.59
938.134	32388.86
938.501	45677.19
938.867	48655.74
939.234	82288.53
939.6	70291.81
939.967	77385.95
940.333	51761.93
940.699	44100.1
941.065	35400.58
941.431	46416.44
941.798	44745.38
942.163	58731.68
942.529	36708.94
942.895	33801.11
943.261	21846.97
943.627	28635.46
943.992	25070.33
944.358	25110.19
944.723	25183.56
945.089	24559.16
945.454	22676.01
945.82	24197.43
946.185	23258.28
946.55	26948.64
946.915	24188.59
947.28	28382
947.645	24996.16
948.01	23049.05
948.375	24021.82
948.74	28789.06
949.104	33571.88
949.469	48494.58
949.834	85742.24
950.198	81261.64
950.562	48668.51
950.927	40462.96
951.291	48705.73
951.655	41467.17
952.02	38974.16
952.384	29493.47
952.748	25625.84
953.112	24964.62
953.476	21723.57
953.839	20076.94
954.203	19872.45
954.567	24873.49
954.931	39249.8
955.294	33554.91
955.658	33739.85
956.021	57386.49
956.385	97248.01
956.748	143744.67
957.111	223266.64
957.474	250642.64
957.837	282575.11
958.2	213888.31
958.563	76941.35
958.926	51992.26
959.289	78885.14
959.652	88224.92
960.015	66225.32
960.377	95066.52
960.74	108573.15
961.102	187426.65
961.465	201276.21
961.827	107580.32
962.189	206404.97
962.552	143000.19
962.914	114647.75
963.276	74459.44
963.638	61514.32
964	60900.76
964.362	41143.47
964.724	39729.94
965.085	28317.71
965.447	23192.54
965.809	26465.6
966.17	26541.36
966.532	28733.29
966.893	26355.31
967.255	23985.3
967.616	28315.41
967.977	22659.05
968.338	24766.83
968.699	20360.5
969.061	20358.79
969.421	20516.77
969.782	23029.44
970.143	19425.08
970.504	20105
970.865	22848.39
971.225	23345.57
971.586	22835.77
971.946	32581.26
972.307	28280.27
972.667	36964.81
973.027	38067.82
973.388	46131.52
973.748	31362.24
974.108	34187.11
974.468	46275.62
974.828	35663.97
975.188	27446.59
975.548	25213.48
975.907	21175.95
976.267	23744.37
976.627	19949.08
976.986	20671.95
977.346	19705.42
977.705	18972.2
978.064	17237.91
978.424	14344.95
978.783	14845.02
979.142	16947.23
979.501	16194.61
979.86	17107.76
980.219	16483.12
980.578	21262.83
980.937	23825.4
981.296	21269.25
981.654	21867.78
982.013	34088.69
982.371	44233.35
982.73	41343.45
983.088	46841.1
983.447	50086.46
983.805	71609.69
984.163	150018.71
984.521	166539.58
984.879	244193.55
985.237	-396424.35
985.595	382450.77
985.953	95021.6
986.311	54867.12
986.669	31852.17
987.026	27483.7
987.384	36960.97
987.741	38169.6
988.099	27204.23
988.456	21661.93
988.814	20255.48
989.171	17635.36
989.528	17411.26
989.885	18369.57
990.242	14557
990.599	18113.29
990.956	14817.7
991.313	10376.55
991.67	8525.49
992.027	9018.83
992.383	8023.3
992.74	7029.63
993.096	7361.1
993.453	7626.69
993.809	7913.96
994.165	10531.24
994.522	9625.4
994.878	10606.76
995.234	13291.06
995.59	13099.19
995.946	12411.98
996.302	14147.05
996.658	16400.52
997.013	18043.43
997.369	21378.01
997.725	27339.72
998.08	17725.93
998.436	27490.89
998.791	37942.09
999.147	37888.01
999.502	41352.63
999.857	30142.66
1000.212	49155.12
1000.567	69860.68
1000.922	40417.87
1001.277	25672.54
1001.632	19083.3
1001.987	24523.25
1002.342	17537.79
1002.696	14019.08
1003.051	11185.25
1003.406	13530.06
1003.76	13435.09
1004.114	13227.3
1004.469	11140.51
1004.823	9221.96
1005.177	9940.47
1005.531	7864.79
1005.885	6983.76
1006.239	7879.15
1006.593	9860.67
1006.947	13158.39
1007.301	9893.32
1007.655	10784.41
1008.008	7921.41
1008.362	8891.64
1008.715	12708.92
1009.069	11564.59
1009.422	17355.77
1009.776	34888.17
1010.129	23184.78
1010.482	19445.25
1010.835	16499.45
1011.188	34327.46
1011.541	32368.39
1011.894	-197722.87
1012.247	581498.67
1012.6	39464.72
1012.952	24882.79
1013.305	12867.77
1013.657	9263.37
1014.01	8771.23
1014.362	7224.49
1014.715	6394.41
1015.067	5567.34
1015.419	5440.81
1015.771	4829.03
1016.123	4296.47
1016.475	4412.76
1016.827	4704.79
1017.179	5063.32
1017.531	5103.95
1017.883	5213.47
1018.234	5006.74
1018.586	6326.43
1018.938	6667.68
1019.289	9172.93
1019.64	10476.51
1019.992	9754.97
1020.343	8931.53
1020.694	7030.33
1021.045	6215.67
1021.396	7118.97
1021.747	7632.66
1022.098	9188.33
1022.449	6680.09
1022.8	6234.62
1023.151	4352.81
1023.501	3856.77
1023.852	4197.3
1024.202	4354.08
1024.553	4816.26
1024.903	4691.67
1025.253	3985.58
1025.604	3586.4
1025.954	4464.17
1026.304	5426.84
1026.654	6341.18
1027.004	9361.11
1027.354	15218.97
1027.703	14322.63
1028.053	18862.91
1028.403	27266.98
1028.753	39812.88
1029.102	54405.02
1029.452	280094.67
1029.801	12074.52
1030.15	7850
1030.499	6652.26
897.758	2110.67
901.051	2040.22
904.343	2074.06
907.636	2082.58
910.928	2143.28
914.22	2065.58
917.511	2069.34
920.803	2116.35
924.094	2111.01
927.384	2118.79
930.675	2082.66
933.965	2046.13
937.255	2080.47
940.544	2050.9
943.834	2043.94
947.123	1986.55
950.411	2072.16
953.7	2054.88
956.988	2041.01
960.276	1979.27
963.563	2024.64
966.851	2034.34
970.138	2074.74
973.424	2077.3
976.711	2030.21
979.997	2080.59
983.283	2120.95
986.568	2056.24
989.853	2045.65
993.138	2072.29
996.423	2158.4
999.708	2117.77
1002.992	2149.29
1006.275	2069.33
1009.559	2073.16
1012.842	2169.23
1016.125	2125.25
1019.408	2108.72
1022.69	2160.35
1025.972	2196.3
1029.254	2171.88
1032.536	2137.32
1035.817	2147.42
1039.098	2117.13
1042.379	2161.21
1045.659	2188.22
1048.939	2140.56
1052.219	2145.74
1055.498	2136.61
1058.778	2136.45
1062.057	2110.89
1065.335	2135.37
1068.614	2145.46
1071.892	2144.98
1075.17	2197.82
1078.447	2200.98
1081.724	2195.98
1085.001	2221.08
1088.278	2200.44
1091.554	2205.45
1094.83	2198.3
1098.106	2236.7
1101.382	2264.34
1104.657	2265.34
1107.932	2263.32
1111.206	2240.1
1114.481	2196.56
1117.755	2196.35
1121.029	2191.06
1124.302	2253.28
1127.575	2220.57
1130.848	2220.06
1134.121	2187.92
1137.393	2153.72
1140.665	2208.74
1143.937	2189.58
1147.208	2138.49
1150.48	2197.52
1153.75	2187.48
1157.021	2182.55
1160.291	2160.82
1163.561	2215.23
1166.831	2180.32
1170.101	2209.17
1173.37	2165.45
1176.639	2125.2
1179.907	2166.72
1183.176	2190.59
1186.444	2192.29
1189.711	2214.35
1192.979	2242.88
1196.246	2198.41
1199.513	2211.74
1202.78	2217.53
1206.046	2225.28
1209.312	2254.14
1212.578	2271.79
1215.843	2241.17
1219.108	2206.1
1222.373	2228.27
1225.638	2204.13
1228.902	2196.63
1232.166	2151.08
1235.43	2138.94
1238.693	2166.12
1241.956	2154.88
1245.219	2206.56
1248.482	2186.56
1251.744	2185.21
1255.006	2302.91
1258.268	2250.05
1261.529	2207.24
1264.79	2206.3
1268.051	2304.82
1271.312	2313.03
1274.572	2284.95
1277.832	2275.59
1281.092	2252.82
1284.351	2246.28
1287.61	2230.49
1290.869	2171.12
1294.128	2171.2
1297.386	2212.75
1300.644	2208.08
1303.902	2215.77
1307.159	2086.81
1310.416	2136.18
1313.673	2164.72
1316.93	2163.36
1320.186	2193.13
1323.442	2225.81
1326.697	2228.47
1329.953	2197.45
1333.208	2236.83
1336.463	2206.17
1339.717	2170.6
1342.972	2272.08
1346.226	2242.53
1349.479	2193.5
1352.733	2176.19
1355.986	2178.75
1359.238	2158.92
1362.491	2163.55
1365.743	2164.09
1368.995	2153.31
1372.247	2165.75
1375.498	2185.37
1378.749	2229.42
1382	2179.78
1385.251	2214.43
1388.501	2163.42
1391.751	2166.78
1395	2131.52
1398.25	2157.25
1401.499	2181.92
1404.748	2135.86
1407.996	2111.61
1411.244	2100.93
1414.492	2087.67
1417.74	2072.43
1420.987	2073.82
1424.234	2135.71
1427.481	2094.49
1430.728	2151.91
1433.974	2125.04
1437.22	2122.59
1440.465	2116.39
1443.711	2120.22
1446.956	2141.38
1450.201	2109.92
1453.445	2151.78
1456.689	2143.69
1459.933	2151.32
1463.177	2194.04
1466.42	2168.56
1469.663	2153.52
1472.906	2169.69
1476.148	2218.78
1479.391	2185.38
1482.633	2163.03
1485.874	2192.8
1489.115	2200.97
1492.356	2180.94
1495.597	2162.85
1498.838	2156.04
1502.078	2142.01
1505.318	2117.12
1508.557	2150.1
1511.797	2146.78
1515.036	2198.81
1518.274	2166.68
1521.513	2115.79
1524.751	2127.09
1527.989	2154.74
1531.227	2174.03
1534.464	2189.37
1537.701	2181.78
1540.938	2194.14
1544.174	2140.74
1547.41	2131.79
1550.646	2167.11
1553.882	2220.12
1557.117	2279.16
1560.352	2285.76
1563.587	2249.89
1566.821	2218.5
1570.055	2231.58
1573.289	2214.06
1576.523	2268.75
1579.756	2285.9
1582.989	2307.61
1586.222	2271.01
1589.454	2297.52
1592.686	2281.75
1595.918	2310.28
1599.15	2309.82
1602.381	2351.71
1605.612	2336.26
1608.843	2428.41
1612.073	2350.93
1615.303	2341.37
1618.533	2339.92
1621.762	2335.91
1624.992	2310.45
1628.221	2316.69
1631.449	2304.91
1634.678	2326.18
1637.906	2293.63
1641.134	2319.4
1644.361	2287.06
1647.588	2277.38
1650.815	2298.52
1654.042	2258.74
1657.269	2289.01
1660.495	2271.05
1663.72	2251.05
1666.946	2220.85
1670.171	2199.51
1673.396	2170.86
1676.621	2154.2
1679.845	2147.99
1683.069	2155.56
1686.293	2183.04
1689.517	2178.61
1692.74	2130.31
1695.963	2151.55
1699.185	2196.09
1702.408	2169.37
1705.63	2196.25
1708.852	2219.38
1712.073	2187.83
1715.294	2201.74
1718.515	2239.84
1721.736	2201.59
1724.956	2177.44
1728.176	2199.25
1731.396	2219.82
1734.616	2204.23
1737.835	2241.07
1741.054	2210.88
1744.272	2202.12
1747.491	2242.43
1750.709	2260.23
1753.927	2215.33
1757.144	2237.85
1760.361	2298.52
1763.578	2270.38
1766.795	2221.28
1770.011	2208.76
1773.227	2231.57
1776.443	2272.76
1779.658	2314.65
1782.874	2253.28
1786.089	2250.29
1789.303	2252.19
1792.518	2248.08
1795.732	2232.27
1798.945	2250.17
1802.159	2289.17
1805.372	2236.46
1808.585	2232.02
1811.797	2233.99
1815.01	2247.64
1818.222	2274.01
1821.434	2227.61
1824.645	2267.83
1827.856	2280.29
1831.067	2312.31
1834.278	2246.86
1837.488	2231.57
1840.698	2348.38
1843.908	2292.83
1847.117	2259.85
1850.326	2195.08
1853.535	2251.16
1856.744	2289.07
1859.952	2214.23
1863.16	2214.5
1866.368	2224.67
1869.575	2338.1
1872.782	2217.45
1875.989	2152.65
1879.196	2195.23
1882.402	2186.74
1885.608	2215.28
1888.814	2158.82
1892.019	2068.96
1895.224	2117.17
1898.429	2079.79
1901.634	2063.56
1904.838	2037.53
1908.042	2095.01
1911.246	2106.19
1914.449	2072.75
1917.652	2053.3
1920.855	2034.91
1924.058	2054.96
1927.26	2100.34
1930.462	2122.79
1933.664	2163.47
1936.865	2107.32
1940.066	2126.29
1943.267	2071.07
1946.467	2080.64
1949.668	2096.12
1952.868	2166.22
1956.067	2157.47
1959.267	2100.4
1962.466	2122.78
1965.665	2104.19
1968.863	2098.93
1972.061	2102.01
1975.259	2090.93
1978.457	2166.79
1981.654	2126.99
1984.852	2132.04
1988.048	2086.28
1991.245	2075.83
1994.441	2164.35
1997.637	2120.25
2000.833	2101.59
2004.028	2136.23
2007.223	2198.28
2010.418	2190.44
2013.613	2139.91
2016.807	2138.16
2020.001	2131.5
2023.194	2152.51
2026.388	2136.46
2029.581	2081.71
2032.774	2145.96
2035.966	2158.42
2039.158	2106.2
2042.35	2123.4
2045.542	2051.51
2048.733	2127.59
2051.924	2115.75
2055.115	2132.19
2058.306	2098.1
2061.496	2153.51
2064.686	2200.85
2067.875	2106.9
2071.065	2106.71
2074.254	2123.83
2077.442	2079.76
2080.631	2156.84
2083.819	2096.64
2087.007	2092.13
2090.195	2076.19
2093.382	2091.84
2096.569	2075.14
2099.756	2037.67
2102.942	2088.4
2106.128	2104.61
2109.314	2092.21
2112.5	2081.29
2115.685	2050.2
2118.87	2056.61
2122.055	2115.12
2125.239	2097.54
2128.424	2084.53
2131.608	2138.63
2134.791	2125.14
2137.974	2159.54
2141.157	2148.46
2144.34	2124.11
2147.523	2110.61
2150.705	2138.48
2153.887	2104.92
2157.068	2080.16
2160.25	2059.86
2163.431	2082.24
2166.611	2054.4
2169.792	2076.07
2172.972	1990.89
2176.152	2035.66
2179.331	2062.81
2182.511	2068.13
2185.69	2088.29
2188.868	2094.55
2192.047	2126.97
2195.225	2145.67
2198.403	2093.72
2201.58	2080.82
2204.758	2064.64
2207.935	2135.93
2211.111	2060.03
2214.288	2047.44
2217.464	2081.3
2220.64	2035.1
2223.815	2084.06
2226.991	2017.18
2230.166	2030.65
2233.34	2076.65
2236.515	2087.44
2239.689	2150.87
2242.863	2104.43
2246.036	2153.9
2249.209	2134.74
2252.382	2151.45
2255.555	2164.48
2258.727	2117.88
2261.9	2143.81
2265.071	2136.73
2268.243	2130.98
2271.414	2084.87
2274.585	2069.68
2277.756	2127.91
2280.926	2085.12
2284.096	2114.13
2287.266	2046.23
2290.436	2089.01
2293.605	2106.91
2296.774	2146.34
2299.942	2150.85
2303.111	2165.79
2306.279	2215.63
2309.447	2201.63
2312.614	2170.6
2315.781	2196.04
2318.948	2173.72
2322.115	2211.98
2325.281	2113.41
2328.447	2117.99
2331.613	2089.8
2334.779	2082.25
2337.944	2076.62
2341.109	2078.07
2344.274	2067.11
2347.438	2037.78
2350.602	2056.65
2353.766	2063.87
2356.929	2052.92
2360.092	2091.96
2363.255	2065.44
2366.418	2034.92
2369.58	2094.1
2372.742	1985.38
2375.904	1974.92
2379.066	1962.65
2382.227	1983.95
2385.388	1949.36
2388.548	1905.94
2391.709	1945.71
2394.869	1934.64
2398.029	1982.73
2401.188	1976.44
2404.347	1944.94
2407.506	2013.05
2410.665	2054.27
2413.823	2037.64
2416.981	2021.75
2420.139	2034.4
2423.296	2071.3
2426.453	2044.9
2429.61	2065.83
2432.767	2042.06
2435.923	2083.22
2439.079	2025.15
2442.235	2057.5
2445.391	2000.64
2448.546	2042.84
2451.701	2073.64
2454.855	2073.61
2458.009	2099.07
2461.163	2084.88
2464.317	2058.64
2467.471	2083.17
2470.624	2109.36
2473.777	2105.23
2476.929	2120.92
2480.082	2143.86
2483.234	2119.87
2486.385	2060.54
2489.537	2054.22
2492.688	2047.99
2495.839	2065.56
2498.989	2081.35
2502.14	2067.53
2505.29	2060.54
2508.439	2082.89
2511.589	2025.82
2514.738	2026.78
2517.887	2046.96
2521.035	2124.64
2524.183	2081.11
2527.331	2069.44
2530.479	2065.76
2533.627	2064.98
