Data from C_1_DEC_NC_4N_Splice17_11-44-19-608.txt Node
Date: Sat Mar 14 11:44:19 EDT 2020
User: sa697716
Spectrometer: FLMS03696
Trigger mode: 0
Integration Time (sec): 3.180400E-1
Scans to average: 20
Electric dark correction enabled: true
Nonlinearity correction enabled: true
Boxcar width: 5
XAxis mode: Wavelengths
Number of Pixels in Spectrum: 2048
>>>>>Begin Spectral Data<<<<<
187.83	-174390.51
188.298	1206.02
188.766	720.08
189.233	667.22
189.701	934.26
190.169	1332.29
190.636	465.84
191.104	407.04
191.571	31.63
192.039	-46.21
192.506	28.49
192.974	416.9
193.441	-798.33
193.908	-182.63
194.375	10.93
194.842	36.24
195.31	85.3
195.777	140.73
196.244	283.01
196.711	149.37
197.177	130.87
197.644	125.37
198.111	170.93
198.578	198.09
199.045	119.35
199.511	139.12
199.978	79.84
200.445	83.1
200.911	29.09
201.378	-84.97
201.844	-30.22
202.31	-89.68
202.777	-82.86
203.243	-46.93
203.709	-58.98
204.176	-87.09
204.642	-65.24
205.108	-34.88
205.574	-38.11
206.04	-43.91
206.506	-28.75
206.972	-47.07
207.438	-64.27
207.903	-70.99
208.369	-33.09
208.835	-19.46
209.301	-14.82
209.766	-38.87
210.232	-34.29
210.697	-50.5
211.163	-93.96
211.628	-158.46
212.094	-101.19
212.559	-7.6
213.024	0.61
213.49	-6.71
213.955	-13.17
214.42	-44.35
214.885	-30.16
215.35	-16.08
215.815	84.37
216.28	101.31
216.745	88.76
217.21	108.09
217.675	47.96
218.14	44.59
218.604	23.97
219.069	45.61
219.534	92.4
219.998	80.35
220.463	82.74
220.927	-23.71
221.392	-26.89
221.856	-18.57
222.32	-87.73
222.785	-57.62
223.249	-74.4
223.713	-87.11
224.177	-101.39
224.642	-226.6
225.106	-283.84
225.57	-315.96
226.034	-158.65
226.497	-200.72
226.961	-130.65
227.425	-86.21
227.889	-154.36
228.353	-200.55
228.816	-453.07
229.28	-430.55
229.744	-315.59
230.207	-118.6
230.671	-112.17
231.134	-342.87
231.597	-351.48
232.061	-433.03
232.524	-483.01
232.987	-289.49
233.45	-171.88
233.914	-142.02
234.377	-199.97
234.84	-168.34
235.303	-230.56
235.766	-246.06
236.229	-213.46
236.691	-163.23
237.154	-200.24
237.617	-123.52
238.08	-168.2
238.542	-224.85
239.005	-129.3
239.468	-94.48
239.93	-95.16
240.393	-79.5
240.855	-69.37
241.317	-80.35
241.78	-117.97
242.242	-103.82
242.704	-72.9
243.166	-18.41
243.629	24.01
244.091	12.39
244.553	-9.24
245.015	5.82
245.477	-6.43
245.939	-44.93
246.4	-21.65
246.862	1.5
247.324	-8.92
247.786	-66.25
248.247	-175.26
248.709	-328.65
249.17	-214.65
249.632	-86.02
250.093	-41.21
250.555	-22.83
251.016	27.64
251.477	31.63
251.939	42.1
252.4	34.31
252.861	8.68
253.322	33.34
253.783	15.53
254.244	-50.2
254.705	-93.51
255.166	-131.34
255.627	-140.45
256.088	-190.77
256.549	-238.44
257.009	-212.84
257.47	-298.21
257.931	-272.66
258.391	-194.39
258.852	-190.43
259.312	-169.18
259.773	-252.23
260.233	-152.47
260.694	-88.36
261.154	-127.74
261.614	-25.05
262.074	-36.4
262.534	-7.32
262.994	33.75
263.455	11.3
263.915	38.05
264.374	33.27
264.834	48.96
265.294	18.11
265.754	27.78
266.214	26.92
266.673	-8.79
267.133	-16.36
267.593	-32.59
268.052	-50.71
268.512	-35.59
268.971	-2.27
269.431	-4.42
269.89	6.23
270.349	28.01
270.809	21.14
271.268	36.9
271.727	-86.06
272.186	33.14
272.645	33.77
273.104	-43.68
273.563	-87.69
274.022	-192.42
274.481	-125.73
274.94	-105.08
275.399	-95.1
275.857	-146.87
276.316	-249.69
276.775	-206.24
277.233	-217.2
277.692	-177.9
278.15	-145.66
278.609	-76.83
279.067	-47.75
279.525	-51.66
279.984	-81.41
280.442	-98.52
280.9	-4.81
281.358	4.42
281.816	12.61
282.274	-8.66
282.732	-58.15
283.19	-91.37
283.648	-124.88
284.106	-137.44
284.564	-154.7
285.021	-121.91
285.479	-89.99
285.937	-133.41
286.394	-92.43
286.852	-107.9
287.309	-110.51
287.767	-64.38
288.224	-41.32
288.682	-51.16
289.139	-41.84
289.596	-24.26
290.053	-32.15
290.511	-58.49
290.968	-40.87
291.425	-93.19
291.882	-11.19
292.339	38.92
292.796	-23.2
293.252	-36.81
293.709	5.94
294.166	6.15
294.623	-15.07
295.079	-33.21
295.536	-23.31
295.992	-18.08
296.449	-9.74
296.905	-10.7
297.362	7.56
297.818	14.16
298.274	36.02
298.731	22.94
299.187	8.53
299.643	25.69
300.099	60.63
300.555	84.66
301.011	63.03
301.467	129.39
301.923	80.86
302.379	70.43
302.835	69.05
303.291	45.25
303.746	44
304.202	65.34
304.658	57.06
305.113	21.3
305.569	15.84
306.024	14.14
306.479	-71.46
306.935	-24.55
307.39	-73.57
307.845	-64.66
308.301	-50.12
308.756	-69.63
309.211	-64.73
309.666	-84
310.121	-65.12
310.576	-76.88
311.031	-108.17
311.486	-136.51
311.94	-163.96
312.395	-259.84
312.85	-587.23
313.305	-3821.06
313.759	-13626.7
314.214	-1056.44
314.668	-817.48
315.123	-669.44
315.577	-227.92
316.032	-162.43
316.486	-217.64
316.94	-128.45
317.394	-49.62
317.849	-24.27
318.303	-14.87
318.757	-10.06
319.211	3.35
319.665	18.1
320.119	4.98
320.572	2.9
321.026	23.07
321.48	23.72
321.934	-2.66
322.387	-9.71
322.841	14.68
323.295	68.65
323.748	14.3
324.202	0.54
324.655	-9.65
325.108	43.03
325.562	49.34
326.015	28.15
326.468	30.34
326.921	43.07
327.374	75.49
327.827	107.24
328.28	94.75
328.733	92.14
329.186	96.6
329.639	93.8
330.092	67.1
330.545	70.51
330.997	96.58
331.45	133.28
331.903	188.25
332.355	247.39
332.808	170.54
333.26	124.97
333.713	152.23
334.165	142.01
334.617	132.36
335.069	40.29
335.522	-30.48
335.974	-122.26
336.426	-255.6
336.878	-289.11
337.33	-117.99
337.782	-107.86
338.234	-85.64
338.686	-143.49
339.137	-180.93
339.589	-147.23
340.041	-61.27
340.493	-46.12
340.944	-30.8
341.396	-3.67
341.847	47.96
342.299	73.31
342.75	133.01
343.201	39.02
343.653	52.36
344.104	29.71
344.555	19.67
345.006	-93.49
345.457	14.44
345.908	3.78
346.359	36.44
346.81	4.08
347.261	-23.74
347.712	-46.9
348.163	-57.3
348.613	-9.2
349.064	2.25
349.515	16.97
349.965	48.5
350.416	18.8
350.866	7.2
351.317	-52.81
351.767	-76.85
352.217	-126.92
352.668	-149.93
353.118	-131.81
353.568	-279.9
354.018	-183.56
354.468	-165.57
354.918	-97.03
355.368	-62.83
355.818	-110.17
356.268	-374.89
356.718	-899.11
357.168	-92.01
357.617	-15.31
358.067	-63.69
358.517	2.32
358.966	21.4
359.416	31.23
359.865	-30.21
360.315	-260.94
360.764	-74.21
361.213	-19.63
361.663	-64.2
362.112	-130.18
362.561	-232.53
363.01	-156.29
363.459	-128.75
363.908	-178.28
364.357	-122.56
364.806	-250.97
365.255	-131.65
365.703	-95.97
366.152	-109.76
366.601	-75.76
367.05	-20.34
367.498	0.46
367.947	-21.02
368.395	-45.65
368.844	-23.35
369.292	-85.39
369.74	-33.34
370.189	-90.13
370.637	-131.56
371.085	-105.94
371.533	-137.49
371.981	-179.7
372.429	-116.7
372.877	-87.3
373.325	-44.47
373.773	-70.73
374.221	-86.86
374.669	-110.4
375.116	-76.16
375.564	-95.38
376.012	-103.49
376.459	-76.71
376.907	-81.26
377.354	-163.43
377.801	-134.54
378.249	-134.2
378.696	-187.01
379.143	-158.52
379.591	-222.75
380.038	-400.9
380.485	-153.29
380.932	-185.4
381.379	-39.65
381.826	22.07
382.273	-6.87
382.72	-42.17
383.166	-15.41
383.613	22.78
384.06	17.01
384.506	40.72
384.953	35.5
385.4	16.39
385.846	6.57
386.292	-26.58
386.739	-38.56
387.185	-37.35
387.631	-38.03
388.078	-31.26
388.524	-42.66
388.97	-27.43
389.416	-28.1
389.862	-25.78
390.308	-26.83
390.754	-9.88
391.2	-8
391.645	-15.36
392.091	18.52
392.537	32.06
392.983	18.74
393.428	44.32
393.874	30.7
394.319	58.01
394.765	71.2
395.21	75.25
395.655	61.56
396.101	59.14
396.546	62.78
396.991	38.46
397.436	28.71
397.881	22.17
398.326	2.08
398.771	15.84
399.216	-2.56
399.661	-13.09
400.106	-8.42
400.551	-3.53
400.995	-3.81
401.44	-6.78
401.885	-1.52
402.329	1.87
402.774	5.63
403.218	23.89
403.663	22.93
404.107	30.04
404.551	36.53
404.995	31.44
405.44	23.59
405.884	24.29
406.328	20.74
406.772	15.89
407.216	14.13
407.66	9.01
408.104	-6.16
408.547	-9.7
408.991	-9.84
409.435	-10.13
409.879	-6.36
410.322	-3.72
410.766	-0.92
411.209	1.58
411.653	1.2
412.096	5.72
412.54	4.56
412.983	8.54
413.426	12.62
413.869	8.15
414.312	11.18
414.756	6.04
415.199	6.19
415.642	8.24
416.085	10.88
416.527	10.29
416.97	8.63
417.413	11.4
417.856	8.17
418.298	7.07
418.741	6.4
419.184	2.48
419.626	-2.1
420.069	-4.04
420.511	-4.91
420.953	-3.29
421.396	-3.36
421.838	-6.29
422.28	-6.67
422.722	-4.2
423.164	-7.74
423.606	-5.22
424.048	-8.56
424.49	-3.44
424.932	-3.7
425.374	-7.18
425.816	-11.51
426.258	-9.89
426.699	-7.44
427.141	-5.5
427.582	-9.58
428.024	-9.53
428.465	-11.59
428.907	-7.64
429.348	-10.34
429.789	-7.64
430.231	-3.68
430.672	-2.9
431.113	-3.02
431.554	-3.73
431.995	-5.11
432.436	-0.06
432.877	2.21
433.318	5.55
433.759	2.16
434.2	4.67
434.64	2.99
435.081	1.27
435.522	1.84
435.962	2.43
436.403	3.49
436.843	1.57
437.284	-1.95
437.724	-5.28
438.164	-10.08
438.604	-8.24
439.045	-5.39
439.485	-0.84
439.925	-0.97
440.365	-1.66
440.805	-2.49
441.245	-0.65
441.685	0.55
442.125	0.28
442.564	0.48
443.004	2.74
443.444	2.77
443.883	1.37
444.323	-2.93
444.762	-7.23
445.202	-8.65
445.641	-6.67
446.081	-9.49
446.52	-9.5
446.959	-7.81
447.398	-5.65
447.837	-5.28
448.276	-5.46
448.716	-4.49
449.154	-5.27
449.593	-2.21
450.032	-1.04
450.471	-3.62
450.91	-4.68
451.349	-2.42
451.787	-2.56
452.226	-3.51
452.664	-4.45
453.103	-5.1
453.541	-7.99
453.98	-4.7
454.418	-4.53
454.856	-2.28
455.295	-1.95
455.733	-0.71
456.171	-1.9
456.609	-0.29
457.047	0.48
457.485	2.66
457.923	4.93
458.361	6.51
458.798	5.63
459.236	5.64
459.674	4.12
460.111	4
460.549	5.27
460.987	3.03
461.424	0.99
461.862	0.7
462.299	1.08
462.736	1.61
463.173	1.96
463.611	4.91
464.048	6.27
464.485	7.44
464.922	8.31
465.359	6.75
465.796	17.32
466.233	19.18
466.67	21.78
467.106	21.92
467.543	20.18
467.98	18.37
468.416	15.55
468.853	14.05
469.29	12.31
469.726	11.98
470.162	11.38
470.599	3.93
471.035	1.51
471.471	0.06
471.907	-1.51
472.344	-1.83
472.78	-0.67
473.216	-2.07
473.652	-2.5
474.088	-3.24
474.523	-3.06
474.959	-3.27
475.395	-3.93
475.831	-2.95
476.266	-2.22
476.702	-2.81
477.138	-2.59
477.573	-3.39
478.008	-2.68
478.444	-2.08
478.879	0.12
479.314	-0.03
479.75	0.63
480.185	0.62
480.62	-0.14
481.055	-0.76
481.49	0.42
481.925	1.03
482.36	3.45
482.795	2.76
483.229	2.52
483.664	2.11
484.099	2.18
484.534	2.67
484.968	3.62
485.403	3.49
485.837	2.21
486.271	1.86
486.706	0.89
487.14	-1.01
487.574	-0.49
488.009	-0.29
488.443	-1.11
488.877	-0.28
489.311	-1.16
489.745	-1.77
490.179	-1.24
490.613	1.28
491.046	0.18
491.48	0.61
491.914	1.2
492.348	1.32
492.781	1.52
493.215	2.11
493.648	1.1
494.082	1.04
494.515	1.42
494.948	2.38
495.382	0.74
495.815	1.18
496.248	1.27
496.681	0.69
497.114	-0.2
497.547	-0.02
497.98	0.51
498.413	2.22
498.846	2.5
499.279	1.89
499.711	0.98
500.144	1
500.577	2.28
501.009	2.08
501.442	3.54
501.874	4.85
502.306	4.57
502.739	6.69
503.171	5.77
503.603	6.23
504.036	6.28
504.468	6.65
504.9	6.58
505.332	5.44
505.764	6.32
506.196	5.41
506.627	5.43
507.059	5.32
507.491	1.96
507.923	1.97
508.354	1.75
508.786	2.25
509.217	2.17
509.649	2.29
510.08	1.95
510.512	1.98
510.943	2.26
511.374	1.99
511.805	1.5
512.237	1.46
512.668	0.7
513.099	-0.14
513.53	-0.31
513.961	-0.19
514.391	-0.64
514.822	1.65
515.253	1.44
515.684	0.77
516.114	1.02
516.545	2.23
516.975	2.67
517.406	2.84
517.836	3
518.267	3.05
518.697	4.14
519.127	4.45
519.558	2.89
519.988	2.4
520.418	2.35
520.848	1.18
521.278	0.62
521.708	33.6
522.138	34.26
522.567	33.32
522.997	32.93
523.427	31.59
523.857	31.64
524.286	31.66
524.716	32.23
525.145	32.7
525.575	33.6
526.004	32.61
526.433	-0.31
526.863	-0.72
527.292	1.73
527.721	2.68
528.15	2.89
528.579	2.8
529.008	2.76
529.437	1.71
529.866	1.16
530.295	0.49
530.724	2.15
531.152	2.51
531.581	2.93
532.01	2.24
532.438	1.33
532.867	0.78
533.295	1.28
533.723	1.27
534.152	1.55
534.58	1.95
535.008	2.24
535.436	2.96
535.865	2.75
536.293	1.68
536.721	1.11
537.149	1.43
537.576	2.96
538.004	3.21
538.432	2.93
538.86	3.48
539.287	3.15
539.715	3.25
540.143	1.71
540.57	1.87
540.998	1.85
541.425	3.44
541.852	3.23
542.28	2.01
542.707	1.5
543.134	2.09
543.561	2.03
543.988	2.47
544.415	2.63
544.842	2.16
545.269	2.58
545.696	3.28
546.123	2.28
546.549	2.35
546.976	3.25
547.403	2.93
547.829	1.78
548.256	1.61
548.682	1.76
549.108	2.41
549.535	2.94
549.961	2.16
550.387	2.07
550.813	3.14
551.24	3.09
551.666	1.92
552.092	2.22
552.518	2.44
552.943	3.39
553.369	3.13
553.795	2.48
554.221	2.55
554.646	2.69
555.072	4.13
555.498	2.08
555.923	1.71
556.349	2.16
556.774	2.09
557.199	2.11
557.625	0.89
558.05	0.82
558.475	0.76
558.9	0.91
559.325	1.77
559.75	1.09
560.175	1.82
560.6	1.34
561.025	0.5
561.449	0.62
561.874	0.25
562.299	0.9
562.723	0.9
563.148	0.81
563.572	0.07
563.997	-0.36
564.421	-1.63
564.846	-2.26
565.27	-1.9
565.694	-1.43
566.118	-1.86
566.542	-0.6
566.966	-0.82
567.39	-0.91
567.814	-0.51
568.238	-0.22
568.662	-0.95
569.086	-0.42
569.509	-0.02
569.933	2.03
570.357	2.47
570.78	2.22
571.204	2.82
571.627	2.57
572.05	2.6
572.474	3.23
572.897	3.33
573.32	4.51
573.743	3.67
574.166	3.96
574.589	2.4
575.012	2.32
575.435	2.64
575.858	2.03
576.281	2.22
576.704	2
577.126	0.69
577.549	0.75
577.972	-0.19
578.394	0.62
578.817	2.56
579.239	2.1
579.661	2.12
580.084	3.18
580.506	3.65
580.928	3.36
581.35	3.35
581.772	4.04
582.194	3.92
582.616	3.81
583.038	2.76
583.46	0.38
583.882	0.85
584.303	-0.33
584.725	-1.65
585.147	2.65
585.568	3.1
585.99	3.94
586.411	4.19
586.833	5.07
587.254	5.23
587.675	5.91
588.096	6.19
588.518	5.84
588.939	6.75
589.36	7.31
589.781	1.49
590.202	3.94
590.623	3.11
591.043	1.98
591.464	1.44
591.885	1.74
592.305	1.25
592.726	1.15
593.147	1.59
593.567	1.42
593.987	1.44
594.408	0.73
594.828	-2.2
595.248	-1.08
595.669	0.42
596.089	-0.12
596.509	-0.81
596.929	-0.71
597.349	-0.23
597.769	-0.47
598.189	0.01
598.608	-0.2
599.028	0.51
599.448	0.49
599.867	-0.16
600.287	-0.99
600.706	-0.38
601.126	0.59
601.545	1.43
601.965	1.43
602.384	1.35
602.803	0.78
603.222	1.01
603.641	0.52
604.061	0.82
604.48	0.83
604.898	0.27
605.317	0.21
605.736	-0.33
606.155	0.3
606.574	0.28
606.992	0.53
607.411	1.1
607.829	0.17
608.248	0.42
608.666	-0.35
609.085	-0.29
609.503	0.11
609.921	0.59
610.339	0.9
610.758	-0.55
611.176	-0.78
611.594	-0.06
612.012	-0.09
612.43	1.3
612.847	1.41
613.265	3.08
613.683	3.2
614.101	3.21
614.518	2.45
614.936	2.15
615.353	2.94
615.771	3.29
616.188	3.26
616.606	2.84
617.023	2.78
617.44	3.06
617.857	1.44
618.274	0.95
618.691	1.94
619.108	1.96
619.525	1.6
619.942	1.94
620.359	1.92
620.776	1.22
621.192	2.21
621.609	2.33
622.026	2.47
622.442	3.58
622.859	3.15
623.275	1.89
623.691	1.52
624.108	2.38
624.524	1.88
624.94	1.68
625.356	1.15
625.772	0.03
626.188	-0.48
626.604	-0.21
627.02	-0.42
627.436	0.53
627.852	2.53
628.268	3.59
628.683	2.72
629.099	2.55
629.514	2.38
629.93	2.47
630.345	2.8
630.761	2.24
631.176	1.75
631.591	3.17
632.007	3.22
632.422	0.86
632.837	-0.23
633.252	1.27
633.667	1.38
634.082	1.8
634.497	2.87
634.911	4.7
635.326	5.57
635.741	5.65
636.155	4.67
636.57	5.39
636.984	6.13
637.399	8.12
637.813	7.23
638.228	6.81
638.642	5.96
639.056	5.6
639.47	4.22
639.884	4.26
640.298	4.9
640.712	5.38
641.126	5.29
641.54	4.8
641.954	1.94
642.368	1.84
642.781	4.72
643.195	5.12
643.609	5.47
644.022	4.69
644.436	3.97
644.849	2.62
645.262	0.86
645.676	-1.05
646.089	-0.5
646.502	1.49
646.915	0.48
647.328	-0.85
647.741	0.02
648.154	-0.4
648.567	2.99
648.98	3.27
649.393	3.83
649.805	4.48
650.218	5.43
650.631	5.88
651.043	5.87
651.456	7.3
651.868	6.42
652.28	4.91
652.693	4.26
653.105	1.8
653.517	1.41
653.929	1.15
654.341	1.85
654.753	2.7
655.165	1.36
655.577	0.78
655.989	0.73
656.401	-0.04
656.813	1.84
657.224	1.71
657.636	0.84
658.047	2.18
658.459	2.57
658.87	0.47
659.282	-0.04
659.693	1.93
660.104	2.53
660.515	1.73
660.926	1.71
661.338	0.63
661.749	0.37
662.159	2.18
662.57	0.6
662.981	0.35
663.392	1.26
663.803	0.95
664.213	-0.3
664.624	-0.34
665.035	-0.99
665.445	-1.32
665.855	-0.54
666.266	0.84
666.676	-0.05
667.086	-0.41
667.497	0.61
667.907	0.97
668.317	0.72
668.727	4.31
669.137	2.97
669.547	3.49
669.956	2.77
670.366	2.61
670.776	3.19
671.186	2.56
671.595	3.34
672.005	2.18
672.414	2.6
672.824	3.37
673.233	-0.82
673.642	-0.07
674.052	0.78
674.461	2.63
674.87	2.1
675.279	2.34
675.688	1.66
676.097	2.82
676.506	2.65
676.915	1.91
677.323	1.92
677.732	2.8
678.141	1.85
678.549	1.56
678.958	0.76
679.366	-0.06
679.775	-2.36
680.183	0.36
680.592	-0.51
681	-0.72
681.408	-0.06
681.816	-0.39
682.224	-1.52
682.632	0.78
683.04	0.11
683.448	-0
683.856	0.88
684.264	2.56
684.671	-0.22
685.079	-0.88
685.487	-1.1
685.894	-2.5
686.302	-3.78
686.709	-2.24
687.116	-3.37
687.524	-2.43
687.931	-1.06
688.338	-1.51
688.745	-3.55
689.152	-3.25
689.559	-2.05
689.966	0.33
690.373	1.78
690.78	3.25
691.187	3.02
691.593	2.75
692	2.14
692.407	2
692.813	5.29
693.22	6.82
693.626	5.76
694.032	5.71
694.439	4.8
694.845	4.04
695.251	3.85
695.657	3.74
696.063	2.21
696.469	2
696.875	1.93
697.281	-0.48
697.687	-0.7
698.093	0.24
698.498	0.55
698.904	-1.21
699.31	-0.91
699.715	0.58
700.12	-0.08
700.526	1.22
700.931	1.67
701.337	1.98
701.742	2.95
702.147	2.29
702.552	2.33
702.957	0.38
703.362	1.28
703.767	1.2
704.172	-0.25
704.577	-0.41
704.981	-1.43
705.386	-1.26
705.791	-1.99
706.195	-3.27
706.6	-2.47
707.004	-3.93
707.408	-3.4
707.813	-2.16
708.217	-1.32
708.621	-1.94
709.025	-2.38
709.43	0.03
709.834	-0.3
710.237	-0.29
710.641	-0.13
711.045	-0.17
711.449	1.6
711.853	6.05
712.256	4.86
712.66	4.09
713.064	4.3
713.467	6.08
713.87	4.53
714.274	5.85
714.677	6.63
715.08	7.49
715.484	7.66
715.887	10.54
716.29	6.17
716.693	7.58
717.096	8.38
717.499	9.09
717.901	7.79
718.304	7.78
718.707	6.15
719.109	5.99
719.512	4.19
719.915	7.2
720.317	5.05
720.719	3.02
721.122	2.35
721.524	2.5
721.926	7.39
722.328	7.83
722.731	8.16
723.133	8.39
723.535	8.42
723.937	8.23
724.338	7.18
724.74	8.85
725.142	64.53
725.544	68.29
725.945	81.36
726.347	75.57
726.748	75.74
727.15	76.47
727.551	79.38
727.952	77.39
728.354	76.87
728.755	75.55
729.156	72.83
729.557	20
729.958	15.37
730.359	3.22
730.76	3.71
731.161	3.62
731.562	2.09
731.962	-1.34
732.363	-0.52
732.763	-0.02
733.164	-2.17
733.564	-0.71
733.965	0.48
734.365	1.73
734.766	1.31
735.166	1.32
735.566	2.64
735.966	3.18
736.366	4.08
736.766	3.34
737.166	2.9
737.566	4.5
737.966	3.28
738.365	2.88
738.765	3.72
739.165	3.43
739.564	3.33
739.964	0.73
740.363	-0.28
740.763	-2.05
741.162	0.58
741.561	0.5
741.96	0.79
742.36	-0.01
742.759	0.91
743.158	-1.51
743.557	-2.08
743.955	-3.1
744.354	-2.29
744.753	-1.91
745.152	-0.25
745.55	-3.42
745.949	-2.92
746.348	-2.92
746.746	-4.61
747.144	-2.54
747.543	-2.71
747.941	-2.36
748.339	-0.63
748.737	0.16
749.136	0.82
749.534	-0.23
749.932	2.79
750.33	1.98
750.727	0.28
751.125	3.4
751.523	0.56
751.921	5.43
752.318	5
752.716	5.68
753.113	4.78
753.511	4.47
753.908	5.23
754.305	9.48
754.703	9.54
755.1	11.28
755.497	10.33
755.894	9.96
756.291	5.97
756.688	7.55
757.085	4.86
757.482	6.47
757.878	9.74
758.275	10.89
758.672	1.31
759.068	2.34
759.465	0.34
759.861	-1.54
760.258	-3.88
760.654	-4.61
761.05	-6.45
761.447	-5.5
761.843	-5.51
762.239	-6.22
762.635	-9.26
763.031	-11.99
763.427	-10.76
763.822	-8.35
764.218	-7.32
764.614	-4.48
765.01	-4.79
765.405	-5.53
765.801	-3.34
766.196	-3.27
766.592	-4.83
766.987	-2.46
767.382	-0.43
767.778	0.05
768.173	-1.67
768.568	-2.15
768.963	-1.96
769.358	-1.02
769.753	1.85
770.148	2.27
770.542	1.24
770.937	0.55
771.332	-0.09
771.726	-1.11
772.121	2.53
772.515	3.41
772.91	4.71
773.304	5.02
773.699	4.92
774.093	3.57
774.487	2.79
774.881	2.67
775.275	4.32
775.669	3.77
776.063	4.31
776.457	2.02
776.851	2.51
777.245	3.25
777.638	2.46
778.032	1.56
778.425	1.63
778.819	4.79
779.212	8.48
779.606	10.7
779.999	11.05
780.392	12.92
780.786	10.99
781.179	11.38
781.572	10.26
781.965	11.16
782.358	11.5
782.751	11.86
783.143	8.51
783.536	6.6
783.929	2.31
784.322	2.2
784.714	0.36
785.107	1.99
785.499	2.05
785.891	4.49
786.284	3.23
786.676	2.55
787.068	3.97
787.46	5.68
787.852	4.19
788.245	4.9
788.636	2.64
789.028	5.17
789.42	6.22
789.812	6.86
790.204	5.75
790.595	8.07
790.987	9.39
791.378	8.45
791.77	6.45
792.161	6.32
792.553	6.24
792.944	9.09
793.335	5.41
793.726	3.32
794.117	4.46
794.508	1.18
794.899	-0.63
795.29	-1.42
795.681	-3.5
796.072	-3.93
796.463	17.63
796.853	22.95
797.244	23.33
797.634	25.61
798.025	26.28
798.415	21.5
798.806	25.53
799.196	27.9
799.586	32.44
799.976	34.85
800.366	35.81
800.756	12.7
801.146	7.92
801.536	6.7
801.926	5.56
802.316	7.96
802.706	10.68
803.095	8.8
803.485	7.71
803.874	2.05
804.264	0.8
804.653	2.49
805.043	6.82
805.432	10.07
805.821	12.91
806.21	13.68
806.599	8.77
806.988	10.27
807.377	8.33
807.766	6.52
808.155	8.28
808.544	7.46
808.933	7.45
809.321	10.27
809.71	5.2
810.098	3.08
810.487	-0.15
810.875	-0.88
811.264	-0.57
811.652	11.24
812.04	11.27
812.428	13.16
812.816	11.65
813.204	10.9
813.592	1.17
813.98	3.43
814.368	9.39
814.756	14.38
815.144	16.7
815.531	19.3
815.919	6.99
816.306	11.18
816.694	11.35
817.081	13.51
817.469	15.62
817.856	13.18
818.243	9.54
818.63	3.65
819.017	2.42
819.404	5.92
819.791	0.09
820.178	-3.12
820.565	-2.12
820.952	7.81
821.339	13.03
821.725	12.01
822.112	17.45
822.498	20.54
822.885	18.22
823.271	16.2
823.657	8.26
824.044	10.73
824.43	12.85
824.816	19.02
825.202	14.58
825.588	11.8
825.974	12.73
826.36	13.32
826.746	12.72
827.132	13.74
827.517	20.5
827.903	25.21
828.289	28.09
828.674	25.95
829.06	21.15
829.445	14.6
829.83	9.52
830.216	9.21
830.601	14.3
830.986	24.03
831.371	23.73
831.756	23.1
832.141	32.96
832.526	34.66
832.911	38.94
833.295	36.15
833.68	35.97
834.065	43.16
834.449	39.76
834.834	36.65
835.218	33.42
835.603	36.39
835.987	30.89
836.371	22.52
836.755	21.57
837.139	17.88
837.524	14.45
837.908	14.08
838.291	11.22
838.675	12.24
839.059	12.52
839.443	9.83
839.827	5.16
840.21	2.44
840.594	6.05
840.977	3.15
841.361	4.33
841.744	2.09
842.127	2.43
842.511	0.07
842.894	-2.95
843.277	-9.28
843.66	-15.48
844.043	-11.31
844.426	-5.02
844.809	-12.78
845.191	-10.09
845.574	-8.97
845.957	-6.45
846.339	-4.2
846.722	-1.27
847.104	-0.87
847.487	-2.78
847.869	0.97
848.252	3.07
848.634	4.15
849.016	5.9
849.398	0.9
849.78	-2.87
850.162	1.72
850.544	0.69
850.926	-6.75
851.307	-9.25
851.689	-3.79
852.071	-7.21
852.452	-8.85
852.834	-9.69
853.215	-3.92
853.597	-1.8
853.978	5.94
854.359	3.37
854.741	8.54
855.122	11.45
855.503	11.63
855.884	13.27
856.265	14.97
856.646	9.58
857.026	11.27
857.407	11.7
857.788	10.34
858.169	2.83
858.549	11.17
858.93	8.22
859.31	10.31
859.69	16.08
860.071	15.59
860.451	17.25
860.831	20.5
861.211	16.83
861.591	10.65
861.971	10.02
862.351	10.96
862.731	2.26
863.111	3.21
863.491	9.62
863.87	7.23
864.25	3.08
864.629	7.56
865.009	2.17
865.388	4.58
865.768	0.4
866.147	4.86
866.526	8.33
866.905	10.79
867.284	-0.2
867.663	-9.25
868.042	-11.74
868.421	-9.94
868.8	-17.17
869.179	-9.54
869.558	-13.65
869.936	-6.43
870.315	-10.94
870.693	-5.99
871.072	-13.61
871.45	-10.62
871.828	-2.2
872.207	1.74
872.585	3.97
872.963	4.11
873.341	9.13
873.719	23.72
874.097	23.47
874.475	20.42
874.853	11.31
875.23	16.41
875.608	21.39
875.986	16.07
876.363	13.03
876.741	18.6
877.118	33.05
877.495	30.79
877.873	17.61
878.25	15.2
878.627	20.52
879.004	23.96
879.381	18.85
879.758	21.53
880.135	20.73
880.512	24.14
880.889	10.29
881.265	-2.38
881.642	-8.67
882.019	-7.34
882.395	3.14
882.772	4.4
883.148	11.47
883.524	16.65
883.901	11.37
884.277	6.55
884.653	1.76
885.029	13.22
885.405	24.12
885.781	28.19
886.157	28.25
886.532	20.82
886.908	22.15
887.284	18.55
887.659	21.27
888.035	24.22
888.411	29.67
888.786	33.2
889.161	30.96
889.537	20.08
889.912	21.16
890.287	21.89
890.662	22.34
891.037	15.82
891.412	11.74
891.787	1.75
892.162	8.02
892.536	7.45
892.911	12.49
893.286	6.41
893.66	7.91
894.035	8.86
894.409	3.2
894.784	10.23
895.158	11.11
895.532	16.42
895.906	25.68
896.281	22.25
896.655	26.98
897.029	21.28
897.402	20.46
897.776	10.99
898.15	7.77
898.524	14.47
898.898	7.92
899.271	15.26
899.645	14.18
900.018	6.97
900.392	6.59
900.765	2.87
901.138	5.83
901.511	10.84
901.884	33.24
902.258	35.73
902.631	41.64
903.003	37.01
903.376	25.04
903.749	21.93
904.122	20.36
904.495	8.49
904.867	-2.98
905.24	1.01
905.612	3.06
905.985	-18.47
906.357	-28.45
906.729	-24.87
907.102	-7.46
907.474	0.98
907.846	10.11
908.218	17.47
908.59	36.34
908.962	33.64
909.334	36.39
909.705	42.9
910.077	45.65
910.449	41.58
910.82	46.21
911.192	45.06
911.563	53.73
911.935	41.59
912.306	25.44
912.677	-7.61
913.048	11.82
913.419	1.91
913.79	-17.42
914.161	-26.88
914.532	-3.5
914.903	-18
915.274	-17.7
915.645	-18.11
916.015	-19.08
916.386	-14.97
916.756	2.33
917.127	-9.91
917.497	1.17
917.868	10.73
918.238	17.03
918.608	13.16
918.978	19.14
919.348	21.28
919.718	25.86
920.088	31.93
920.458	42.99
920.828	31.85
921.198	42.11
921.567	45.7
921.937	39.64
922.306	23.76
922.676	15.04
923.045	28.2
923.415	29.59
923.784	17.18
924.153	23.39
924.522	31.95
924.891	29.07
925.26	17.68
925.629	9.02
925.998	11.12
926.367	22.96
926.736	45.06
927.104	36.35
927.473	31.69
927.842	40.01
928.21	19.37
928.578	-3.8
928.947	21.68
929.315	42.48
929.683	68.75
930.051	70.49
930.42	91.75
930.788	68.7
931.156	74.44
931.523	96.21
931.891	95.46
932.259	116.4
932.627	159.49
932.994	195.76
933.362	196.06
933.729	161.3
934.097	138.12
934.464	123.91
934.831	104.84
935.199	74.98
935.566	66.93
935.933	131.24
936.3	157.09
936.667	108.22
937.034	191.91
937.401	167.36
937.767	153.89
938.134	145.52
938.501	175.34
938.867	234.45
939.234	408.23
939.6	303.96
939.967	210.03
940.333	160.57
940.699	117.27
941.065	-15.25
941.431	-23.03
941.798	34.27
942.163	76.58
942.529	28.8
942.895	12.85
943.261	15.07
943.627	25.63
943.992	33.84
944.358	33.36
944.723	71.67
945.089	80.19
945.454	80.08
945.82	61.04
946.185	37.28
946.55	73.64
946.915	70
947.28	101.98
947.645	96.66
948.01	111.21
948.375	123.9
948.74	115.08
949.104	119.6
949.469	109.31
949.834	177.91
950.198	302.6
950.562	210.17
950.927	171.32
951.291	174.31
951.655	158.42
952.02	87.06
952.384	53.92
952.748	76.39
953.112	130.29
953.476	127.47
953.839	117.5
954.203	123.47
954.567	122.93
954.931	141.47
955.294	146.07
955.658	110.01
956.021	212.12
956.385	298.25
956.748	432.04
957.111	247.17
957.474	137.77
957.837	-14.77
958.2	-241.84
958.563	-39.61
958.926	45.49
959.289	41.15
959.652	118.71
960.015	96.71
960.377	121.17
960.74	92.66
961.102	19.17
961.465	183.62
961.827	536.59
962.189	991.04
962.552	710.37
962.914	540.52
963.276	335.6
963.638	252.59
964	188.56
964.362	188.46
964.724	159.85
965.085	138.88
965.447	119.9
965.809	48.58
966.17	35.08
966.532	19.79
966.893	10.53
967.255	6.33
967.616	0.44
967.977	14.62
968.338	-9.3
968.699	26.14
969.061	28.44
969.421	22.51
969.782	11.21
970.143	37.03
970.504	77.28
970.865	95.52
971.225	126.95
971.586	131.81
971.946	153.43
972.307	105.81
972.667	63.54
973.027	61.73
973.388	79.71
973.748	89.97
974.108	102
974.468	38.88
974.828	93.91
975.188	45.8
975.548	35.02
975.907	52.79
976.267	84.01
976.627	109.9
976.986	101.6
977.346	88.13
977.705	81.89
978.064	54.72
978.424	55.35
978.783	30.93
979.142	38.35
979.501	51.8
979.86	54.33
980.219	47.81
980.578	22.64
980.937	19.08
981.296	36.71
981.654	20.35
982.013	22.19
982.371	61.3
982.73	67.48
983.088	51.22
983.447	61.78
983.805	86.05
984.163	135.15
984.521	66.02
984.879	-171.88
985.237	259.6
985.595	166.26
985.953	30.18
986.311	-87.64
986.669	-52.53
987.026	-66.31
987.384	-143.66
987.741	-168.27
988.099	-32.02
988.456	-15.44
988.814	21.79
989.171	12.97
989.528	-14.63
989.885	-38.25
990.242	24.04
990.599	-4.67
990.956	16.92
991.313	15.1
991.67	24.93
992.027	64.09
992.383	63.75
992.74	71.25
993.096	85.04
993.453	86.1
993.809	89.87
994.165	96.53
994.522	158.21
994.878	161.23
995.234	207.91
995.59	190.41
995.946	88.19
996.302	100.6
996.658	77.43
997.013	37.25
997.369	98.79
997.725	203.86
998.08	123.64
998.436	-40.89
998.791	-33.91
999.147	10.85
999.502	34.11
999.857	2.77
1000.212	-31.05
1000.567	7.94
1000.922	32.73
1001.277	-5.42
1001.632	-32.63
1001.987	-63.74
1002.342	-23.96
1002.696	2.88
1003.051	33.39
1003.406	20.75
1003.76	24.35
1004.114	41.16
1004.469	34.68
1004.823	47.24
1005.177	52.47
1005.531	44.93
1005.885	62.02
1006.239	86.71
1006.593	117.05
1006.947	124.08
1007.301	100.99
1007.655	99.38
1008.008	86.48
1008.362	92.22
1008.715	93.74
1009.069	65.85
1009.422	185.65
1009.776	255.18
1010.129	119.84
1010.482	66.86
1010.835	-7.95
1011.188	7.65
1011.541	33.81
1011.894	446.08
1012.247	-772.58
1012.6	2.31
1012.952	69.82
1013.305	-51.08
1013.657	-11.48
1014.01	-7.84
1014.362	-18.6
1014.715	48.66
1015.067	47.33
1015.419	44
1015.771	45.55
1016.123	58.1
1016.475	64.2
1016.827	69.29
1017.179	106.09
1017.531	89.59
1017.883	98.88
1018.234	162.51
1018.586	185.94
1018.938	236.17
1019.289	340.04
1019.64	371.18
1019.992	309.7
1020.343	260.38
1020.694	235.24
1021.045	189.18
1021.396	228.93
1021.747	254.99
1022.098	178.46
1022.449	128.83
1022.8	121.19
1023.151	111.33
1023.501	127.19
1023.852	133.98
1024.202	177.86
1024.553	155.77
1024.903	187.39
1025.253	194.85
1025.604	187.99
1025.954	224.45
1026.304	245.23
1026.654	261.33
1027.004	278.22
1027.354	344.15
1027.703	397.67
1028.053	352.62
1028.403	679.27
1028.753	564.99
1029.102	4.77
1029.452	-3158.29
1029.801	-148.13
1030.15	-105.99
1030.499	-144.16
897.758	1890.22
901.051	1817.25
904.343	1851.04
907.636	1860.36
910.928	1916.28
914.22	1844.63
917.511	1848.27
920.803	1886.2
924.094	1877.51
927.384	1888.22
930.675	1850.49
933.965	1821.58
937.255	1854.69
940.544	1827.9
943.834	1814.01
947.123	1762.64
950.411	1842.52
953.7	1825.61
956.988	1821.31
960.276	1754.34
963.563	1789.83
966.851	1802.76
970.138	1833.48
973.424	1836.87
976.711	1792.32
979.997	1837.83
983.283	1871.41
986.568	1813.66
989.853	1798.24
993.138	1815.51
996.423	1898.02
999.708	1865.42
1002.992	1890.43
1006.275	1807.68
1009.559	1809.74
1012.842	1893.1
1016.125	1854.52
1019.408	1837.67
1022.69	1877.97
1025.972	1908.24
1029.254	1887.74
1032.536	1861.11
1035.817	1860.48
1039.098	1833.96
1042.379	1878.27
1045.659	1899.71
1048.939	1853.95
1052.219	1857.05
1055.498	1843.69
1058.778	1842.85
1062.057	1818.83
1065.335	1839.42
1068.614	1845.86
1071.892	1847.56
1075.17	1883.16
1078.447	1889.46
1081.724	1883.83
1085.001	1901.49
1088.278	1880.56
1091.554	1883.18
1094.83	1875.92
1098.106	1908.97
1101.382	1930.73
1104.657	1927.79
1107.932	1924.42
1111.206	1912.63
1114.481	1864.51
1117.755	1866.11
1121.029	1864.07
1124.302	1914.71
1127.575	1889.03
1130.848	1889.91
1134.121	1864.36
1137.393	1833.45
1140.665	1882.25
1143.937	1865.15
1147.208	1814.26
1150.48	1871.52
1153.75	1859.32
1157.021	1853.78
1160.291	1836.94
1163.561	1883.56
1166.831	1846.85
1170.101	1868.12
1173.37	1828.33
1176.639	1794.96
1179.907	1831.65
1183.176	1856.16
1186.444	1857.63
1189.711	1877.75
1192.979	1900.74
1196.246	1863.89
1199.513	1873.1
1202.78	1880.04
1206.046	1888.2
1209.312	1914.81
1212.578	1925.46
1215.843	1899.5
1219.108	1871.89
1222.373	1891.73
1225.638	1873.65
1228.902	1868.6
1232.166	1830.94
1235.43	1824.12
1238.693	1851.07
1241.956	1841.29
1245.219	1888.88
1248.482	1871.6
1251.744	1871.5
1255.006	1968.22
1258.268	1919.92
1261.529	1884.07
1264.79	1883.41
1268.051	1962.12
1271.312	1969.52
1274.572	1941.95
1277.832	1929.56
1281.092	1909.58
1284.351	1906.6
1287.61	1894.69
1290.869	1842.18
1294.128	1843.9
1297.386	1872.69
1300.644	1867
1303.902	1876.22
1307.159	1763.08
1310.416	1807.57
1313.673	1834.11
1316.93	1834.49
1320.186	1857.06
1323.442	1883.52
1326.697	1890.48
1329.953	1864.44
1333.208	1902.35
1336.463	1878.32
1339.717	1853.79
1342.972	1943.95
1346.226	1918.47
1349.479	1881.95
1352.733	1868.3
1355.986	1869.73
1359.238	1855.18
1362.491	1860.1
1365.743	1861.27
1368.995	1854.46
1372.247	1868.43
1375.498	1885.1
1378.749	1930.65
1382	1888.61
1385.251	1916.13
1388.501	1876.1
1391.751	1885.07
1395	1857.48
1398.25	1881.22
1401.499	1909.06
1404.748	1870.66
1407.996	1853.09
1411.244	1844.9
1414.492	1832.14
1417.74	1824.83
1420.987	1827.33
1424.234	1879.78
1427.481	1842.45
1430.728	1891.27
1433.974	1872.66
1437.22	1865.25
1440.465	1859.96
1443.711	1867.42
1446.956	1885.95
1450.201	1855.17
1453.445	1890.84
1456.689	1883.92
1459.933	1891.32
1463.177	1926.4
1466.42	1903.95
1469.663	1887.71
1472.906	1907.15
1476.148	1946.32
1479.391	1904.66
1482.633	1882.91
1485.874	1909.63
1489.115	1916.79
1492.356	1894.5
1495.597	1878.06
1498.838	1866.56
1502.078	1855.56
1505.318	1832.94
1508.557	1858.57
1511.797	1856.64
1515.036	1904.53
1518.274	1870.89
1521.513	1819.84
1524.751	1826.99
1527.989	1848.63
1531.227	1862.56
1534.464	1878.16
1537.701	1866.82
1540.938	1874.78
1544.174	1825.26
1547.41	1812.8
1550.646	1843.94
1553.882	1887.42
1557.117	1938.38
1560.352	1940.6
1563.587	1908.48
1566.821	1881.79
1570.055	1888.86
1573.289	1870.97
1576.523	1915.82
1579.756	1930.95
1582.989	1946.62
1586.222	1909.52
1589.454	1933.23
1592.686	1921.37
1595.918	1945.94
1599.15	1942.86
1602.381	1976.01
1605.612	1965.62
1608.843	2042.51
1612.073	1977.38
1615.303	1968.34
1618.533	1966.89
1621.762	1964.57
1624.992	1940.59
1628.221	1943.65
1631.449	1932.46
1634.678	1947.33
1637.906	1919.51
1641.134	1940.3
1644.361	1911.83
1647.588	1905.45
1650.815	1924.69
1654.042	1890.78
1657.269	1914.74
1660.495	1901.87
1663.72	1881.11
1666.946	1855.15
1670.171	1844.16
1673.396	1820.88
1676.621	1804.48
1679.845	1798.35
1683.069	1797.62
1686.293	1820.69
1689.517	1818.6
1692.74	1783.47
1695.963	1798.22
1699.185	1839.28
1702.408	1818.97
1705.63	1840.31
1708.852	1859.2
1712.073	1833.24
1715.294	1849.84
1718.515	1887.21
1721.736	1855.17
1724.956	1833.01
1728.176	1852.17
1731.396	1872.54
1734.616	1862
1737.835	1897.19
1741.054	1869.3
1744.272	1863.23
1747.491	1902.46
1750.709	1913.37
1753.927	1880.54
1757.144	1897.12
1760.361	1954.9
1763.578	1924.35
1766.795	1883.5
1770.011	1869.55
1773.227	1888.35
1776.443	1928.48
1779.658	1964.23
1782.874	1912.68
1786.089	1912.39
1789.303	1914.81
1792.518	1911.29
1795.732	1899.68
1798.945	1918.45
1802.159	1954.36
1805.372	1914.75
1808.585	1909.19
1811.797	1910.12
1815.01	1924.94
1818.222	1952.06
1821.434	1911.25
1824.645	1943.27
1827.856	1959.25
1831.067	1984.29
1834.278	1928.48
1837.488	1916.28
1840.698	2017.95
1843.908	1975.75
1847.117	1949.34
1850.326	1895.32
1853.535	1938.21
1856.744	1978.57
1859.952	1917.28
1863.16	1920
1866.368	1934.59
1869.575	2041.79
1872.782	1938.33
1875.989	1880.96
1879.196	1918.57
1882.402	1916.24
1885.608	1945.68
1888.814	1907.32
1892.019	1833.51
1895.224	1880.27
1898.429	1847.63
1901.634	1836.15
1904.838	1812.37
1908.042	1870.74
1911.246	1885.92
1914.449	1861.03
1917.652	1841.38
1920.855	1823.11
1924.058	1838.83
1927.26	1881.71
1930.462	1900.9
1933.664	1942
1936.865	1894.1
1940.066	1912.83
1943.267	1858.48
1946.467	1867.05
1949.668	1881.52
1952.868	1945.27
1956.067	1941.11
1959.267	1891.68
1962.466	1911.5
1965.665	1891.53
1968.863	1887.09
1972.061	1883.11
1975.259	1874.56
1978.457	1943.09
1981.654	1906.21
1984.852	1910.42
1988.048	1872.56
1991.245	1857.85
1994.441	1936.59
1997.637	1887.5
2000.833	1874.94
2004.028	1903.89
2007.223	1962.86
2010.418	1953.71
2013.613	1906.08
2016.807	1908.46
2020.001	1897.82
2023.194	1913.82
2026.388	1899.75
2029.581	1849.84
2032.774	1913.73
2035.966	1924.8
2039.158	1879.33
2042.35	1894.91
2045.542	1827.58
2048.733	1896.66
2051.924	1879.86
2055.115	1892.17
2058.306	1865.35
2061.496	1915.88
2064.686	1953.22
2067.875	1867.6
2071.065	1862.26
2074.254	1877.75
2077.442	1837.54
2080.631	1912.07
2083.819	1862.55
2087.007	1855.79
2090.195	1845.63
2093.382	1853.21
2096.569	1841.01
2099.756	1810.47
2102.942	1859.11
2106.128	1877.6
2109.314	1864.96
2112.5	1857.34
2115.685	1826.51
2118.87	1832.41
2122.055	1888.88
2125.239	1873.91
2128.424	1868
2131.608	1906.51
2134.791	1891.02
2137.974	1920.05
2141.157	1909.66
2144.34	1890.72
2147.523	1873.97
2150.705	1900.53
2153.887	1866.7
2157.068	1849.44
2160.25	1824.5
2163.431	1841.18
2166.611	1821.57
2169.792	1843.96
2172.972	1766.68
2176.152	1807.6
2179.331	1828.98
2182.511	1838.5
2185.69	1855.42
2188.868	1865.02
2192.047	1888.47
2195.225	1913.4
2198.403	1865.72
2201.58	1852.27
2204.758	1837.5
2207.935	1903.41
2211.111	1834.21
2214.288	1825.02
2217.464	1854.52
2220.64	1809.59
2223.815	1851.05
2226.991	1795.22
2230.166	1808.1
2233.34	1851.35
2236.515	1860.8
2239.689	1917.38
2242.863	1876.02
2246.036	1921.43
2249.209	1901.57
2252.382	1914.92
2255.555	1931.76
2258.727	1890.44
2261.9	1912.81
2265.071	1906.64
2268.243	1905.02
2271.414	1863.37
2274.585	1854.95
2277.756	1907.84
2280.926	1868.34
2284.096	1891.82
2287.266	1835.34
2290.436	1875.62
2293.605	1892.29
2296.774	1932.06
2299.942	1928.59
2303.111	1941.67
2306.279	1990.45
2309.447	1976.58
2312.614	1949.4
2315.781	1974.02
2318.948	1953.87
2322.115	1987.71
2325.281	1895.35
2328.447	1897.55
2331.613	1868.59
2334.779	1868.49
2337.944	1861.65
2341.109	1865.13
2344.274	1857.01
2347.438	1825.99
2350.602	1846.31
2353.766	1854.1
2356.929	1846.06
2360.092	1878.67
2363.255	1857.4
2366.418	1836.81
2369.58	1877.86
2372.742	1807.51
2375.904	1789.29
2379.066	1779.53
2382.227	1804.86
2385.388	1770.06
2388.548	1731.99
2391.709	1764.26
2394.869	1758.93
2398.029	1794.73
2401.188	1782.8
2404.347	1763.68
2407.506	1802.04
2410.665	1849.14
2413.823	1827.2
2416.981	1812.83
2420.139	1820.68
2423.296	1857.41
2426.453	1831.3
2429.61	1851.2
2432.767	1835.63
2435.923	1875.52
2439.079	1817.94
2442.235	1843.52
2445.391	1795.5
2448.546	1839.67
2451.701	1864.71
2454.855	1870.12
2458.009	1887.46
2461.163	1875.32
2464.317	1851.14
2467.471	1873.68
2470.624	1894.99
2473.777	1896.28
2476.929	1913.69
2480.082	1930.98
2483.234	1910.91
2486.385	1852.51
2489.537	1845.85
2492.688	1846.31
2495.839	1860
2498.989	1874.3
2502.14	1864.68
2505.29	1864.06
2508.439	1882.12
2511.589	1833.39
2514.738	1827.95
2517.887	1846.25
2521.035	1924.59
2524.183	1876.83
2527.331	1867.24
2530.479	1868.79
2533.627	1869.22
