Data from C_1_DEC_CT_2N_Splice17_11-46-19-536.txt Node
Date: Sat Mar 14 11:46:19 EDT 2020
User: sa697716
Spectrometer: FLMS03696
Trigger mode: 0
Integration Time (sec): 3.180400E-1
Scans to average: 20
Electric dark correction enabled: true
Nonlinearity correction enabled: true
Boxcar width: 5
XAxis mode: Wavelengths
Number of Pixels in Spectrum: 2048
>>>>>Begin Spectral Data<<<<<
187.83	-168911.4
188.298	1390.59
188.766	759.61
189.233	669.48
189.701	1033
190.169	1358.53
190.636	508.41
191.104	469.82
191.571	75.13
192.039	-13.87
192.506	-16.33
192.974	454.02
193.441	-496.95
193.908	-69.48
194.375	-22.62
194.842	78.23
195.31	94.29
195.777	145.84
196.244	269.15
196.711	147.15
197.177	142.58
197.644	113.12
198.111	205.29
198.578	216.72
199.045	156.23
199.511	209.01
199.978	165.86
200.445	168.24
200.911	142.79
201.378	101.65
201.844	118.84
202.31	139.43
202.777	177.67
203.243	88.45
203.709	102.85
204.176	94.05
204.642	103.07
205.108	126.62
205.574	89.43
206.04	52.35
206.506	47.69
206.972	37.36
207.438	48
207.903	44.51
208.369	50.63
208.835	57
209.301	71.28
209.766	55.13
210.232	49.33
210.697	39.01
211.163	36.11
211.628	6.08
212.094	14.99
212.559	86.27
213.024	73.94
213.49	113.19
213.955	88
214.42	40.84
214.885	38.24
215.35	39.25
215.815	135.22
216.28	164.37
216.745	150.67
217.21	190.85
217.675	136.71
218.14	146.22
218.604	128.27
219.069	143.98
219.534	177.61
219.998	174.93
220.463	181.72
220.927	104.15
221.392	89.77
221.856	87.55
222.32	26.65
222.785	38
223.249	7.95
223.713	-3.67
224.177	-1.87
224.642	-70.41
225.106	-89.36
225.57	-101.29
226.034	0.33
226.497	-4.87
226.961	24.65
227.425	116.04
227.889	92.1
228.353	93.29
228.816	171.82
229.28	169.14
229.744	142.76
230.207	143.43
230.671	158.35
231.134	112.51
231.597	203.86
232.061	100.46
232.524	-41.56
232.987	-6.43
233.45	28.09
233.914	11.19
234.377	-25.82
234.84	-19.69
235.303	-48.24
235.766	-69.88
236.229	-85.71
236.691	-86.3
237.154	-104.68
237.617	-24.1
238.08	-43.2
238.542	-69.54
239.005	-28.02
239.468	-9.81
239.93	-7.84
240.393	-3.61
240.855	1.38
241.317	-12
241.78	-35.33
242.242	-8.74
242.704	24.12
243.166	41.16
243.629	75.85
244.091	86.39
244.553	80.91
245.015	117.05
245.477	136.52
245.939	156.1
246.4	196.47
246.862	157.02
247.324	113.83
247.786	21.43
248.247	-40.91
248.709	-195.56
249.17	-145.06
249.632	-60.01
250.093	-21.65
250.555	-5.67
251.016	44.83
251.477	56
251.939	100.22
252.4	101.36
252.861	111.28
253.322	119.81
253.783	138.15
254.244	143.57
254.705	81.34
255.166	1.01
255.627	-7.41
256.088	39.22
256.549	43.04
257.009	9.25
257.47	3.1
257.931	-23.22
258.391	3.37
258.852	-2.05
259.312	1.45
259.773	-8.96
260.233	60.82
260.694	85.88
261.154	44.13
261.614	77.65
262.074	66.53
262.534	77.12
262.994	87.6
263.455	88.11
263.915	99.94
264.374	102.95
264.834	106.69
265.294	83.84
265.754	89.27
266.214	95.5
266.673	84.54
267.133	92.67
267.593	80.04
268.052	113.55
268.512	86.36
268.971	156.84
269.431	172.76
269.89	154.44
270.349	219.18
270.809	228.17
271.268	192.89
271.727	192.94
272.186	156.39
272.645	94.11
273.104	35.07
273.563	81.57
274.022	-63.85
274.481	-33.29
274.94	-16.14
275.399	-26.21
275.857	-50.84
276.316	-90.81
276.775	-62.02
277.233	-50.26
277.692	0.6
278.15	37.79
278.609	73.66
279.067	92
279.525	102.53
279.984	115.33
280.442	173.86
280.9	248.53
281.358	171.95
281.816	166.21
282.274	162.27
282.732	126.94
283.19	88.13
283.648	64.09
284.106	61.67
284.564	39.2
285.021	54.66
285.479	22.45
285.937	-16.73
286.394	14.55
286.852	8.59
287.309	1.46
287.767	34.77
288.224	57.72
288.682	53.32
289.139	77.74
289.596	77.71
290.053	62.55
290.511	76.08
290.968	96.5
291.425	73.39
291.882	101.17
292.339	106.95
292.796	71.96
293.252	53.55
293.709	73.79
294.166	68.77
294.623	65.35
295.079	60.66
295.536	86.2
295.992	88
296.449	87.02
296.905	115.06
297.362	133.94
297.818	127.2
298.274	161.55
298.731	144.05
299.187	114.99
299.643	123.04
300.099	160.99
300.555	157.29
301.011	133.86
301.467	195.72
301.923	155.81
302.379	140.75
302.835	158.34
303.291	122.76
303.746	128.73
304.202	185.88
304.658	165.67
305.113	120.42
305.569	109.73
306.024	79.8
306.479	-5.8
306.935	27.66
307.39	4.74
307.845	3
308.301	29.83
308.756	23.15
309.211	21.05
309.666	26.97
310.121	50.72
310.576	50.53
311.031	70.71
311.486	65.65
311.94	38.75
312.395	18.39
312.85	-78.63
313.305	-1449.66
313.759	-1809.46
314.214	-13.21
314.668	109.56
315.123	241.51
315.577	138.35
316.032	139.41
316.486	176.72
316.94	187.22
317.394	170.11
317.849	151.86
318.303	134.82
318.757	125.77
319.211	135.62
319.665	97.25
320.119	83.71
320.572	94.96
321.026	109.38
321.48	83.03
321.934	58.74
322.387	34.75
322.841	63.16
323.295	125.98
323.748	84.17
324.202	90.06
324.655	130.76
325.108	225.06
325.562	173.23
326.015	164.88
326.468	148.78
326.921	168.41
327.374	190.08
327.827	193.15
328.28	202.03
328.733	163.2
329.186	144.69
329.639	143.72
330.092	95.33
330.545	97.92
330.997	115.71
331.45	152.58
331.903	189.26
332.355	267.4
332.808	231.61
333.26	160.44
333.713	182.2
334.165	171.17
334.617	189.59
335.069	81.01
335.522	37.66
335.974	-36.17
336.426	-136.89
336.878	-166.06
337.33	-52.02
337.782	-52.76
338.234	-38.37
338.686	-74.66
339.137	-113.76
339.589	-107.52
340.041	-25.36
340.493	-6.53
340.944	-4.46
341.396	-4.05
341.847	32.06
342.299	62.61
342.75	102.71
343.201	47.49
343.653	33.81
344.104	31.73
344.555	33.9
345.006	-12.17
345.457	126.2
345.908	87.72
346.359	112.26
346.81	90.16
347.261	48.77
347.712	34.33
348.163	7.55
348.613	95.75
349.064	105.08
349.515	106.7
349.965	127.58
350.416	87.5
350.866	83.32
351.317	75.66
351.767	134.01
352.217	200.91
352.668	205.34
353.118	233.86
353.568	87.32
354.018	115.76
354.468	102.45
354.918	67.97
355.368	52.41
355.818	100.15
356.268	121.45
356.718	1010.41
357.168	364.33
357.617	131.39
358.067	72.26
358.517	59.36
358.966	102.52
359.416	190.86
359.865	260.03
360.315	231.73
360.764	165.78
361.213	113.51
361.663	40.54
362.112	-3.23
362.561	-29.37
363.01	21.2
363.459	14.7
363.908	-68.19
364.357	-11.4
364.806	-72.76
365.255	-34.21
365.703	-49.54
366.152	-44.59
366.601	23.24
367.05	49.85
367.498	63.74
367.947	43
368.395	47
368.844	76.37
369.292	0.57
369.74	19.37
370.189	10.37
370.637	24.06
371.085	14.31
371.533	-34.05
371.981	-66.35
372.429	-32.56
372.877	-23.67
373.325	-13.62
373.773	-52.86
374.221	-23.27
374.669	-62.78
375.116	-44.63
375.564	-79.56
376.012	-104.34
376.459	-85.16
376.907	-106.24
377.354	-165.96
377.801	-139.98
378.249	-148.34
378.696	-156.84
379.143	-175.87
379.591	-211.84
380.038	-367.56
380.485	-157.18
380.932	-175.75
381.379	31.69
381.826	97.79
382.273	79.57
382.72	53.39
383.166	71.46
383.613	46.42
384.06	28.31
384.506	59.17
384.953	50.31
385.4	28.57
385.846	27.73
386.292	-11.31
386.739	-31.8
387.185	-52.36
387.631	-44.64
388.078	-22.23
388.524	-30.81
388.97	-16.11
389.416	-14.44
389.862	-9.44
390.308	-3.2
390.754	3.58
391.2	6.41
391.645	0.13
392.091	45.96
392.537	53.55
392.983	28.06
393.428	62.91
393.874	51.93
394.319	72.3
394.765	80.08
395.21	61.92
395.655	61.4
396.101	61.82
396.546	69.82
396.991	43.6
397.436	36.6
397.881	34.32
398.326	11
398.771	25.14
399.216	13.49
399.661	0.66
400.106	13.82
400.551	17.34
400.995	16.5
401.44	17.24
401.885	18
402.329	19.74
402.774	19.97
403.218	31.66
403.663	26.72
404.107	30.06
404.551	35.29
404.995	31.72
405.44	25.44
405.884	21.78
406.328	13.28
406.772	13.47
407.216	12.2
407.66	9.49
408.104	-0.43
408.547	-2.94
408.991	-4.79
409.435	-6.84
409.879	-4.28
410.322	-4.06
410.766	-1.26
411.209	3.52
411.653	3.51
412.096	7.97
412.54	8.51
412.983	10.01
413.426	16.08
413.869	14.58
414.312	19.92
414.756	16.12
415.199	15.93
415.642	18.38
416.085	17.56
416.527	15.47
416.97	11.09
417.413	11.15
417.856	8.62
418.298	6.15
418.741	5.11
419.184	-0.52
419.626	-4.39
420.069	-4.24
420.511	-3.09
420.953	1.3
421.396	2.49
421.838	-0.7
422.28	-0.22
422.722	1.4
423.164	-2.16
423.606	-0.34
424.048	0.07
424.49	3.04
424.932	2.3
425.374	-0.98
425.816	-5.33
426.258	-7.34
426.699	-3.96
427.141	-1.67
427.582	-4.38
428.024	-3.41
428.465	-7.32
428.907	-8.94
429.348	-9.47
429.789	-7.23
430.231	-3.67
430.672	-2.58
431.113	-1.04
431.554	-0.69
431.995	-2.84
432.436	3.11
432.877	4.5
433.318	8.93
433.759	9.71
434.2	9.96
434.64	8.68
435.081	6.94
435.522	7.31
435.962	5.44
436.403	6.94
436.843	5.85
437.284	3.21
437.724	0.47
438.164	-3.1
438.604	-2.72
439.045	-0.88
439.485	0.02
439.925	-0.33
440.365	-1.71
440.805	-1.4
441.245	-0.33
441.685	0.47
442.125	-1.99
442.564	-1.8
443.004	-0.48
443.444	-0.02
443.883	0.34
444.323	-0.02
444.762	-2.54
445.202	-3.04
445.641	-0.55
446.081	-3.84
446.52	-4.17
446.959	-0.87
447.398	1.21
447.837	1.78
448.276	0.63
448.716	1.4
449.154	-1.97
449.593	0.28
450.032	0.79
450.471	-1.69
450.91	-2.13
451.349	-0.64
451.787	-3.57
452.226	-5.04
452.664	-5.45
453.103	-4.66
453.541	-6.36
453.98	-1.98
454.418	-1.56
454.856	-0.08
455.295	0.73
455.733	1.81
456.171	-0.03
456.609	2.73
457.047	3.84
457.485	5.46
457.923	6.13
458.361	5.44
458.798	2.5
459.236	1.15
459.674	-0.26
460.111	-0.8
460.549	-0.94
460.987	-0.84
461.424	-1.9
461.862	-2.76
462.299	-2.62
462.736	-1.53
463.173	-1.05
463.611	2.8
464.048	3.65
464.485	3.97
464.922	3.2
465.359	2.73
465.796	12.03
466.233	13.53
466.67	16.8
467.106	17.39
467.543	15.59
467.98	14.92
468.416	12.56
468.853	12.4
469.29	12.29
469.726	13.47
470.162	13.12
470.599	4.75
471.035	2.93
471.471	1.64
471.907	-0.67
472.344	-1
472.78	-0.58
473.216	-1.01
473.652	-1.57
474.088	-2.7
474.523	-2.66
474.959	-2.9
475.395	-2.49
475.831	-2.23
476.266	-3.23
476.702	-3.23
477.138	-2.77
477.573	-2.58
478.008	-1.77
478.444	-1.2
478.879	0.63
479.314	1.48
479.75	1.41
480.185	1.46
480.62	0.78
481.055	0.8
481.49	1.93
481.925	2.53
482.36	4.19
482.795	2.71
483.229	2.28
483.664	1.95
484.099	0.9
484.534	1.94
484.968	2.21
485.403	2.11
485.837	1.33
486.271	0.42
486.706	-0.16
487.14	-1.98
487.574	-0.99
488.009	-1.18
488.443	-1.83
488.877	-0.6
489.311	-1.27
489.745	-0.97
490.179	0.11
490.613	2.41
491.046	2.18
491.48	2.4
491.914	3.24
492.348	3.04
492.781	3.44
493.215	3.52
493.648	2.02
494.082	2.51
494.515	2.39
494.948	2.65
495.382	0.4
495.815	1.34
496.248	1.45
496.681	0.4
497.114	-0.47
497.547	-0.03
497.98	0.9
498.413	2.74
498.846	2.78
499.279	2.37
499.711	1.71
500.144	2.28
500.577	2.59
501.009	2.24
501.442	3.4
501.874	4.73
502.306	4.19
502.739	6.91
503.171	5.93
503.603	5.9
504.036	5.93
504.468	6.03
504.9	5.93
505.332	5.57
505.764	5.61
506.196	5.29
506.627	5.18
507.059	5.01
507.491	1.52
507.923	1.92
508.354	2.08
508.786	1.97
509.217	2.17
509.649	2.59
510.08	2.24
510.512	2.78
510.943	3.09
511.374	3.19
511.805	3.09
512.237	3.07
512.668	1.48
513.099	0.42
513.53	0.49
513.961	0.6
514.391	0.2
514.822	1.75
515.253	2.42
515.684	1.81
516.114	1.24
516.545	2
516.975	1.66
517.406	2.29
517.836	1.99
518.267	2.15
518.697	3.07
519.127	3.32
519.558	1.85
519.988	0.93
520.418	0.92
520.848	0.38
521.278	-0.38
521.708	23.25
522.138	24.08
522.567	23.77
522.997	23.86
523.427	22.97
523.857	22.84
524.286	22.87
524.716	23.07
525.145	23.58
525.575	24.48
526.004	24.03
526.433	0.76
526.863	-0.13
527.292	1.55
527.721	2.17
528.15	1.98
528.579	2.19
529.008	1.89
529.437	1.01
529.866	0.55
530.295	-0.44
530.724	0.68
531.152	1.06
531.581	2.14
532.01	1.54
532.438	0.74
532.867	0.25
533.295	1
533.723	1.07
534.152	1.23
534.58	1.18
535.008	1.98
535.436	2.83
535.865	2.71
536.293	1.99
536.721	1.16
537.149	1.07
537.576	2.27
538.004	1.75
538.432	1.42
538.86	2.41
539.287	2.22
539.715	2.12
540.143	1
540.57	0.96
540.998	0.56
541.425	2.8
541.852	3.09
542.28	2.13
542.707	1.75
543.134	2.14
543.561	2.22
543.988	2.52
544.415	2.36
544.842	1.97
545.269	2.16
545.696	3.16
546.123	2.1
546.549	1.73
546.976	2.22
547.403	2.13
547.829	1.3
548.256	0.08
548.682	0.11
549.108	1.38
549.535	1.16
549.961	0.48
550.387	-0.02
550.813	1.07
551.24	1.48
551.666	0.94
552.092	1.31
552.518	1.82
552.943	3.16
553.369	3.36
553.795	2.04
554.221	2.6
554.646	3.13
555.072	4.37
555.498	2.49
555.923	1.75
556.349	2.44
556.774	2.01
557.199	1.36
557.625	0.2
558.05	0.53
558.475	1.09
558.9	1.28
559.325	2.89
559.75	2.94
560.175	3.75
560.6	3.66
561.025	2.54
561.449	2.55
561.874	2.8
562.299	3.27
562.723	2.61
563.148	2.87
563.572	1.42
563.997	-0.07
564.421	-1.84
564.846	-2.69
565.27	-2.62
565.694	-2.25
566.118	-2.6
566.542	-0.94
566.966	-0.7
567.39	-0.3
567.814	-0.5
568.238	0.78
568.662	-0.09
569.086	0.61
569.509	0.42
569.933	1.96
570.357	2.41
570.78	2.6
571.204	3.08
571.627	2.89
572.05	2.6
572.474	3.34
572.897	3.62
573.32	4.63
573.743	4.07
574.166	5.55
574.589	4.48
575.012	4.45
575.435	4.32
575.858	3.48
576.281	3.13
576.704	2.29
577.126	1.04
577.549	0.41
577.972	-0.04
578.394	0.4
578.817	2.28
579.239	1.89
579.661	1.97
580.084	3.87
580.506	3.86
580.928	3.41
581.35	4.04
581.772	4.29
582.194	4.39
582.616	3.57
583.038	2.41
583.46	-0.9
583.882	-0.81
584.303	-1.85
584.725	-3.58
585.147	0.69
585.568	1.74
585.99	1.94
586.411	2.67
586.833	3.08
587.254	4.27
587.675	5
588.096	5.58
588.518	6.04
588.939	6.59
589.36	6.84
589.781	1.35
590.202	3.89
590.623	4.35
591.043	2.91
591.464	2.41
591.885	2.57
592.305	2.28
592.726	2.16
593.147	2.13
593.567	2.31
593.987	1.62
594.408	1.44
594.828	-1.86
595.248	-1.77
595.669	-0.03
596.089	0.03
596.509	-0.95
596.929	-0.81
597.349	-0.09
597.769	-0.46
598.189	-0.49
598.608	0.02
599.028	0.62
599.448	0.61
599.867	0.3
600.287	-0.87
600.706	-0.51
601.126	0.37
601.545	1.33
601.965	0.88
602.384	1.11
602.803	1.17
603.222	1.51
603.641	1.02
604.061	1.9
604.48	1.85
604.898	1.82
605.317	1.81
605.736	1.39
606.155	1.68
606.574	1.73
606.992	1.52
607.411	1.81
607.829	0.91
608.248	1.3
608.666	0.2
609.085	0.39
609.503	0.76
609.921	0.8
610.339	0.82
610.758	-0.62
611.176	-0.55
611.594	0.11
612.012	-0.13
612.43	1.37
612.847	0.82
613.265	2.14
613.683	1.9
614.101	1.56
614.518	1.14
614.936	1.46
615.353	2.07
615.771	2.31
616.188	2.53
616.606	2.26
617.023	1.89
617.44	2.03
617.857	0.63
618.274	0.51
618.691	1.25
619.108	1.32
619.525	0.83
619.942	1.34
620.359	0.74
620.776	0.22
621.192	1.2
621.609	1.44
622.026	2.07
622.442	3.14
622.859	2.48
623.275	1.3
623.691	1.15
624.108	1.87
624.524	1.02
624.94	1.24
625.356	1.14
625.772	0.01
626.188	-0.98
626.604	-1.34
627.02	-1.7
627.436	-0.58
627.852	0.71
628.268	1.43
628.683	0.97
629.099	1.21
629.514	0.85
629.93	1.06
630.345	0.9
630.761	0.62
631.176	1.04
631.591	2.75
632.007	3.1
632.422	2.43
632.837	1.42
633.252	2.06
633.667	2.84
634.082	3.45
634.497	4.32
634.911	6.84
635.326	6.69
635.741	7.04
636.155	6.18
636.57	7.1
636.984	7.16
637.399	9.41
637.813	8.77
638.228	8.11
638.642	6.99
639.056	6.32
639.47	5.16
639.884	6.48
640.298	5.79
640.712	5.97
641.126	4.66
641.54	4.4
641.954	1.32
642.368	1.45
642.781	4.1
643.195	5.32
643.609	5.04
644.022	4.83
644.436	3.71
644.849	2.76
645.262	2.25
645.676	1.22
646.089	1.38
646.502	3.13
646.915	2.47
647.328	0.73
647.741	1.57
648.154	2.23
648.567	4.52
648.98	5.25
649.393	6.27
649.805	6.1
650.218	6.4
650.631	6.24
651.043	5.87
651.456	6.33
651.868	5.89
652.28	3.97
652.693	2.1
653.105	0.18
653.517	-0.19
653.929	-0.79
654.341	-0.49
654.753	0.99
655.165	1.47
655.577	1.73
655.989	1.89
656.401	0.7
656.813	3.34
657.224	4.15
657.636	2.73
658.047	3.82
658.459	3.85
658.87	1.93
659.282	0.79
659.693	1.57
660.104	2.69
660.515	2.47
660.926	1.74
661.338	0.02
661.749	-1.14
662.159	-0.41
662.57	-1.37
662.981	-1.45
663.392	-1.58
663.803	-1.16
664.213	-1.57
664.624	-2.8
665.035	-3.25
665.445	-2.01
665.855	-1.24
666.266	1.15
666.676	1.05
667.086	0.21
667.497	0.77
667.907	2.09
668.317	2.34
668.727	4.36
669.137	3.26
669.547	2.83
669.956	1.41
670.366	0.73
670.776	0.19
671.186	-0.35
671.595	0.71
672.005	-0.37
672.414	0.52
672.824	0.23
673.233	-2.97
673.642	-2.05
674.052	-0.06
674.461	1.39
674.87	1.41
675.279	2.09
675.688	1.34
676.097	2.23
676.506	3.18
676.915	2.35
677.323	2.7
677.732	2.95
678.141	2.98
678.549	1.09
678.958	-0.15
679.366	-0.16
679.775	-1.39
680.183	1.51
680.592	0.05
681	-0.35
681.408	-0.52
681.816	-1.51
682.224	-1.73
682.632	-0.11
683.04	0.47
683.448	0.9
683.856	1.49
684.264	2.51
684.671	-0.14
685.079	-0.76
685.487	-0.95
685.894	-1.7
686.302	-2.32
686.709	-2.15
687.116	-3.76
687.524	-1.28
687.931	1.61
688.338	1.18
688.745	-0.09
689.152	-0.22
689.559	0.75
689.966	2.2
690.373	3.46
690.78	4.29
691.187	4.61
691.593	5.58
692	3.8
692.407	2.95
692.813	5.03
693.22	6.05
693.626	5.64
694.032	5.97
694.439	6.35
694.845	5.66
695.251	5.61
695.657	6.26
696.063	4.03
696.469	3.19
696.875	2.6
697.281	1.75
697.687	1.18
698.093	2.25
698.498	1.99
698.904	1.31
699.31	1.46
699.715	4.42
700.12	3.93
700.526	5.6
700.931	5.64
701.337	6.73
701.742	6.9
702.147	6.34
702.552	6.06
702.957	5.08
703.362	4.86
703.767	5.17
704.172	1.73
704.577	1.02
704.981	-0.68
705.386	0.47
705.791	-0.58
706.195	-3.05
706.6	-2.65
707.004	-3.65
707.408	-3.12
707.813	-2.15
708.217	-1.74
708.621	-0.58
709.025	-1.13
709.43	1.15
709.834	1.18
710.237	0.87
710.641	2.09
711.045	2.51
711.449	3.35
711.853	7.07
712.256	5.21
712.66	4.65
713.064	3.97
713.467	6.01
713.87	4.41
714.274	4.78
714.677	5.73
715.08	5.78
715.484	5.33
715.887	8.87
716.29	4.98
716.693	7.4
717.096	8.22
717.499	8.72
717.901	7.79
718.304	7.34
718.707	5.67
719.109	5.04
719.512	3.79
719.915	7.81
720.317	5.19
720.719	3.74
721.122	1.51
721.524	1.42
721.926	5.81
722.328	5.83
722.731	6.27
723.133	6.67
723.535	6.6
723.937	7.24
724.338	6.66
724.74	7.57
725.142	66.19
725.544	71.47
725.945	84.96
726.347	80.17
726.748	80.28
727.15	81.86
727.551	85.34
727.952	83.05
728.354	81.72
728.755	80.74
729.156	79.22
729.557	23.15
729.958	18.21
730.359	5.78
730.76	6.66
731.161	6.04
731.562	4.04
731.962	0.78
732.363	2.05
732.763	2.44
733.164	-0.38
733.564	0.32
733.965	1.27
734.365	2.15
734.766	1.08
735.166	0.38
735.566	2.2
735.966	3.62
736.366	4.08
736.766	4.48
737.166	4.33
737.566	4.95
737.966	5.09
738.365	5.35
738.765	6.25
739.165	6.41
739.564	6.22
739.964	4.67
740.363	3.46
740.763	2.12
741.162	3.15
741.561	3.44
741.96	3.86
742.36	2.67
742.759	2.22
743.158	-0.62
743.557	-0.87
743.955	-1.43
744.354	-2.06
744.753	-3.22
745.152	-2.01
745.55	-4.48
745.949	-4.22
746.348	-4.44
746.746	-5.65
747.144	-2.14
747.543	-1.54
747.941	-2.61
748.339	-2.46
748.737	-0.71
749.136	1.6
749.534	-0.16
749.932	2.87
750.33	2.37
750.727	1.48
751.125	3.46
751.523	1.24
751.921	4.79
752.318	6.76
752.716	8.52
753.113	7.25
753.511	6.31
753.908	8.43
754.305	12.14
754.703	13.38
755.1	14.34
755.497	13.81
755.894	12.46
756.291	10.49
756.688	9.73
757.085	8.7
757.482	9.99
757.878	12.75
758.275	12.74
758.672	3.29
759.068	0.97
759.465	-2.39
759.861	-4.19
760.258	-8.11
760.654	-9.73
761.05	-4.82
761.447	-5.57
761.843	-5.81
762.239	-6.19
762.635	-8.71
763.031	-8.74
763.427	-7.54
763.822	-3.73
764.218	-4.83
764.614	-1.03
765.01	-2.97
765.405	-4.72
765.801	-2.9
766.196	-3.99
766.592	-5.92
766.987	-3.99
767.382	-2.49
767.778	-2.92
768.173	-2.87
768.568	-2.35
768.963	-1.59
769.358	-1.2
769.753	-0.68
770.148	-0.67
770.542	-0.01
770.937	-0.35
771.332	-0.39
771.726	-1.68
772.121	3.74
772.515	3.23
772.91	3.07
773.304	1.81
773.699	2.22
774.093	1.57
774.487	0.99
774.881	-0.08
775.275	1.66
775.669	1.17
776.063	1.48
776.457	-2.12
776.851	-1.79
777.245	-1.41
777.638	-1.26
778.032	-3.02
778.425	-1.93
778.819	1.98
779.212	6.44
779.606	8.42
779.999	6.92
780.392	8.37
780.786	6.49
781.179	7.15
781.572	8.43
781.965	8.89
782.358	11.83
782.751	11.02
783.143	8.07
783.536	6.62
783.929	3.49
784.322	4.89
784.714	3.6
785.107	5.01
785.499	6.4
785.891	7.88
786.284	7.22
786.676	5.74
787.068	8.58
787.46	8.96
787.852	6.46
788.245	6.37
788.636	4.36
789.028	6.23
789.42	7.42
789.812	6.7
790.204	4.84
790.595	8.35
790.987	8.77
791.378	8.2
791.77	6.38
792.161	6.1
792.553	7.96
792.944	9.84
793.335	7.04
793.726	7.29
794.117	8.59
794.508	5.46
794.899	1.3
795.29	0.35
795.681	-1.52
796.072	-1.45
796.463	21.16
796.853	25.9
797.244	27.02
797.634	29.55
798.025	29.04
798.415	25.11
798.806	29.5
799.196	30.91
799.586	35.02
799.976	36.5
800.366	36.58
800.756	12.19
801.146	6.02
801.536	3.59
801.926	1
802.316	1.46
802.706	3.15
803.095	2.75
803.485	2.9
803.874	1.32
804.264	0.52
804.653	2.17
805.043	6.71
805.432	11.26
805.821	16.44
806.21	18.82
806.599	15.36
806.988	17.35
807.377	13.56
807.766	10.41
808.155	9.2
808.544	6.92
808.933	5.08
809.321	7.56
809.71	1.14
810.098	-2.21
810.487	-7.6
810.875	-6.71
811.264	-8.56
811.652	4.77
812.04	7.96
812.428	8.97
812.816	7.63
813.204	10.01
813.592	-0.85
813.98	1.12
814.368	9.15
814.756	13.16
815.144	13.39
815.531	16.47
815.919	4.48
816.306	7.03
816.694	7.04
817.081	11.82
817.469	13.66
817.856	14.29
818.243	10.54
818.63	-0.34
819.017	3.14
819.404	5.08
819.791	2.93
820.178	-0.24
820.565	-0.72
820.952	8.99
821.339	11.75
821.725	9.12
822.112	13.42
822.498	17.91
822.885	19.41
823.271	15.32
823.657	11.88
824.044	12.44
824.43	11.59
824.816	19.78
825.202	15.75
825.588	12.09
825.974	18.88
826.36	20.58
826.746	21.16
827.132	19.52
827.517	25.03
827.903	25.02
828.289	28.74
828.674	30.83
829.06	21.64
829.445	17.42
829.83	15.31
830.216	10.2
830.601	10.78
830.986	17.5
831.371	21.86
831.756	23.97
832.141	32.03
832.526	28.79
832.911	31.6
833.295	32.69
833.68	30.94
834.065	35.07
834.449	33.73
834.834	34.98
835.218	33.15
835.603	34.52
835.987	28.86
836.371	25.12
836.755	26.11
837.139	22.68
837.524	19.96
837.908	19.52
838.291	21.61
838.675	19.21
839.059	18.98
839.443	12.26
839.827	6.74
840.21	5.63
840.594	8.45
840.977	9.79
841.361	9.98
841.744	7.31
842.127	7.29
842.511	1.56
842.894	1.8
843.277	-1.15
843.66	-1.46
844.043	1.01
844.426	8.69
844.809	0.4
845.191	0.17
845.574	2.44
845.957	10.22
846.339	13.16
846.722	15.58
847.104	14.83
847.487	9.46
847.869	13.23
848.252	15.33
848.634	11.69
849.016	14.95
849.398	9.97
849.78	6.25
850.162	3.05
850.544	0.85
850.926	-3.97
851.307	-6.63
851.689	0.62
852.071	-7.17
852.452	-8.61
852.834	-10.24
853.215	-6.27
853.597	-1.74
853.978	5.65
854.359	7.84
854.741	10.53
855.122	11.83
855.503	11.91
855.884	10.5
856.265	16.35
856.646	12.07
857.026	17.26
857.407	16.63
857.788	13.57
858.169	7.15
858.549	16.01
858.93	16.01
859.31	21.17
859.69	31.86
860.071	31.55
860.451	31.53
860.831	32.08
861.211	26.04
861.591	21.3
861.971	19.04
862.351	16.72
862.731	6.81
863.111	7.1
863.491	3.04
863.87	-3.45
864.25	-4.14
864.629	5.78
865.009	3.98
865.388	8.98
865.768	6.81
866.147	11.76
866.526	18.36
866.905	16.5
867.284	9.84
867.663	8.1
868.042	11.6
868.421	10.54
868.8	-2.25
869.179	6.88
869.558	2.68
869.936	10.3
870.315	9.14
870.693	14.81
871.072	16.79
871.45	17.32
871.828	22.79
872.207	22.24
872.585	26.48
872.963	28.49
873.341	33.51
873.719	45.43
874.097	41.49
874.475	38.34
874.853	29.84
875.23	31.48
875.608	37.69
875.986	36.37
876.363	32.99
876.741	41.68
877.118	50.58
877.495	50.41
877.873	41.57
878.25	40.89
878.627	40.28
879.004	38.1
879.381	32.32
879.758	31.53
880.135	29.3
880.512	29.56
880.889	11.61
881.265	1.49
881.642	-8.83
882.019	-8.34
882.395	0.88
882.772	7.08
883.148	8.74
883.524	14.09
883.901	14.45
884.277	9.55
884.653	7.83
885.029	20.53
885.405	36.16
885.781	37.92
886.157	31.49
886.532	24.66
886.908	21.58
887.284	23.94
887.659	23.41
888.035	17.89
888.411	19.19
888.786	22.07
889.161	11.91
889.537	-4.41
889.912	-9.79
890.287	-5.94
890.662	-12.04
891.037	-12.53
891.412	-12.65
891.787	-20.97
892.162	-12.91
892.536	-7.32
892.911	-4.91
893.286	-1.99
893.66	4.16
894.035	14.75
894.409	9.9
894.784	19.52
895.158	18.63
895.532	22.83
895.906	33.56
896.281	32.08
896.655	33.93
897.029	36.06
897.402	35.08
897.776	33.81
898.15	24.51
898.524	25.84
898.898	20.74
899.271	31.56
899.645	30.59
900.018	23.63
900.392	27.98
900.765	23.03
901.138	29.1
901.511	23.47
901.884	32.67
902.258	41.06
902.631	54.09
903.003	53.13
903.376	42.51
903.749	56.37
904.122	61.78
904.495	44.59
904.867	38.74
905.24	29.6
905.612	35.09
905.985	23.06
906.357	11.04
906.729	1.87
907.102	12.82
907.474	18.98
907.846	14.74
908.218	10.65
908.59	31.58
908.962	34.11
909.334	38.84
909.705	48.62
910.077	45.75
910.449	47.73
910.82	64.08
911.192	66.68
911.563	72.62
911.935	56.37
912.306	52.28
912.677	39.15
913.048	58.49
913.419	48.88
913.79	29.14
914.161	31.95
914.532	43.5
914.903	25.67
915.274	20.68
915.645	23.56
916.015	22.13
916.386	30.58
916.756	17.52
917.127	0.79
917.497	23.81
917.868	33.58
918.238	28.8
918.608	10.76
918.978	4.98
919.348	0.28
919.718	-8.03
920.088	7.71
920.458	18.66
920.828	32.5
921.198	43.73
921.567	25.93
921.937	27.32
922.306	21.94
922.676	29.91
923.045	50.94
923.415	64.12
923.784	57.33
924.153	61.15
924.522	65.18
924.891	61.47
925.26	57.52
925.629	53.31
925.998	51.15
926.367	61.77
926.736	90.92
927.104	78.61
927.473	63.12
927.842	62.7
928.21	47.7
928.578	5.25
928.947	23.44
929.315	36.86
929.683	66.41
930.051	73.93
930.42	78.54
930.788	26.61
931.156	37.66
931.523	82.8
931.891	98.76
932.259	113.47
932.627	170.77
932.994	214.5
933.362	198.21
933.729	152.68
934.097	139.77
934.464	111.38
934.831	105.52
935.199	92.32
935.566	70.36
935.933	120.7
936.3	150.64
936.667	111.32
937.034	192.48
937.401	168.26
937.767	159.07
938.134	130.58
938.501	185.87
938.867	246.32
939.234	415.43
939.6	345.9
939.967	300.22
940.333	215.13
940.699	152.13
941.065	19.15
941.431	49.46
941.798	84.07
942.163	168.72
942.529	79.98
942.895	25.88
943.261	31.49
943.627	34.01
943.992	25.74
944.358	12.84
944.723	63.68
945.089	67.81
945.454	53.06
945.82	24.73
946.185	-1.56
946.55	36.91
946.915	50.67
947.28	61.51
947.645	60.16
948.01	73.23
948.375	85.15
948.74	51.31
949.104	39.16
949.469	-15.46
949.834	-17.61
950.198	221.16
950.562	173.41
950.927	163.49
951.291	149.7
951.655	113.1
952.02	53.19
952.384	52.86
952.748	70.97
953.112	132.12
953.476	147.77
953.839	127.25
954.203	115.32
954.567	117.49
954.931	138.69
955.294	169.22
955.658	174.1
956.021	301.4
956.385	393.81
956.748	572.67
957.111	404.42
957.474	328.6
957.837	433.51
958.2	185.05
958.563	92.59
958.926	110.16
959.289	111.13
959.652	118.18
960.015	129.74
960.377	221.01
960.74	214.94
961.102	301.45
961.465	455.76
961.827	690.48
962.189	1150.45
962.552	779.4
962.914	550.51
963.276	356.74
963.638	315.78
964	301.6
964.362	225.86
964.724	195.41
965.085	168.69
965.447	138.91
965.809	61.53
966.17	63.69
966.532	59.29
966.893	54.46
967.255	58.07
967.616	39.22
967.977	24.1
968.338	15.51
968.699	41.69
969.061	29.82
969.421	27.78
969.782	16.98
970.143	31.72
970.504	70.64
970.865	92.15
971.225	113.13
971.586	131.28
971.946	174.26
972.307	132.52
972.667	117.85
973.027	133.48
973.388	109.95
973.748	113.46
974.108	134.47
974.468	78.69
974.828	124.31
975.188	83.16
975.548	82.86
975.907	82.21
976.267	107.91
976.627	130.63
976.986	118.48
977.346	125.39
977.705	112.95
978.064	90.65
978.424	85.5
978.783	46.59
979.142	37.22
979.501	31.81
979.86	40.93
980.219	22.85
980.578	-8.33
980.937	-10.76
981.296	-1.27
981.654	-5.64
982.013	-18.88
982.371	3.81
982.73	39.32
983.088	41.69
983.447	74.33
983.805	133.22
984.163	408.67
984.521	470.06
984.879	564.28
985.237	-957.33
985.595	1370.56
985.953	302.88
986.311	84.04
986.669	65.53
987.026	46.82
987.384	17.75
987.741	-10.54
988.099	59.32
988.456	43.96
988.814	70.25
989.171	61.61
989.528	17.81
989.885	5.1
990.242	41.87
990.599	23.32
990.956	22.61
991.313	28.82
991.67	24.01
992.027	54.7
992.383	52.42
992.74	50.23
993.096	58.1
993.453	63.83
993.809	63.55
994.165	71.61
994.522	133.15
994.878	139.34
995.234	171.57
995.59	159.87
995.946	71.72
996.302	84.01
996.658	85.28
997.013	104.58
997.369	169.96
997.725	238.51
998.08	145.6
998.436	4.14
998.791	7.79
999.147	14.31
999.502	41.31
999.857	39.3
1000.212	45.34
1000.567	74.58
1000.922	-48.34
1001.277	-68.64
1001.632	-48.82
1001.987	-51.26
1002.342	-23.92
1002.696	3.06
1003.051	8.57
1003.406	27
1003.76	21.68
1004.114	41.63
1004.469	48.97
1004.823	54.77
1005.177	27.71
1005.531	32.01
1005.885	42.83
1006.239	66.38
1006.593	88.72
1006.947	124.43
1007.301	81.88
1007.655	108.93
1008.008	66.78
1008.362	64.78
1008.715	91.35
1009.069	112.26
1009.422	266.62
1009.776	414.1
1010.129	216.24
1010.482	179.59
1010.835	98.48
1011.188	85.27
1011.541	19.21
1011.894	170.34
1012.247	-8.31
1012.6	-75.51
1012.952	-2.6
1013.305	-73.73
1013.657	-36.45
1014.01	-46.45
1014.362	-46.33
1014.715	25.05
1015.067	46
1015.419	35.34
1015.771	56.39
1016.123	72.37
1016.475	83.76
1016.827	90.84
1017.179	115.61
1017.531	102.74
1017.883	114.07
1018.234	164.16
1018.586	175.79
1018.938	228.84
1019.289	352.68
1019.64	368.79
1019.992	304.32
1020.343	241.01
1020.694	233.12
1021.045	182.09
1021.396	221.61
1021.747	279.73
1022.098	227.82
1022.449	163.64
1022.8	133.79
1023.151	102.73
1023.501	113.85
1023.852	103.87
1024.202	132.71
1024.553	117.57
1024.903	154.62
1025.253	168.31
1025.604	151.87
1025.954	193.89
1026.304	193.09
1026.654	202.46
1027.004	214.9
1027.354	199.02
1027.703	348.89
1028.053	368.01
1028.403	615.39
1028.753	432.55
1029.102	-221.82
1029.452	-4080.99
1029.801	-249.68
1030.15	-142.3
1030.499	-157.33
897.758	1936.66
901.051	1862.41
904.343	1892.74
907.636	1904.1
910.928	1960.91
914.22	1886.88
917.511	1891
920.803	1933.52
924.094	1921.73
927.384	1932.38
930.675	1894.03
933.965	1862.53
937.255	1898.33
940.544	1874.15
943.834	1856.87
947.123	1804.74
950.411	1886.08
953.7	1870.69
956.988	1860.43
960.276	1796.59
963.563	1830.62
966.851	1845.23
970.138	1878.62
973.424	1880.04
976.711	1833.67
979.997	1881.4
983.283	1917.83
986.568	1859.74
989.853	1840.96
993.138	1861.05
996.423	1945.8
999.708	1911.93
1002.992	1937.14
1006.275	1850.29
1009.559	1853.66
1012.842	1939.87
1016.125	1900.95
1019.408	1881.85
1022.69	1922.79
1025.972	1957.68
1029.254	1936.1
1032.536	1907.39
1035.817	1907.99
1039.098	1880.67
1042.379	1925.75
1045.659	1946.08
1048.939	1900.67
1052.219	1901.63
1055.498	1887.35
1058.778	1886.91
1062.057	1858.61
1065.335	1880.85
1068.614	1885.86
1071.892	1888.51
1075.17	1927.28
1078.447	1932.51
1081.724	1927.91
1085.001	1945.07
1088.278	1926.14
1091.554	1929.31
1094.83	1920.89
1098.106	1958.07
1101.382	1979.52
1104.657	1977.39
1107.932	1975.21
1111.206	1959.47
1114.481	1912.07
1117.755	1911.98
1121.029	1911.02
1124.302	1964.88
1127.575	1937.22
1130.848	1938.72
1134.121	1911.49
1137.393	1880.07
1140.665	1930.4
1143.937	1912.48
1147.208	1859.83
1150.48	1918.96
1153.75	1909.24
1157.021	1899.03
1160.291	1881.3
1163.561	1929.93
1166.831	1895.2
1170.101	1917.26
1173.37	1873.53
1176.639	1839.96
1179.907	1874.88
1183.176	1901.2
1186.444	1900.75
1189.711	1921.11
1192.979	1948.06
1196.246	1907.29
1199.513	1917.41
1202.78	1922.36
1206.046	1931.39
1209.312	1962.13
1212.578	1972.47
1215.843	1947.07
1219.108	1917.43
1222.373	1940.47
1225.638	1918.96
1228.902	1915.21
1232.166	1876.35
1235.43	1867.93
1238.693	1895.75
1241.956	1886.18
1245.219	1933.18
1248.482	1914.52
1251.744	1915.31
1255.006	2017.36
1258.268	1965.47
1261.529	1930.42
1264.79	1926.44
1268.051	2008.8
1271.312	2016.27
1274.572	1988.17
1277.832	1974.75
1281.092	1954.75
1284.351	1952.38
1287.61	1939.35
1290.869	1886.48
1294.128	1889.21
1297.386	1917.43
1300.644	1912.48
1303.902	1924.53
1307.159	1806.96
1310.416	1851.65
1313.673	1879.32
1316.93	1880.75
1320.186	1904.29
1323.442	1932.32
1326.697	1936.94
1329.953	1910.39
1333.208	1950.73
1336.463	1925.15
1339.717	1895.71
1342.972	1989
1346.226	1964.97
1349.479	1926.5
1352.733	1912.34
1355.986	1914.54
1359.238	1899.93
1362.491	1906.45
1365.743	1906.77
1368.995	1901.29
1372.247	1917.93
1375.498	1934.58
1378.749	1983.97
1382	1941.02
1385.251	1968.19
1388.501	1924.51
1391.751	1934.76
1395	1902.96
1398.25	1927.54
1401.499	1958.44
1404.748	1917.98
1407.996	1895.99
1411.244	1890.02
1414.492	1877.09
1417.74	1865.32
1420.987	1869.06
1424.234	1927.17
1427.481	1886.2
1430.728	1939.73
1433.974	1916.28
1437.22	1909.35
1440.465	1903.97
1443.711	1914.66
1446.956	1931.8
1450.201	1899.64
1453.445	1937.73
1456.689	1930.7
1459.933	1936.43
1463.177	1975.64
1466.42	1949.09
1469.663	1933.33
1472.906	1952.24
1476.148	1990.8
1479.391	1946.54
1482.633	1925.91
1485.874	1953.25
1489.115	1961.62
1492.356	1938.59
1495.597	1920.65
1498.838	1908.53
1502.078	1899.74
1505.318	1879.42
1508.557	1904.46
1511.797	1901.69
1515.036	1951.75
1518.274	1916.8
1521.513	1863.88
1524.751	1870.89
1527.989	1892.08
1531.227	1907.86
1534.464	1922.83
1537.701	1911.46
1540.938	1918.71
1544.174	1867.82
1547.41	1854.47
1550.646	1888.39
1553.882	1933.21
1557.117	1986.27
1560.352	1987.9
1563.587	1956.61
1566.821	1928.72
1570.055	1934.07
1573.289	1912.95
1576.523	1958.75
1579.756	1976.02
1582.989	1994.62
1586.222	1956.07
1589.454	1977.05
1592.686	1964.53
1595.918	1989.18
1599.15	1987.1
1602.381	2019.77
1605.612	2011.75
1608.843	2094.54
1612.073	2028.48
1615.303	2015.29
1618.533	2016.17
1621.762	2011.04
1624.992	1988.36
1628.221	1992.17
1631.449	1982.06
1634.678	1995.44
1637.906	1968.92
1641.134	1991.15
1644.361	1959.94
1647.588	1952.16
1650.815	1974.09
1654.042	1934.91
1657.269	1962.53
1660.495	1950.12
1663.72	1928.46
1666.946	1902.45
1670.171	1890.79
1673.396	1863.71
1676.621	1847.15
1679.845	1838.93
1683.069	1837.93
1686.293	1863.25
1689.517	1861.22
1692.74	1823.64
1695.963	1839.66
1699.185	1883.06
1702.408	1859.59
1705.63	1881.96
1708.852	1904.48
1712.073	1874.6
1715.294	1894.7
1718.515	1931.79
1721.736	1896.5
1724.956	1876.81
1728.176	1895.96
1731.396	1916.4
1734.616	1904.48
1737.835	1941.88
1741.054	1911.38
1744.272	1904.26
1747.491	1946.53
1750.709	1959.35
1753.927	1927.31
1757.144	1944.5
1760.361	2001.7
1763.578	1973.8
1766.795	1932.5
1770.011	1918.88
1773.227	1939.32
1776.443	1981.54
1779.658	2019.22
1782.874	1962.46
1786.089	1961.73
1789.303	1963.57
1792.518	1961.91
1795.732	1949.72
1798.945	1967.52
1802.159	2004.57
1805.372	1964.79
1808.585	1958.33
1811.797	1960.66
1815.01	1972.72
1818.222	2004.68
1821.434	1959.22
1824.645	1993.41
1827.856	2008.32
1831.067	2033.45
1834.278	1975.4
1837.488	1962.15
1840.698	2065.1
1843.908	2022.16
1847.117	1995.98
1850.326	1943.68
1853.535	1984.58
1856.744	2027.47
1859.952	1964.63
1863.16	1968.55
1866.368	1984.55
1869.575	2093.62
1872.782	1987.69
1875.989	1928.73
1879.196	1966.48
1882.402	1964.88
1885.608	1993.9
1888.814	1957.35
1892.019	1879.74
1895.224	1928.42
1898.429	1892.01
1901.634	1882.19
1904.838	1860.28
1908.042	1919.54
1911.246	1935.45
1914.449	1910.8
1917.652	1885.83
1920.855	1869
1924.058	1885.64
1927.26	1932.45
1930.462	1950.64
1933.664	1995.44
1936.865	1942.96
1940.066	1961.75
1943.267	1905.88
1946.467	1912.04
1949.668	1927.11
1952.868	1994.95
1956.067	1990.79
1959.267	1934.85
1962.466	1954.79
1965.665	1935.52
1968.863	1931.28
1972.061	1925.87
1975.259	1917.98
1978.457	1987.89
1981.654	1951.44
1984.852	1953.92
1988.048	1916.94
1991.245	1899.42
1994.441	1984.38
1997.637	1934.38
2000.833	1920.63
2004.028	1948.61
2007.223	2010.92
2010.418	2002.58
2013.613	1951.49
2016.807	1953.62
2020.001	1945.94
2023.194	1959.75
2026.388	1947.03
2029.581	1894.38
2032.774	1959.31
2035.966	1969.51
2039.158	1925.6
2042.35	1941.53
2045.542	1869.76
2048.733	1943.75
2051.924	1924.37
2055.115	1934
2058.306	1908.09
2061.496	1960.23
2064.686	1999.45
2067.875	1907.64
2071.065	1905.3
2074.254	1919.32
2077.442	1878.36
2080.631	1954.26
2083.819	1902.96
2087.007	1898.08
2090.195	1889.37
2093.382	1895.82
2096.569	1882.39
2099.756	1848.99
2102.942	1903.02
2106.128	1921.85
2109.314	1908.06
2112.5	1901.11
2115.685	1868.06
2118.87	1873.97
2122.055	1930.88
2125.239	1915.25
2128.424	1911.58
2131.608	1951.9
2134.791	1937.75
2137.974	1966.05
2141.157	1954.27
2144.34	1935.85
2147.523	1916.89
2150.705	1946.08
2153.887	1910.13
2157.068	1894.2
2160.25	1865.5
2163.431	1883.06
2166.611	1862.66
2169.792	1885.85
2172.972	1807.01
2176.152	1848.21
2179.331	1870.32
2182.511	1881.56
2185.69	1899.42
2188.868	1910.57
2192.047	1932.72
2195.225	1961.17
2198.403	1908.6
2201.58	1893.93
2204.758	1878.91
2207.935	1947.41
2211.111	1876.65
2214.288	1867.15
2217.464	1897.87
2220.64	1851.62
2223.815	1894.07
2226.991	1836.9
2230.166	1850.47
2233.34	1896.44
2236.515	1906.98
2239.689	1964.44
2242.863	1918.72
2246.036	1966.6
2249.209	1946.19
2252.382	1960.01
2255.555	1974.55
2258.727	1933.32
2261.9	1956.37
2265.071	1950.43
2268.243	1947.08
2271.414	1904.58
2274.585	1896.93
2277.756	1954.03
2280.926	1914.26
2284.096	1936.03
2287.266	1877.88
2290.436	1922.24
2293.605	1937.14
2296.774	1977.82
2299.942	1974.72
2303.111	1990.93
2306.279	2041.69
2309.447	2027.25
2312.614	1997.24
2315.781	2021.95
2318.948	2004.67
2322.115	2038.46
2325.281	1941.69
2328.447	1945.42
2331.613	1917.98
2334.779	1917.44
2337.944	1907.31
2341.109	1911.61
2344.274	1901.66
2347.438	1874.4
2350.602	1892.58
2353.766	1900.42
2356.929	1891.48
2360.092	1925.4
2363.255	1904.73
2366.418	1882.97
2369.58	1925.69
2372.742	1849.26
2375.904	1831.92
2379.066	1823.1
2382.227	1844.28
2385.388	1807.98
2388.548	1769.89
2391.709	1803.67
2394.869	1799.94
2398.029	1833.9
2401.188	1822.25
2404.347	1801.54
2407.506	1847.11
2410.665	1892.8
2413.823	1868.81
2416.981	1855.58
2420.139	1866.76
2423.296	1900.66
2426.453	1875.82
2429.61	1892.16
2432.767	1879.76
2435.923	1920.16
2439.079	1861.28
2442.235	1888.05
2445.391	1835.87
2448.546	1884.01
2451.701	1912.37
2454.855	1915.66
2458.009	1933.54
2461.163	1920.85
2464.317	1897.78
2467.471	1919.55
2470.624	1942.93
2473.777	1944.23
2476.929	1961.49
2480.082	1982.83
2483.234	1960.63
2486.385	1900.08
2489.537	1894.47
2492.688	1897.77
2495.839	1908.82
2498.989	1925.97
2502.14	1913.7
2505.29	1910.86
2508.439	1932.49
2511.589	1883.08
2514.738	1873.84
2517.887	1893.03
2521.035	1970.45
2524.183	1922.27
2527.331	1911.96
2530.479	1915.37
2533.627	1914
