Data from C_1_HIR_WI_4N_Splice17_11-41-52-409.txt Node
Date: Sat Mar 14 11:41:52 EDT 2020
User: sa697716
Spectrometer: FLMS03696
Trigger mode: 0
Integration Time (sec): 3.180400E-1
Scans to average: 20
Electric dark correction enabled: true
Nonlinearity correction enabled: true
Boxcar width: 5
XAxis mode: Wavelengths
Number of Pixels in Spectrum: 2048
>>>>>Begin Spectral Data<<<<<
187.83	-188015.65
188.298	1386.2
188.766	847.76
189.233	703.81
189.701	1003.44
190.169	1372.45
190.636	518.94
191.104	390.15
191.571	17.33
192.039	-47.19
192.506	-54.87
192.974	314.86
193.441	-626.54
193.908	-86.23
194.375	-52.36
194.842	39.55
195.31	93.17
195.777	143.55
196.244	251.04
196.711	126.55
197.177	110.63
197.644	78.94
198.111	110.98
198.578	150.17
199.045	119.95
199.511	143.05
199.978	81.17
200.445	81.02
200.911	50.4
201.378	-25.84
201.844	15.18
202.31	-15.16
202.777	-1.82
203.243	2.89
203.709	-22.31
204.176	-57.01
204.642	-41.17
205.108	-22.92
205.574	-31.58
206.04	-53.88
206.506	-56.42
206.972	-72.08
207.438	-79.77
207.903	-105.1
208.369	-73.69
208.835	-48.99
209.301	-45.78
209.766	-70.89
210.232	-70.99
210.697	-107.88
211.163	-170.78
211.628	-296.72
212.094	-227.57
212.559	-163.14
213.024	-77.01
213.49	-76.84
213.955	-77.81
214.42	-96.04
214.885	-65.87
215.35	-44.03
215.815	47.16
216.28	88.67
216.745	85.58
217.21	124.7
217.675	59.78
218.14	63.2
218.604	39.55
219.069	41.24
219.534	66.77
219.998	52.11
220.463	43.02
220.927	-39.26
221.392	-43.58
221.856	-34.72
222.32	-117.71
222.785	-96.82
223.249	-139.22
223.713	-154.71
224.177	-152.93
224.642	-271.84
225.106	-350.62
225.57	-419.59
226.034	-253.83
226.497	-367.63
226.961	-270.05
227.425	-232.65
227.889	-282.29
228.353	-277.73
228.816	-601.5
229.28	-480.44
229.744	-364.96
230.207	-112.94
230.671	-77.11
231.134	-234.94
231.597	-203.62
232.061	-269.1
232.524	-359.04
232.987	-232.12
233.45	-172.5
233.914	-163
234.377	-247.49
234.84	-218.05
235.303	-313.92
235.766	-333.52
236.229	-350.49
236.691	-246.7
237.154	-289.16
237.617	-186.99
238.08	-205.32
238.542	-258.81
239.005	-157.45
239.468	-136.85
239.93	-129.05
240.393	-100.34
240.855	-94.48
241.317	-105.01
241.78	-142.43
242.242	-132.36
242.704	-103.84
243.166	-76.16
243.629	-30.27
244.091	-36.65
244.553	-44.51
245.015	-38.41
245.477	-80.65
245.939	-125.81
246.4	-103.2
246.862	-121.17
247.324	-118.32
247.786	-205.92
248.247	-287.17
248.709	-439.91
249.17	-300.04
249.632	-226.11
250.093	-175.62
250.555	-130.03
251.016	-40.34
251.477	-40.72
251.939	-20.6
252.4	-34.83
252.861	-57.63
253.322	-45.12
253.783	-69.78
254.244	-135.74
254.705	-134.87
255.166	-164.28
255.627	-174.46
256.088	-250.46
256.549	-286.08
257.009	-250.7
257.47	-338.4
257.931	-310.33
258.391	-203.76
258.852	-192.98
259.312	-207.86
259.773	-273.39
260.233	-182.71
260.694	-100.01
261.154	-134.86
261.614	-32.27
262.074	-24.33
262.534	-3.5
262.994	29.46
263.455	8.54
263.915	17.35
264.374	16.03
264.834	27.43
265.294	-8.93
265.754	-39.03
266.214	-38.11
266.673	-56.43
267.133	-106.79
267.593	-122.97
268.052	-159.59
268.512	-149.48
268.971	-105.4
269.431	-101.08
269.89	-87.99
270.349	-106.01
270.809	-75.68
271.268	-38.95
271.727	-297.18
272.186	-135.87
272.645	-70.68
273.104	-79.45
273.563	-123.19
274.022	-222.81
274.481	-142.44
274.94	-108.75
275.399	-96.34
275.857	-143.11
276.316	-244.71
276.775	-188.56
277.233	-180.29
277.692	-140.6
278.15	-149.73
278.609	-102.92
279.067	-91.49
279.525	-75.13
279.984	-119.1
280.442	-147.18
280.9	-60.75
281.358	-15.27
281.816	-7.35
282.274	-5.95
282.732	-82.36
283.19	-90.18
283.648	-115.04
284.106	-137.58
284.564	-191.31
285.021	-166.09
285.479	-126.02
285.937	-156.35
286.394	-118.39
286.852	-126.49
287.309	-145.56
287.767	-79.73
288.224	-56.72
288.682	-63.3
289.139	-40.42
289.596	-7.87
290.053	-24.35
290.511	-37.48
290.968	-24.92
291.425	-106.39
291.882	-40.58
292.339	-12.7
292.796	-58.37
293.252	-67.39
293.709	-8.07
294.166	-21.64
294.623	-54.03
295.079	-48.33
295.536	-28.72
295.992	-21.42
296.449	-7.17
296.905	-9.78
297.362	27.84
297.818	23.81
298.274	43.76
298.731	10.83
299.187	23.63
299.643	32.24
300.099	40.5
300.555	23.05
301.011	28.85
301.467	94.5
301.923	62.59
302.379	25.59
302.835	16.12
303.291	-0.07
303.746	6.5
304.202	-7.25
304.658	-20.46
305.113	-19.44
305.569	-2.93
306.024	-39.27
306.479	-116.57
306.935	-58.86
307.39	-82.76
307.845	-69.95
308.301	-66.99
308.756	-88.48
309.211	-86.74
309.666	-109.3
310.121	-91.4
310.576	-119.21
311.031	-112.93
311.486	-170.09
311.94	-235.63
312.395	-376.43
312.85	-865.74
313.305	-5193.25
313.759	-20450.96
314.214	-1489.84
314.668	-1043.86
315.123	-839.19
315.577	-253
316.032	-225.35
316.486	-274.36
316.94	-176.24
317.394	-89.22
317.849	-38.21
318.303	-29.9
318.757	-43.39
319.211	-50.12
319.665	-26.08
320.119	-20.72
320.572	-65.42
321.026	-29.49
321.48	-13.73
321.934	-45.18
322.387	-49.16
322.841	-39.65
323.295	21.11
323.748	-15.54
324.202	-4.49
324.655	-17.28
325.108	-11.25
325.562	34.32
326.015	-17.14
326.468	-23.39
326.921	-26.46
327.374	11.91
327.827	47.06
328.28	28.92
328.733	41.59
329.186	24.12
329.639	21.35
330.092	-1.9
330.545	-1.3
330.997	15.14
331.45	52.97
331.903	86.67
332.355	82.11
332.808	23.06
333.26	-7.21
333.713	8.12
334.165	-0.79
334.617	-45.7
335.069	-88.9
335.522	-258.16
335.974	-363.07
336.426	-428.54
336.878	-370.54
337.33	-167.54
337.782	-173.97
338.234	-176.4
338.686	-242.79
339.137	-260.58
339.589	-221.77
340.041	-138.6
340.493	-114.92
340.944	-91.4
341.396	-104.28
341.847	-50.79
342.299	-26.26
342.75	31.75
343.201	-32.78
343.653	-70.23
344.104	-111.68
344.555	-105.89
345.006	-271.15
345.457	-98.77
345.908	-89.93
346.359	-49.59
346.81	-44.87
347.261	-79.36
347.712	-125.61
348.163	-124.74
348.613	-57.79
349.064	-52.55
349.515	-33.39
349.965	19.87
350.416	-27.44
350.866	-67.69
351.317	-104.93
351.767	-181.28
352.217	-280.37
352.668	-195.25
353.118	-177.08
353.568	-298.26
354.018	-215.07
354.468	-183.78
354.918	-152.38
355.368	-130.51
355.818	-142.49
356.268	-542.31
356.718	-1443.3
357.168	-204.22
357.617	-125.95
358.067	-212.45
358.517	-198.26
358.966	-181.27
359.416	-213.33
359.865	-231.47
360.315	-411.81
360.764	-189.05
361.213	-97.02
361.663	-162.94
362.112	-242.05
362.561	-406.23
363.01	-272.83
363.459	-195.77
363.908	-235.75
364.357	-175.7
364.806	-342.56
365.255	-197.28
365.703	-136.44
366.152	-149.34
366.601	-92.91
367.05	-37
367.498	-16.29
367.947	-47.13
368.395	-52.8
368.844	-44.16
369.292	-109.89
369.74	-50.65
370.189	-104.84
370.637	-140.72
371.085	-100.46
371.533	-152.78
371.981	-190.91
372.429	-143.46
372.877	-122.92
373.325	-103.28
373.773	-127.21
374.221	-117.85
374.669	-156.83
375.116	-145.29
375.564	-147.88
376.012	-153.35
376.459	-102.85
376.907	-110.7
377.354	-173.76
377.801	-148.44
378.249	-154.32
378.696	-166.27
379.143	-198.32
379.591	-232.89
380.038	-314.03
380.485	-225.31
380.932	-320.99
381.379	-126.7
381.826	-41.94
382.273	-64.26
382.72	-73.41
383.166	-36.76
383.613	-26.5
384.06	-7.11
384.506	-14.2
384.953	-7.98
385.4	-14.45
385.846	-17.39
386.292	-54.57
386.739	-76.47
387.185	-83.01
387.631	-72.85
388.078	-60.93
388.524	-66.13
388.97	-56.42
389.416	-40.92
389.862	-43.37
390.308	-37.45
390.754	-25.26
391.2	-30.53
391.645	-35.57
392.091	9.61
392.537	20.21
392.983	-0.71
393.428	30.3
393.874	25.18
394.319	46.01
394.765	71.55
395.21	56.45
395.655	52.78
396.101	55.25
396.546	56.39
396.991	35.53
397.436	29.91
397.881	24.45
398.326	2.25
398.771	8.28
399.216	-5.15
399.661	-19.47
400.106	-9.84
400.551	-6.14
400.995	-2.98
401.44	0.34
401.885	4.31
402.329	1.13
402.774	6.76
403.218	22.24
403.663	20.35
404.107	25.6
404.551	34.53
404.995	31.76
405.44	20.19
405.884	17.03
406.328	10.76
406.772	5
407.216	6.89
407.66	3.49
408.104	-9.4
408.547	-8.45
408.991	-9.44
409.435	-12.16
409.879	-9.54
410.322	-3.83
410.766	-1.67
411.209	3.19
411.653	2.93
412.096	6.7
412.54	4.87
412.983	6.19
413.426	9.02
413.869	8.14
414.312	10.47
414.756	8.26
415.199	8.49
415.642	11.02
416.085	10.78
416.527	8.6
416.97	4.37
417.413	7.03
417.856	5.51
418.298	4.28
418.741	3.2
419.184	0.62
419.626	-4.17
420.069	-6.7
420.511	-6.45
420.953	-5.97
421.396	-2.86
421.838	-1.92
422.28	-2.52
422.722	0.9
423.164	-2.33
423.606	-3.15
424.048	-3.56
424.49	0.12
424.932	0.47
425.374	-1.97
425.816	-3.75
426.258	-4.8
426.699	-5.05
427.141	-0.54
427.582	-2.4
428.024	-2.71
428.465	-4.29
428.907	-4.6
429.348	-7.06
429.789	-5.66
430.231	-1.43
430.672	0.14
431.113	1.24
431.554	-1.26
431.995	-5.85
432.436	-3.17
432.877	-1.18
433.318	3.95
433.759	4.4
434.2	5.6
434.64	4.95
435.081	2.77
435.522	2.1
435.962	3.1
436.403	5.42
436.843	3.95
437.284	1.6
437.724	-0.19
438.164	-5.71
438.604	-6.16
439.045	-3.4
439.485	0.27
439.925	-0.24
440.365	0.72
440.805	-0.51
441.245	2.43
441.685	4.22
442.125	3.96
442.564	2.78
443.004	5.22
443.444	4.5
443.883	3.79
444.323	-1.25
444.762	-4.73
445.202	-7.31
445.641	-5.5
446.081	-9.19
446.52	-9.84
446.959	-8.1
447.398	-5.49
447.837	-4.5
448.276	-4.39
448.716	-4.32
449.154	-4.31
449.593	-1.28
450.032	0.01
450.471	-1.61
450.91	-1.73
451.349	0.93
451.787	-0.07
452.226	-2.55
452.664	-3.73
453.103	-3.61
453.541	-4.94
453.98	-0.73
454.418	-1.8
454.856	-0.38
455.295	-1.16
455.733	-0.52
456.171	-1.86
456.609	-0.6
457.047	1.66
457.485	2.81
457.923	4.54
458.361	3.44
458.798	1.43
459.236	1.65
459.674	-0.22
460.111	1.76
460.549	1.31
460.987	-0.33
461.424	-2.08
461.862	-1.61
462.299	-1.28
462.736	0.06
463.173	1.88
463.611	5.49
464.048	6.63
464.485	7.55
464.922	6.09
465.359	5.57
465.796	14.05
466.233	16.39
466.67	18.24
467.106	19.96
467.543	17.55
467.98	16.08
468.416	13.52
468.853	11.39
469.29	11.41
469.726	10.9
470.162	10.84
470.599	3.91
471.035	1.72
471.471	-0.52
471.907	-4.07
472.344	-5.25
472.78	-3.56
473.216	-5.75
473.652	-3.79
474.088	-5
474.523	-4.7
474.959	-4.97
475.395	-4.28
475.831	-2.86
476.266	-2.46
476.702	-2.08
477.138	-0.47
477.573	-0.62
478.008	0.62
478.444	0.9
478.879	2.75
479.314	3.13
479.75	3.98
480.185	3.08
480.62	2.07
481.055	1.75
481.49	3.51
481.925	3.27
482.36	4.42
482.795	3.21
483.229	1.76
483.664	0.83
484.099	1.25
484.534	1.52
484.968	3.19
485.403	3.02
485.837	2.39
486.271	1.75
486.706	1.93
487.14	0.9
487.574	2
488.009	2.31
488.443	2.38
488.877	2.66
489.311	1.69
489.745	1.08
490.179	2.01
490.613	4.07
491.046	3.32
491.48	2.89
491.914	3.01
492.348	2.5
492.781	3.08
493.215	2.9
493.648	2.04
494.082	2.72
494.515	2.93
494.948	2.94
495.382	1.15
495.815	1.7
496.248	2.08
496.681	1.58
497.114	1.3
497.547	1.22
497.98	2.29
498.413	4.32
498.846	4.24
499.279	3.77
499.711	3.09
500.144	2.7
500.577	3.6
501.009	3.27
501.442	4.33
501.874	5.1
502.306	5.04
502.739	7.14
503.171	6.18
503.603	6.33
504.036	5.53
504.468	5.71
504.9	6.29
505.332	5.58
505.764	6.15
506.196	5.65
506.627	5.58
507.059	5.49
507.491	2.55
507.923	2.72
508.354	3.35
508.786	4.14
509.217	4.49
509.649	5.07
510.08	4.92
510.512	5.53
510.943	5.48
511.374	6.08
511.805	5.48
512.237	5.62
512.668	5.17
513.099	3.73
513.53	3.63
513.961	3.85
514.391	3.26
514.822	4.8
515.253	4.94
515.684	5.23
516.114	5.07
516.545	6.13
516.975	6.04
517.406	5.44
517.836	6.2
518.267	6.71
518.697	7.18
519.127	7.79
519.558	6.43
519.988	5.37
520.418	4.66
520.848	3.99
521.278	3.11
521.708	35.54
522.138	37.32
522.567	36.65
522.997	36.63
523.427	36.03
523.857	36.13
524.286	36.04
524.716	36.83
525.145	37.61
525.575	38.43
526.004	38.95
526.433	7.5
526.863	5.93
527.292	7.41
527.721	8.12
528.15	8.72
528.579	8.6
529.008	8.93
529.437	7.84
529.866	7.57
530.295	6.89
530.724	7.63
531.152	7.63
531.581	8.76
532.01	8.07
532.438	7.18
532.867	6.19
533.295	6.45
533.723	6.25
534.152	6.83
534.58	7.04
535.008	7.28
535.436	7.75
535.865	7.45
536.293	6.19
536.721	6.11
537.149	6.56
537.576	7.63
538.004	7.69
538.432	7.26
538.86	7.71
539.287	7.63
539.715	7.73
540.143	6.49
540.57	7.1
540.998	7.41
541.425	9.26
541.852	9.07
542.28	8.8
542.707	8.69
543.134	9.1
543.561	9.04
543.988	9.31
544.415	8.87
544.842	8.68
545.269	8.08
545.696	8.65
546.123	7.87
546.549	7.98
546.976	8.13
547.403	8.01
547.829	7.55
548.256	7.03
548.682	6.76
549.108	7.9
549.535	8.03
549.961	7.76
550.387	7.49
550.813	8.4
551.24	8.14
551.666	7.63
552.092	7
552.518	7.1
552.943	7.92
553.369	8.24
553.795	8.05
554.221	8.57
554.646	8.86
555.072	10.12
555.498	8.64
555.923	8.23
556.349	8.02
556.774	8.3
557.199	8.52
557.625	7.76
558.05	7.98
558.475	7.39
558.9	7.37
559.325	7.96
559.75	7.49
560.175	6.73
560.6	7.27
561.025	6.93
561.449	7.13
561.874	7.14
562.299	7.85
562.723	7.11
563.148	7.29
563.572	6.96
563.997	6.5
564.421	5.09
564.846	5.29
565.27	5.43
565.694	6.01
566.118	5.71
566.542	6.16
566.966	6.03
567.39	6.31
567.814	6.52
568.238	6.95
568.662	6.29
569.086	7.02
569.509	6.55
569.933	7.28
570.357	7
570.78	7.41
571.204	8.39
571.627	8.17
572.05	8.35
572.474	9.03
572.897	9.17
573.32	9.82
573.743	9.16
574.166	10.4
574.589	9.11
575.012	9.07
575.435	8.59
575.858	7.9
576.281	7.89
576.704	7.12
577.126	5.86
577.549	4.8
577.972	4.4
578.394	4.83
578.817	6.44
579.239	6.66
579.661	7.42
580.084	9.19
580.506	8.62
580.928	8.26
581.35	9.19
581.772	9.91
582.194	10.42
582.616	10.02
583.038	8.74
583.46	6.69
583.882	6.84
584.303	5.08
584.725	3.43
585.147	8.08
585.568	8.72
585.99	8.61
586.411	8.89
586.833	8.84
587.254	9.87
587.675	9.89
588.096	9.47
588.518	9.38
588.939	10.14
589.36	10.87
589.781	5.06
590.202	6.96
590.623	6.28
591.043	5.43
591.464	5.16
591.885	5.29
592.305	5.79
592.726	4.83
593.147	4.98
593.567	5.23
593.987	4.67
594.408	4.84
594.828	2.1
595.248	3.07
595.669	4.14
596.089	4.3
596.509	3.15
596.929	3.05
597.349	4.4
597.769	4.01
598.189	4.12
598.608	3.92
599.028	3.85
599.448	3.7
599.867	2.87
600.287	1.86
600.706	2.46
601.126	3.14
601.545	3.92
601.965	3.82
602.384	3.96
602.803	3.61
603.222	4.01
603.641	3.9
604.061	4.24
604.48	3.88
604.898	3.83
605.317	3.09
605.736	2.5
606.155	2.74
606.574	2.43
606.992	2.24
607.411	2.36
607.829	1.55
608.248	1.59
608.666	1.04
609.085	1.78
609.503	1.63
609.921	2.52
610.339	2.59
610.758	1.75
611.176	2.04
611.594	2.87
612.012	2.96
612.43	3.98
612.847	3.99
613.265	5.87
613.683	5.31
614.101	5.31
614.518	3.78
614.936	3.85
615.353	4.66
615.771	4.51
616.188	4.07
616.606	3.82
617.023	3.35
617.44	3.76
617.857	1.55
618.274	1.62
618.691	2.19
619.108	2.72
619.525	2.61
619.942	2.82
620.359	2.76
620.776	2.5
621.192	3.33
621.609	3.97
622.026	4.01
622.442	4.58
622.859	4.24
623.275	3.91
623.691	4.3
624.108	4.57
624.524	3.31
624.94	3.35
625.356	3.07
625.772	2.09
626.188	1.28
626.604	0.72
627.02	1.18
627.436	1.64
627.852	3.05
628.268	3.77
628.683	3.56
629.099	4.4
629.514	4
629.93	3.58
630.345	3.57
630.761	3.25
631.176	3.64
631.591	5.09
632.007	5.62
632.422	3.29
632.837	1.28
633.252	2.05
633.667	1.89
634.082	2.16
634.497	3.98
634.911	6.29
635.326	6.82
635.741	6.9
636.155	5.52
636.57	5.47
636.984	6.16
637.399	8.12
637.813	7.58
638.228	7.58
638.642	7.06
639.056	5.87
639.47	4.1
639.884	3.69
640.298	3.3
640.712	3.92
641.126	4.1
641.54	3.76
641.954	1.35
642.368	1.46
642.781	3.84
643.195	4.25
643.609	4.69
644.022	4.31
644.436	3.98
644.849	3.85
645.262	2.98
645.676	2.05
646.089	2.05
646.502	4.01
646.915	2.83
647.328	1.42
647.741	1.04
648.154	1.49
648.567	4.03
648.98	4.89
649.393	4.85
649.805	5.19
650.218	5.32
650.631	6.09
651.043	6.24
651.456	7.38
651.868	6.28
652.28	5.6
652.693	3.69
653.105	2.27
653.517	1.39
653.929	0.78
654.341	0.49
654.753	1.03
655.165	0.52
655.577	0.32
655.989	0.91
656.401	-0.07
656.813	2.31
657.224	3.15
657.636	1.62
658.047	3.14
658.459	3.73
658.87	2.9
659.282	2.5
659.693	3.43
660.104	3.17
660.515	2.27
660.926	2.29
661.338	1.14
661.749	0.83
662.159	2.18
662.57	0.74
662.981	1.09
663.392	1.38
663.803	1.36
664.213	0.32
664.624	0.09
665.035	-0.95
665.445	-0.8
665.855	0.12
666.266	1.24
666.676	1.04
667.086	0.88
667.497	0.37
667.907	0.17
668.317	-1.08
668.727	2.45
669.137	1.23
669.547	1.89
669.956	1.22
670.366	0.24
670.776	0.5
671.186	-0.33
671.595	0.48
672.005	-0.29
672.414	0.83
672.824	2.39
673.233	-1.13
673.642	-0.11
674.052	0.53
674.461	2.52
674.87	3.15
675.279	3.16
675.688	1.95
676.097	2.52
676.506	3.25
676.915	1.7
677.323	1.26
677.732	1.52
678.141	1.41
678.549	1.46
678.958	-0.47
679.366	-1.64
679.775	-3.48
680.183	-1.37
680.592	-2.4
681	-2.61
681.408	-1.38
681.816	-1.03
682.224	-1.67
682.632	0.1
683.04	-0.62
683.448	-0.21
683.856	0.99
684.264	1.54
684.671	0.06
685.079	-0.72
685.487	-1.26
685.894	-2.33
686.302	-3.66
686.709	-3.22
687.116	-5.65
687.524	-4.65
687.931	-2.98
688.338	-3.42
688.745	-3.45
689.152	-3.15
689.559	-2.32
689.966	0.31
690.373	1.55
690.78	2.97
691.187	3.63
691.593	5.86
692	5.52
692.407	5.71
692.813	7.7
693.22	8.75
693.626	7.88
694.032	8.54
694.439	8.35
694.845	7.67
695.251	6.53
695.657	5.9
696.063	4.22
696.469	3.77
696.875	3.69
697.281	2.67
697.687	1.93
698.093	3.12
698.498	3.1
698.904	1.23
699.31	1.22
699.715	4.38
700.12	4.64
700.526	4.62
700.931	5.05
701.337	5.44
701.742	6.32
702.147	6.6
702.552	6.9
702.957	5.9
703.362	6.51
703.767	6.51
704.172	4.34
704.577	4.52
704.981	3.02
705.386	3.66
705.791	3.03
706.195	1.43
706.6	1.11
707.004	0.14
707.408	-0.13
707.813	0.78
708.217	1.87
708.621	1.3
709.025	1.11
709.43	4.41
709.834	4.12
710.237	4.74
710.641	5.7
711.045	7.09
711.449	8.36
711.853	12.56
712.256	11.59
712.66	11.13
713.064	11.92
713.467	13.22
713.87	12.61
714.274	13.48
714.677	13.77
715.08	14.06
715.484	13.82
715.887	16
716.29	12.46
716.693	14.74
717.096	15.36
717.499	14.88
717.901	12.32
718.304	11.32
718.707	10.86
719.109	10.14
719.512	8.45
719.915	10.9
720.317	8.82
720.719	8.04
721.122	5.79
721.524	5.74
721.926	11.33
722.328	12.51
722.731	12.01
723.133	12.48
723.535	12.32
723.937	12.17
724.338	11.02
724.74	13.21
725.142	65.8
725.544	71.53
725.945	83.91
726.347	78.84
726.748	79.2
727.15	80.78
727.551	83.04
727.952	81.42
728.354	80.96
728.755	80.66
729.156	78.1
729.557	27.27
729.958	22.71
730.359	10.85
730.76	11.48
731.161	11.36
731.562	10
731.962	7.18
732.363	8.81
732.763	9.69
733.164	6.95
733.564	7.41
733.965	9.62
734.365	9.96
734.766	10.28
735.166	9.3
735.566	9.6
735.966	10.68
736.366	11.3
736.766	11.88
737.166	11.29
737.566	11.94
737.966	11.59
738.365	11.2
738.765	12.41
739.165	12.18
739.564	13.1
739.964	11.7
740.363	10.3
740.763	9.24
741.162	9.67
741.561	9.69
741.96	10.98
742.36	10.77
742.759	10.07
743.158	7.5
743.557	6.91
743.955	6.48
744.354	6.35
744.753	6.48
745.152	7.5
745.55	5.71
745.949	5.51
746.348	5.02
746.746	4.27
747.144	6.55
747.543	7.31
747.941	6.09
748.339	6.29
748.737	8.94
749.136	9.83
749.534	8.8
749.932	10.65
750.33	11.27
750.727	10.64
751.125	11.6
751.523	10.1
751.921	13.66
752.318	15.61
752.716	17.3
753.113	16.55
753.511	16.01
753.908	16.28
754.305	20.16
754.703	20.88
755.1	22.06
755.497	22.42
755.894	22.48
756.291	20.4
756.688	20.12
757.085	18.52
757.482	18.88
757.878	20.44
758.275	21.88
758.672	12.72
759.068	10.74
759.465	8.54
759.861	7.61
760.258	6.33
760.654	3.29
761.05	8.19
761.447	7.53
761.843	8.25
762.239	8.98
762.635	6.3
763.031	5.91
763.427	7.34
763.822	8.34
764.218	7.08
764.614	6.89
765.01	5.87
765.405	3.2
765.801	4.59
766.196	4.51
766.592	3.61
766.987	5.85
767.382	6.77
767.778	6.98
768.173	6.44
768.568	6.23
768.963	7.05
769.358	8.18
769.753	9.43
770.148	10.13
770.542	9.06
770.937	8.68
771.332	9.64
771.726	8.75
772.121	11.59
772.515	13.24
772.91	14.46
773.304	14.24
773.699	14
774.093	12.62
774.487	11.08
774.881	11.84
775.275	12.29
775.669	9.84
776.063	10.69
776.457	10.32
776.851	9.41
777.245	9.22
777.638	9.43
778.032	8.97
778.425	11.21
778.819	14.83
779.212	16.97
779.606	21.13
779.999	20.79
780.392	23.06
780.786	19
781.179	19.4
781.572	20.31
781.965	20.51
782.358	20.8
782.751	20.29
783.143	17.93
783.536	17.26
783.929	13.22
784.322	14.21
784.714	11.53
785.107	13.24
785.499	14.34
785.891	14.36
786.284	13.94
786.676	14.02
787.068	15.79
787.46	16.68
787.852	14.67
788.245	14.95
788.636	13.14
789.028	15.33
789.42	17.78
789.812	18.06
790.204	18.04
790.595	20.8
790.987	20.57
791.378	18.96
791.77	16.37
792.161	16.12
792.553	15.88
792.944	16.91
793.335	13.72
793.726	13.19
794.117	15.03
794.508	11.55
794.899	7.68
795.29	5.43
795.681	4.86
796.072	5.75
796.463	25.78
796.853	30.52
797.244	32.56
797.634	35.47
798.025	34.05
798.415	28.67
798.806	32.94
799.196	35.17
799.586	40.24
799.976	41.6
800.366	41.38
800.756	20.08
801.146	15.63
801.536	14.19
801.926	11.54
802.316	11.99
802.706	13.53
803.095	14.79
803.485	13.54
803.874	12.81
804.264	11.62
804.653	12.51
805.043	15.36
805.432	17.03
805.821	18.83
806.21	20.6
806.599	19.16
806.988	20.29
807.377	15.53
807.766	15.29
808.155	13.05
808.544	12.75
808.933	11.57
809.321	11.25
809.71	6.96
810.098	4.3
810.487	1.46
810.875	2.03
811.264	2.36
811.652	12.69
812.04	11.14
812.428	13.82
812.816	9.72
813.204	12.96
813.592	12.32
813.98	16.87
814.368	24.04
814.756	26.86
815.144	25.85
815.531	28.86
815.919	19.14
816.306	22.27
816.694	18.22
817.081	23.08
817.469	22.52
817.856	17.35
818.243	13.87
818.63	6.13
819.017	9.66
819.404	11.03
819.791	9.08
820.178	3.8
820.565	3.49
820.952	12.63
821.339	13.27
821.725	15.1
822.112	22.13
822.498	21.69
822.885	22.54
823.271	18.85
823.657	11.99
824.044	9.19
824.43	12.22
824.816	21.64
825.202	18.85
825.588	16.44
825.974	16.43
826.36	12.47
826.746	12.73
827.132	11.09
827.517	17.92
827.903	22.37
828.289	28.15
828.674	29.44
829.06	22.92
829.445	17.53
829.83	15.23
830.216	12.45
830.601	15.73
830.986	23.72
831.371	27.3
831.756	27.65
832.141	34.95
832.526	34.9
832.911	35.42
833.295	36.08
833.68	38.84
834.065	42.88
834.449	41.59
834.834	42.88
835.218	39.64
835.603	39.26
835.987	32.14
836.371	26.9
836.755	28.81
837.139	25.12
837.524	19.34
837.908	13.46
838.291	15.49
838.675	13.27
839.059	10.39
839.443	5.4
839.827	1.91
840.21	-0.13
840.594	2.66
840.977	-2.26
841.361	-0.13
841.744	-1.63
842.127	0.33
842.511	-1.15
842.894	-1.46
843.277	-1.99
843.66	-1.4
844.043	3.23
844.426	11.63
844.809	5.95
845.191	8.61
845.574	7.01
845.957	12.4
846.339	18.51
846.722	19.25
847.104	16.89
847.487	13.98
847.869	17.51
848.252	18.52
848.634	14.24
849.016	16.12
849.398	12.1
849.78	12.83
850.162	14.36
850.544	9.63
850.926	3.74
851.307	5.47
851.689	6.45
852.071	-0.33
852.452	-1.46
852.834	0.7
853.215	3.26
853.597	4
853.978	8.78
854.359	6.71
854.741	11.2
855.122	14.7
855.503	14.77
855.884	14
856.265	17.45
856.646	10.85
857.026	13.04
857.407	13.3
857.788	11.72
858.169	5.87
858.549	13.54
858.93	11.91
859.31	13.3
859.69	19.12
860.071	20.64
860.451	24.24
860.831	30.59
861.211	26.08
861.591	22.84
861.971	24.96
862.351	24.56
862.731	14.15
863.111	13.07
863.491	13.06
863.87	11.32
864.25	9.12
864.629	13.72
865.009	6.61
865.388	9.64
865.768	8.03
866.147	5.38
866.526	7.03
866.905	8
867.284	-1.56
867.663	-10.81
868.042	-17.6
868.421	-15.63
868.8	-27.22
869.179	-21.83
869.558	-23.82
869.936	-17.63
870.315	-17.44
870.693	-11.4
871.072	-15.95
871.45	-11.79
871.828	-1.41
872.207	3.81
872.585	4.59
872.963	5.26
873.341	13.24
873.719	23.87
874.097	25.64
874.475	22.08
874.853	14.76
875.23	19.42
875.608	22.72
875.986	21.11
876.363	19.65
876.741	30.94
877.118	39.38
877.495	38.24
877.873	34.6
878.25	29.47
878.627	30.74
879.004	28.64
879.381	24.8
879.758	28.24
880.135	27.25
880.512	31.93
880.889	16.12
881.265	12.48
881.642	1.25
882.019	-1.65
882.395	10.78
882.772	16.38
883.148	21.84
883.524	25.57
883.901	26.85
884.277	26.99
884.653	22.65
885.029	34.86
885.405	43.83
885.781	46.14
886.157	42.3
886.532	33.44
886.908	31.23
887.284	29.89
887.659	26.15
888.035	19.89
888.411	17.51
888.786	20.42
889.161	15.62
889.537	3.71
889.912	6.75
890.287	9.52
890.662	5.45
891.037	-3.44
891.412	-3.82
891.787	-5.62
892.162	-1.01
892.536	-5.18
892.911	-3.34
893.286	-8.46
893.66	-2
894.035	-2.86
894.409	-12.05
894.784	-5.61
895.158	-1.97
895.532	-1.11
895.906	1
896.281	4.38
896.655	19.36
897.029	17.95
897.402	14.81
897.776	3.56
898.15	8.17
898.524	13.53
898.898	9.65
899.271	19.51
899.645	19.42
900.018	22.94
900.392	23.39
900.765	9.99
901.138	16.54
901.511	13.44
901.884	30.38
902.258	28.07
902.631	31.23
903.003	31.51
903.376	23.74
903.749	27.84
904.122	23.13
904.495	5.35
904.867	-2.67
905.24	-6.56
905.612	-2.81
905.985	-20.34
906.357	-25.16
906.729	-23.45
907.102	-9.28
907.474	-4.94
907.846	-0.35
908.218	0.9
908.59	23.89
908.962	27.01
909.334	29.99
909.705	45.89
910.077	46.39
910.449	46.49
910.82	44.55
911.192	43.16
911.563	48.22
911.935	34.04
912.306	18.3
912.677	-5.98
913.048	-2.48
913.419	1.71
913.79	-27.67
914.161	-33.56
914.532	-19.42
914.903	-15.3
915.274	-17.64
915.645	-15.3
916.015	-14.6
916.386	-1.48
916.756	-3.12
917.127	-17.17
917.497	-15.79
917.868	1.63
918.238	6.44
918.608	-2.69
918.978	-2.65
919.348	-10.57
919.718	-25.2
920.088	-15.98
920.458	-10.47
920.828	-15.87
921.198	-2.67
921.567	-3.74
921.937	-2.57
922.306	-14.98
922.676	-18.31
923.045	8.14
923.415	22.82
923.784	23.07
924.153	32.98
924.522	35.65
924.891	34.55
925.26	30.26
925.629	19.77
925.998	12
926.367	21.71
926.736	41.04
927.104	17.85
927.473	5.15
927.842	-1.68
928.21	-15.19
928.578	-49.95
928.947	-32.44
929.315	-26.7
929.683	-20.12
930.051	-13.7
930.42	-36.44
930.788	-39.6
931.156	-23.41
931.523	16.66
931.891	39.36
932.259	51.4
932.627	93.26
932.994	99.31
933.362	144.72
933.729	122.51
934.097	134.55
934.464	132.55
934.831	135.15
935.199	107.18
935.566	93
935.933	57.24
936.3	73.57
936.667	41.9
937.034	144.58
937.401	105.38
937.767	106.51
938.134	73.49
938.501	85.09
938.867	93.28
939.234	174.09
939.6	66.01
939.967	113.9
940.333	78.42
940.699	70.01
941.065	-40.57
941.431	-56.94
941.798	-1.68
942.163	61.08
942.529	31.49
942.895	1.17
943.261	11.59
943.627	27.27
943.992	45.69
944.358	44.85
944.723	76.21
945.089	70.27
945.454	80.84
945.82	48.18
946.185	23.61
946.55	30.91
946.915	60.63
947.28	83.54
947.645	83.63
948.01	95.07
948.375	107.98
948.74	84.97
949.104	81.3
949.469	23.94
949.834	33.92
950.198	150.6
950.562	128.11
950.927	97.91
951.291	101.8
951.655	80.02
952.02	-7.29
952.384	-12.21
952.748	39.88
953.112	79.95
953.476	96.49
953.839	76.41
954.203	91.21
954.567	105.15
954.931	102.02
955.294	101.84
955.658	95.68
956.021	207.48
956.385	263.04
956.748	229.73
957.111	-6.77
957.474	-214.62
957.837	-223.68
958.2	-495.39
958.563	-183.5
958.926	-60.79
959.289	-117.27
959.652	-123.1
960.015	-82.7
960.377	-97.26
960.74	-104.75
961.102	-173.62
961.465	-1.34
961.827	447
962.189	845.92
962.552	626.83
962.914	532.65
963.276	338.89
963.638	278.71
964	233.27
964.362	175.62
964.724	155.91
965.085	128.82
965.447	111.1
965.809	25.65
966.17	4.51
966.532	-12.82
966.893	-25.15
967.255	-24.47
967.616	-36.23
967.977	-5.85
968.338	-23.62
968.699	-1.41
969.061	-8.19
969.421	-5.8
969.782	-8.46
970.143	19.41
970.504	53.91
970.865	80.12
971.225	112.92
971.586	118.84
971.946	127.06
972.307	116.08
972.667	123.21
973.027	119.27
973.388	95.71
973.748	84.54
974.108	91.37
974.468	34.71
974.828	59.26
975.188	0.45
975.548	7.88
975.907	25.98
976.267	31.62
976.627	57.69
976.986	57.81
977.346	65.04
977.705	65.82
978.064	74.7
978.424	75.1
978.783	39.95
979.142	57.18
979.501	63.02
979.86	70.93
980.219	57.98
980.578	28.95
980.937	26.1
981.296	19.33
981.654	2.61
982.013	-74.15
982.371	-58
982.73	-32.18
983.088	-66.55
983.447	-130.24
983.805	-149.55
984.163	-270.81
984.521	-282.11
984.879	-605.06
985.237	1080.75
985.595	-605.28
985.953	-148.71
986.311	-136.18
986.669	-70.43
987.026	-68.25
987.384	-157.1
987.741	-205.59
988.099	-83.53
988.456	-56.51
988.814	-8.23
989.171	9.15
989.528	-30.02
989.885	-25.88
990.242	-7.44
990.599	-20.13
990.956	-15.63
991.313	17.19
991.67	23.71
992.027	64.88
992.383	63.33
992.74	62.13
993.096	70.75
993.453	86.36
993.809	80.46
994.165	93.57
994.522	148.23
994.878	165.82
995.234	202.2
995.59	185.84
995.946	89.8
996.302	88.11
996.658	68.04
997.013	43.57
997.369	77.78
997.725	92.19
998.08	56.8
998.436	-128.89
998.791	-203.13
999.147	-134.32
999.502	-143.91
999.857	-75.71
1000.212	-77.64
1000.567	-57.89
1000.922	14.29
1001.277	-19.56
1001.632	40.91
1001.987	30.72
1002.342	37.97
1002.696	59.96
1003.051	55.85
1003.406	78.33
1003.76	60.93
1004.114	74.67
1004.469	82.54
1004.823	61.13
1005.177	60.82
1005.531	42.43
1005.885	53.22
1006.239	77.4
1006.593	100.62
1006.947	128.17
1007.301	77.3
1007.655	74.93
1008.008	58.9
1008.362	41.98
1008.715	54.47
1009.069	31.66
1009.422	119.35
1009.776	139.04
1010.129	34.66
1010.482	-5.55
1010.835	-98.7
1011.188	-266.36
1011.541	-304.48
1011.894	2190.45
1012.247	-6687.17
1012.6	-464.42
1012.952	-246.18
1013.305	-208.39
1013.657	-104.07
1014.01	-100.6
1014.362	-90.9
1014.715	-19.65
1015.067	12.79
1015.419	24.5
1015.771	19.88
1016.123	37.15
1016.475	44.05
1016.827	48.83
1017.179	80.21
1017.531	65.06
1017.883	62.13
1018.234	123.04
1018.586	146.13
1018.938	192.97
1019.289	282.33
1019.64	316.16
1019.992	256.77
1020.343	237.15
1020.694	241.44
1021.045	182.05
1021.396	173.62
1021.747	220.05
1022.098	143.19
1022.449	89.56
1022.8	63.62
1023.151	58.34
1023.501	55.84
1023.852	47.49
1024.202	62.83
1024.553	36.04
1024.903	61.4
1025.253	102.76
1025.604	97.79
1025.954	112.41
1026.304	91.2
1026.654	88.73
1027.004	58.63
1027.354	3.23
1027.703	150.15
1028.053	99.07
1028.403	343.71
1028.753	334.07
1029.102	-143.06
1029.452	-2826.35
1029.801	-110.33
1030.15	-24.9
1030.499	-59.89
897.758	1825.43
901.051	1753.83
904.343	1786.41
907.636	1793.44
910.928	1845.03
914.22	1778.52
917.511	1781.44
920.803	1819.85
924.094	1810.97
927.384	1818.67
930.675	1785.44
933.965	1756.31
937.255	1789.55
940.544	1764.78
943.834	1754.54
947.123	1706.34
950.411	1779.38
953.7	1765.66
956.988	1758
960.276	1697.83
963.563	1731.28
966.851	1741.64
970.138	1773.12
973.424	1775.51
976.711	1729.82
979.997	1774.16
983.283	1806.47
986.568	1753.06
989.853	1737.01
993.138	1753.78
996.423	1832.16
999.708	1800.61
1002.992	1823.82
1006.275	1745.23
1009.559	1747.02
1012.842	1829.82
1016.125	1790.54
1019.408	1774.3
1022.69	1813.32
1025.972	1843.17
1029.254	1825.33
1032.536	1797.48
1035.817	1798.46
1039.098	1772.35
1042.379	1812.08
1045.659	1832.95
1048.939	1787.02
1052.219	1789.92
1055.498	1778.11
1058.778	1774.6
1062.057	1751.41
1065.335	1770.88
1068.614	1777.21
1071.892	1776.55
1075.17	1816.02
1078.447	1821.71
1081.724	1817.39
1085.001	1835.08
1088.278	1814.19
1091.554	1817.59
1094.83	1814.66
1098.106	1845.34
1101.382	1866.17
1104.657	1862.42
1107.932	1862.48
1111.206	1845.96
1114.481	1802.89
1117.755	1803.35
1121.029	1801.04
1124.302	1852.73
1127.575	1827.09
1130.848	1826.2
1134.121	1801.87
1137.393	1771.27
1140.665	1819.61
1143.937	1801.02
1147.208	1755.74
1150.48	1808.81
1153.75	1797.6
1157.021	1794.06
1160.291	1773.86
1163.561	1819.44
1166.831	1785.84
1170.101	1805.19
1173.37	1768.69
1176.639	1736.02
1179.907	1771.24
1183.176	1791.43
1186.444	1791.46
1189.711	1811.67
1192.979	1832.07
1196.246	1799.89
1199.513	1807.99
1202.78	1813.74
1206.046	1822.12
1209.312	1847.14
1212.578	1856.93
1215.843	1831.13
1219.108	1806.85
1222.373	1825.69
1225.638	1805.7
1228.902	1802.57
1232.166	1764.45
1235.43	1756.98
1238.693	1781.79
1241.956	1775.67
1245.219	1819.4
1248.482	1805.35
1251.744	1805.19
1255.006	1897.28
1258.268	1855.37
1261.529	1822.9
1264.79	1818.89
1268.051	1896.72
1271.312	1902.61
1274.572	1877.03
1277.832	1866.1
1281.092	1846.07
1284.351	1841.9
1287.61	1829.81
1290.869	1783.76
1294.128	1782.06
1297.386	1809.36
1300.644	1804.71
1303.902	1814.2
1307.159	1708.02
1310.416	1749.23
1313.673	1773
1316.93	1775.6
1320.186	1797.3
1323.442	1823.46
1326.697	1826.44
1329.953	1801.53
1333.208	1838.55
1336.463	1818.39
1339.717	1792.27
1342.972	1876.49
1346.226	1856.98
1349.479	1821.31
1352.733	1806.24
1355.986	1809.66
1359.238	1794.37
1362.491	1799.7
1365.743	1803.46
1368.995	1794.92
1372.247	1810.3
1375.498	1825.21
1378.749	1868.59
1382	1826.9
1385.251	1852.6
1388.501	1814.35
1391.751	1821.25
1395	1795.04
1398.25	1816.33
1401.499	1843.51
1404.748	1807.32
1407.996	1787.4
1411.244	1781.6
1414.492	1770.99
1417.74	1759.92
1420.987	1763.13
1424.234	1815.36
1427.481	1779.43
1430.728	1828.23
1433.974	1808.92
1437.22	1799.95
1440.465	1797.69
1443.711	1803.94
1446.956	1818.17
1450.201	1790.39
1453.445	1825.61
1456.689	1817.09
1459.933	1823.12
1463.177	1859.1
1466.42	1835.47
1469.663	1820.92
1472.906	1839.68
1476.148	1874.78
1479.391	1835.8
1482.633	1818.48
1485.874	1842.52
1489.115	1849.45
1492.356	1830.43
1495.597	1814.19
1498.838	1801.05
1502.078	1792.81
1505.318	1772.63
1508.557	1794.86
1511.797	1791.96
1515.036	1839.5
1518.274	1805.68
1521.513	1755.42
1524.751	1762.34
1527.989	1783.55
1531.227	1797.85
1534.464	1810.89
1537.701	1799.24
1540.938	1806.06
1544.174	1761.42
1547.41	1747.76
1550.646	1778.12
1553.882	1820.32
1557.117	1870.64
1560.352	1872.21
1563.587	1841.31
1566.821	1814.71
1570.055	1823.26
1573.289	1805.76
1576.523	1847.88
1579.756	1860.76
1582.989	1880.3
1586.222	1841.82
1589.454	1867.65
1592.686	1855.52
1595.918	1877.8
1599.15	1874.14
1602.381	1907.35
1605.612	1897.41
1608.843	1973.76
1612.073	1911.01
1615.303	1902.58
1618.533	1900.39
1621.762	1899.94
1624.992	1871.84
1628.221	1875.41
1631.449	1865.59
1634.678	1881.87
1637.906	1856.22
1641.134	1874.05
1644.361	1845.6
1647.588	1839.7
1650.815	1858.42
1654.042	1824.99
1657.269	1846.91
1660.495	1837.22
1663.72	1816.83
1666.946	1794.1
1670.171	1781.5
1673.396	1756.4
1676.621	1740.49
1679.845	1735.23
1683.069	1736.4
1686.293	1757.72
1689.517	1755.05
1692.74	1721.29
1695.963	1737.06
1699.185	1775.63
1702.408	1754.68
1705.63	1776.33
1708.852	1793.14
1712.073	1769.84
1715.294	1785.13
1718.515	1820.41
1721.736	1789.25
1724.956	1770.54
1728.176	1788.32
1731.396	1805.41
1734.616	1795.79
1737.835	1829.8
1741.054	1801.57
1744.272	1799.08
1747.491	1835.64
1750.709	1848.41
1753.927	1816.69
1757.144	1831.71
1760.361	1883.33
1763.578	1857.07
1766.795	1817.81
1770.011	1807.52
1773.227	1824.37
1776.443	1862.44
1779.658	1895.68
1782.874	1848.09
1786.089	1844.88
1789.303	1845.14
1792.518	1845.67
1795.732	1836.73
1798.945	1853.67
1802.159	1888.28
1805.372	1848.68
1808.585	1845.32
1811.797	1843.96
1815.01	1858.17
1818.222	1884
1821.434	1846.62
1824.645	1878.7
1827.856	1893.48
1831.067	1916.61
1834.278	1862.73
1837.488	1849.53
1840.698	1946.25
1843.908	1905.44
1847.117	1884.62
1850.326	1831.86
1853.535	1874.08
1856.744	1911.85
1859.952	1852.09
1863.16	1852.72
1866.368	1868.11
1869.575	1968.68
1872.782	1871.28
1875.989	1818.41
1879.196	1854.54
1882.402	1849.47
1885.608	1878.44
1888.814	1840.27
1892.019	1769.12
1895.224	1815.2
1898.429	1784.9
1901.634	1773.2
1904.838	1753.88
1908.042	1808.71
1911.246	1823.01
1914.449	1798.57
1917.652	1782.05
1920.855	1766.42
1924.058	1778.62
1927.26	1820.69
1930.462	1837.97
1933.664	1877.12
1936.865	1829.41
1940.066	1845.41
1943.267	1794.57
1946.467	1803.43
1949.668	1815.81
1952.868	1876.57
1956.067	1872.06
1959.267	1824.99
1962.466	1843.68
1965.665	1826.67
1968.863	1820.84
1972.061	1818.43
1975.259	1809.91
1978.457	1876.34
1981.654	1838.84
1984.852	1842.86
1988.048	1806.19
1991.245	1791.46
1994.441	1868.43
1997.637	1823.45
2000.833	1807.84
2004.028	1836.01
2007.223	1893.67
2010.418	1885.35
2013.613	1837.9
2016.807	1839.2
2020.001	1830.13
2023.194	1846.5
2026.388	1834.22
2029.581	1786.78
2032.774	1845.64
2035.966	1855.38
2039.158	1812.97
2042.35	1827.53
2045.542	1763.44
2048.733	1830.82
2051.924	1815.13
2055.115	1827.04
2058.306	1800.8
2061.496	1845.15
2064.686	1885.35
2067.875	1801.68
2071.065	1801.67
2074.254	1814.15
2077.442	1774.63
2080.631	1846.16
2083.819	1798.73
2087.007	1792.72
2090.195	1783.23
2093.382	1789.41
2096.569	1780.04
2099.756	1747.32
2102.942	1796.41
2106.128	1808.94
2109.314	1799.77
2112.5	1793.08
2115.685	1760.28
2118.87	1766.2
2122.055	1821.52
2125.239	1806.44
2128.424	1800.6
2131.608	1837.71
2134.791	1824.29
2137.974	1849.99
2141.157	1844.46
2144.34	1825.77
2147.523	1808.04
2150.705	1836.44
2153.887	1803.64
2157.068	1785.74
2160.25	1762.27
2163.431	1780.04
2166.611	1761.72
2169.792	1782.55
2172.972	1708.79
2176.152	1747.02
2179.331	1765.96
2182.511	1777.1
2185.69	1793.96
2188.868	1800.79
2192.047	1824.24
2195.225	1848.36
2198.403	1801.9
2201.58	1788.18
2204.758	1772.3
2207.935	1836.94
2211.111	1770.03
2214.288	1761.59
2217.464	1788.25
2220.64	1747.11
2223.815	1788.4
2226.991	1732.43
2230.166	1744.58
2233.34	1785.49
2236.515	1795.35
2239.689	1850.62
2242.863	1808.77
2246.036	1852.39
2249.209	1836.89
2252.382	1849.38
2255.555	1861.91
2258.727	1824.2
2261.9	1847.34
2265.071	1840.83
2268.243	1840.34
2271.414	1799.54
2274.585	1791.63
2277.756	1843.69
2280.926	1808.56
2284.096	1826.52
2287.266	1773.35
2290.436	1813.21
2293.605	1827.56
2296.774	1863.23
2299.942	1863.37
2303.111	1873.63
2306.279	1921.66
2309.447	1905.87
2312.614	1881.37
2315.781	1900.7
2318.948	1885.95
2322.115	1917.72
2325.281	1828.8
2328.447	1832.74
2331.613	1805.44
2334.779	1804.14
2337.944	1796.88
2341.109	1800.5
2344.274	1793.73
2347.438	1764.64
2350.602	1785.03
2353.766	1790.66
2356.929	1782.54
2360.092	1811.41
2363.255	1790.32
2366.418	1771.82
2369.58	1808.4
2372.742	1750.9
2375.904	1729.99
2379.066	1720.96
2382.227	1742.33
2385.388	1706.86
2388.548	1669.55
2391.709	1701.45
2394.869	1700.74
2398.029	1734.27
2401.188	1721.61
2404.347	1707.06
2407.506	1734.7
2410.665	1782.86
2413.823	1762.61
2416.981	1749.17
2420.139	1759.67
2423.296	1796.46
2426.453	1772.33
2429.61	1788.12
2432.767	1775.23
2435.923	1812.27
2439.079	1757.33
2442.235	1784.65
2445.391	1734.26
2448.546	1777.82
2451.701	1804.03
2454.855	1806.68
2458.009	1823.08
2461.163	1810.55
2464.317	1788.63
2467.471	1808.02
2470.624	1830.61
2473.777	1828.87
2476.929	1842.83
2480.082	1862.63
2483.234	1842.55
2486.385	1787.9
2489.537	1783.23
2492.688	1781.31
2495.839	1796.57
2498.989	1810.32
2502.14	1801.01
2505.29	1798.66
2508.439	1817.01
2511.589	1770.42
2514.738	1767.01
2517.887	1782.84
2521.035	1853.58
2524.183	1809.82
2527.331	1802.06
2530.479	1800.84
2533.627	1800.87
