Data from C_1_DEC_OH_4N_Splice17_11-55-40-510.txt Node
Date: Sat Mar 14 11:55:40 EDT 2020
User: sa697716
Spectrometer: FLMS03696
Trigger mode: 0
Integration Time (sec): 3.180400E-1
Scans to average: 20
Electric dark correction enabled: true
Nonlinearity correction enabled: true
Boxcar width: 5
XAxis mode: Wavelengths
Number of Pixels in Spectrum: 2048
>>>>>Begin Spectral Data<<<<<
187.83	-260215.59
188.298	1905.15
188.766	1019.74
189.233	870.14
189.701	1212.96
190.169	1712.95
190.636	675.83
191.104	542.16
191.571	92.23
192.039	-6.57
192.506	34.34
192.974	485.82
193.441	-747.87
193.908	-199.82
194.375	-71.56
194.842	21.4
195.31	126.43
195.777	164.21
196.244	354.86
196.711	435.24
197.177	589.01
197.644	828.79
198.111	1402.32
198.578	1941.69
199.045	1529.93
199.511	2481.03
199.978	2887.84
200.445	2463.9
200.911	2727.79
201.378	3073.94
201.844	2807.36
202.31	4737.15
202.777	4952.38
203.243	2769.6
203.709	2664.4
204.176	3209.96
204.642	2658.25
205.108	2471.18
205.574	2012.81
206.04	1857.49
206.506	1740.39
206.972	1638.03
207.438	1569.19
207.903	1781.43
208.369	1568.89
208.835	1561.76
209.301	1629.71
209.766	1676.44
210.232	1669.42
210.697	2060.68
211.163	2533.46
211.628	3821.45
212.094	3201.86
212.559	3984.15
213.024	2493.24
213.49	3044.37
213.955	2962.94
214.42	2896.63
214.885	2681.27
215.35	2578.67
215.815	2474.11
216.28	2658.7
216.745	2162.16
217.21	2355.93
217.675	2162.26
218.14	2428.67
218.604	2705.37
219.069	3104.48
219.534	3267.87
219.998	3813.03
220.463	4606.68
220.927	5690.51
221.392	5326.23
221.856	5396.27
222.32	6797.51
222.785	8393.94
223.249	10578.76
223.713	11821.76
224.177	11794.43
224.642	15105.27
225.106	18596.08
225.57	20291.04
226.034	15081.42
226.497	22974.87
226.961	20759.24
227.425	24150.38
227.889	26749.89
228.353	26783.88
228.816	55314.16
229.28	52997.5
229.744	44783.9
230.207	27204.13
230.671	26806.13
231.134	44388.14
231.597	51141.98
232.061	51151.74
232.524	49906.08
232.987	34445.53
233.45	30966.5
233.914	27742.21
234.377	28374.72
234.84	25948.13
235.303	30577.33
235.766	34143.67
236.229	35237.37
236.691	22195.58
237.154	24896.74
237.617	18742.58
238.08	19182.57
238.542	22453.4
239.005	16047.5
239.468	15929.46
239.93	14990.39
240.393	13622.38
240.855	11941.16
241.317	12220.86
241.78	14859.57
242.242	15375.22
242.704	16571.98
243.166	14422.41
243.629	13084.44
244.091	15069.57
244.553	16513.63
245.015	17770.39
245.477	22952.81
245.939	33639.1
246.4	35754.44
246.862	34772.53
247.324	32768.19
247.786	36689.41
248.247	48077.02
248.709	49624.39
249.17	37161.97
249.632	35025.8
250.093	40548.57
250.555	35053.17
251.016	21367.72
251.477	20249.89
251.939	21846.27
252.4	22921.84
252.861	27240.05
253.322	25354.7
253.783	30194.89
254.244	39137.96
254.705	30869.11
255.166	27471.98
255.627	27071.38
256.088	38196.73
256.549	40594.48
257.009	34927.94
257.47	42360.58
257.931	34521.64
258.391	25870.73
258.852	26649.93
259.312	27951.37
259.773	34498.31
260.233	29138.93
260.694	24556.39
261.154	27888.48
261.614	22366.66
262.074	20028.37
262.534	20788.4
262.994	19583.89
263.455	26069.97
263.915	21963.02
264.374	20683.82
264.834	22590.18
265.294	25034.71
265.754	25952.63
266.214	24558.18
266.673	23024.63
267.133	29044.84
267.593	28861.41
268.052	35316.27
268.512	30750.59
268.971	37147.52
269.431	40729.13
269.89	36463.95
270.349	54690.63
270.809	60991.07
271.268	54834.84
271.727	122884.28
272.186	79648.29
272.645	59697.09
273.104	43076.27
273.563	62348.29
274.022	48937.41
274.481	41652.24
274.94	32110.25
275.399	23898.85
275.857	27834.62
276.316	37647.18
276.775	33532.89
277.233	32999.66
277.692	30918.33
278.15	34992.1
278.609	35993.32
279.067	33376.68
279.525	31018.27
279.984	40097.14
280.442	48126.89
280.9	47399.72
281.358	31209.56
281.816	29088.15
282.274	28493.99
282.732	29466.65
283.19	29617.45
283.648	25559.83
284.106	27215.12
284.564	27690.74
285.021	25625.38
285.479	19115.7
285.937	17395.29
286.394	15255.03
286.852	15702.28
287.309	16502.4
287.767	15917.87
288.224	15133.62
288.682	16615.55
289.139	18233.85
289.596	16680.47
290.053	17364.02
290.511	21875.12
290.968	26535.04
291.425	36026.2
291.882	29950.91
292.339	26060.22
292.796	25884.45
293.252	24404
293.709	19373.5
294.166	17352.48
294.623	19165.2
295.079	18380.55
295.536	18499.63
295.992	16807.35
296.449	16587.22
296.905	17243.33
297.362	16537.57
297.818	17388.15
298.274	18023.83
298.731	18363.58
299.187	18161.69
299.643	19504.43
300.099	23605.05
300.555	25871.25
301.011	21575.75
301.467	20812.81
301.923	24366.26
302.379	23807.49
302.835	23386.46
303.291	23427.54
303.746	26660.11
304.202	33700.49
304.658	33829.38
305.113	22754.64
305.569	22305.63
306.024	23814.8
306.479	22687.61
306.935	19136.25
307.39	20897.08
307.845	19298.65
308.301	19425.77
308.756	18924.27
309.211	18227.44
309.666	18643.48
310.121	23099.07
310.576	23448.15
311.031	23241.5
311.486	26624.49
311.94	26567.93
312.395	35543.33
312.85	66778.96
313.305	327703.51
313.759	1695636.19
314.214	122949.99
314.668	97629.98
315.123	82242.24
315.577	29451.34
316.032	26245.32
316.486	32803.68
316.94	25913.41
317.394	18025.49
317.849	13994.62
318.303	13232.68
318.757	12489.19
319.211	13802.27
319.665	12076.03
320.119	12195.08
320.572	17472.26
321.026	16275.7
321.48	13564.46
321.934	14757.36
322.387	14795.03
322.841	15968.41
323.295	14364.04
323.748	16555.18
324.202	16778.1
324.655	20113.37
325.108	28092.56
325.562	19846.17
326.015	23624.73
326.468	17839.75
326.921	19994.1
327.374	18620.99
327.827	19392.39
328.28	21963.33
328.733	14727.66
329.186	12945.5
329.639	12347.83
330.092	10421.85
330.545	9932.28
330.997	10004.11
331.45	10920.59
331.903	12801.47
332.355	22008.67
332.808	21391.55
333.26	17633.33
333.713	19106.1
334.165	19231.45
334.617	25650.93
335.069	20700.07
335.522	37341.32
335.974	41424.23
336.426	37874.73
336.878	26173.43
337.33	13274.98
337.782	12961.62
338.234	16250.19
338.686	19421.59
339.137	23022.81
339.589	21705.37
340.041	17018.69
340.493	14660.18
340.944	14996.01
341.396	16188.25
341.847	13632.3
342.299	16078.26
342.75	19645.15
343.201	17131.36
343.653	19700
344.104	24237.6
344.555	19062.64
345.006	29655.99
345.457	22737.3
345.908	18080.12
346.359	17007.88
346.81	13845.58
347.261	14602.47
347.712	14344.16
348.163	15393.52
348.613	15617.04
349.064	14550.5
349.515	12749.97
349.965	13094.4
350.416	15732.4
350.866	17245.06
351.317	19466.97
351.767	32243.67
352.217	40691.41
352.668	33797.13
353.118	30987.28
353.568	29815.93
354.018	23611.01
354.468	24887.98
354.918	17863.55
355.368	15630.79
355.818	22081.52
356.268	63549.77
356.718	265586.78
357.168	66309.74
357.617	33344
358.067	37005.32
358.517	34683.97
358.966	40702.37
359.416	45638.92
359.865	49143.54
360.315	58595.14
360.764	27330.44
361.213	15317.78
361.663	14553.91
362.112	17947.57
362.561	28920.47
363.01	21859.25
363.459	18403.7
363.908	19891
364.357	16910.84
364.806	28592.25
365.255	19611.11
365.703	18012.23
366.152	18031.84
366.601	14587.95
367.05	11824.08
367.498	10749.72
367.947	11208.84
368.395	11644.86
368.844	10289.9
369.292	12397.02
369.74	8582.32
370.189	13158.22
370.637	15406.14
371.085	13283.68
371.533	16158.89
371.981	15567.99
372.429	14850.84
372.877	15475.32
373.325	12948.23
373.773	13189.96
374.221	11735.2
374.669	14514.93
375.116	12525.96
375.564	12586.37
376.012	14089.43
376.459	11618.54
376.907	13860.21
377.354	16746.65
377.801	15592.54
378.249	17909.87
378.696	22917.84
379.143	27691.42
379.591	29541.06
380.038	49970.43
380.485	36169.55
380.932	38938.91
381.379	35593.12
381.826	26233.48
382.273	18616.83
382.72	16273.42
383.166	15882.07
383.613	10317.99
384.06	9295.58
384.506	10729.8
384.953	7861.55
385.4	7887.69
385.846	6906.32
386.292	6727.8
386.739	6569.47
387.185	6479.31
387.631	6493.33
388.078	6291.79
388.524	6717.43
388.97	6201.27
389.416	5181.14
389.862	5519.74
390.308	5241.51
390.754	5331.82
391.2	5786.05
391.645	5919.24
392.091	5671.12
392.537	5473.23
392.983	5472.55
393.428	5378.99
393.874	5762.58
394.319	5775.52
394.765	5467.75
395.21	5608.9
395.655	5247.61
396.101	4895.57
396.546	4412.06
396.991	4444.05
397.436	4117.63
397.881	3974.98
398.326	3758.42
398.771	3558.41
399.216	3101.84
399.661	2789.55
400.106	2776.85
400.551	2835.44
400.995	2543.51
401.44	2514.04
401.885	2356.99
402.329	2376.51
402.774	2277.19
403.218	2203.26
403.663	2115.09
404.107	2172.06
404.551	2186.04
404.995	1997.84
405.44	1923.07
405.884	1948.81
406.328	1879.97
406.772	1870.42
407.216	1704.6
407.66	1642.23
408.104	1555.18
408.547	1453.68
408.991	1406.19
409.435	1349.52
409.879	1335.51
410.322	1315.01
410.766	1269.82
411.209	1209.53
411.653	1162.08
412.096	1136.85
412.54	1135.13
412.983	1127.02
413.426	1129.43
413.869	1127.41
414.312	1109.27
414.756	1065.45
415.199	1016.38
415.642	987.98
416.085	988.35
416.527	979.7
416.97	992.15
417.413	943.61
417.856	930.4
418.298	921.24
418.741	911.72
419.184	905.64
419.626	941.8
420.069	941.08
420.511	944.62
420.953	923.53
421.396	915.85
421.838	892.64
422.28	912.54
422.722	919.54
423.164	932.54
423.606	919.27
424.048	917.68
424.49	872.31
424.932	868.32
425.374	853.87
425.816	866.15
426.258	880.2
426.699	889.06
427.141	875.97
427.582	887.58
428.024	879.04
428.465	872.3
428.907	851.32
429.348	839.46
429.789	838.37
430.231	823.16
430.672	835.76
431.113	815.05
431.554	804.32
431.995	783.77
432.436	756.01
432.877	741.03
433.318	731.51
433.759	726.64
434.2	729.14
434.64	723.39
435.081	726.24
435.522	687.24
435.962	665.18
436.403	652.68
436.843	662.09
437.284	649.48
437.724	632.92
438.164	631.21
438.604	618.32
439.045	596.26
439.485	573.15
439.925	559.65
440.365	547.48
440.805	540.7
441.245	532.99
441.685	511.82
442.125	507.54
442.564	510.74
443.004	500.55
443.444	499.8
443.883	498.69
444.323	492.39
444.762	491.78
445.202	495.4
445.641	503.62
446.081	499.55
446.52	505.49
446.959	500.66
447.398	487.71
447.837	481.02
448.276	472.29
448.716	476.51
449.154	479.86
449.593	469.06
450.032	469.19
450.471	460.23
450.91	459.64
451.349	458.26
451.787	454.85
452.226	460.6
452.664	459.88
453.103	459.38
453.541	456.84
453.98	456.09
454.418	456.65
454.856	449.22
455.295	446.91
455.733	450.04
456.171	450.63
456.609	451.97
457.047	450.99
457.485	457.43
457.923	458.63
458.361	451.66
458.798	452.96
459.236	453.77
459.674	457.19
460.111	459.1
460.549	455.21
460.987	454.79
461.424	453.32
461.862	451.76
462.299	445.53
462.736	445.13
463.173	448.19
463.611	444.82
464.048	444.74
464.485	447.87
464.922	444.26
465.359	442.31
465.796	438.33
466.233	436.11
466.67	434.38
467.106	435.03
467.543	430.5
467.98	425.24
468.416	413.81
468.853	409.96
469.29	397.37
469.726	393.01
470.162	382.9
470.599	376.74
471.035	372.98
471.471	363.07
471.907	358.8
472.344	356.71
472.78	357.78
473.216	361.1
473.652	356.8
474.088	356.4
474.523	356.2
474.959	358.96
475.395	354.19
475.831	351.04
476.266	352.29
476.702	351.03
477.138	347.33
477.573	344.88
478.008	343.45
478.444	344.25
478.879	346.71
479.314	346.85
479.75	345.88
480.185	347.79
480.62	350.23
481.055	351.91
481.49	354.54
481.925	358.69
482.36	365.66
482.795	375.66
483.229	384.67
483.664	391.93
484.099	393.29
484.534	399.92
484.968	403.02
485.403	402.94
485.837	401.53
486.271	399.92
486.706	400.45
487.14	394.38
487.574	387.39
488.009	383.79
488.443	379.65
488.877	383.74
489.311	383.47
489.745	387.85
490.179	392.43
490.613	400.2
491.046	403.36
491.48	405.71
491.914	406.69
492.348	409.39
492.781	412.32
493.215	414.19
493.648	413.79
494.082	417.73
494.515	418.5
494.948	423.7
495.382	426.78
495.815	430.04
496.248	434.48
496.681	442.82
497.114	450.69
497.547	458.05
497.98	467.85
498.413	473.78
498.846	481.33
499.279	487.62
499.711	491.25
500.144	494.47
500.577	503.52
501.009	511.66
501.442	520.7
501.874	523.94
502.306	527.85
502.739	535.97
503.171	547.76
503.603	553.06
504.036	562.74
504.468	570.03
504.9	580.62
505.332	588.75
505.764	596.11
506.196	604.33
506.627	618.13
507.059	631.5
507.491	641.16
507.923	644.4
508.354	659.21
508.786	671.26
509.217	689
509.649	704.43
510.08	722.22
510.512	739.57
510.943	756.13
511.374	770.5
511.805	791.03
512.237	810.6
512.668	840.36
513.099	867
513.53	893.61
513.961	914.7
514.391	945.7
514.822	977.95
515.253	1011.75
515.684	1037.92
516.114	1067.38
516.545	1089.98
516.975	1116.56
517.406	1137.65
517.836	1145.4
518.267	1157.28
518.697	1178.29
519.127	1188.05
519.558	1199.58
519.988	1208.76
520.418	1221.95
520.848	1241.69
521.278	1254.41
521.708	1277.82
522.138	1293.69
522.567	1324.31
522.997	1349.29
523.427	1367.46
523.857	1385.54
524.286	1399.24
524.716	1415.94
525.145	1436.84
525.575	1449.92
526.004	1466.53
526.433	1462.31
526.863	1465.11
527.292	1460.12
527.721	1469.21
528.15	1477.01
528.579	1480.11
529.008	1492.25
529.437	1514.76
529.866	1528.68
530.295	1546.54
530.724	1558.52
531.152	1584.15
531.581	1599.7
532.01	1617.4
532.438	1625.46
532.867	1640.06
533.295	1658.43
533.723	1665.62
534.152	1665.17
534.58	1666.3
535.008	1653.88
535.436	1656.92
535.865	1666.02
536.293	1680.26
536.721	1695.89
537.149	1721.03
537.576	1724.71
538.004	1737.02
538.432	1745.07
538.86	1744.52
539.287	1752.73
539.715	1766.25
540.143	1770.08
540.57	1765.84
540.998	1762.22
541.425	1741.53
541.852	1722.76
542.28	1721.21
542.707	1706.41
543.134	1693.42
543.561	1689.35
543.988	1681.39
544.415	1680.25
544.842	1675.83
545.269	1670.59
545.696	1672.58
546.123	1683.97
546.549	1673.87
546.976	1661.72
547.403	1662.71
547.829	1664.24
548.256	1666.47
548.682	1663.85
549.108	1657.21
549.535	1656.04
549.961	1656.43
550.387	1644.39
550.813	1638.99
551.24	1644.54
551.666	1644.74
552.092	1634.66
552.518	1628.52
552.943	1621.58
553.369	1627.21
553.795	1631.33
554.221	1630.9
554.646	1627.66
555.072	1636.26
555.498	1639.54
555.923	1646.08
556.349	1658.06
556.774	1663.95
557.199	1662.84
557.625	1666.78
558.05	1659.07
558.475	1666.48
558.9	1662.73
559.325	1654.7
559.75	1645.88
560.175	1637.25
560.6	1629.35
561.025	1625.58
561.449	1623.62
561.874	1626.68
562.299	1627.92
562.723	1632.2
563.148	1620.33
563.572	1622.26
563.997	1626.52
564.421	1627.95
564.846	1626.23
565.27	1626.64
565.694	1621.56
566.118	1628.26
566.542	1630.55
566.966	1621.45
567.39	1613.61
567.814	1599.87
568.238	1596.71
568.662	1597.43
569.086	1596.1
569.509	1598.38
569.933	1581.26
570.357	1570.78
570.78	1549.85
571.204	1535.59
571.627	1522.6
572.05	1517.32
572.474	1515.06
572.897	1500.09
573.32	1490.39
573.743	1478.92
574.166	1460.44
574.589	1457.29
575.012	1448.45
575.435	1444.36
575.858	1432.64
576.281	1421.3
576.704	1405.19
577.126	1391.69
577.549	1379.11
577.972	1367.96
578.394	1357.07
578.817	1348.23
579.239	1329.36
579.661	1314.61
580.084	1298.39
580.506	1285.94
580.928	1278.33
581.35	1267.13
581.772	1260.43
582.194	1247.89
582.616	1235.59
583.038	1221.77
583.46	1210.7
583.882	1206.79
584.303	1207.35
584.725	1200.86
585.147	1201.04
585.568	1209.24
585.99	1217.04
586.411	1220.97
586.833	1230.06
587.254	1229.77
587.675	1239.14
588.096	1248.12
588.518	1242.42
588.939	1229.52
589.36	1228
589.781	1217.78
590.202	1194.56
590.623	1186.75
591.043	1183.95
591.464	1173.87
591.885	1169.97
592.305	1165.26
592.726	1152.73
593.147	1152.71
593.567	1147.71
593.987	1141.17
594.408	1136.76
594.828	1134.51
595.248	1129.1
595.669	1113.21
596.089	1106.77
596.509	1100.34
596.929	1089.31
597.349	1089.25
597.769	1080.96
598.189	1075.56
598.608	1075.22
599.028	1075.07
599.448	1073.75
599.867	1063.16
600.287	1058.59
600.706	1053.96
601.126	1045.73
601.545	1043.39
601.965	1041.24
602.384	1035.38
602.803	1035.56
603.222	1031.39
603.641	1024.3
604.061	1019.98
604.48	1015.53
604.898	1020.66
605.317	1022.62
605.736	1022.05
606.155	1017.68
606.574	1009.5
606.992	1012.38
607.411	1007.51
607.829	999.02
608.248	995.41
608.666	991.11
609.085	987.92
609.503	978.94
609.921	972.95
610.339	971.63
610.758	968.25
611.176	962.03
611.594	952.97
612.012	947.52
612.43	947.74
612.847	949.48
613.265	948.38
613.683	948.89
614.101	947.32
614.518	941.87
614.936	933.53
615.353	921.85
615.771	917.77
616.188	915.54
616.606	911.47
617.023	904.02
617.44	893.07
617.857	885.79
618.274	878.91
618.691	873.46
619.108	865.76
619.525	860.81
619.942	863.39
620.359	863.66
620.776	858.64
621.192	854.43
621.609	852.28
622.026	856.23
622.442	860.38
622.859	860.94
623.275	855.24
623.691	858.7
624.108	865.64
624.524	874.98
624.94	875.04
625.356	882.09
625.772	891.07
626.188	899.35
626.604	899.79
627.02	896.47
627.436	896.13
627.852	901.21
628.268	909.38
628.683	903.46
629.099	897.93
629.514	894.87
629.93	897.1
630.345	899.94
630.761	897.09
631.176	899.76
631.591	895.9
632.007	891.13
632.422	888.8
632.837	879.54
633.252	876.65
633.667	867.75
634.082	860.59
634.497	851.57
634.911	837.53
635.326	833.56
635.741	820.22
636.155	812.04
636.57	811.57
636.984	809.94
637.399	810.23
637.813	807.84
638.228	805.99
638.642	805.88
639.056	796.41
639.47	794.75
639.884	786.39
640.298	779.49
640.712	775.43
641.126	764.83
641.54	755.47
641.954	747.12
642.368	737.15
642.781	730.54
643.195	716.23
643.609	713.07
644.022	705.19
644.436	699.19
644.849	688.14
645.262	677.95
645.676	674.58
646.089	669.61
646.502	659.32
646.915	653.01
647.328	639.18
647.741	636.85
648.154	627.62
648.567	625
648.98	617.27
649.393	616.69
649.805	612.63
650.218	608.51
650.631	598.14
651.043	593.62
651.456	589.15
651.868	587.88
652.28	596
652.693	602.17
653.105	603.71
653.517	607.37
653.929	605.89
654.341	608.15
654.753	599.56
655.165	601.13
655.577	598.05
655.989	592.44
656.401	586.98
656.813	565.95
657.224	552.54
657.636	534.66
658.047	523.09
658.459	510.45
658.87	503.11
659.282	493.77
659.693	481.63
660.104	471.96
660.515	463.98
660.926	461.18
661.338	456.91
661.749	451.5
662.159	446.47
662.57	441.82
662.981	438.98
663.392	435.46
663.803	438.15
664.213	435.6
664.624	432.74
665.035	433.48
665.445	426.75
665.855	424.16
666.266	421.57
666.676	419.67
667.086	415.4
667.497	415.48
667.907	412.27
668.317	407.66
668.727	408.68
669.137	409.49
669.547	409.05
669.956	410.39
670.366	411.01
670.776	412.86
671.186	415.27
671.595	417.83
672.005	420.23
672.414	420.97
672.824	420.17
673.233	421.29
673.642	423.67
674.052	426.08
674.461	429.57
674.87	433.28
675.279	433.11
675.688	434.76
676.097	437.04
676.506	435.97
676.915	443.74
677.323	446.69
677.732	446.53
678.141	446.92
678.549	442.48
678.958	441.58
679.366	441.82
679.775	444.26
680.183	452.39
680.592	456.02
681	460.45
681.408	458.12
681.816	463.01
682.224	469.45
682.632	477.26
683.04	494.64
683.448	509.72
683.856	528.9
684.264	551.17
684.671	569.84
685.079	594.6
685.487	621.56
685.894	659.35
686.302	692.5
686.709	719.19
687.116	751.51
687.524	781.5
687.931	808.09
688.338	834.67
688.745	857.23
689.152	886.75
689.559	923.08
689.966	960.71
690.373	986.46
690.78	1024.63
691.187	1080.3
691.593	1126.25
692	1168.48
692.407	1226.22
692.813	1294.59
693.22	1354.94
693.626	1416.34
694.032	1470.21
694.439	1543.98
694.845	1605.3
695.251	1680.64
695.657	1749.26
696.063	1845.91
696.469	1924.38
696.875	1999.63
697.281	2049.8
697.687	2105.55
698.093	2154.27
698.498	2234.3
698.904	2301.05
699.31	2392.59
699.715	2463.54
700.12	2560.31
700.526	2591.19
700.931	2666.79
701.337	2726.5
701.742	2769.93
702.147	2861.62
702.552	2905.57
702.957	2975.67
703.362	3007.45
703.767	3047.3
704.172	3097.63
704.577	3066.94
704.981	3123.09
705.386	3150.26
705.791	3154.76
706.195	3236
706.6	3255.52
707.004	3341.31
707.408	3322.06
707.813	3357.62
708.217	3357.09
708.621	3368.2
709.025	3470.73
709.43	3482.58
709.834	3550.01
710.237	3626.77
710.641	3623.6
711.045	3652.72
711.449	3655.41
711.853	3692.3
712.256	3742.55
712.66	3788.62
713.064	3871.82
713.467	3922.91
713.87	4041.07
714.274	4098.22
714.677	4216.91
715.08	4384.67
715.484	4564.49
715.887	4775.9
716.29	4985.77
716.693	5203.97
717.096	5454.76
717.499	5593.59
717.901	5626.14
718.304	5665.25
718.707	5697.01
719.109	5601.21
719.512	5578.35
719.915	5445.2
720.317	5394.79
720.719	5444.05
721.122	5419.2
721.524	5374.71
721.926	5339.81
722.328	5447.37
722.731	5440.78
723.133	5472.39
723.535	5674.11
723.937	5700.61
724.338	5761.12
724.74	5808.84
725.142	5742.95
725.544	5748.2
725.945	5779.37
726.347	5780.83
726.748	5781.8
727.15	5801.3
727.551	5765.35
727.952	5740.67
728.354	5714.22
728.755	5716.96
729.156	5676.87
729.557	5672.03
729.958	5547.91
730.359	5491.66
730.76	5475.49
731.161	5413.67
731.562	5390.89
731.962	5397.53
732.363	5335.15
732.763	5271.83
733.164	5311.73
733.564	5245.49
733.965	5150.34
734.365	5117.47
734.766	5152.73
735.166	5113.41
735.566	5057.69
735.966	5031.88
736.366	5029.83
736.766	4965.11
737.166	4999.36
737.566	4958.46
737.966	4930.96
738.365	4973.49
738.765	4971.68
739.165	4893.21
739.564	4868.2
739.964	4918.02
740.363	4872.22
740.763	4871.45
741.162	4862.89
741.561	4832.84
741.96	4786.57
742.36	4809.81
742.759	4815.25
743.158	4853.37
743.557	4869.5
743.955	4912.32
744.354	4865.63
744.753	4926.33
745.152	4884.6
745.55	4940.76
745.949	4932.98
746.348	4932.43
746.746	4951.87
747.144	4911.98
747.543	4889.77
747.941	4941.77
748.339	4868.93
748.737	4860.36
749.136	4848.95
749.534	4916.99
749.932	4890
750.33	4912.81
750.727	4972.86
751.125	4944.7
751.523	4928.38
751.921	4971.91
752.318	4936.62
752.716	4998.42
753.113	5011.93
753.511	5041.04
753.908	5040.56
754.305	5021.59
754.703	5085.16
755.1	5148.68
755.497	5211.99
755.894	5409.54
756.291	5596.32
756.688	5938.26
757.085	6395.83
757.482	7038.84
757.878	7738.68
758.275	8372.17
758.672	9247.65
759.068	9958.06
759.465	10972.91
759.861	12286.14
760.258	13804.53
760.654	14593.08
761.05	14479.17
761.447	13806.15
761.843	12854.47
762.239	11866.2
762.635	11421.09
763.031	10990.23
763.427	10377.1
763.822	9732.55
764.218	9092.03
764.614	8264.33
765.01	7708.43
765.405	7350.18
765.801	7081.95
766.196	6734.43
766.592	6543.2
766.987	6214.35
767.382	5993.21
767.778	5903
768.173	5765.77
768.568	5692.2
768.963	5559.91
769.358	5579.71
769.753	5532.46
770.148	5444.43
770.542	5444.24
770.937	5410.95
771.332	5507.78
771.726	5530.45
772.121	5460.73
772.515	5518.81
772.91	5503.6
773.304	5578.46
773.699	5511.13
774.093	5565.84
774.487	5624.62
774.881	5670.29
775.275	5664.65
775.669	5621.14
776.063	5668.18
776.457	5710.59
776.851	5631.31
777.245	5620.68
777.638	5656.58
778.032	5775.13
778.425	5734.87
778.819	5773.92
779.212	5726.19
779.606	5683.95
779.999	5703.01
780.392	5681.49
780.786	5765.09
781.179	5787.73
781.572	5832.7
781.965	5842.9
782.358	5779.15
782.751	5839.26
783.143	5792.86
783.536	5872.45
783.929	5918.29
784.322	6036.08
784.714	6066.46
785.107	6059.43
785.499	6129.69
785.891	6105.68
786.284	6087.66
786.676	6236.83
787.068	6215.52
787.46	6269.04
787.852	6285.33
788.245	6371.6
788.636	6400.91
789.028	6473.83
789.42	6520.12
789.812	6530.69
790.204	6627.75
790.595	6729.54
790.987	6526.12
791.378	6549.45
791.77	6686.17
792.161	6826.63
792.553	6885.79
792.944	6773.23
793.335	6703.01
793.726	6774.38
794.117	6864.55
794.508	7012.5
794.899	6979.25
795.29	7123.24
795.681	7181.37
796.072	7034.71
796.463	6839.58
796.853	6846.39
797.244	7006.09
797.634	7038.82
798.025	7037
798.415	7051.65
798.806	7138.95
799.196	7228.62
799.586	7280.28
799.976	7243.37
800.366	7476.55
800.756	7729.5
801.146	7691.6
801.536	7720.04
801.926	7799.33
802.316	7824.31
802.706	7901.12
803.095	7771.52
803.485	7875.26
803.874	7917.69
804.264	8183.11
804.653	8151.54
805.043	8300.25
805.432	8413.5
805.821	8416.1
806.21	8434.05
806.599	8558.58
806.988	8601.66
807.377	8716.35
807.766	8845.63
808.155	9135.74
808.544	8861.13
808.933	8881.5
809.321	8858.39
809.71	9161.57
810.098	9328.83
810.487	9801.21
810.875	10290.15
811.264	10314.32
811.652	10607.1
812.04	10757.58
812.428	10921.74
812.816	11708.02
813.204	12133.43
813.592	12697.09
813.98	13045.49
814.368	12943.61
814.756	13436.96
815.144	13353.82
815.531	13827.15
815.919	13749.58
816.306	14062.91
816.694	13748.17
817.081	13798.98
817.469	14149.07
817.856	14145.62
818.243	14411.41
818.63	14808.95
819.017	14374.81
819.404	14440.61
819.791	14831.5
820.178	15464.89
820.565	15729.87
820.952	16684.62
821.339	16172.73
821.725	16362.84
822.112	15600.91
822.498	15569.07
822.885	15705.05
823.271	15607.63
823.657	16036.91
824.044	16043.58
824.43	16116.13
824.816	16077.01
825.202	15631.61
825.588	16688.76
825.974	16713.51
826.36	17246.29
826.746	17270.63
827.132	17639.34
827.517	17611.86
827.903	16802.55
828.289	16842.8
828.674	16040.93
829.06	15933.88
829.445	16347.61
829.83	16717.59
830.216	17201.86
830.601	17581.27
830.986	17167.14
831.371	17023.12
831.756	17603.46
832.141	17171.46
832.526	17172.64
832.911	17468.28
833.295	17359.76
833.68	17848.53
834.065	17201.23
834.449	16271.94
834.834	16195.03
835.218	16191.06
835.603	16545.9
835.987	16332.65
836.371	17191.3
836.755	17083.2
837.139	17497.08
837.524	17744.91
837.908	17560.63
838.291	17626.15
838.675	17692.82
839.059	17911.55
839.443	17906.83
839.827	17671.87
840.21	18165.69
840.594	18016.21
840.977	18226.85
841.361	18214.47
841.744	18597.8
842.127	18435.55
842.511	18699.41
842.894	19319.05
843.277	19715.22
843.66	20270.22
844.043	20355.72
844.426	19530.32
844.809	19213.29
845.191	19253.72
845.574	18775.34
845.957	18407.99
846.339	18292.02
846.722	17749.02
847.104	17817.6
847.487	17638.46
847.869	17660.05
848.252	17949.5
848.634	18289.1
849.016	18554.16
849.398	18672.22
849.78	19547.37
850.162	19549.11
850.544	19979.53
850.926	20627.2
851.307	20531.31
851.689	20812.15
852.071	21279.18
852.452	21610.1
852.834	21587.67
853.215	21995.22
853.597	22158.3
853.978	22458.15
854.359	22924.84
854.741	21898.04
855.122	21796.44
855.503	21496.74
855.884	21637.6
856.265	21571.91
856.646	21685.54
857.026	21275.34
857.407	21213.86
857.788	21371.48
858.169	21663.94
858.549	20782.41
858.93	21424.74
859.31	21466.59
859.69	21683.54
860.071	21270.78
860.451	21043.08
860.831	20298.08
861.211	21490.35
861.591	22046.24
861.971	22024.45
862.351	22222.03
862.731	22629.07
863.111	22901.98
863.491	23236.41
863.87	24129.67
864.25	24489.7
864.629	24075.16
865.009	24586.13
865.388	25450.83
865.768	27285.27
866.147	27171.4
866.526	25672.38
866.905	25973.36
867.284	27426.64
867.663	26049.3
868.042	24984.63
868.421	24902.13
868.8	25313.37
869.179	25570.52
869.558	24090.52
869.936	22203.28
870.315	22616.75
870.693	23165
871.072	24996.45
871.45	23811.24
871.828	24115.92
872.207	25352.34
872.585	24968.37
872.963	25655.74
873.341	24769.82
873.719	24470.03
874.097	24174.87
874.475	24619.77
874.853	25195.42
875.23	24132.13
875.608	25140.52
875.986	27198.03
876.363	25998.3
876.741	26792.64
877.118	26119.02
877.495	27402.54
877.873	27873.32
878.25	29325.59
878.627	28134.78
879.004	28531.89
879.381	28397.27
879.758	27652.83
880.135	25746
880.512	27242.64
880.889	26519.04
881.265	26237.63
881.642	26013.3
882.019	26446.22
882.395	25904.75
882.772	26926.14
883.148	25750.01
883.524	25640.43
883.901	25483.34
884.277	25864.42
884.653	25682.14
885.029	26414.56
885.405	29253.63
885.781	29032.91
886.157	27841.17
886.532	28192.86
886.908	28183.87
887.284	31329.52
887.659	32369.78
888.035	33390.63
888.411	34252.72
888.786	34714.56
889.161	35915.77
889.537	35253.28
889.912	36386.79
890.287	36354.76
890.662	37273.31
891.037	36594.47
891.412	34127.11
891.787	33782.56
892.162	32594.75
892.536	33348.41
892.911	32111.12
893.286	31433.97
893.66	30163.98
894.035	30919.41
894.409	33673.66
894.784	32325.31
895.158	32870.1
895.532	34816.44
895.906	35756.36
896.281	36604.93
896.655	36028.75
897.029	41155.53
897.402	42867.87
897.776	47714.14
898.15	47564.46
898.524	47034.4
898.898	47642.45
899.271	53314.9
899.645	46172.92
900.018	44371.26
900.392	46011.06
900.765	46386.91
901.138	42907.57
901.511	42260.17
901.884	38804.39
902.258	35787.08
902.631	36983.54
903.003	42565.77
903.376	38412.91
903.749	43070.32
904.122	46064.88
904.495	50723.41
904.867	51333.97
905.24	44552.61
905.612	41468.89
905.985	42415.86
906.357	44351.61
906.729	42316.13
907.102	36164.79
907.474	34762.42
907.846	34978.59
908.218	34516.16
908.59	30505.46
908.962	29505.78
909.334	31782.87
909.705	33373.46
910.077	32399.52
910.449	33724.21
910.82	34670.19
911.192	38142.81
911.563	39639.48
911.935	42425.25
912.306	42491.96
912.677	43855.68
913.048	43425.77
913.419	47128.53
913.79	47407.04
914.161	50827.91
914.532	48577.82
914.903	44629.2
915.274	42365.93
915.645	41748.36
916.015	36753.78
916.386	35043.29
916.756	37288.19
917.127	38456.49
917.497	34351.24
917.868	37394.03
918.238	35536.91
918.608	36559.85
918.978	37304.51
919.348	39519.26
919.718	40826.73
920.088	39294.73
920.458	40820.55
920.828	42967.29
921.198	40726.41
921.567	43518.63
921.937	33686.61
922.306	33996.94
922.676	36646.11
923.045	30577.6
923.415	29040.1
923.784	26448.68
924.153	27218.12
924.522	27192.47
924.891	25567.51
925.26	27388.38
925.629	26725.77
925.998	30735.29
926.367	30004.95
926.736	28568.88
927.104	34022.58
927.473	36590.19
927.842	44197.78
928.21	43746.26
928.578	45988.64
928.947	43473.22
929.315	43731.01
929.683	51279.55
930.051	51654.06
930.42	59968.76
930.788	51256.88
931.156	50897.36
931.523	47681.53
931.891	44053.9
932.259	42305.78
932.627	48982.84
932.994	69350.25
933.362	57305.82
933.729	49759.11
934.097	47640.43
934.464	40320.91
934.831	46544.22
935.199	45910.65
935.566	44531.98
935.933	45080.74
936.3	54598.43
936.667	42546.65
937.034	38343.3
937.401	37938.7
937.767	32745.92
938.134	29154.2
938.501	41146.4
938.867	43830.43
939.234	74025.38
939.6	63152.15
939.967	69696.16
940.333	46721.06
940.699	39767.89
941.065	31944.74
941.431	41864.12
941.798	40367.66
942.163	53007.16
942.529	33083.16
942.895	30482.78
943.261	19724.25
943.627	25899.79
943.992	22659.29
944.358	22703.18
944.723	22796.05
945.089	22201.45
945.454	20519.42
945.82	21925.69
946.185	21081.67
946.55	24418.95
946.915	21896.8
947.28	25671.48
947.645	22591.79
948.01	20861.74
948.375	21728.08
948.74	26038.7
949.104	30386.19
949.469	43926.14
949.834	77582.2
950.198	73504.59
950.562	44054.09
950.927	36706.35
951.291	44169.13
951.655	37638.11
952.02	35365.29
952.384	26744
952.748	23247.16
953.112	22649.94
953.476	19673.62
953.839	18192.44
954.203	18002.1
954.567	22523.06
954.931	35445.98
955.294	30342.98
955.658	30496.3
956.021	51865.98
956.385	87929.68
956.748	130025.98
957.111	201794.53
957.474	226542.9
957.837	255109.25
958.2	193124.32
958.563	69469.16
958.926	47001
959.289	71314.17
959.652	79590.5
960.015	59684.2
960.377	85675.3
960.74	97665.08
961.102	168726.92
961.465	181144.91
961.827	96962.09
962.189	186019.64
962.552	129058.91
962.914	103452.84
963.276	67124.52
963.638	55535.68
964	55017.69
964.362	37194.79
964.724	35936.27
965.085	25614.33
965.447	20999.49
965.809	23940.06
966.17	23994.94
966.532	25960.53
966.893	23821.82
967.255	21672.22
967.616	25593.9
967.977	20461.35
968.338	22343.56
968.699	18360.47
969.061	18351.81
969.421	18469.74
969.782	20713.16
970.143	17469.46
970.504	18070.55
970.865	20534.78
971.225	20982.29
971.586	20508.13
971.946	29270.55
972.307	25420.22
972.667	33255.95
973.027	34263.34
973.388	41592.16
973.748	28323.27
974.108	30857.84
974.468	41760.92
974.828	32175.84
975.188	24782.38
975.548	22777.45
975.907	19131.39
976.267	21429.62
976.627	17994.8
976.986	18645.4
977.346	17757.22
977.705	17069.53
978.064	15553.9
978.424	12940.56
978.783	13395.86
979.142	15292.91
979.501	14636.82
979.86	15458.97
980.219	14906.34
980.578	19246.16
980.937	21559.59
981.296	19227.46
981.654	19792.75
982.013	30775.05
982.371	39953.7
982.73	37319.43
983.088	42231.69
983.447	45094.7
983.805	64427.99
984.163	134513.22
984.521	148986.37
984.879	218262.54
985.237	-355001.29
985.595	341953.46
985.953	85033.42
986.311	49131.26
986.669	28500.82
987.026	24608.86
987.384	33108.07
987.741	34245.33
988.099	24476.47
988.456	19547.74
988.814	18310.71
989.171	15902.67
989.528	15705.07
989.885	16561.12
990.242	13092.64
990.599	16306.52
990.956	13305.3
991.313	9311.39
991.67	7643.6
992.027	8100.64
992.383	7191.93
992.74	6305.64
993.096	6622.32
993.453	6866.84
993.809	7126.62
994.165	9498.35
994.522	8690.23
994.878	9601.28
995.234	12020.91
995.59	11873.43
995.946	11238.5
996.302	12821.49
996.658	14830.4
997.013	16303.62
997.369	19327.3
997.725	24733.94
998.08	16026.48
998.436	24763.38
998.791	34160.01
999.147	34103.26
999.502	37106.54
999.857	26990.42
1000.212	44002.71
1000.567	62543.36
1000.922	36114.78
1001.277	22920.79
1001.632	16976.93
1001.987	21839.57
1002.342	15631.46
1002.696	12504.4
1003.051	9963.51
1003.406	12115.65
1003.76	12062.88
1004.114	11880.02
1004.469	9988.91
1004.823	8277.97
1005.177	8936.3
1005.531	7081.22
1005.885	6303.2
1006.239	7135.96
1006.593	8908.78
1006.947	11946.83
1007.301	8945.68
1007.655	9724.24
1008.008	7135.2
1008.362	8013.95
1008.715	11430.58
1009.069	10370.34
1009.422	15598.57
1009.776	31146.5
1010.129	20617.66
1010.482	17262.77
1010.835	14584.4
1011.188	30307.05
1011.541	28615.86
1011.894	-174735.33
1012.247	515674.45
1012.6	35120.97
1012.952	22166.72
1013.305	11482.43
1013.657	8287.04
1014.01	7839.82
1014.362	6475.85
1014.715	5745.78
1015.067	5004.7
1015.419	4894.75
1015.771	4359.52
1016.123	3869.08
1016.475	3959.11
1016.827	4217.38
1017.179	4524.72
1017.531	4565.07
1017.883	4665.9
1018.234	4508.29
1018.586	5696.82
1018.938	6019.35
1019.289	8311.47
1019.64	9479.28
1019.992	8817.82
1020.343	8096.1
1020.694	6415.52
1021.045	5661.99
1021.396	6488.65
1021.747	6989.95
1022.098	8388.8
1022.449	6086.78
1022.8	5665.92
1023.151	3947.11
1023.501	3498.64
1023.852	3811.3
1024.202	3961.94
1024.553	4347.01
1024.903	4244.08
1025.253	3606.27
1025.604	3228.65
1025.954	4017.2
1026.304	4899.53
1026.654	5708.55
1027.004	8327.47
1027.354	13465.96
1027.703	12672.91
1028.053	16679.24
1028.403	24294.69
1028.753	35197.41
1029.102	47983.45
1029.452	247093.58
1029.801	10605.7
1030.15	6846.35
1030.499	5789.51
897.758	2182.74
901.051	2120.97
904.343	2154.55
907.636	2161.19
910.928	2223.26
914.22	2143.46
917.511	2149.29
920.803	2195.54
924.094	2193.93
927.384	2197.28
930.675	2162.15
933.965	2126.34
937.255	2153.51
940.544	2121.96
943.834	2120.65
947.123	2060.05
950.411	2150.56
953.7	2129.88
956.988	2115.11
960.276	2050.96
963.563	2102.01
966.851	2111.6
970.138	2153.24
973.424	2155.19
976.711	2109.19
979.997	2157.71
983.283	2202.1
986.568	2130.13
989.853	2123.47
993.138	2150.87
996.423	2235.74
999.708	2193.4
1002.992	2223.65
1006.275	2143.12
1009.559	2149.64
1012.842	2247.89
1016.125	2201.54
1019.408	2181.21
1022.69	2237.79
1025.972	2270.11
1029.254	2247.77
1032.536	2210.63
1035.817	2219.31
1039.098	2187.96
1042.379	2236.59
1045.659	2263.17
1048.939	2213.54
1052.219	2221.76
1055.498	2216.78
1058.778	2214.91
1062.057	2191.23
1065.335	2213.09
1068.614	2224.83
1071.892	2221.95
1075.17	2276.9
1078.447	2277.88
1081.724	2273.75
1085.001	2298.8
1088.278	2275.9
1091.554	2281
1094.83	2274.49
1098.106	2310.59
1101.382	2342.23
1104.657	2342.85
1107.932	2343.18
1111.206	2319.79
1114.481	2274.41
1117.755	2273.59
1121.029	2265.2
1124.302	2324.31
1127.575	2292.94
1130.848	2290.46
1134.121	2259.13
1137.393	2221.65
1140.665	2278.74
1143.937	2255.12
1147.208	2203.76
1150.48	2261.29
1153.75	2249.7
1157.021	2253.43
1160.291	2231.02
1163.561	2281.68
1166.831	2250.68
1170.101	2279.21
1173.37	2237.85
1176.639	2195.68
1179.907	2240.63
1183.176	2264.91
1186.444	2264.78
1189.711	2289.97
1192.979	2312.81
1196.246	2270.25
1199.513	2283
1202.78	2286.85
1206.046	2296.32
1209.312	2324.32
1212.578	2341.87
1215.843	2308.5
1219.108	2278.11
1222.373	2301.87
1225.638	2273.24
1228.902	2266.96
1232.166	2220.71
1235.43	2210
1238.693	2237.07
1241.956	2225.55
1245.219	2274.63
1248.482	2257.81
1251.744	2255.97
1255.006	2377.4
1258.268	2326.01
1261.529	2283.44
1264.79	2282.73
1268.051	2383.09
1271.312	2391.58
1274.572	2360.46
1277.832	2352.2
1281.092	2333.05
1284.351	2323.33
1287.61	2308.52
1290.869	2241.05
1294.128	2239.02
1297.386	2286.98
1300.644	2281.07
1303.902	2290.14
1307.159	2159.08
1310.416	2210.62
1313.673	2236.81
1316.93	2231.96
1320.186	2263.45
1323.442	2295.96
1326.697	2298
1329.953	2271.02
1333.208	2305.79
1336.463	2277.33
1339.717	2239.05
1342.972	2344.01
1346.226	2315.96
1349.479	2265.38
1352.733	2246.86
1355.986	2252.12
1359.238	2233.2
1362.491	2238.94
1365.743	2236.83
1368.995	2229.57
1372.247	2243.6
1375.498	2263.05
1378.749	2304.38
1382	2253.71
1385.251	2290.17
1388.501	2243.07
1391.751	2243.2
1395	2209.17
1398.25	2234.19
1401.499	2257.23
1404.748	2206.19
1407.996	2182.51
1411.244	2170.55
1414.492	2157.25
1417.74	2141.87
1420.987	2143.93
1424.234	2204.4
1427.481	2168.83
1430.728	2223.75
1433.974	2198.81
1437.22	2197.77
1440.465	2193.87
1443.711	2192.18
1446.956	2218.38
1450.201	2186.02
1453.445	2227.64
1456.689	2218.19
1459.933	2226.68
1463.177	2267.15
1466.42	2240.65
1469.663	2223.6
1472.906	2237.63
1476.148	2288.82
1479.391	2260.56
1482.633	2233.46
1485.874	2262.52
1489.115	2267.73
1492.356	2253.75
1495.597	2233.45
1498.838	2225
1502.078	2211.12
1505.318	2182.55
1508.557	2216.56
1511.797	2211.33
1515.036	2257.62
1518.274	2233.57
1521.513	2182.5
1524.751	2196.01
1527.989	2219.6
1531.227	2236.96
1534.464	2249.67
1537.701	2247.33
1540.938	2260.35
1544.174	2207.91
1547.41	2199.25
1550.646	2237.05
1553.882	2285.43
1557.117	2342.7
1560.352	2351.06
1563.587	2312.07
1566.821	2280.74
1570.055	2298.19
1573.289	2277.14
1576.523	2335.32
1579.756	2351.62
1582.989	2372.17
1586.222	2331.13
1589.454	2359.58
1592.686	2345.88
1595.918	2374.17
1599.15	2372.27
1602.381	2417.66
1605.612	2397.85
1608.843	2490.27
1612.073	2412.31
1615.303	2399.1
1618.533	2398.76
1621.762	2401.26
1624.992	2371.98
1628.221	2375.18
1631.449	2362.57
1634.678	2392.73
1637.906	2361
1641.134	2386.32
1644.361	2352.01
1647.588	2341.88
1650.815	2365.25
1654.042	2327.1
1657.269	2353.1
1660.495	2335.65
1663.72	2320.43
1666.946	2290.11
1670.171	2261.03
1673.396	2233.06
1676.621	2218.21
1679.845	2214.72
1683.069	2223.91
1686.293	2252.9
1689.517	2244.41
1692.74	2195.86
1695.963	2217.35
1699.185	2259.76
1702.408	2231.66
1705.63	2260.16
1708.852	2279.77
1712.073	2248.87
1715.294	2260.7
1718.515	2302.53
1721.736	2261.48
1724.956	2240.78
1728.176	2262.21
1731.396	2285.08
1734.616	2269.94
1737.835	2306.43
1741.054	2279.04
1744.272	2267.68
1747.491	2308.7
1750.709	2332.29
1753.927	2279.74
1757.144	2306.8
1760.361	2364.16
1763.578	2338.8
1766.795	2287.63
1770.011	2275.73
1773.227	2301.81
1776.443	2342.28
1779.658	2387.47
1782.874	2326.81
1786.089	2318.5
1789.303	2320.6
1792.518	2319.74
1795.732	2304.09
1798.945	2321.07
1802.159	2361.75
1805.372	2304.76
1808.585	2298.36
1811.797	2298.36
1815.01	2319.02
1818.222	2340.51
1821.434	2300.23
1824.645	2344.78
1827.856	2350.05
1831.067	2383.21
1834.278	2320.73
1837.488	2303.98
1840.698	2425.28
1843.908	2366.76
1847.117	2335.17
1850.326	2260.69
1853.535	2324.04
1856.744	2356.55
1859.952	2278.39
1863.16	2279.89
1866.368	2291.6
1869.575	2402.91
1872.782	2286.74
1875.989	2220.73
1879.196	2269.09
1882.402	2259.23
1885.608	2290.68
1888.814	2228.49
1892.019	2139.86
1895.224	2187.88
1898.429	2155.57
1901.634	2140.2
1904.838	2112.79
1908.042	2170.15
1911.246	2181.17
1914.449	2144.57
1917.652	2127.82
1920.855	2108.99
1924.058	2134.66
1927.26	2178.12
1930.462	2200.54
1933.664	2238.33
1936.865	2181.7
1940.066	2197.2
1943.267	2139.57
1946.467	2151.6
1949.668	2169.94
1952.868	2237.03
1956.067	2227.95
1959.267	2168.39
1962.466	2191.6
1965.665	2174.78
1968.863	2168.38
1972.061	2171.23
1975.259	2166.52
1978.457	2240.93
1981.654	2201.52
1984.852	2202.89
1988.048	2157.84
1991.245	2148.69
1994.441	2235.64
1997.637	2194.94
2000.833	2177.7
2004.028	2212.14
2007.223	2275.08
2010.418	2264.92
2013.613	2214.07
2016.807	2207.34
2020.001	2203.93
2023.194	2225.79
2026.388	2207.79
2029.581	2153.19
2032.774	2216.6
2035.966	2226.04
2039.158	2174.11
2042.35	2190.78
2045.542	2115.99
2048.733	2199.47
2051.924	2194.6
2055.115	2210.58
2058.306	2175.45
2061.496	2231.83
2064.686	2278.94
2067.875	2185.11
2071.065	2191.99
2074.254	2208.13
2077.442	2163.36
2080.631	2246.25
2083.819	2178.84
2087.007	2169.46
2090.195	2154.36
2093.382	2170.43
2096.569	2154.05
2099.756	2115.99
2102.942	2163.95
2106.128	2173.89
2109.314	2162.69
2112.5	2148.92
2115.685	2119.2
2118.87	2125.73
2122.055	2183.36
2125.239	2162.02
2128.424	2151.21
2131.608	2212.9
2134.791	2199.93
2137.974	2235.39
2141.157	2225.28
2144.34	2197.54
2147.523	2188.4
2150.705	2212.7
2153.887	2183.74
2157.068	2157.28
2160.25	2138.81
2163.431	2162.04
2166.611	2128.49
2169.792	2150.02
2172.972	2062.22
2176.152	2113.18
2179.331	2140.52
2182.511	2142.98
2185.69	2164.24
2188.868	2169.78
2192.047	2202.74
2195.225	2218.49
2198.403	2169.1
2201.58	2155.72
2204.758	2141.48
2207.935	2217.43
2211.111	2132.08
2214.288	2120.56
2217.464	2155.75
2220.64	2111.77
2223.815	2157.51
2226.991	2093.38
2230.166	2109.36
2233.34	2150.03
2236.515	2164.54
2239.689	2227.17
2242.863	2176.41
2246.036	2229.01
2249.209	2213.8
2252.382	2232.72
2255.555	2241.5
2258.727	2192.1
2261.9	2220.73
2265.071	2212.8
2268.243	2208.49
2271.414	2157.44
2274.585	2141.18
2277.756	2201.73
2280.926	2159.18
2284.096	2188.1
2287.266	2115.43
2290.436	2162.65
2293.605	2183.36
2296.774	2220.18
2299.942	2223.89
2303.111	2239.93
2306.279	2290.74
2309.447	2276.84
2312.614	2247.17
2315.781	2273.32
2318.948	2250.18
2322.115	2288.94
2325.281	2189.04
2328.447	2195.05
2331.613	2167.77
2334.779	2161.43
2337.944	2154.41
2341.109	2158.54
2344.274	2146.01
2347.438	2115.23
2350.602	2132.69
2353.766	2142.63
2356.929	2131.49
2360.092	2167.79
2363.255	2140.08
2366.418	2104.72
2369.58	2171.83
2372.742	2050.75
2375.904	2042.66
2379.066	2029.05
2382.227	2053.69
2385.388	2019.74
2388.548	1970.4
2391.709	2010.14
2394.869	2002.07
2398.029	2054.19
2401.188	2051.42
2404.347	2011.61
2407.506	2089.34
2410.665	2128.4
2413.823	2114.82
2416.981	2095.59
2420.139	2109.47
2423.296	2149.16
2426.453	2122.48
2429.61	2142.12
2432.767	2113.44
2435.923	2152.1
2439.079	2101.43
2442.235	2134.31
2445.391	2075.09
2448.546	2116.52
2451.701	2149.46
2454.855	2146.04
2458.009	2176.82
2461.163	2167.08
2464.317	2137.74
2467.471	2166.8
2470.624	2193.85
2473.777	2183.1
2476.929	2199.35
2480.082	2223.4
2483.234	2197.16
2486.385	2138.3
2489.537	2131.41
2492.688	2120.15
2495.839	2135.84
2498.989	2153.88
2502.14	2137
2505.29	2130.58
2508.439	2155.01
2511.589	2096.69
2514.738	2095.13
2517.887	2118.12
2521.035	2194.71
2524.183	2156.09
2527.331	2141.41
2530.479	2136.53
2533.627	2135.73
