Data from C_1_DIV_OH_2N_Splice17_11-49-53-234.txt Node
Date: Sat Mar 14 11:49:53 EDT 2020
User: sa697716
Spectrometer: FLMS03696
Trigger mode: 0
Integration Time (sec): 3.180400E-1
Scans to average: 20
Electric dark correction enabled: true
Nonlinearity correction enabled: true
Boxcar width: 5
XAxis mode: Wavelengths
Number of Pixels in Spectrum: 2048
>>>>>Begin Spectral Data<<<<<
187.83	-231820.45
188.298	1615.86
188.766	900.41
189.233	816.58
189.701	1201.27
190.169	1732.66
190.636	635.01
191.104	529.16
191.571	105.07
192.039	-34.07
192.506	-3.02
192.974	461.19
193.441	-724.27
193.908	-251.86
194.375	-79.87
194.842	21.73
195.31	52.46
195.777	106.91
196.244	329.16
196.711	450.15
197.177	568.94
197.644	828
198.111	1421.12
198.578	1990.89
199.045	1623.47
199.511	2684.42
199.978	3150.59
200.445	2701.01
200.911	3023.17
201.378	3404.33
201.844	3090.76
202.31	5271.55
202.777	5475.83
203.243	3053
203.709	2906.9
204.176	3464.7
204.642	2849.06
205.108	2650.15
205.574	2184.76
206.04	1999.32
206.506	1847.13
206.972	1754.68
207.438	1708.1
207.903	1948.23
208.369	1730.23
208.835	1731.21
209.301	1815.11
209.766	1870.82
210.232	1855.61
210.697	2282.11
211.163	2821.86
211.628	4333.05
212.094	3647.06
212.559	4506.59
213.024	2823.74
213.49	3423.69
213.955	3371.31
214.42	3322.14
214.885	3099.81
215.35	3009.66
215.815	2896.64
216.28	3075.87
216.745	2535.18
217.21	2780.68
217.675	2574.38
218.14	2963.38
218.604	3400.51
219.069	3960.23
219.534	4222.39
219.998	5008.65
220.463	6181.55
220.927	7776.82
221.392	7455.56
221.856	7637.02
222.32	9716.75
222.785	12117.81
223.249	15342.76
223.713	17227.98
224.177	17265.66
224.642	22277.33
225.106	27568.37
225.57	30254.4
226.034	22550.29
226.497	34406.88
226.961	31103.09
227.425	36290.43
227.889	40407.4
228.353	40497.17
228.816	83781.45
229.28	80431.57
229.744	67998.6
230.207	41294.48
230.671	40666.74
231.134	67452.36
231.597	77831.97
232.061	77942.1
232.524	76181.28
232.987	52519.13
233.45	47288.83
233.914	42450.68
234.377	43521.02
234.84	39875.34
235.303	47108.93
235.766	52541.33
236.229	54339.62
236.691	34235.24
237.154	38495.85
237.617	28950.15
238.08	29654.06
238.542	34740.64
239.005	24815.74
239.468	24634.59
239.93	23212.33
240.393	21104.5
240.855	18548.67
241.317	18990.03
241.78	23119.16
242.242	23903.34
242.704	25804.28
243.166	22475.73
243.629	20366.57
244.091	23500.87
244.553	25768.42
245.015	27693.85
245.477	35849.33
245.939	52591.17
246.4	55862.89
246.862	54376.78
247.324	51331.31
247.786	57500.58
248.247	75461.34
248.709	78121.66
249.17	58401.18
249.632	55035.58
250.093	63776.93
250.555	55062.93
251.016	33549.4
251.477	31822.73
251.939	34309.15
252.4	35955.74
252.861	42799.27
253.322	39813.38
253.783	47407.99
254.244	61503.62
254.705	48530.89
255.166	43191.36
255.627	42538.19
256.088	59971.14
256.549	63690.23
257.009	54922.37
257.47	66696.21
257.931	54316.74
258.391	40652.31
258.852	41918.4
259.312	44002.26
259.773	54359.1
260.233	45936.12
260.694	38797.53
261.154	44086.65
261.614	35393.1
262.074	31684.53
262.534	32912.95
262.994	31026.27
263.455	41409.38
263.915	34893.44
264.374	32889.23
264.834	35945.72
265.294	39876.78
265.754	41281.06
266.214	39093.02
266.673	36637.44
267.133	46227.02
267.593	45911.74
268.052	56176.52
268.512	48881.89
268.971	58922.48
269.431	64611.54
269.89	57866.81
270.349	86826.22
270.809	96879.5
271.268	87135.57
271.727	195724.45
272.186	126829.37
272.645	95152.24
273.104	68725.61
273.563	99509.65
274.022	78361.17
274.481	66644.35
274.94	51299.37
275.399	38133.58
275.857	44413.48
276.316	60070.59
276.775	53443.89
277.233	52615.26
277.692	49197.63
278.15	55633.54
278.609	57180.52
279.067	52869.08
279.525	49070.22
279.984	63428.45
280.442	76120.11
280.9	74926
281.358	49279.12
281.816	45879.55
282.274	44853.91
282.732	46389.68
283.19	46601.52
283.648	40235.11
284.106	42878.97
284.564	43659.58
285.021	40445.44
285.479	30123.18
285.937	27423.26
286.394	24011.04
286.852	24686.07
287.309	25948.95
287.767	25005.23
288.224	23743.04
288.682	26018.35
289.139	28482.77
289.596	25982.91
290.053	26966.07
290.511	34031.66
290.968	41211.87
291.425	55989.91
291.882	46558.34
292.339	40524.37
292.796	40241.14
293.252	37917.99
293.709	30107.89
294.166	27014
294.623	29876.85
295.079	28692.14
295.536	28805.63
295.992	26156.02
296.449	25829.18
296.905	26834.7
297.362	25693.82
297.818	27016.95
298.274	27990.46
298.731	28519.29
299.187	28204.33
299.643	30266.02
300.099	36530.06
300.555	40074.13
301.011	33470.78
301.467	32209.68
301.923	37717.55
302.379	36826.79
302.835	36125.28
303.291	36153.41
303.746	41143.56
304.202	51912.19
304.658	52100.34
305.113	35083.19
305.569	34332.72
306.024	36580.44
306.479	34842.87
306.935	29356.03
307.39	32076.04
307.845	29619.39
308.301	29808.02
308.756	29022
309.211	27963.66
309.666	28621.24
310.121	35472.37
310.576	35983.61
311.031	35675.25
311.486	40885.62
311.94	40820.73
312.395	54491.64
312.85	102237.12
313.305	501881.77
313.759	2593623.15
314.214	187877.71
314.668	148854.73
315.123	125078.99
315.577	44791.74
316.032	39831.24
316.486	49875.41
316.94	39305.43
317.394	27348.68
317.849	21297.72
318.303	20169.91
318.757	19005.29
319.211	20986.2
319.665	18368.3
320.119	18587.95
320.572	26670.47
321.026	24890.46
321.48	20717.33
321.934	22597.03
322.387	22671.29
322.841	24472.71
323.295	21968.85
323.748	25366.67
324.202	25735.36
324.655	30866.95
325.108	43066.18
325.562	30433.76
326.015	36204.82
326.468	27338.76
326.921	30548.8
327.374	28474.68
327.827	29584.94
328.28	33475.05
328.733	22379.59
329.186	19692.32
329.639	18777.26
330.092	15843.93
330.545	15073.64
330.997	15191.58
331.45	16570.03
331.903	19417.72
332.355	33394.12
332.808	32483.33
333.26	26819.22
333.713	29115.4
334.165	29324.01
334.617	39183.47
335.069	31643.48
335.522	57229.58
335.974	63238.3
336.426	57900.03
336.878	40130.73
337.33	20322.25
337.782	19831.91
338.234	24796.01
338.686	29654.13
339.137	35071.49
339.589	32988.57
340.041	25864.07
340.493	22250.72
340.944	22806.18
341.396	24534.68
341.847	20613.33
342.299	24325.45
342.75	29684.73
343.201	25945.75
343.653	29870.91
344.104	36741.72
344.555	28922.92
345.006	45044.87
345.457	34455.52
345.908	27403.3
346.359	25773.64
346.81	21016.63
347.261	22146.15
347.712	21817.91
348.163	23423.21
348.613	23693.09
349.064	22121.93
349.515	19363.85
349.965	19843.53
350.416	23897.14
350.866	26231.77
351.317	29713.74
351.767	49155.45
352.217	62166.17
352.668	51635.52
353.118	47341.63
353.568	45674.66
354.018	36111.47
354.468	38112.19
354.918	27345.93
355.368	23946.38
355.818	33846.94
356.268	97317.04
356.718	407124.41
357.168	101331.99
357.617	50804
358.067	56441.69
358.517	52855.84
358.966	61907.96
359.416	69343.48
359.865	74998.3
360.315	89205.54
360.764	41587.84
361.213	23278.86
361.663	22077.61
362.112	27239.56
362.561	44056.13
363.01	33254.32
363.459	27975.16
363.908	30323.51
364.357	25733.26
364.806	43497.29
365.255	29938.85
365.703	27405.93
366.152	27468.98
366.601	22267.23
367.05	18070.14
367.498	16418.06
367.947	17149
368.395	17847.23
368.844	15790.04
369.292	19080.28
369.74	13166.62
370.189	20155.1
370.637	23612.21
371.085	20373.69
371.533	24795.27
371.981	23900.21
372.429	22730.91
372.877	23649.95
373.325	19807.17
373.773	20178.93
374.221	17965.13
374.669	22281.33
375.116	19301.78
375.564	19496.62
376.012	21793.66
376.459	17972.84
376.907	21479.6
377.354	25992.01
377.801	24242.97
378.249	27825.56
378.696	35569.57
379.143	43052.44
379.591	45903.9
380.038	77514.65
380.485	55914.69
380.932	60373.77
381.379	55207.08
381.826	40618.13
382.273	28916.8
382.72	25323.88
383.166	24687.93
383.613	16020.92
384.06	14454.36
384.506	16727.02
384.953	12303.94
385.4	12406.8
385.846	10870.71
386.292	10626.88
386.739	10408.94
387.185	10294.39
387.631	10294.76
388.078	9994.5
388.524	10701.11
388.97	9895.04
389.416	8252.76
389.862	8764.06
390.308	8308.88
390.754	8447.85
391.2	9151.7
391.645	9375.68
392.091	8951.1
392.537	8655.14
392.983	8675.54
393.428	8510.76
393.874	9104.21
394.319	9128.36
394.765	8644.11
395.21	8868.45
395.655	8303.94
396.101	7774.95
396.546	7012.77
396.991	7092.17
397.436	6594.59
397.881	6370.01
398.326	6052.19
398.771	5728.25
399.216	5021.11
399.661	4531.81
400.106	4524.52
400.551	4625.85
400.995	4147.54
401.44	4097.53
401.885	3846.58
402.329	3878.78
402.774	3714.21
403.218	3584.86
403.663	3452.86
404.107	3542.39
404.551	3559.56
404.995	3256.58
405.44	3143.97
405.884	3195.93
406.328	3096.62
406.772	3085.15
407.216	2811.29
407.66	2725.38
408.104	2594.25
408.547	2427.83
408.991	2352.59
409.435	2267.23
409.879	2241.23
410.322	2210.38
410.766	2130.17
411.209	2026.61
411.653	1947.66
412.096	1905.09
412.54	1902.29
412.983	1887.4
413.426	1895.55
413.869	1892.34
414.312	1854.62
414.756	1789.78
415.199	1708.38
415.642	1659.74
416.085	1659.06
416.527	1646.97
416.97	1674.37
417.413	1589.71
417.856	1576.73
418.298	1557.4
418.741	1545.66
419.184	1542.65
419.626	1602.57
420.069	1601.22
420.511	1608.46
420.953	1573.59
421.396	1558.33
421.838	1519.83
422.28	1553.27
422.722	1557.11
423.164	1581.25
423.606	1556.14
424.048	1557.16
424.49	1479.83
424.932	1477.07
425.374	1461.23
425.816	1489.97
426.258	1517.22
426.699	1531.58
427.141	1507.75
427.582	1529.81
428.024	1521.65
428.465	1512.27
428.907	1474.1
429.348	1461.13
429.789	1460.88
430.231	1427.26
430.672	1448.81
431.113	1415.77
431.554	1399.97
431.995	1370.02
432.436	1322.85
432.877	1293.8
433.318	1277.04
433.759	1276.67
434.2	1275.2
434.64	1263.17
435.081	1270.19
435.522	1205.34
435.962	1167.44
436.403	1143.72
436.843	1164.99
437.284	1146.35
437.724	1123.02
438.164	1129.55
438.604	1105.73
439.045	1066.02
439.485	1025.33
439.925	1007.29
440.365	983.79
440.805	972.88
441.245	962.2
441.685	927.41
442.125	922.88
442.564	928.52
443.004	908.46
443.444	908.65
443.883	914.51
444.323	909.6
444.762	913.37
445.202	930.65
445.641	947.63
446.081	946.46
446.52	956.43
446.959	948.34
447.398	926.22
447.837	918.01
448.276	902.49
448.716	912.08
449.154	923.37
449.593	904
450.032	899.7
450.471	886.54
450.91	888.74
451.349	885.79
451.787	883.2
452.226	899.28
452.664	899.29
453.103	903.55
453.541	903.68
453.98	902.76
454.418	911.25
454.856	897.13
455.295	895.61
455.733	902.64
456.171	909.53
456.609	910.28
457.047	910.39
457.485	922.57
457.923	924.25
458.361	912.42
458.798	915.04
459.236	912.59
459.674	921.41
460.111	925.96
460.549	918.42
460.987	916.75
461.424	917.28
461.862	912.72
462.299	900.72
462.736	899.68
463.173	903.6
463.611	893.46
464.048	891.58
464.485	898.72
464.922	891.78
465.359	886.73
465.796	870.84
466.233	864.5
466.67	857.81
467.106	854.93
467.543	847.65
467.98	837.65
468.416	819.26
468.853	813.58
469.29	790.34
469.726	782.98
470.162	764.33
470.599	758.81
471.035	752.94
471.471	735.83
471.907	734.6
472.344	730.53
472.78	733.03
473.216	741.68
473.652	732.98
474.088	732.65
474.523	729.6
474.959	735.73
475.395	730.37
475.831	725.34
476.266	729.11
476.702	726.3
477.138	717.95
477.573	715.06
478.008	712.85
478.444	715.45
478.879	720.23
479.314	722.64
479.75	721.82
480.185	724.28
480.62	730.6
481.055	734.02
481.49	739.49
481.925	750.17
482.36	761.09
482.795	779.81
483.229	799.38
483.664	814.42
484.099	816.7
484.534	828.7
484.968	836.46
485.403	838.56
485.837	837.87
486.271	836.79
486.706	837.57
487.14	831.03
487.574	819.36
488.009	814.26
488.443	808.1
488.877	817.94
489.311	821.22
489.745	831.18
490.179	839.68
490.613	854.65
491.046	861.51
491.48	869.37
491.914	870.46
492.348	878.46
492.781	884.91
493.215	889.24
493.648	893.01
494.082	902.61
494.515	905.09
494.948	915.09
495.382	924.58
495.815	932.13
496.248	940.2
496.681	958.4
497.114	975.16
497.547	989.75
497.98	1008.13
498.413	1016.39
498.846	1030.24
499.279	1043.09
499.711	1051.97
500.144	1057.09
500.577	1073.09
501.009	1090.57
501.442	1106.28
501.874	1109.59
502.306	1114.78
502.739	1126.68
503.171	1150.25
503.603	1157.5
504.036	1173.16
504.468	1184.36
504.9	1201.54
505.332	1214
505.764	1222.78
506.196	1235.12
506.627	1257.48
507.059	1277.66
507.491	1293.62
507.923	1292.77
508.354	1314.66
508.786	1331
509.217	1356.51
509.649	1378.45
510.08	1405.64
510.512	1428.24
510.943	1449.15
511.374	1464.74
511.805	1493.71
512.237	1519.84
512.668	1564.43
513.099	1601.52
513.53	1637.18
513.961	1663.82
514.391	1704.26
514.822	1744.99
515.253	1791.86
515.684	1823.98
516.114	1861.74
516.545	1886.84
516.975	1921.13
517.406	1942.59
517.836	1943.85
518.267	1951.31
518.697	1973.41
519.127	1978.69
519.558	1990.16
519.988	1993.61
520.418	2005.69
520.848	2029.75
521.278	2039.8
521.708	2040.9
522.138	2056.26
522.567	2097.79
522.997	2129.88
523.427	2148.87
523.857	2169.13
524.286	2178.12
524.716	2196.67
525.145	2220.2
525.575	2231.36
526.004	2250.07
526.433	2257.71
526.863	2256.25
527.292	2239.12
527.721	2243.7
528.15	2250.42
528.579	2251.01
529.008	2263.93
529.437	2292.07
529.866	2307.19
530.295	2326.78
530.724	2339.73
531.152	2372.87
531.581	2387.22
532.01	2407.9
532.438	2417.39
532.867	2434.32
533.295	2456.05
533.723	2463.51
534.152	2458.14
534.58	2456.3
535.008	2434.39
535.436	2435.17
535.865	2444.65
536.293	2464.59
536.721	2485.07
537.149	2517.83
537.576	2519.42
538.004	2534.68
538.432	2544.48
538.86	2542.38
539.287	2552.91
539.715	2573.08
540.143	2577.2
540.57	2572.88
540.998	2567.91
541.425	2536.76
541.852	2509.32
542.28	2506.88
542.707	2484.64
543.134	2465.44
543.561	2459.6
543.988	2448.41
544.415	2445.53
544.842	2438.02
545.269	2427.86
545.696	2429.52
546.123	2446.12
546.549	2431.05
546.976	2413.7
547.403	2412.62
547.829	2414.65
548.256	2416.44
548.682	2410.68
549.108	2400.28
549.535	2398.1
549.961	2399.79
550.387	2381.79
550.813	2372.23
551.24	2380.02
551.666	2381.53
552.092	2369.15
552.518	2360.58
552.943	2352.28
553.369	2361.33
553.795	2367.32
554.221	2367.74
554.646	2361.58
555.072	2374.68
555.498	2381.22
555.923	2392.71
556.349	2409.58
556.774	2419.13
557.199	2418.85
557.625	2426.38
558.05	2418.46
558.475	2432.53
558.9	2431.39
559.325	2420.06
559.75	2410.04
560.175	2400.68
560.6	2390.92
561.025	2389.35
561.449	2391.31
561.874	2399.23
562.299	2403.66
562.723	2413.37
563.148	2399.36
563.572	2404.31
563.997	2417.98
564.421	2427.52
564.846	2430.33
565.27	2436.94
565.694	2434.23
566.118	2450.01
566.542	2460.21
566.966	2452.13
567.39	2446.54
567.814	2432.53
568.238	2435.14
568.662	2443.3
569.086	2448.52
569.509	2460.05
569.933	2440.56
570.357	2433.91
570.78	2408.69
571.204	2392.75
571.627	2381.89
572.05	2382.06
572.474	2384.07
572.897	2366.92
573.32	2358.64
573.743	2345.89
574.166	2322.38
574.589	2323.89
575.012	2313.31
575.435	2311.41
575.858	2300.12
576.281	2285.31
576.704	2264.13
577.126	2248.73
577.549	2235.13
577.972	2222.26
578.394	2209.07
578.817	2197.53
579.239	2173.83
579.661	2156.39
580.084	2135.52
580.506	2117.49
580.928	2113.38
581.35	2098.86
581.772	2092.96
582.194	2075.42
582.616	2058.89
583.038	2039.4
583.46	2027.52
583.882	2021.67
584.303	2027.62
584.725	2022.36
585.147	2022.9
585.568	2035.31
585.99	2049.8
586.411	2056.9
586.833	2075.25
587.254	2075.2
587.675	2093.63
588.096	2108.68
588.518	2101.32
588.939	2076.93
589.36	2073.9
589.781	2062.66
590.202	2023.32
590.623	2012.3
591.043	2009.97
591.464	1992.97
591.885	1988.65
592.305	1980.59
592.726	1962.38
593.147	1965
593.567	1959.34
593.987	1949.04
594.408	1943.25
594.828	1942.26
595.248	1934.78
595.669	1909.84
596.089	1900.12
596.509	1891.82
596.929	1874.84
597.349	1876.15
597.769	1863.03
598.189	1855.08
598.608	1856.83
599.028	1858.19
599.448	1859.35
599.867	1842.52
600.287	1838.4
600.706	1832.2
601.126	1818.61
601.545	1815.68
601.965	1814.34
602.384	1806.68
602.803	1809.33
603.222	1802.92
603.641	1794.64
604.061	1789.41
604.48	1784.48
604.898	1794.78
605.317	1803.75
605.736	1807.58
606.155	1804.18
606.574	1791.83
606.992	1798.46
607.411	1793.16
607.829	1782.17
608.248	1778.44
608.666	1774.82
609.085	1773.67
609.503	1761.96
609.921	1751.94
610.339	1754.83
610.758	1754.57
611.176	1748.22
611.594	1737.33
612.012	1732.01
612.43	1735.99
612.847	1744.31
613.265	1745.32
613.683	1751.65
614.101	1753.08
614.518	1748.86
614.936	1734.84
615.353	1715.06
615.771	1712.11
616.188	1712.07
616.606	1708.02
617.023	1698.84
617.44	1679.36
617.857	1670.95
618.274	1658.57
618.691	1650.36
619.108	1638.33
619.525	1631.04
619.942	1639.24
620.359	1642.16
620.776	1634.62
621.192	1629.18
621.609	1626.57
622.026	1634.65
622.442	1641.57
622.859	1646.27
623.275	1637.2
623.691	1642.88
624.108	1656.62
624.524	1674.99
624.94	1673.89
625.356	1686.67
625.772	1703.21
626.188	1718.33
626.604	1720.76
627.02	1715.69
627.436	1713.16
627.852	1720.79
628.268	1736.56
628.683	1725.62
629.099	1714.44
629.514	1708.91
629.93	1713.93
630.345	1720.09
630.761	1713.85
631.176	1717.29
631.591	1707.9
632.007	1698.82
632.422	1697.29
632.837	1682.69
633.252	1677.99
633.667	1663.79
634.082	1650.49
634.497	1631.79
634.911	1604.16
635.326	1599.87
635.741	1576.42
636.155	1563.7
636.57	1564.21
636.984	1561.63
637.399	1561.92
637.813	1559.99
638.228	1556.85
638.642	1561.26
639.056	1547.6
639.47	1546.64
639.884	1534.29
640.298	1525.49
640.712	1521.91
641.126	1504.11
641.54	1491.89
641.954	1485.12
642.368	1467.96
642.781	1455.82
643.195	1430.97
643.609	1430
644.022	1420.73
644.436	1412.23
644.849	1395.86
645.262	1379.57
645.676	1380.38
646.089	1372.1
646.502	1349.89
646.915	1341.84
647.328	1320.33
647.741	1316.95
648.154	1298.77
648.567	1293.93
648.98	1276.56
649.393	1275.4
649.805	1270.44
650.218	1260.05
650.631	1240.62
651.043	1232.54
651.456	1225.16
651.868	1226.61
652.28	1247.52
652.693	1264.87
653.105	1271.72
653.517	1283.05
653.929	1283.3
654.341	1289.07
654.753	1273.43
655.165	1279.86
655.577	1276.69
655.989	1269.82
656.401	1258.29
656.813	1213.17
657.224	1187.79
657.636	1152.54
658.047	1129.69
658.459	1104.59
658.87	1091.67
659.282	1076.92
659.693	1051.32
660.104	1031.44
660.515	1013.51
660.926	1009.24
661.338	1003.74
661.749	993.34
662.159	980.65
662.57	973.31
662.981	965.14
663.392	954.99
663.803	957.09
664.213	951.32
664.624	944.87
665.035	945.78
665.445	927.67
665.855	917
666.266	905.61
666.676	901.37
667.086	889.63
667.497	886.75
667.907	878.12
668.317	865.7
668.727	858.86
669.137	858.2
669.547	853.97
669.956	856.14
670.366	855.9
670.776	856.7
671.186	859.49
671.595	861.43
672.005	864.38
672.414	862.13
672.824	860.1
673.233	865.16
673.642	865.88
674.052	868.64
674.461	869.73
674.87	875.08
675.279	871.61
675.688	873.07
676.097	874.34
676.506	870.93
676.915	887.2
677.323	888.95
677.732	887.38
678.141	887.72
678.549	876.71
678.958	876.67
679.366	876.41
679.775	882.61
680.183	893.94
680.592	901.72
681	909.22
681.408	902.92
681.816	913.83
682.224	926.02
682.632	939.68
683.04	975.75
683.448	1005.95
683.856	1043.96
684.264	1087.25
684.671	1128.55
685.079	1179.03
685.487	1235.02
685.894	1311.58
686.302	1376.08
686.709	1429.42
687.116	1489.9
687.524	1542
687.931	1587.44
688.338	1626.46
688.745	1660.38
689.152	1700.1
689.559	1751.51
689.966	1800.49
690.373	1824.59
690.78	1870.41
691.187	1943.32
691.593	1998.39
692	2044.16
692.407	2114.39
692.813	2199.18
693.22	2266.06
693.626	2334.1
694.032	2385.36
694.439	2469.47
694.845	2531.43
695.251	2613.43
695.657	2685.5
696.063	2796.84
696.469	2876.72
696.875	2949.14
697.281	2986.04
697.687	3033.57
698.093	3068.71
698.498	3147.8
698.904	3207.45
699.31	3302.91
699.715	3366.24
700.12	3462.25
700.526	3475.06
700.931	3547.84
701.337	3597.21
701.742	3629.45
702.147	3719.37
702.552	3749.28
702.957	3814.82
703.362	3831.77
703.767	3859.55
704.172	3899.38
704.577	3837.88
704.981	3884.01
705.386	3895.51
705.791	3881.62
706.195	3961.94
706.6	3965.87
707.004	4051.08
707.408	4008.15
707.813	4032.3
708.217	4012.87
708.621	4010.96
709.025	4119.34
709.43	4115.03
709.834	4175.69
710.237	4249.8
710.641	4225.88
711.045	4245.74
711.449	4236.18
711.853	4266.1
712.256	4309.41
712.66	4343.29
713.064	4421.66
713.467	4461.58
713.87	4584.08
714.274	4631.23
714.677	4746.61
715.08	4919.5
715.484	5098.8
715.887	5313.25
716.29	5521.41
716.693	5740.98
717.096	6000.18
717.499	6137.98
717.901	6158.82
718.304	6181.29
718.707	6205.86
719.109	6091.67
719.512	6054.72
719.915	5902.53
720.317	5842.09
720.719	5888.55
721.122	5854.49
721.524	5798.01
721.926	5748.05
722.328	5855.75
722.731	5841.82
723.133	5869.09
723.535	6075.43
723.937	6094
724.338	6147.69
724.74	6183.6
725.142	6091.11
725.544	6088.81
725.945	6108.47
726.347	6101.11
726.748	6087.77
727.15	6097.79
727.551	6051.83
727.952	6017.3
728.354	5983.31
728.755	5982.8
729.156	5937.65
729.557	5943.23
729.958	5809.03
730.359	5752.8
730.76	5733.51
731.161	5670.23
731.562	5644.83
731.962	5647.5
732.363	5579.83
732.763	5512.2
733.164	5551.94
733.564	5480.82
733.965	5377.53
734.365	5335.46
734.766	5366.78
735.166	5322.97
735.566	5261.71
735.966	5234.3
736.366	5227.51
736.766	5159.59
737.166	5191.67
737.566	5145.87
737.966	5114.98
738.365	5155.26
738.765	5151.29
739.165	5068.93
739.564	5040.77
739.964	5089.71
740.363	5036.01
740.763	5035.38
741.162	5022.82
741.561	4988.14
741.96	4937.35
742.36	4958.57
742.759	4965.29
743.158	5006.13
743.557	5022.01
743.955	5063.83
744.354	5012.65
744.753	5073.74
745.152	5027.77
745.55	5086.6
745.949	5077.88
746.348	5077.28
746.746	5092.71
747.144	5045.84
747.543	5021.1
747.941	5072.13
748.339	4996.85
748.737	4990
749.136	4978.99
749.534	5048.57
749.932	5015.7
750.33	5041.06
750.727	5101.12
751.125	5076.19
751.523	5060.14
751.921	5106.08
752.318	5069.38
752.716	5131.52
753.113	5145.71
753.511	5173.16
753.908	5171.99
754.305	5153.81
754.703	5217.33
755.1	5280.67
755.497	5343.54
755.894	5545.06
756.291	5733.48
756.688	6078.26
757.085	6538.49
757.482	7180.07
757.878	7882.62
758.275	8516.72
758.672	9389.99
759.068	10102.1
759.465	11118.03
759.861	12429.89
760.258	13949.38
760.654	14728.32
761.05	14601.93
761.447	13933.42
761.843	12983.61
762.239	11997.37
762.635	11550.7
763.031	11131.27
763.427	10513.26
763.822	9865.46
764.218	9223.27
764.614	8385.71
765.01	7827
765.405	7469.49
765.801	7198.34
766.196	6849.79
766.592	6660.35
766.987	6331.64
767.382	6108.5
767.778	6018.35
768.173	5882.93
768.568	5808.04
768.963	5679.47
769.358	5700.75
769.753	5654.28
770.148	5564.02
770.542	5561.13
770.937	5524.54
771.332	5619.81
771.726	5641.03
772.121	5570.89
772.515	5627.69
772.91	5613.36
773.304	5688.74
773.699	5617.67
774.093	5671.66
774.487	5729.92
774.881	5777.97
775.275	5773.65
775.669	5728.5
776.063	5771.91
776.457	5811.34
776.851	5731.1
777.245	5723.54
777.638	5756.94
778.032	5881.73
778.425	5844.27
778.819	5885.59
779.212	5835.88
779.606	5790.91
779.999	5812.79
780.392	5795.14
780.786	5882.08
781.179	5904.96
781.572	5944.87
781.965	5959.21
782.358	5894.62
782.751	5952.55
783.143	5904.9
783.536	5981.29
783.929	6024.06
784.322	6142.5
784.714	6176.17
785.107	6167.21
785.499	6239.41
785.891	6215.81
786.284	6195.09
786.676	6343.35
787.068	6318.91
787.46	6370.14
787.852	6392.21
788.245	6483.8
788.636	6513.97
789.028	6582.21
789.42	6624
789.812	6633.57
790.204	6737.68
790.595	6838.19
790.987	6630.11
791.378	6659.19
791.77	6798.85
792.161	6939.75
792.553	6995.27
792.944	6875.76
793.335	6802.18
793.726	6881.36
794.117	6974.92
794.508	7112.9
794.899	7081.67
795.29	7226.77
795.681	7281.54
796.072	7131.03
796.463	6932.22
796.853	6943.24
797.244	7110.26
797.634	7147.01
798.025	7141.43
798.415	7151.82
798.806	7243.82
799.196	7327.25
799.586	7380.83
799.976	7342.27
800.366	7577.94
800.756	7831.93
801.146	7791.2
801.536	7820.75
801.926	7893.17
802.316	7916.25
802.706	7993.59
803.095	7863.39
803.485	7970.63
803.874	8010.46
804.264	8278.87
804.653	8250.46
805.043	8401.52
805.432	8514.21
805.821	8509.28
806.21	8530.18
806.599	8651.68
806.988	8692.07
807.377	8799.18
807.766	8932.81
808.155	9224.78
808.544	8943.51
808.933	8955.47
809.321	8927.31
809.71	9228.09
810.098	9393.05
810.487	9867.45
810.875	10364.68
811.264	10382.54
811.652	10675.34
812.04	10817.39
812.428	10983.97
812.816	11771.35
813.204	12200.45
813.592	12767.73
813.98	13106.38
814.368	12999.1
814.756	13493.91
815.144	13400.97
815.531	13877.26
815.919	13803.85
816.306	14121.96
816.694	13801.3
817.081	13854.58
817.469	14212.91
817.856	14208.56
818.243	14493.74
818.63	14903.77
819.017	14460.25
819.404	14526.85
819.791	14921.51
820.178	15553.69
820.565	15798
820.952	16750.1
821.339	16243.15
821.725	16427.28
822.112	15662.39
822.498	15617.25
822.885	15752.38
823.271	15657.44
823.657	16083.19
824.044	16092.27
824.43	16170.65
824.816	16146.61
825.202	15698.9
825.588	16740.38
825.974	16751.19
826.36	17285.9
826.746	17315.17
827.132	17676.36
827.517	17652.22
827.903	16848.51
828.289	16881.41
828.674	16085.14
829.06	15981.2
829.445	16391.86
829.83	16766.99
830.216	17261.74
830.601	17635.48
830.986	17221.24
831.371	17080.57
831.756	17644.63
832.141	17204.39
832.526	17204.57
832.911	17492.72
833.295	17375.36
833.68	17865.14
834.065	17224.75
834.449	16290.96
834.834	16214.47
835.218	16206.1
835.603	16555.98
835.987	16349.11
836.371	17210.74
836.755	17099.63
837.139	17515.99
837.524	17763.73
837.908	17570.33
838.291	17628.06
838.675	17688.95
839.059	17908.43
839.443	17906.43
839.827	17680.73
840.21	18179.48
840.594	18023.73
840.977	18243.34
841.361	18220.75
841.744	18611.13
842.127	18464.13
842.511	18719.17
842.894	19341.77
843.277	19733.61
843.66	20287.57
844.043	20372.23
844.426	19531.67
844.809	19216.93
845.191	19240.22
845.574	18766.38
845.957	18389.46
846.339	18274.22
846.722	17732.83
847.104	17803.33
847.487	17631.14
847.869	17645.79
848.252	17924.06
848.634	18259.39
849.016	18526.56
849.398	18660.48
849.78	19536.06
850.162	19534.44
850.544	19958.17
850.926	20605.17
851.307	20512.24
851.689	20791.44
852.071	21253.5
852.452	21583.33
852.834	21574.24
853.215	21981.36
853.597	22132.3
853.978	22430.22
854.359	22892.61
854.741	21861.22
855.122	21763.88
855.503	21463.47
855.884	21598.98
856.265	21538.12
856.646	21651.53
857.026	21244.27
857.407	21174.52
857.788	21346.17
858.169	21641.57
858.549	20781.05
858.93	21425.06
859.31	21464.87
859.69	21675.99
860.071	21260.76
860.451	21023.13
860.831	20264.04
861.211	21450.05
861.591	22003.45
861.971	21971.46
862.351	22165.02
862.731	22552.78
863.111	22821.57
863.491	23168.48
863.87	24076.31
864.25	24431.59
864.629	24033.43
865.009	24561.06
865.388	25443.25
865.768	27267.55
866.147	27153.12
866.526	25639.89
866.905	25950.73
867.284	27409.55
867.663	26015.36
868.042	24921.11
868.421	24837.58
868.8	25247.31
869.179	25496.28
869.558	23999.39
869.936	22132.21
870.315	22524.43
870.693	23077.22
871.072	24879.08
871.45	23700.67
871.828	24002.05
872.207	25241.9
872.585	24857.52
872.963	25536.04
873.341	24662.04
873.719	24372.48
874.097	24072.42
874.475	24524.82
874.853	25089.78
875.23	24051.73
875.608	25057.38
875.986	27108.86
876.363	25913.38
876.741	26705.06
877.118	26034.59
877.495	27316.17
877.873	27779.14
878.25	29238.01
878.627	28059.89
879.004	28450.06
879.381	28312.9
879.758	27555.69
880.135	25648.69
880.512	27130.03
880.889	26412.12
881.265	26132.61
881.642	25913.39
882.019	26343.45
882.395	25799.25
882.772	26810.4
883.148	25651.37
883.524	25541.02
883.901	25396.93
884.277	25785
884.653	25627.64
885.029	26368.92
885.405	29185.81
885.781	28944.95
886.157	27756.54
886.532	28090.14
886.908	28081.38
887.284	31215.38
887.659	32234.01
888.035	33231.6
888.411	34082.81
888.786	34519.39
889.161	35714.51
889.537	35072.52
889.912	36205.23
890.287	36166.06
890.662	37104.35
891.037	36431.89
891.412	33982.15
891.787	33649.55
892.162	32488.36
892.536	33249.13
892.911	32001.65
893.286	31324.8
893.66	30063
894.035	30815.87
894.409	33569.27
894.784	32223.74
895.158	32750.09
895.532	34676.68
895.906	35614.87
896.281	36453.21
896.655	35867.54
897.029	40987.22
897.402	42663.26
897.776	47474.49
898.15	47317.3
898.524	46777.34
898.898	47378.01
899.271	53053.44
899.645	45967.77
900.018	44167.71
900.392	45775.85
900.765	46133.58
901.138	42683.04
901.511	42057.52
901.884	38610.08
902.258	35618.32
902.631	36802.7
903.003	42369.56
903.376	38230.32
903.749	42847.29
904.122	45848.09
904.495	50472.8
904.867	51145.14
905.24	44387.92
905.612	41300.73
905.985	42230.94
906.357	44139.45
906.729	42132.72
907.102	35981.61
907.474	34596.58
907.846	34824.52
908.218	34353.65
908.59	30361.99
908.962	29343.64
909.334	31613.43
909.705	33215.45
910.077	32270.44
910.449	33600.72
910.82	34534.64
911.192	37995.05
911.563	39465.31
911.935	42218.15
912.306	42279.04
912.677	43655.43
913.048	43212.87
913.419	46857.37
913.79	47096.28
914.161	50462.35
914.532	48195.22
914.903	44269.35
915.274	42037.77
915.645	41433.28
916.015	36474.29
916.386	34773.92
916.756	37007.11
917.127	38180.74
917.497	34110.54
917.868	37140.95
918.238	35286.86
918.608	36332.08
918.978	37087.58
919.348	39282.02
919.718	40575.04
920.088	39078.81
920.458	40594.26
920.828	42724.96
921.198	40488.67
921.567	43249.79
921.937	33472.95
922.306	33794.21
922.676	36420.09
923.045	30376.58
923.415	28840.11
923.784	26247.06
924.153	26976.93
924.522	26941.73
924.891	25318.19
925.26	27112.81
925.629	26468.82
925.998	30446.67
926.367	29717.1
926.736	28288.97
927.104	33693.44
927.473	36224.01
927.842	43776.97
928.21	43343.69
928.578	45555.94
928.947	43069.02
929.315	43347.5
929.683	50841.91
930.051	51209.47
930.42	59439.38
930.788	50806.56
931.156	50404.49
931.523	47227.63
931.891	43580.35
932.259	41872.36
932.627	48472.58
932.994	68561.2
933.362	56637.07
933.729	49168.76
934.097	47047.11
934.464	39814.91
934.831	45935.4
935.199	45282.81
935.566	43903.61
935.933	44588.74
936.3	53985.21
936.667	42048.66
937.034	37908.26
937.401	37497.34
937.767	32360.11
938.134	28841.56
938.501	40674.05
938.867	43354.52
939.234	73339.88
939.6	62649.49
939.967	68914.75
940.333	46082.48
940.699	39283.63
941.065	31557.47
941.431	41348.88
941.798	39869.61
942.163	52291.77
942.529	32666.37
942.895	30089.16
943.261	19454.51
943.627	25494.3
943.992	22316.05
944.358	22364.64
944.723	22446.38
945.089	21882.55
945.454	20238.32
945.82	21595.5
946.185	20744.32
946.55	24052.34
946.915	21582.01
947.28	25312.16
947.645	22296.26
948.01	20582.2
948.375	21457.65
948.74	25724.03
949.104	29996.44
949.469	43345.93
949.834	76625.53
950.198	72681.81
950.562	43548.78
950.927	36210.78
951.291	43581.85
951.655	37126.92
952.02	34902.91
952.384	26380.88
952.748	22940.2
953.112	22363.16
953.476	19446.47
953.839	17996.88
954.203	17812.52
954.567	22286.12
954.931	35142.13
955.294	30052.59
955.658	30218.43
956.021	51335.06
956.385	87059.22
956.748	128507.02
957.111	199509.93
957.474	223775.36
957.837	251984.38
958.2	190715.74
958.563	68598.12
958.926	46342.97
959.289	70340.73
959.652	78576.58
960.015	58969.2
960.377	84695.23
960.74	96722.13
961.102	166965.4
961.465	179331.28
961.827	95935.73
962.189	184123.69
962.552	127684.2
962.914	102436.83
963.276	66505.85
963.638	54960.19
964	54418.04
964.362	36784.93
964.724	35510.55
965.085	25311.35
965.447	20756.16
965.809	23699.86
966.17	23737.59
966.532	25680.86
966.893	23556.91
967.255	21416.86
967.616	25286.91
967.977	20265.01
968.338	22155.27
968.699	18222.36
969.061	18236.24
969.421	18354.46
969.782	20586.77
970.143	17379.27
970.504	17998.17
970.865	20473.84
971.225	20943.99
971.586	20489.36
971.946	29212.21
972.307	25315.63
972.667	33098.59
973.027	34089.42
973.388	41323.14
973.748	28107.02
974.108	30614.68
974.468	41380.37
974.828	31869.28
975.188	24523.8
975.548	22527.78
975.907	18892.9
976.267	21210.97
976.627	17813.12
976.986	18445.36
977.346	17574.9
977.705	16895.46
978.064	15377.66
978.424	12820.6
978.783	13259.57
979.142	15126.73
979.501	14470.85
979.86	15297.6
980.219	14733.65
980.578	19014.4
980.937	21301.35
981.296	18979.39
981.654	19497.48
982.013	30345.56
982.371	39319.36
982.73	36755.99
983.088	41617.26
983.447	44484.59
983.805	63591.4
984.163	132994.73
984.521	147747.5
984.879	216342.06
985.237	-352099.48
985.595	339313.69
985.953	84359.61
986.311	48746.8
986.669	28296.23
987.026	24464.42
987.384	32865.17
987.741	33996.72
988.099	24245
988.456	19298.67
988.814	18086.46
989.171	15716.59
989.528	15532.63
989.885	16381.58
990.242	12954.05
990.599	16138.48
990.956	13170.93
991.313	9224.72
991.67	7556.21
992.027	8001.36
992.383	7105.09
992.74	6221.02
993.096	6532.69
993.453	6778.25
993.809	7019.86
994.165	9354.45
994.522	8556.35
994.878	9425.7
995.234	11804.59
995.59	11657.98
995.946	11052.45
996.302	12615.94
996.658	14595.85
997.013	16095.24
997.369	19080.91
997.725	24452.09
998.08	15871.98
998.436	24503.71
998.791	33836.56
999.147	33755.09
999.502	36866.15
999.857	26811.22
1000.212	43707.29
1000.567	62263.15
1000.922	35842.55
1001.277	22767.37
1001.632	16890.92
1001.987	21672.48
1002.342	15538.14
1002.696	12432.53
1003.051	9934.87
1003.406	12015.23
1003.76	11947.69
1004.114	11790.75
1004.469	9897.17
1004.823	8197.4
1005.177	8841.04
1005.531	7013.85
1005.885	6245.11
1006.239	7042.15
1006.593	8825.17
1006.947	11814.68
1007.301	8886.73
1007.655	9693.31
1008.008	7097.71
1008.362	7998.08
1008.715	11429.94
1009.069	10361.06
1009.422	15555.02
1009.776	31135.45
1010.129	20726.72
1010.482	17309.2
1010.835	14615.86
1011.188	30354.5
1011.541	28567.59
1011.894	-174958.18
1012.247	514226.18
1012.6	34801.37
1012.952	22016.06
1013.305	11379.74
1013.657	8207.84
1014.01	7770.51
1014.362	6420.28
1014.715	5696.22
1015.067	4962.77
1015.419	4870.53
1015.771	4308.65
1016.123	3830.46
1016.475	3942.52
1016.827	4192.87
1017.179	4510.55
1017.531	4545.08
1017.883	4649.06
1018.234	4476.34
1018.586	5654.89
1018.938	5979.22
1019.289	8206.86
1019.64	9390.56
1019.992	8770.51
1020.343	8085.13
1020.694	6412.81
1021.045	5671.9
1021.396	6476.56
1021.747	6940.94
1022.098	8332.74
1022.449	6050.24
1022.8	5617.09
1023.151	3919.45
1023.501	3470.19
1023.852	3773.22
1024.202	3904.16
1024.553	4299.31
1024.903	4181.69
1025.253	3575.1
1025.604	3203.15
1025.954	3983.73
1026.304	4879.83
1026.654	5678.38
1027.004	8347.73
1027.354	13504.45
1027.703	12683.25
1028.053	16713.61
1028.403	24098.14
1028.753	35089.32
1029.102	47873.5
1029.452	246640.86
1029.801	10656.7
1030.15	6851.76
1030.499	5831.75
897.758	2060.22
901.051	1989.67
904.343	2023.55
907.636	2032.64
910.928	2092.89
914.22	2016.08
917.511	2020.1
920.803	2065.12
924.094	2058.73
927.384	2067.08
930.675	2030
933.965	1997.27
937.255	2032.84
940.544	2004.87
943.834	1993.75
947.123	1936.97
950.411	2023.25
953.7	2005.41
956.988	1993.2
960.276	1930.95
963.563	1972.35
966.851	1984.35
970.138	2023.49
973.424	2023.9
976.711	1975.92
979.997	2028.53
983.283	2067.88
986.568	2004.6
989.853	1991.76
993.138	2016.62
996.423	2103.43
999.708	2067.54
1002.992	2096.86
1006.275	2012.77
1009.559	2018.33
1012.842	2114.52
1016.125	2070.2
1019.408	2053.97
1022.69	2103.97
1025.972	2138.34
1029.254	2117.2
1032.536	2084.04
1035.817	2088.88
1039.098	2058.85
1042.379	2106.18
1045.659	2132.82
1048.939	2084.65
1052.219	2091.31
1055.498	2078.77
1058.778	2077.61
1062.057	2053.14
1065.335	2076.79
1068.614	2085.16
1071.892	2086.52
1075.17	2136.51
1078.447	2142.68
1081.724	2137.28
1085.001	2159.39
1088.278	2138.36
1091.554	2145.1
1094.83	2140.48
1098.106	2178.83
1101.382	2204.96
1104.657	2205.89
1107.932	2204.49
1111.206	2187.37
1114.481	2139.82
1117.755	2137.57
1121.029	2136.06
1124.302	2196.23
1127.575	2166.34
1130.848	2163.2
1134.121	2138.81
1137.393	2104.68
1140.665	2159.42
1143.937	2140.49
1147.208	2082.94
1150.48	2144.53
1153.75	2136.99
1157.021	2131.29
1160.291	2110.38
1163.561	2164.85
1166.831	2129.44
1170.101	2152.5
1173.37	2107.3
1176.639	2069.27
1179.907	2108.66
1183.176	2136.65
1186.444	2136.79
1189.711	2159.45
1192.979	2187.33
1196.246	2144.53
1199.513	2154.84
1202.78	2162.49
1206.046	2170.5
1209.312	2201.13
1212.578	2216.31
1215.843	2187.57
1219.108	2152.07
1222.373	2174.81
1225.638	2150.53
1228.902	2142.84
1232.166	2096.43
1235.43	2085.1
1238.693	2109.84
1241.956	2100.5
1245.219	2151.05
1248.482	2130.65
1251.744	2129.91
1255.006	2247.58
1258.268	2192.21
1261.529	2151.63
1264.79	2151.71
1268.051	2246.81
1271.312	2256.45
1274.572	2228.09
1277.832	2215.93
1281.092	2193.46
1284.351	2190.22
1287.61	2176.49
1290.869	2115.24
1294.128	2117.38
1297.386	2156.38
1300.644	2149.33
1303.902	2160.01
1307.159	2031.72
1310.416	2080.9
1313.673	2110.69
1316.93	2111.37
1320.186	2137.42
1323.442	2166.7
1326.697	2173.1
1329.953	2142.6
1333.208	2180.29
1336.463	2151.16
1339.717	2116.46
1342.972	2216.08
1346.226	2187.65
1349.479	2139.15
1352.733	2121.54
1355.986	2122.79
1359.238	2105.47
1362.491	2108.19
1365.743	2109.03
1368.995	2098.45
1372.247	2112.15
1375.498	2131.42
1378.749	2176.04
1382	2124.86
1385.251	2157.08
1388.501	2109.77
1391.751	2115.21
1395	2081.21
1398.25	2105.25
1401.499	2131.14
1404.748	2086.52
1407.996	2061.9
1411.244	2052.48
1414.492	2038.28
1417.74	2027.44
1420.987	2029.98
1424.234	2088.62
1427.481	2047.47
1430.728	2104.08
1433.974	2080.52
1437.22	2072.89
1440.465	2069.49
1443.711	2075.68
1446.956	2096.09
1450.201	2066.56
1453.445	2105.72
1456.689	2100.37
1459.933	2109.02
1463.177	2151.31
1466.42	2124.5
1469.663	2108.2
1472.906	2131.14
1476.148	2176.64
1479.391	2138.59
1482.633	2115.68
1485.874	2146.24
1489.115	2157.09
1492.356	2134.77
1495.597	2117.37
1498.838	2108.44
1502.078	2096.64
1505.318	2072.91
1508.557	2103.47
1511.797	2099.89
1515.036	2154.71
1518.274	2122.44
1521.513	2069.83
1524.751	2079.08
1527.989	2105.3
1531.227	2123.52
1534.464	2142.37
1537.701	2133.49
1540.938	2143.84
1544.174	2092.95
1547.41	2081.49
1550.646	2117.4
1553.882	2170.37
1557.117	2228.21
1560.352	2234.96
1563.587	2201.91
1566.821	2169.82
1570.055	2180.87
1573.289	2163.09
1576.523	2217.37
1579.756	2232.96
1582.989	2256.36
1586.222	2217.95
1589.454	2241.78
1592.686	2230.37
1595.918	2257.04
1599.15	2255.13
1602.381	2296.25
1605.612	2282.87
1608.843	2372.96
1612.073	2299.92
1615.303	2290.66
1618.533	2289.35
1621.762	2284.59
1624.992	2260.46
1628.221	2264.9
1631.449	2253.82
1634.678	2273.13
1637.906	2241
1641.134	2267
1644.361	2234.35
1647.588	2224.42
1650.815	2245.03
1654.042	2207.2
1657.269	2235.95
1660.495	2220.34
1663.72	2198.67
1666.946	2170.51
1670.171	2150.56
1673.396	2124.13
1676.621	2105.73
1679.845	2099.68
1683.069	2101.34
1686.293	2128.96
1689.517	2121.8
1692.74	2077.8
1695.963	2097.15
1699.185	2142.49
1702.408	2115.62
1705.63	2142.99
1708.852	2162.63
1712.073	2132.3
1715.294	2147.02
1718.515	2187.5
1721.736	2150.06
1724.956	2128.06
1728.176	2147.97
1731.396	2170.05
1734.616	2155.17
1737.835	2191.77
1741.054	2159.53
1744.272	2152.21
1747.491	2194.23
1750.709	2212.49
1753.927	2170.83
1757.144	2189.58
1760.361	2251.27
1763.578	2222.88
1766.795	2175
1770.011	2160.65
1773.227	2181.36
1776.443	2223.58
1779.658	2265.91
1782.874	2201.83
1786.089	2198.03
1789.303	2199.54
1792.518	2196.28
1795.732	2182.35
1798.945	2199.83
1802.159	2236.52
1805.372	2186.54
1808.585	2183.7
1811.797	2184.85
1815.01	2199.23
1818.222	2228.19
1821.434	2180.14
1824.645	2219.75
1827.856	2231.43
1831.067	2260.56
1834.278	2194.48
1837.488	2180.1
1840.698	2294.06
1843.908	2240.78
1847.117	2209.62
1850.326	2145.21
1853.535	2193.82
1856.744	2233.86
1859.952	2160.61
1863.16	2161.7
1866.368	2173.47
1869.575	2283.41
1872.782	2167.19
1875.989	2102.84
1879.196	2143.5
1882.402	2136.1
1885.608	2164.55
1888.814	2114.92
1892.019	2026.23
1895.224	2074.64
1898.429	2037.24
1901.634	2021.75
1904.838	1998.89
1908.042	2056.38
1911.246	2067.12
1914.449	2035.49
1917.652	2015.68
1920.855	1997.77
1924.058	2016.87
1927.26	2062.55
1930.462	2080.93
1933.664	2123.94
1936.865	2068.22
1940.066	2085.44
1943.267	2030.64
1946.467	2040.59
1949.668	2057.94
1952.868	2125.08
1956.067	2117.49
1959.267	2061.64
1962.466	2083.22
1965.665	2066.73
1968.863	2061.31
1972.061	2061.37
1975.259	2053.92
1978.457	2124.12
1981.654	2086.11
1984.852	2090.02
1988.048	2047.47
1991.245	2034.81
1994.441	2121.63
1997.637	2076.12
2000.833	2059.68
2004.028	2091.94
2007.223	2153.54
2010.418	2144.08
2013.613	2095.79
2016.807	2093.11
2020.001	2085.75
2023.194	2103.67
2026.388	2089.92
2029.581	2033.72
2032.774	2097.46
2035.966	2108.86
2039.158	2059.18
2042.35	2078.62
2045.542	2005.29
2048.733	2081.49
2051.924	2068.11
2055.115	2081.54
2058.306	2051.5
2061.496	2103.37
2064.686	2150.14
2067.875	2059.08
2071.065	2058.59
2074.254	2075.61
2077.442	2032.38
2080.631	2113.37
2083.819	2054.53
2087.007	2047.81
2090.195	2035.18
2093.382	2046.64
2096.569	2031.73
2099.756	1999.43
2102.942	2049.49
2106.128	2064.98
2109.314	2053.12
2112.5	2041.44
2115.685	2006.81
2118.87	2015.22
2122.055	2073.71
2125.239	2055.3
2128.424	2048.09
2131.608	2096.59
2134.791	2077.43
2137.974	2112.1
2141.157	2100.29
2144.34	2075.64
2147.523	2062.65
2150.705	2091.1
2153.887	2056.23
2157.068	2036.26
2160.25	2010.28
2163.431	2031.62
2166.611	2005.74
2169.792	2029.18
2172.972	1944.89
2176.152	1989.03
2179.331	2014.43
2182.511	2020.68
2185.69	2039.55
2188.868	2044.66
2192.047	2076.52
2195.225	2101.56
2198.403	2045.96
2201.58	2033.76
2204.758	2018.44
2207.935	2088.26
2211.111	2014.53
2214.288	2002.28
2217.464	2034.41
2220.64	1987.88
2223.815	2034.57
2226.991	1968.86
2230.166	1982.9
2233.34	2027.95
2236.515	2038.59
2239.689	2100.42
2242.863	2052.22
2246.036	2102.81
2249.209	2084.39
2252.382	2099
2255.555	2111.91
2258.727	2067.74
2261.9	2094.46
2265.071	2086.56
2268.243	2082.64
2271.414	2036.66
2274.585	2022.5
2277.756	2082.87
2280.926	2037.77
2284.096	2063.51
2287.266	2001.31
2290.436	2045.93
2293.605	2062.17
2296.774	2099.64
2299.942	2100.9
2303.111	2117.27
2306.279	2167.65
2309.447	2155.39
2312.614	2124.11
2315.781	2151.44
2318.948	2129.68
2322.115	2165.31
2325.281	2066.94
2328.447	2072.52
2331.613	2042.05
2334.779	2038.28
2337.944	2029.7
2341.109	2032.91
2344.274	2022.67
2347.438	1992.61
2350.602	2011.18
2353.766	2017.55
2356.929	2007.42
2360.092	2042.09
2363.255	2017.6
2366.418	1990.63
2369.58	2044.73
2372.742	1945.64
2375.904	1932.33
2379.066	1917.59
2382.227	1942.26
2385.388	1904.78
2388.548	1863.31
2391.709	1900.51
2394.869	1894
2398.029	1938.38
2401.188	1930.51
2404.347	1902.18
2407.506	1963.24
2410.665	2005.49
2413.823	1987.69
2416.981	1971.3
2420.139	1984.47
2423.296	2022.44
2426.453	1996.45
2429.61	2015.72
2432.767	1995.21
2435.923	2035.59
2439.079	1976.69
2442.235	2006.84
2445.391	1953.09
2448.546	1996.55
2451.701	2026.11
2454.855	2027.2
2458.009	2049.17
2461.163	2035.02
2464.317	2010.22
2467.471	2034.33
2470.624	2059.32
2473.777	2055.39
2476.929	2072.42
2480.082	2095.21
2483.234	2073.35
2486.385	2012.04
2489.537	2007.34
2492.688	2002.01
2495.839	2019.13
2498.989	2032.98
2502.14	2020.36
2505.29	2016.86
2508.439	2039.62
2511.589	1985.23
2514.738	1982.18
2517.887	2000.97
2521.035	2078.79
2524.183	2034.79
2527.331	2025.25
2530.479	2022.91
2533.627	2024.5
