Data from C_1_HIR_WI_4N_Splice17_11-42-12-397.txt Node
Date: Sat Mar 14 11:42:12 EDT 2020
User: sa697716
Spectrometer: FLMS03696
Trigger mode: 0
Integration Time (sec): 3.180400E-1
Scans to average: 20
Electric dark correction enabled: true
Nonlinearity correction enabled: true
Boxcar width: 5
XAxis mode: Wavelengths
Number of Pixels in Spectrum: 2048
>>>>>Begin Spectral Data<<<<<
187.83	-193465
188.298	1469.48
188.766	838.52
189.233	717.3
189.701	993.43
190.169	1315.31
190.636	497.19
191.104	445.25
191.571	53.31
192.039	-46.17
192.506	-55.85
192.974	312.09
193.441	-531.81
193.908	-68.27
194.375	-31.51
194.842	18.43
195.31	60.45
195.777	150.96
196.244	291.24
196.711	172.01
197.177	139.72
197.644	126.83
198.111	133.72
198.578	185.94
199.045	102.63
199.511	97.83
199.978	33.99
200.445	15.3
200.911	-34.78
201.378	-141.78
201.844	-112.32
202.31	-244.04
202.777	-235.12
203.243	-112.05
203.709	-137.68
204.176	-141.74
204.642	-101.3
205.108	-82.84
205.574	-71.21
206.04	-98.99
206.506	-78.69
206.972	-104.5
207.438	-105.51
207.903	-141.72
208.369	-100.03
208.835	-89.63
209.301	-91.07
209.766	-104.96
210.232	-115.19
210.697	-149.11
211.163	-208.78
211.628	-368.42
212.094	-236.73
212.559	-185.14
213.024	-77.37
213.49	-76.55
213.955	-83.49
214.42	-122.18
214.885	-85.9
215.35	-57.73
215.815	35.17
216.28	56.83
216.745	38.09
217.21	45.83
217.675	2.5
218.14	-11.39
218.604	-37.53
219.069	-23.5
219.534	27.24
219.998	-0.32
220.463	-6.04
220.927	-97.35
221.392	-70.35
221.856	-47.85
222.32	-105.38
222.785	-107.65
223.249	-132.5
223.713	-134.2
224.177	-151.35
224.642	-274.38
225.106	-322
225.57	-382.68
226.034	-214.71
226.497	-335.53
226.961	-225.34
227.425	-201.87
227.889	-225.98
228.353	-219.04
228.816	-503.21
229.28	-392.38
229.744	-346.53
230.207	-137.49
230.671	-120.2
231.134	-374
231.597	-384.98
232.061	-480.08
232.524	-522.87
232.987	-374.23
233.45	-291.01
233.914	-242.65
234.377	-281.05
234.84	-248.57
235.303	-357.69
235.766	-378.62
236.229	-379.86
236.691	-228.7
237.154	-258.96
237.617	-169.97
238.08	-170.54
238.542	-225.26
239.005	-142.7
239.468	-121.28
239.93	-103.39
240.393	-85.01
240.855	-68.03
241.317	-81.12
241.78	-132.4
242.242	-123.09
242.704	-92.72
243.166	-63.44
243.629	-32.49
244.091	-47.79
244.553	-69.2
245.015	-52.08
245.477	-69.19
245.939	-133.99
246.4	-93.64
246.862	-70.73
247.324	-64.95
247.786	-169.3
248.247	-304.59
248.709	-448.56
249.17	-302.89
249.632	-198.1
250.093	-193.17
250.555	-174.35
251.016	-77.83
251.477	-81.76
251.939	-82.85
252.4	-102.03
252.861	-120.53
253.322	-72.19
253.783	-99.52
254.244	-185.94
254.705	-210.02
255.166	-241.04
255.627	-224.24
256.088	-286.54
256.549	-282.51
257.009	-241.46
257.47	-316.86
257.931	-265.59
258.391	-189.38
258.852	-162.04
259.312	-149.11
259.773	-200.64
260.233	-97.96
260.694	-61.49
261.154	-99.98
261.614	-34.27
262.074	-41.96
262.534	-31.12
262.994	-16
263.455	-42.83
263.915	-30.65
264.374	-31.64
264.834	-16.77
265.294	-55.46
265.754	-58.13
266.214	-44.41
266.673	-58.14
267.133	-71.6
267.593	-71.99
268.052	-110.34
268.512	-113.78
268.971	-50.21
269.431	-27.11
269.89	-34.34
270.349	-34.64
270.809	-26.53
271.268	-17.27
271.727	-192.58
272.186	-105.52
272.645	-90.69
273.104	-76.51
273.563	-117.56
274.022	-215.27
274.481	-152.9
274.94	-109.48
275.399	-97.5
275.857	-140.62
276.316	-221.45
276.775	-196.08
277.233	-194.84
277.692	-135.5
278.15	-139.28
278.609	-86.98
279.067	-97.74
279.525	-98.61
279.984	-151.93
280.442	-174.91
280.9	-90.73
281.358	-63.49
281.816	-43.2
282.274	-59.87
282.732	-128.96
283.19	-152.05
283.648	-143.22
284.106	-148.74
284.564	-190.8
285.021	-161.46
285.479	-127.69
285.937	-156.1
286.394	-119.37
286.852	-134.51
287.309	-146.57
287.767	-97.6
288.224	-65.58
288.682	-87.31
289.139	-72.53
289.596	-42.49
290.053	-49.94
290.511	-80.42
290.968	-67.31
291.425	-95.62
291.882	7.15
292.339	54.22
292.796	9.36
293.252	-25.75
293.709	3.43
294.166	1.43
294.623	-2
295.079	-10.55
295.536	6
295.992	5.1
296.449	2.63
296.905	1.4
297.362	19.69
297.818	26.49
298.274	50.13
298.731	47.15
299.187	44.3
299.643	36.32
300.099	54.77
300.555	62.61
301.011	61.23
301.467	109.21
301.923	62.99
302.379	46.39
302.835	4.9
303.291	10.31
303.746	-4.75
304.202	-47.61
304.658	-35.36
305.113	-31.83
305.569	-40.18
306.024	-77.29
306.479	-140.09
306.935	-103.45
307.39	-151.09
307.845	-114.88
308.301	-120.59
308.756	-138.39
309.211	-107.46
309.666	-129.69
310.121	-120.05
310.576	-130.59
311.031	-149.38
311.486	-214.1
311.94	-241.11
312.395	-340.9
312.85	-688.71
313.305	-4037.67
313.759	-17020.71
314.214	-1380.39
314.668	-1055.85
315.123	-858.4
315.577	-263.79
316.032	-202.17
316.486	-249.3
316.94	-149.15
317.394	-75.29
317.849	-37.91
318.303	-35.47
318.757	-19.4
319.211	-17.14
319.665	-12.84
320.119	-20.81
320.572	-55.37
321.026	-30.17
321.48	-10.94
321.934	-39.48
322.387	-70.43
322.841	-81.84
323.295	-23.78
323.748	-80.37
324.202	-71.94
324.655	-67.82
325.108	-60.8
325.562	-25.13
326.015	-62.63
326.468	-33.37
326.921	-19.12
327.374	31.63
327.827	50.34
328.28	38.63
328.733	64.82
329.186	61.1
329.639	60.81
330.092	44.76
330.545	45.45
330.997	51.94
331.45	67.56
331.903	98.32
332.355	96.72
332.808	77.1
333.26	41.92
333.713	33.95
334.165	9.03
334.617	-35.61
335.069	-101.65
335.522	-249.45
335.974	-301.8
336.426	-286.51
336.878	-303.29
337.33	-115.59
337.782	-129.83
338.234	-123.26
338.686	-158.78
339.137	-178.55
339.589	-184.62
340.041	-98.67
340.493	-88.36
340.944	-77.03
341.396	-101
341.847	-39.5
342.299	13.32
342.75	53.86
343.201	-21.26
343.653	-40.24
344.104	-59.7
344.555	-46.9
345.006	-148.76
345.457	-39.54
345.908	-64.22
346.359	-28.94
346.81	-21.91
347.261	-103.03
347.712	-127.37
348.163	-149.37
348.613	-96.42
349.064	-85.95
349.515	-58.79
349.965	-41.55
350.416	-59.95
350.866	-64.33
351.317	-107.22
351.767	-173.79
352.217	-145.39
352.668	-101.95
353.118	-14.95
353.568	-151.74
354.018	-95.07
354.468	-106.97
354.918	-46.72
355.368	-53.09
355.818	-91.77
356.268	-414.02
356.718	-1594.47
357.168	-392.65
357.617	-184.28
358.067	-281.06
358.517	-205.3
358.966	-245.97
359.416	-215.96
359.865	-393.79
360.315	-654.02
360.764	-240.85
361.213	-87.82
361.663	-131.07
362.112	-186.14
362.561	-289.99
363.01	-219.94
363.459	-219.1
363.908	-234.79
364.357	-144.96
364.806	-269.57
365.255	-162.72
365.703	-149.88
366.152	-173.12
366.601	-117.56
367.05	-72.2
367.498	-60.62
367.947	-69.49
368.395	-72.45
368.844	-68.85
369.292	-164.14
369.74	-79.22
370.189	-124.1
370.637	-136.23
371.085	-129.74
371.533	-195.89
371.981	-229.17
372.429	-198.03
372.877	-186.68
373.325	-133.27
373.773	-146.63
374.221	-119.27
374.669	-176.25
375.116	-146.25
375.564	-164.06
376.012	-166.47
376.459	-92.69
376.907	-131.96
377.354	-219.49
377.801	-175.61
378.249	-197.21
378.696	-295.77
379.143	-381.19
379.591	-407.72
380.038	-740.2
380.485	-495.76
380.932	-562.12
381.379	-401.52
381.826	-124.37
382.273	-47.73
382.72	-116.84
383.166	-117.08
383.613	-40.65
384.06	-22.4
384.506	-35.7
384.953	-18.97
385.4	-28.61
385.846	-17.39
386.292	-52.94
386.739	-84.3
387.185	-99.32
387.631	-85.33
388.078	-56.12
388.524	-66.94
388.97	-62.39
389.416	-35.42
389.862	-32.27
390.308	-21.23
390.754	-17.27
391.2	-19.53
391.645	-22.93
392.091	22.57
392.537	34.64
392.983	12.14
393.428	49.83
393.874	51.84
394.319	71.96
394.765	86.71
395.21	76.43
395.655	61.71
396.101	60.38
396.546	61.86
396.991	41.89
397.436	32.12
397.881	31.37
398.326	-0.14
398.771	8.12
399.216	-4.1
399.661	-6.93
400.106	-0.62
400.551	10.08
400.995	13.08
401.44	14.59
401.885	12.25
402.329	11.98
402.774	12.13
403.218	28.76
403.663	22.52
404.107	22.99
404.551	27.62
404.995	23.03
405.44	15.53
405.884	10.2
406.328	1.77
406.772	-2
407.216	-2.67
407.66	-5.84
408.104	-16.18
408.547	-16.76
408.991	-15.04
409.435	-17.22
409.879	-13.66
410.322	-13.34
410.766	-9.33
411.209	-1.75
411.653	-1.1
412.096	2.56
412.54	2.74
412.983	3.48
413.426	9.61
413.869	8.64
414.312	11.13
414.756	8.2
415.199	7.02
415.642	8.99
416.085	8.15
416.527	8.34
416.97	5.84
417.413	7.31
417.856	4.23
418.298	1.71
418.741	-0.67
419.184	-5.88
419.626	-13.25
420.069	-12.85
420.511	-14.01
420.953	-11.3
421.396	-9.98
421.838	-11.1
422.28	-11.17
422.722	-8.4
423.164	-10.26
423.606	-10.11
424.048	-11.7
424.49	-4.48
424.932	-5.02
425.374	-7.15
425.816	-10.54
426.258	-12.8
426.699	-11.6
427.141	-8.21
427.582	-10
428.024	-9.76
428.465	-10.78
428.907	-9.01
429.348	-8.89
429.789	-6.41
430.231	-0.54
430.672	0.68
431.113	1.55
431.554	3.02
431.995	-1.18
432.436	1.88
432.877	2.87
433.318	7.07
433.759	5.94
434.2	5.83
434.64	2.84
435.081	0.09
435.522	-0.14
435.962	-0.29
436.403	1.12
436.843	-0.65
437.284	-2.44
437.724	-5.22
438.164	-12.27
438.604	-11.75
439.045	-9.44
439.485	-4.53
439.925	-5.14
440.365	-5
440.805	-4.84
441.245	-3.81
441.685	-1.79
442.125	-2.67
442.564	-2.62
443.004	-0.61
443.444	-0.05
443.883	-0.53
444.323	-3.98
444.762	-8.43
445.202	-10.59
445.641	-9.04
446.081	-13.29
446.52	-13.34
446.959	-11.89
447.398	-9.89
447.837	-8.77
448.276	-10.55
448.716	-9.29
449.154	-10.84
449.593	-7.13
450.032	-5.68
450.471	-9.86
450.91	-9.14
451.349	-8.17
451.787	-8.39
452.226	-9.9
452.664	-10.67
453.103	-8.87
453.541	-12.41
453.98	-7.82
454.418	-7.66
454.856	-6.28
455.295	-3.38
455.733	-2.6
456.171	-3.36
456.609	-1.68
457.047	-0.4
457.485	1.65
457.923	2.76
458.361	3.54
458.798	1.28
459.236	0.83
459.674	-1.02
460.111	-0.43
460.549	-0.04
460.987	-0.52
461.424	-2.59
461.862	-2.88
462.299	-2.61
462.736	-2.25
463.173	-1.77
463.611	2.48
464.048	4.09
464.485	5.82
464.922	3.97
465.359	3.57
465.796	12.82
466.233	15.21
466.67	17.25
467.106	18.87
467.543	17.41
467.98	16.04
468.416	13.37
468.853	12.16
469.29	10.71
469.726	10.54
470.162	10.74
470.599	3.2
471.035	0.86
471.471	-0.29
471.907	-2.82
472.344	-3.09
472.78	-2.11
473.216	-4.14
473.652	-4.23
474.088	-4.99
474.523	-3.22
474.959	-4.26
475.395	-4.61
475.831	-3.72
476.266	-3.73
476.702	-4.2
477.138	-3.64
477.573	-3.34
478.008	-2.14
478.444	-1.43
478.879	0.66
479.314	0.94
479.75	1.06
480.185	1.09
480.62	0.21
481.055	0.48
481.49	1.67
481.925	1.96
482.36	3.73
482.795	2.53
483.229	1.92
483.664	1.53
484.099	0.21
484.534	1.22
484.968	2.13
485.403	2.9
485.837	1.56
486.271	1.17
486.706	0.62
487.14	-0.96
487.574	-0.46
488.009	-0.46
488.443	-1.04
488.877	-0.02
489.311	-0.98
489.745	-1.38
490.179	-1.26
490.613	0.43
491.046	-0.16
491.48	-0.13
491.914	0.27
492.348	0.6
492.781	0.62
493.215	0.86
493.648	0.21
494.082	0.1
494.515	0.66
494.948	1.42
495.382	1.01
495.815	1.6
496.248	1.78
496.681	0.86
497.114	-0.08
497.547	0.58
497.98	1.26
498.413	2.87
498.846	3.28
499.279	2.37
499.711	1.29
500.144	1.02
500.577	1.43
501.009	1.61
501.442	2.72
501.874	4.09
502.306	3.19
502.739	5.36
503.171	4.07
503.603	4.2
504.036	4.21
504.468	4.11
504.9	3.6
505.332	2.62
505.764	2.91
506.196	2.77
506.627	3.03
507.059	3.04
507.491	-0.11
507.923	0.38
508.354	0.98
508.786	1.13
509.217	1.41
509.649	1.91
510.08	1.91
510.512	2.18
510.943	2.01
511.374	1.49
511.805	1.11
512.237	0.82
512.668	0.1
513.099	-1.29
513.53	-1.55
513.961	-1.48
514.391	-1.84
514.822	0.13
515.253	0.41
515.684	0.44
516.114	0.27
516.545	1.5
516.975	2.12
517.406	1.82
517.836	1.66
518.267	2.67
518.697	3.56
519.127	3.49
519.558	1.79
519.988	1.14
520.418	0.36
520.848	-0.44
521.278	-1.23
521.708	31
522.138	32.35
522.567	32.25
522.997	31.48
523.427	30.84
523.857	30.99
524.286	30.85
524.716	30.81
525.145	31.87
525.575	33.07
526.004	32.88
526.433	1.22
526.863	0.02
527.292	1.3
527.721	2.14
528.15	1.83
528.579	2.42
529.008	2.83
529.437	1.99
529.866	1.83
530.295	1.12
530.724	1.87
531.152	1.82
531.581	2.26
532.01	2.35
532.438	0.95
532.867	0.6
533.295	0.31
533.723	0.14
534.152	0.92
534.58	0.46
535.008	0.47
535.436	1.68
535.865	1.26
536.293	0.09
536.721	-1.11
537.149	-0.17
537.576	0.85
538.004	1.12
538.432	0.5
538.86	0.74
539.287	0.82
539.715	0.98
540.143	-0.61
540.57	-0.08
540.998	0.11
541.425	2.39
541.852	1.82
542.28	1.08
542.707	1.06
543.134	1.8
543.561	1.43
543.988	1.64
544.415	0.93
544.842	0.7
545.269	1.05
545.696	2.07
546.123	1.38
546.549	1.48
546.976	1.7
547.403	0.73
547.829	0.23
548.256	-0
548.682	-0.29
549.108	1.27
549.535	1.4
549.961	0.65
550.387	0.82
550.813	1.53
551.24	1.88
551.666	1.39
552.092	1.68
552.518	1.52
552.943	2.15
553.369	1.92
553.795	1.51
554.221	1.54
554.646	1.72
555.072	2.56
555.498	0.83
555.923	0.24
556.349	0.8
556.774	0.63
557.199	0.85
557.625	-0.09
558.05	0.33
558.475	0.42
558.9	0.76
559.325	1.3
559.75	0.18
560.175	0.39
560.6	0.24
561.025	-0.78
561.449	-0
561.874	-0.56
562.299	0.46
562.723	0.38
563.148	0.02
563.572	-0.32
563.997	-0.69
564.421	-1.63
564.846	-2.07
565.27	-1.98
565.694	-1.28
566.118	-2.03
566.542	-0.66
566.966	-1.12
567.39	-1.24
567.814	-1.6
568.238	-1.66
568.662	-2.48
569.086	-1.43
569.509	-1.62
569.933	0.33
570.357	-0.08
570.78	0.13
571.204	1.04
571.627	1.37
572.05	1.17
572.474	2.21
572.897	2.34
573.32	3.62
573.743	3.38
574.166	4.41
574.589	3.04
575.012	2.93
575.435	2.7
575.858	1.56
576.281	1.03
576.704	0.78
577.126	-0.42
577.549	-0.5
577.972	-1.13
578.394	-1.4
578.817	-0.04
579.239	-0.67
579.661	0.03
580.084	1.18
580.506	1.05
580.928	0.54
581.35	0.87
581.772	1.41
582.194	1.68
582.616	0.6
583.038	0.2
583.46	-1.63
583.882	-0.61
584.303	-1.45
584.725	-2.29
585.147	2.58
585.568	3.53
585.99	3.65
586.411	4.35
586.833	4.07
587.254	4.95
587.675	4.55
588.096	4.56
588.518	4.18
588.939	5.44
589.36	5.42
589.781	-0.28
590.202	2.38
590.623	3.29
591.043	1.87
591.464	1.74
591.885	2.28
592.305	2.51
592.726	3.19
593.147	3.79
593.567	3.5
593.987	3.7
594.408	3.24
594.828	-0.04
595.248	-0.32
595.669	0.88
596.089	1.36
596.509	0.76
596.929	0.61
597.349	0.48
597.769	0.08
598.189	-0.37
598.608	-0.64
599.028	-0.22
599.448	-0.31
599.867	-0.65
600.287	-1.48
600.706	-1.1
601.126	-0.54
601.545	0.3
601.965	0.2
602.384	0.15
602.803	0.14
603.222	0.28
603.641	0.41
604.061	1.52
604.48	1.3
604.898	1.56
605.317	0.97
605.736	0.76
606.155	1.32
606.574	1.07
606.992	0.68
607.411	0.74
607.829	0.1
608.248	-0
608.666	-1.01
609.085	-0.49
609.503	-1.19
609.921	-0.64
610.339	-0.4
610.758	-1.43
611.176	-1.52
611.594	-0.71
612.012	-0.61
612.43	0.8
612.847	0.54
613.265	1.93
613.683	2.21
614.101	2.97
614.518	1.97
614.936	1.37
615.353	2.11
615.771	2.59
616.188	1.87
616.606	2.26
617.023	1.28
617.44	1.03
617.857	-0.64
618.274	-1.54
618.691	-1.54
619.108	-1.05
619.525	-1.19
619.942	-1.05
620.359	-1.34
620.776	-0.99
621.192	-0.56
621.609	0.09
622.026	1.78
622.442	2.25
622.859	2.11
623.275	1.85
623.691	0.83
624.108	1.58
624.524	1.17
624.94	1.49
625.356	1.17
625.772	0.02
626.188	-0.87
626.604	-2.32
627.02	-2.6
627.436	-1.43
627.852	0.01
628.268	1.52
628.683	0.92
629.099	0.54
629.514	-0.4
629.93	-0.39
630.345	-0.06
630.761	0.06
631.176	0.48
631.591	2.91
632.007	2.8
632.422	1.24
632.837	0.27
633.252	0.95
633.667	0.63
634.082	1.2
634.497	1.97
634.911	3.74
635.326	3.98
635.741	4.37
636.155	2.67
636.57	3.14
636.984	4.03
637.399	6.24
637.813	4.92
638.228	5.36
638.642	4.54
639.056	3.9
639.47	2.57
639.884	2.95
640.298	2.54
640.712	3.31
641.126	2.55
641.54	1.55
641.954	-1.9
642.368	-0.73
642.781	1.59
643.195	2.12
643.609	2.11
644.022	1.88
644.436	0.41
644.849	-0.44
645.262	-1.64
645.676	-2.77
646.089	-2.48
646.502	-0.61
646.915	-1.61
647.328	-2.62
647.741	-2.07
648.154	-1.67
648.567	0.56
648.98	2.46
649.393	3.17
649.805	4.04
650.218	4.86
650.631	5.39
651.043	5.89
651.456	7.1
651.868	6.25
652.28	5.09
652.693	4.12
653.105	2.9
653.517	1.44
653.929	0.7
654.341	0.99
654.753	1.01
655.165	0.03
655.577	-0.54
655.989	-1.06
656.401	-1.95
656.813	0.4
657.224	0.57
657.636	-1.18
658.047	0.38
658.459	1.36
658.87	0.03
659.282	-0.02
659.693	1.07
660.104	1.86
660.515	1.7
660.926	1.21
661.338	-0.26
661.749	-1.21
662.159	0.49
662.57	-1.46
662.981	-2.44
663.392	-2.62
663.803	-3.32
664.213	-4.32
664.624	-5.41
665.035	-6.42
665.445	-6.26
665.855	-5.05
666.266	-3.17
666.676	-4.03
667.086	-3.92
667.497	-2.8
667.907	-2.11
668.317	-2.1
668.727	1.44
669.137	0.82
669.547	1.55
669.956	1.13
670.366	0.67
670.776	0.49
671.186	0.04
671.595	0.27
672.005	-0.43
672.414	0.12
672.824	1.42
673.233	-2.73
673.642	-1.74
674.052	-0.87
674.461	1.1
674.87	0.52
675.279	1.42
675.688	1.06
676.097	3.19
676.506	3.08
676.915	1.04
677.323	0.74
677.732	1.22
678.141	1.27
678.549	0.2
678.958	-1.74
679.366	-2.3
679.775	-4.2
680.183	-2.32
680.592	-4.18
681	-3.89
681.408	-2.97
681.816	-3.21
682.224	-3.63
682.632	-2.83
683.04	-2.77
683.448	-2.24
683.856	-1.56
684.264	-0.26
684.671	-1.97
685.079	-3.19
685.487	-4.18
685.894	-4.89
686.302	-6.88
686.709	-5.99
687.116	-6.96
687.524	-5.93
687.931	-3.63
688.338	-3.22
688.745	-4.04
689.152	-4.63
689.559	-3.43
689.966	-1.5
690.373	-0.77
690.78	0.63
691.187	1.04
691.593	1.63
692	0.92
692.407	0.32
692.813	2.8
693.22	2.69
693.626	2.14
694.032	3.47
694.439	3.52
694.845	3.49
695.251	3.49
695.657	3.39
696.063	1.38
696.469	1.45
696.875	0.66
697.281	-1.29
697.687	-0.95
698.093	-0.87
698.498	-1.12
698.904	-2.72
699.31	-3.22
699.715	-0.81
700.12	-0.57
700.526	1.21
700.931	0
701.337	1.65
701.742	2.13
702.147	1.76
702.552	2.92
702.957	0.97
703.362	1.14
703.767	1.55
704.172	-0.41
704.577	-1.92
704.981	-3.74
705.386	-2.29
705.791	-3.21
706.195	-4.55
706.6	-4.84
707.004	-6.05
707.408	-5.12
707.813	-3.74
708.217	-3.63
708.621	-3.71
709.025	-3.58
709.43	-0.48
709.834	-0.4
710.237	-0.32
710.641	-0.31
711.045	1.23
711.449	3.02
711.853	6.83
712.256	5.33
712.66	5.46
713.064	5.75
713.467	6.96
713.87	5.23
714.274	5.82
714.677	5.5
715.08	6.79
715.484	6.56
715.887	9.38
716.29	4.77
716.693	6.63
717.096	8.03
717.499	7.61
717.901	6.38
718.304	6.27
718.707	5.31
719.109	5.36
719.512	3.71
719.915	6.07
720.317	3.08
720.719	2.07
721.122	1.12
721.524	0.8
721.926	5.59
722.328	6.5
722.731	5.89
723.133	6.16
723.535	5.82
723.937	6.74
724.338	6.61
724.74	7.88
725.142	62.26
725.544	65.72
725.945	77.53
726.347	73.24
726.748	74.27
727.15	75.97
727.551	78.01
727.952	76.56
728.354	75.24
728.755	73.57
729.156	71.4
729.557	19.47
729.958	16.08
730.359	4.25
730.76	4.63
731.161	3.41
731.562	0.79
731.962	-1.73
732.363	-0.39
732.763	-0.21
733.164	-3.41
733.564	-2.4
733.965	-0.99
734.365	-1.21
734.766	-1.14
735.166	-2.34
735.566	-0.75
735.966	0.06
736.366	0.76
736.766	1.07
737.166	-0.14
737.566	1.53
737.966	0.23
738.365	0.11
738.765	1.24
739.165	1.28
739.564	1.13
739.964	-1.03
740.363	-0.67
740.763	-1.65
741.162	-0.69
741.561	-0.24
741.96	-0.17
742.36	-0.67
742.759	-0.38
743.158	-2.48
743.557	-3.76
743.955	-3.7
744.354	-3.77
744.753	-4.1
745.152	-2.99
745.55	-5.88
745.949	-4.75
746.348	-4.86
746.746	-5.34
747.144	-3.62
747.543	-2.79
747.941	-2.71
748.339	-2.27
748.737	-1.11
749.136	-0.49
749.534	-3.02
749.932	0.41
750.33	-1.14
750.727	-1.56
751.125	0.79
751.523	-1.04
751.921	2.15
752.318	3.02
752.716	4.9
753.113	5.32
753.511	4.85
753.908	6.87
754.305	10.07
754.703	10.77
755.1	12.44
755.497	11.69
755.894	11.11
756.291	8.47
756.688	9.08
757.085	6.93
757.482	7.11
757.878	9.8
758.275	11.25
758.672	3.31
759.068	1.12
759.465	-2.34
759.861	-7.65
760.258	-11.17
760.654	-12.26
761.05	-11.23
761.447	-13.32
761.843	-14.91
762.239	-14.73
762.635	-17.93
763.031	-18.69
763.427	-16.11
763.822	-13.25
764.218	-11
764.614	-7.56
765.01	-8.33
765.405	-8.65
765.801	-6.48
766.196	-5.96
766.592	-6.39
766.987	-4.65
767.382	-4.46
767.778	-3.63
768.173	-4.09
768.568	-2.61
768.963	-1.97
769.358	-1.53
769.753	-0.23
770.148	0.4
770.542	-0.57
770.937	-1.05
771.332	-1.81
771.726	-1.93
772.121	1.94
772.515	1.94
772.91	0.96
773.304	-0.12
773.699	1
774.093	-0.27
774.487	-0.47
774.881	0.05
775.275	0.31
775.669	-0.67
776.063	-1.37
776.457	-4.01
776.851	-4.53
777.245	-3.89
777.638	-3.99
778.032	-7.25
778.425	-6.39
778.819	-3.56
779.212	-0.62
779.606	1.36
779.999	2.2
780.392	5.5
780.786	3.53
781.179	5.82
781.572	7.18
781.965	8.34
782.358	10.66
782.751	9.35
783.143	5.56
783.536	4.64
783.929	1.74
784.322	0.41
784.714	-1.9
785.107	-0.1
785.499	-0.62
785.891	-0.95
786.284	-1.94
786.676	-3.36
787.068	-1.28
787.46	0.7
787.852	-0.53
788.245	0.76
788.636	1.65
789.028	2.82
789.42	3.85
789.812	4.22
790.204	3.96
790.595	6.02
790.987	6.79
791.378	6.67
791.77	4.22
792.161	3.6
792.553	2.53
792.944	2.85
793.335	1.22
793.726	0.52
794.117	2.74
794.508	-1.42
794.899	-4.12
795.29	-5
795.681	-6.33
796.072	-5.6
796.463	16.15
796.853	21.11
797.244	21.33
797.634	22.9
798.025	21.9
798.415	17.34
798.806	21.82
799.196	22.79
799.586	25.48
799.976	28.45
800.366	27.77
800.756	3.32
801.146	-1.36
801.536	-1.6
801.926	-3.95
802.316	-3.52
802.706	-2.38
803.095	-0.23
803.485	-1.15
803.874	-1.6
804.264	-4.13
804.653	-0.87
805.043	3.66
805.432	4.98
805.821	7.85
806.21	9.69
806.599	10.63
806.988	11
807.377	5.84
807.766	6.53
808.155	7.01
808.544	7.96
808.933	5.37
809.321	6.52
809.71	2.91
810.098	-0.53
810.487	-0.87
810.875	-4.8
811.264	-4.87
811.652	8.81
812.04	6.83
812.428	6.68
812.816	-0.31
813.204	3.04
813.592	-2.33
813.98	-0.59
814.368	6.26
814.756	5.36
815.144	9.88
815.531	13.28
815.919	0.46
816.306	3.27
816.694	-0.28
817.081	6.12
817.469	7.56
817.856	4.45
818.243	4.73
818.63	1.31
819.017	3.59
819.404	4
819.791	1.24
820.178	-3.98
820.565	1.94
820.952	14.24
821.339	17.38
821.725	15.98
822.112	20.64
822.498	19.8
822.885	16.83
823.271	12.55
823.657	6.09
824.044	5.91
824.43	8.22
824.816	13.98
825.202	11
825.588	6.37
825.974	6.22
826.36	3.92
826.746	3.14
827.132	1.65
827.517	6.27
827.903	9.61
828.289	13.68
828.674	15.29
829.06	7.71
829.445	1.38
829.83	-1.14
830.216	-4.02
830.601	-1.81
830.986	10.49
831.371	14.34
831.756	18.8
832.141	28.36
832.526	28.43
832.911	29.72
833.295	29.01
833.68	28.51
834.065	33.46
834.449	32.14
834.834	32.47
835.218	28.87
835.603	27.59
835.987	21.06
836.371	12.66
836.755	13.54
837.139	8.22
837.524	3.23
837.908	1.29
838.291	2.31
838.675	2.24
839.059	0.95
839.443	-5.64
839.827	-7.03
840.21	-9.15
840.594	-3.7
840.977	-8.64
841.361	-7.35
841.744	-7.88
842.127	-4.36
842.511	-6.75
842.894	-9.25
843.277	-10.38
843.66	-13.66
844.043	-10.83
844.426	-6.16
844.809	-12.27
845.191	-7.93
845.574	-3.21
845.957	0.72
846.339	4.84
846.722	5.08
847.104	5.53
847.487	3.61
847.869	8.64
848.252	10.94
848.634	10.52
849.016	9.71
849.398	3.49
849.78	-1.3
850.162	-1.3
850.544	-5.54
850.926	-8.69
851.307	-9.78
851.689	-8.3
852.071	-14.24
852.452	-16.45
852.834	-18.73
853.215	-12.93
853.597	-10.4
853.978	-1.7
854.359	1.43
854.741	9.26
855.122	7.02
855.503	8.21
855.884	7.59
856.265	10.17
856.646	3.04
857.026	6.8
857.407	5.16
857.788	5.39
858.169	-2.62
858.549	3.22
858.93	-1.5
859.31	3.22
859.69	11.35
860.071	12.72
860.451	13.68
860.831	18.85
861.211	14.42
861.591	9.93
861.971	6.83
862.351	9.04
862.731	1.23
863.111	-0.95
863.491	-0.76
863.87	-7.61
864.25	-11.61
864.629	-1.98
865.009	-2.98
865.388	3.01
865.768	-1.14
866.147	3.92
866.526	5.11
866.905	7.01
867.284	2.11
867.663	1.64
868.042	-4.15
868.421	-3.08
868.8	-10.94
869.179	-8.75
869.558	-13.04
869.936	-5.58
870.315	-9.57
870.693	-6.7
871.072	-13.18
871.45	-10.21
871.828	-6.64
872.207	0.7
872.585	2.52
872.963	-1.14
873.341	3.14
873.719	12.76
874.097	11.62
874.475	12.25
874.853	9.87
875.23	12.86
875.608	13.2
875.986	8.56
876.363	7.93
876.741	20.12
877.118	32.02
877.495	35.65
877.873	33.99
878.25	34.9
878.627	31.04
879.004	25.03
879.381	18.99
879.758	22.98
880.135	20.66
880.512	19.01
880.889	3.2
881.265	-5.87
881.642	-17.4
882.019	-20.02
882.395	-11.69
882.772	0.81
883.148	3.96
883.524	8.49
883.901	8.4
884.277	9.44
884.653	8.21
885.029	15.59
885.405	28.72
885.781	38.51
886.157	30.48
886.532	25.84
886.908	15.87
887.284	8.43
887.659	11.39
888.035	7.87
888.411	5.31
888.786	4.26
889.161	1.55
889.537	-13.05
889.912	-18.67
890.287	-11.65
890.662	-12.89
891.037	-19.64
891.412	-9.71
891.787	-15.42
892.162	-11.3
892.536	-9.86
892.911	-6.81
893.286	-6.38
893.66	-2.96
894.035	-0.57
894.409	-13.2
894.784	-8.66
895.158	-0.51
895.532	-2.25
895.906	2.77
896.281	5.83
896.655	13.15
897.029	11.51
897.402	5.57
897.776	-4.09
898.15	-8.84
898.524	4.19
898.898	3.2
899.271	12.76
899.645	22.6
900.018	20.37
900.392	10.03
900.765	-1.34
901.138	12.37
901.511	12.22
901.884	30.87
902.258	34.13
902.631	39.84
903.003	32.26
903.376	17.89
903.749	10.96
904.122	-2.94
904.495	-7.13
904.867	-6.63
905.24	-16.06
905.612	-10.7
905.985	-20.4
906.357	-29.89
906.729	-27.58
907.102	-8.65
907.474	-4.15
907.846	6.5
908.218	18.13
908.59	35.53
908.962	31.89
909.334	31.75
909.705	34.46
910.077	24.04
910.449	18.08
910.82	19.18
911.192	22.33
911.563	26.14
911.935	-2.39
912.306	-16.52
912.677	-28.71
913.048	-17.61
913.419	-20.59
913.79	-32.64
914.161	-30.53
914.532	-3.51
914.903	-8.45
915.274	-26.59
915.645	-29.36
916.015	-18.7
916.386	-10.35
916.756	-26.77
917.127	-34.64
917.497	-14.68
917.868	-6.03
918.238	-6.26
918.608	-12.63
918.978	-12.63
919.348	-19.89
919.718	-16.89
920.088	1.08
920.458	16.19
920.828	13.14
921.198	17.97
921.567	3.54
921.937	8.73
922.306	8.07
922.676	-2.67
923.045	22.46
923.415	41.14
923.784	34.43
924.153	43.69
924.522	45.24
924.891	49.21
925.26	49.44
925.629	42.73
925.998	37.28
926.367	37.14
926.736	63.3
927.104	47.68
927.473	27.31
927.842	32.84
928.21	4.1
928.578	-23.16
928.947	-19.98
929.315	-8.2
929.683	15.63
930.051	14.56
930.42	22.46
930.788	-1.56
931.156	-7.78
931.523	43.88
931.891	34.04
932.259	38.67
932.627	62.05
932.994	76.82
933.362	86.35
933.729	66.69
934.097	82.98
934.464	76.41
934.831	61.51
935.199	62.42
935.566	39.45
935.933	31.2
936.3	46.99
936.667	15.64
937.034	97.57
937.401	70.35
937.767	59.31
938.134	42.09
938.501	36.49
938.867	58.61
939.234	89.88
939.6	41.58
939.967	83.14
940.333	66.73
940.699	47.04
941.065	-45.67
941.431	-45.1
941.798	-2.99
942.163	35.62
942.529	12.55
942.895	-18.2
943.261	-1.06
943.627	-10.57
943.992	-0.32
944.358	-12.42
944.723	35.52
945.089	29.86
945.454	39.7
945.82	35.92
946.185	18.93
946.55	42.61
946.915	58.77
947.28	64.6
947.645	59.39
948.01	65.42
948.375	79.68
948.74	39.95
949.104	51.54
949.469	-24.99
949.834	-83.17
950.198	66.42
950.562	52.15
950.927	32.33
951.291	10.49
951.655	14.66
952.02	-52.18
952.384	-41.87
952.748	11.29
953.112	45.54
953.476	61.28
953.839	53.8
954.203	54.72
954.567	48.87
954.931	15.39
955.294	35.34
955.658	34.75
956.021	92.48
956.385	109.22
956.748	74.89
957.111	-152.27
957.474	-294.71
957.837	-383.01
958.2	-591.79
958.563	-191.42
958.926	-27.66
959.289	-98.04
959.652	-28.86
960.015	12.98
960.377	17.6
960.74	80.76
961.102	-6.17
961.465	234.6
961.827	561.36
962.189	1097.79
962.552	902.83
962.914	693.97
963.276	473.06
963.638	344.06
964	292.82
964.362	217.19
964.724	158.35
965.085	139.06
965.447	112.54
965.809	29.91
966.17	19.59
966.532	-8.91
966.893	-10.72
967.255	-15.4
967.616	-16.33
967.977	-7.61
968.338	-10.67
968.699	18.06
969.061	12.74
969.421	15.24
969.782	-2.83
970.143	15.69
970.504	54.21
970.865	69.44
971.225	91.72
971.586	87.12
971.946	113.33
972.307	85.67
972.667	54.49
973.027	51.38
973.388	3.6
973.748	30.57
974.108	34.4
974.468	-54.76
974.828	21.12
975.188	16.66
975.548	8.73
975.907	14.17
976.267	18.9
976.627	50.47
976.986	35.17
977.346	33.93
977.705	43.37
978.064	44.43
978.424	45.22
978.783	0.21
979.142	-9.84
979.501	-2.69
979.86	6.83
980.219	1.06
980.578	-41.18
980.937	-45.05
981.296	-22.5
981.654	-42.47
982.013	-121.14
982.371	-147.78
982.73	-99.62
983.088	-120.49
983.447	-114.76
983.805	-173.13
984.163	-410.88
984.521	-457.65
984.879	-731.67
985.237	1006.57
985.595	-636.24
985.953	-153.73
986.311	-122.72
986.669	-67.25
987.026	-62.18
987.384	-152.64
987.741	-196.22
988.099	-62.26
988.456	1.19
988.814	34.52
989.171	13.55
989.528	-11.68
989.885	-23.72
990.242	5.3
990.599	-37.48
990.956	-15.05
991.313	16.32
991.67	19.5
992.027	60.7
992.383	49.31
992.74	45.57
993.096	61.31
993.453	61.55
993.809	60.63
994.165	57.77
994.522	119.9
994.878	119.86
995.234	133.96
995.59	124.55
995.946	27.55
996.302	26.74
996.658	11.83
997.013	-48.96
997.369	-3.22
997.725	17.91
998.08	25.15
998.436	-160.44
998.791	-233.74
999.147	-228.99
999.502	-188.16
999.857	-153.39
1000.212	-355.51
1000.567	-480.12
1000.922	-198.94
1001.277	-186.4
1001.632	-114.4
1001.987	-145.07
1002.342	-81.84
1002.696	-53.64
1003.051	-24.74
1003.406	-32.44
1003.76	-54.64
1004.114	-14.9
1004.469	-12.32
1004.823	-0.2
1005.177	2.89
1005.531	12.69
1005.885	22.88
1006.239	42.44
1006.593	63.33
1006.947	66.59
1007.301	33.5
1007.655	43.61
1008.008	35.14
1008.362	48.9
1008.715	62.54
1009.069	42.2
1009.422	82.46
1009.776	88.99
1010.129	75.54
1010.482	-2.68
1010.835	-32.71
1011.188	-65.71
1011.541	-15.16
1011.894	582.78
1012.247	-2249.67
1012.6	-281.74
1012.952	-74.01
1013.305	-91.39
1013.657	-53.92
1014.01	-76.73
1014.362	-72.87
1014.715	6.2
1015.067	24.12
1015.419	25.18
1015.771	32.76
1016.123	46.84
1016.475	66.05
1016.827	43.59
1017.179	64.06
1017.531	48.16
1017.883	34.36
1018.234	102.87
1018.586	87.21
1018.938	130.03
1019.289	184.56
1019.64	165.56
1019.992	118.37
1020.343	72.64
1020.694	130.17
1021.045	97.45
1021.396	105.45
1021.747	148.78
1022.098	68.32
1022.449	60.41
1022.8	32.85
1023.151	34.02
1023.501	48.23
1023.852	34.34
1024.202	76.28
1024.553	57.82
1024.903	110.7
1025.253	138.38
1025.604	141.14
1025.954	177.41
1026.304	174.5
1026.654	194.05
1027.004	252.23
1027.354	260.44
1027.703	365.9
1028.053	270.76
1028.403	735.86
1028.753	574.69
1029.102	152.9
1029.452	-1888.25
1029.801	-92.86
1030.15	-38.03
1030.499	-70.83
897.758	1827.24
901.051	1758.23
904.343	1792.33
907.636	1799.04
910.928	1851.59
914.22	1785.95
917.511	1789.12
920.803	1828.12
924.094	1819
927.384	1826.93
930.675	1793.99
933.965	1766.27
937.255	1800.59
940.544	1774.86
943.834	1762.03
947.123	1713.01
950.411	1786.11
953.7	1770.74
956.988	1762.11
960.276	1703
963.563	1735.76
966.851	1746.32
970.138	1778.31
973.424	1778.18
976.711	1735.07
979.997	1782.15
983.283	1815.03
986.568	1760.57
989.853	1743.16
993.138	1763.43
996.423	1839.92
999.708	1810.28
1002.992	1833.69
1006.275	1754.42
1009.559	1757.56
1012.842	1836.89
1016.125	1798.27
1019.408	1781.55
1022.69	1821.41
1025.972	1851.66
1029.254	1832.97
1032.536	1806.91
1035.817	1806.47
1039.098	1780.48
1042.379	1819.44
1045.659	1840
1048.939	1796.66
1052.219	1798.28
1055.498	1786.83
1058.778	1784.03
1062.057	1762.5
1065.335	1782.57
1068.614	1786.14
1071.892	1786.3
1075.17	1825
1078.447	1831.27
1081.724	1823.84
1085.001	1842.2
1088.278	1821.07
1091.554	1820.96
1094.83	1817.3
1098.106	1846.75
1101.382	1867.14
1104.657	1866.1
1107.932	1866.35
1111.206	1847.01
1114.481	1805.13
1117.755	1808.65
1121.029	1803.73
1124.302	1855.82
1127.575	1833.27
1130.848	1831.67
1134.121	1809.86
1137.393	1777.42
1140.665	1825
1143.937	1804.94
1147.208	1761.48
1150.48	1814.54
1153.75	1802.67
1157.021	1798.59
1160.291	1779.4
1163.561	1824.18
1166.831	1790.82
1170.101	1809.13
1173.37	1774.19
1176.639	1741.63
1179.907	1777.32
1183.176	1799.66
1186.444	1798.99
1189.711	1817.6
1192.979	1841.36
1196.246	1806.09
1199.513	1814.73
1202.78	1819.73
1206.046	1828.25
1209.312	1852.4
1212.578	1862.58
1215.843	1837.28
1219.108	1813.08
1222.373	1830.38
1225.638	1812.07
1228.902	1806.72
1232.166	1771.75
1235.43	1763.99
1238.693	1791.42
1241.956	1782.46
1245.219	1828.66
1248.482	1811.48
1251.744	1810.94
1255.006	1901.93
1258.268	1861.15
1261.529	1828.5
1264.79	1824.69
1268.051	1900.49
1271.312	1907.9
1274.572	1879.7
1277.832	1867.91
1281.092	1847.84
1284.351	1846.12
1287.61	1833.81
1290.869	1786.17
1294.128	1785.35
1297.386	1813.73
1300.644	1808.86
1303.902	1819.79
1307.159	1711.21
1310.416	1753.31
1313.673	1779.63
1316.93	1779.58
1320.186	1802.11
1323.442	1828.07
1326.697	1832.17
1329.953	1807.63
1333.208	1843.19
1336.463	1821.47
1339.717	1794.96
1342.972	1880.18
1346.226	1859.64
1349.479	1824.55
1352.733	1811.1
1355.986	1813.63
1359.238	1800.5
1362.491	1805.44
1365.743	1806.38
1368.995	1799.95
1372.247	1816.17
1375.498	1831.6
1378.749	1874.37
1382	1834.32
1385.251	1858.86
1388.501	1819.49
1391.751	1826.2
1395	1799.29
1398.25	1821.51
1401.499	1850.04
1404.748	1813.53
1407.996	1792.75
1411.244	1786.18
1414.492	1776.98
1417.74	1765.5
1420.987	1768.48
1424.234	1820.76
1427.481	1785.42
1430.728	1835.07
1433.974	1815.44
1437.22	1807.68
1440.465	1802.65
1443.711	1811.4
1446.956	1826.3
1450.201	1797.21
1453.445	1832.51
1456.689	1823.95
1459.933	1831.65
1463.177	1866.06
1466.42	1842.54
1469.663	1827.73
1472.906	1843.81
1476.148	1883.58
1479.391	1841.66
1482.633	1824.33
1485.874	1848.42
1489.115	1854.68
1492.356	1837.53
1495.597	1820.56
1498.838	1807.06
1502.078	1796.89
1505.318	1776.01
1508.557	1799.96
1511.797	1795.49
1515.036	1846.45
1518.274	1809.17
1521.513	1760.51
1524.751	1768.25
1527.989	1786.78
1531.227	1800.58
1534.464	1816.15
1537.701	1805.27
1540.938	1811.64
1544.174	1766.27
1547.41	1753.02
1550.646	1782.36
1553.882	1826.48
1557.117	1876.34
1560.352	1879.15
1563.587	1848.5
1566.821	1823.24
1570.055	1830.05
1573.289	1811.64
1576.523	1854.43
1579.756	1867.43
1582.989	1886.61
1586.222	1848.06
1589.454	1873.86
1592.686	1860.9
1595.918	1882.55
1599.15	1879.3
1602.381	1912.38
1605.612	1902.04
1608.843	1979.45
1612.073	1915.99
1615.303	1907.94
1618.533	1905.1
1621.762	1905.85
1624.992	1876.81
1628.221	1881.63
1631.449	1871.68
1634.678	1887.86
1637.906	1859.67
1641.134	1880.58
1644.361	1850.8
1647.588	1846.86
1650.815	1865.98
1654.042	1830.78
1657.269	1853.31
1660.495	1845.64
1663.72	1824.85
1666.946	1800.46
1670.171	1788.9
1673.396	1765.35
1676.621	1749.16
1679.845	1742.84
1683.069	1743.67
1686.293	1765.29
1689.517	1763.85
1692.74	1728.73
1695.963	1744.11
1699.185	1781.59
1702.408	1762
1705.63	1782.64
1708.852	1801.46
1712.073	1774.99
1715.294	1791.68
1718.515	1826.5
1721.736	1796.16
1724.956	1777.53
1728.176	1795.34
1731.396	1812.63
1734.616	1803.38
1737.835	1836.62
1741.054	1807.87
1744.272	1804.01
1747.491	1842.52
1750.709	1853.91
1753.927	1822.19
1757.144	1838.72
1760.361	1889.61
1763.578	1862.9
1766.795	1823.6
1770.011	1811.7
1773.227	1828.46
1776.443	1867.6
1779.658	1900.2
1782.874	1851.85
1786.089	1850.46
1789.303	1851.31
1792.518	1848.21
1795.732	1840.15
1798.945	1857.9
1802.159	1892.51
1805.372	1854.85
1808.585	1850.98
1811.797	1851.36
1815.01	1865.03
1818.222	1891.16
1821.434	1852.65
1824.645	1884.86
1827.856	1899.59
1831.067	1921.48
1834.278	1867.27
1837.488	1855.18
1840.698	1951.83
1843.908	1912.05
1847.117	1887.7
1850.326	1835.63
1853.535	1878.59
1856.744	1917.32
1859.952	1856.22
1863.16	1858.29
1866.368	1874.21
1869.575	1972.87
1872.782	1874.26
1875.989	1821.3
1879.196	1857.58
1882.402	1854.85
1885.608	1882.43
1888.814	1844.33
1892.019	1771.29
1895.224	1818.34
1898.429	1787.16
1901.634	1775.61
1904.838	1757.87
1908.042	1812.1
1911.246	1825.03
1914.449	1800.6
1917.652	1782.94
1920.855	1767.39
1924.058	1782.11
1927.26	1825.34
1930.462	1841.23
1933.664	1881.58
1936.865	1834.45
1940.066	1850.1
1943.267	1801.39
1946.467	1809.95
1949.668	1822.26
1952.868	1882.43
1956.067	1878.92
1959.267	1829.34
1962.466	1848.18
1965.665	1831.13
1968.863	1827.48
1972.061	1822.2
1975.259	1814.58
1978.457	1879.34
1981.654	1844.28
1984.852	1848.68
1988.048	1814.4
1991.245	1799.6
1994.441	1875.92
1997.637	1829.68
2000.833	1817.1
2004.028	1843.52
2007.223	1902.81
2010.418	1894.82
2013.613	1847.32
2016.807	1848.82
2020.001	1839.79
2023.194	1853.77
2026.388	1840.99
2029.581	1793.15
2032.774	1854.98
2035.966	1862.15
2039.158	1819.72
2042.35	1834.94
2045.542	1768.39
2048.733	1837.06
2051.924	1819.56
2055.115	1830.55
2058.306	1806.27
2061.496	1850.45
2064.686	1889.29
2067.875	1807.23
2071.065	1805.61
2074.254	1819.34
2077.442	1779.85
2080.631	1853.16
2083.819	1803.72
2087.007	1800.88
2090.195	1791.99
2093.382	1796.74
2096.569	1788.11
2099.756	1757.56
2102.942	1803.66
2106.128	1819.57
2109.314	1808.38
2112.5	1802.08
2115.685	1769.18
2118.87	1775.74
2122.055	1828.24
2125.239	1813.48
2128.424	1807.7
2131.608	1845.67
2134.791	1832.53
2137.974	1861.14
2141.157	1851.51
2144.34	1831.7
2147.523	1814.84
2150.705	1843.03
2153.887	1809.83
2157.068	1794.02
2160.25	1769.34
2163.431	1785.32
2166.611	1766.62
2169.792	1786.29
2172.972	1710.33
2176.152	1751.42
2179.331	1772.86
2182.511	1781.69
2185.69	1798.96
2188.868	1805.45
2192.047	1829.3
2195.225	1854.34
2198.403	1807.55
2201.58	1793.23
2204.758	1779.19
2207.935	1843.32
2211.111	1776.34
2214.288	1766.78
2217.464	1794.52
2220.64	1751.9
2223.815	1794.89
2226.991	1739.33
2230.166	1750.09
2233.34	1793.72
2236.515	1803.81
2239.689	1858.32
2242.863	1818.2
2246.036	1859.58
2249.209	1844.28
2252.382	1856.54
2255.555	1870.7
2258.727	1831.19
2261.9	1852.61
2265.071	1848.18
2268.243	1845.98
2271.414	1805.34
2274.585	1795.85
2277.756	1846.88
2280.926	1812.77
2284.096	1833.07
2287.266	1779.08
2290.436	1818.39
2293.605	1832.57
2296.774	1870.45
2299.942	1868.48
2303.111	1880.85
2306.279	1929.34
2309.447	1915.72
2312.614	1890.26
2315.781	1911.82
2318.948	1892.55
2322.115	1925.76
2325.281	1835.61
2328.447	1839.49
2331.613	1812.94
2334.779	1811.36
2337.944	1804.91
2341.109	1806.81
2344.274	1799.07
2347.438	1771.58
2350.602	1789.33
2353.766	1795.27
2356.929	1787.13
2360.092	1818.04
2363.255	1798.04
2366.418	1776.44
2369.58	1814.19
2372.742	1754.64
2375.904	1735.56
2379.066	1726.81
2382.227	1745.6
2385.388	1712.85
2388.548	1675.57
2391.709	1706.52
2394.869	1705.11
2398.029	1736.61
2401.188	1725.32
2404.347	1710.6
2407.506	1738.57
2410.665	1786.04
2413.823	1765.43
2416.981	1753.53
2420.139	1764.14
2423.296	1800.2
2426.453	1776.09
2429.61	1793.14
2432.767	1782.04
2435.923	1819.53
2439.079	1762.07
2442.235	1790.23
2445.391	1741
2448.546	1782.16
2451.701	1810.42
2454.855	1812.75
2458.009	1829.92
2461.163	1817.16
2464.317	1794.4
2467.471	1813.96
2470.624	1836.33
2473.777	1838.05
2476.929	1851.38
2480.082	1869.35
2483.234	1852.11
2486.385	1793.79
2489.537	1787.96
2492.688	1788.8
2495.839	1804.17
2498.989	1816.52
2502.14	1807.83
2505.29	1805.38
2508.439	1822.6
2511.589	1776.41
2514.738	1773.27
2517.887	1789.31
2521.035	1861.66
2524.183	1817.57
2527.331	1807.4
2530.479	1807.4
2533.627	1808.5
