Data from C_1_DIV_IL_4N_Splice17_11-59-17-175.txt Node
Date: Sat Mar 14 11:59:17 EDT 2020
User: sa697716
Spectrometer: FLMS03696
Trigger mode: 0
Integration Time (sec): 3.180400E-1
Scans to average: 20
Electric dark correction enabled: true
Nonlinearity correction enabled: true
Boxcar width: 5
XAxis mode: Wavelengths
Number of Pixels in Spectrum: 2048
>>>>>Begin Spectral Data<<<<<
187.83	-315720.95
188.298	2222.96
188.766	1190.14
189.233	1061.29
189.701	1501.71
190.169	2024.41
190.636	794.81
191.104	589.11
191.571	69.32
192.039	-63.42
192.506	-52.6
192.974	321.89
193.441	-498.72
193.908	-46.96
194.375	-9.47
194.842	25.84
195.31	5.48
195.777	100.43
196.244	273.2
196.711	340.52
197.177	452.73
197.644	635.55
198.111	1090.3
198.578	1492.67
199.045	1202.1
199.511	1985.14
199.978	2336.34
200.445	2021.56
200.911	2278.27
201.378	2529.33
201.844	2310.44
202.31	3982.16
202.777	4147.86
203.243	2315.41
203.709	2231.47
204.176	2675.66
204.642	2208.93
205.108	2074.31
205.574	1693.53
206.04	1541.05
206.506	1447.82
206.972	1353.58
207.438	1289.01
207.903	1470.77
208.369	1285.55
208.835	1289.97
209.301	1349.08
209.766	1372.66
210.232	1367.1
210.697	1699.99
211.163	2099.76
211.628	3185.4
212.094	2699.59
212.559	3362.65
213.024	2117.3
213.49	2618.83
213.955	2544.85
214.42	2505.48
214.885	2354.6
215.35	2274.57
215.815	2191.57
216.28	2340.04
216.745	1912.33
217.21	2101.96
217.675	1948.31
218.14	2212.48
218.604	2522.45
219.069	2941.42
219.534	3142.45
219.998	3716.57
220.463	4577.84
220.927	5744.83
221.392	5496.79
221.856	5650.28
222.32	7201.13
222.785	8963.3
223.249	11400.34
223.713	12822.61
224.177	12929.5
224.642	16674.22
225.106	20632.22
225.57	22607.2
226.034	16884.45
226.497	25778.94
226.961	23342.55
227.425	27200.38
227.889	30326.77
228.353	30378.02
228.816	62779.19
229.28	60127.81
229.744	50832.05
230.207	30930.91
230.671	30554.06
231.134	50630.17
231.597	58341.12
232.061	58352.5
232.524	57052.46
232.987	39308.62
233.45	35383.6
233.914	31762.8
234.377	32592.84
234.84	29842.24
235.303	35230.4
235.766	39312.35
236.229	40675.74
236.691	25679.99
237.154	28919.93
237.617	21767.37
238.08	22311.34
238.542	26180.72
239.005	18738.63
239.468	18593.3
239.93	17534.64
240.393	15944.81
240.855	14006.58
241.317	14348.01
241.78	17469.59
242.242	18042.49
242.704	19505.24
243.166	16990.05
243.629	15425.82
244.091	17785.55
244.553	19508.87
245.015	20997.75
245.477	27155.7
245.939	39809.41
246.4	42250.93
246.862	41096.45
247.324	38800.86
247.786	43391.74
248.247	56943.41
248.709	58864.75
249.17	44066.48
249.632	41598.32
250.093	48240.23
250.555	41736.31
251.016	25480.58
251.477	24206.22
251.939	26140.61
252.4	27439.36
252.861	32693.06
253.322	30422.63
253.783	36224.84
254.244	47001.75
254.705	37070.89
255.166	32987.41
255.627	32465.07
256.088	45759.63
256.549	48574.66
257.009	41848.09
257.47	50822.79
257.931	41398.27
258.391	31028.55
258.852	32012.08
259.312	33574.63
259.773	41475.25
260.233	35061.4
260.694	29633.47
261.154	33672.52
261.614	27075.68
262.074	24224.05
262.534	25183.84
262.994	23744.32
263.455	31677.6
263.915	26713.77
264.374	25198.07
264.834	27530.04
265.294	30558.59
265.754	31645.38
266.214	29946.74
266.673	28066.35
267.133	35448.01
267.593	35186.34
268.052	43089.35
268.512	37491.88
268.971	45216.83
269.431	49613.09
269.89	44454
270.349	66636.95
270.809	74343.33
271.268	66864.06
271.727	150020.48
272.186	97234.01
272.645	72957.19
273.104	52630.65
273.563	76216.42
274.022	59989.08
274.481	50974.08
274.94	39247.57
275.399	29187.75
275.857	34003.89
276.316	46026.9
276.775	40947.28
277.233	40312.57
277.692	37711.07
278.15	42654.12
278.609	43887.49
279.067	40570.95
279.525	37698.26
279.984	48747.22
280.442	58498.85
280.9	57586.59
281.358	37848.17
281.816	35264.93
282.274	34502.72
282.732	35651.48
283.19	35817.66
283.648	30894.14
284.106	32911.25
284.564	33465.36
285.021	31004.23
285.479	23109.51
285.937	21022.91
286.394	18450.4
286.852	18989.23
287.309	19959.36
287.767	19281.58
288.224	18335.55
288.682	20122.54
289.139	22080.36
289.596	20189.32
290.053	20976.55
290.511	26466.74
290.968	32135.05
291.425	43651.56
291.882	36355.98
292.339	31674.79
292.796	31472.36
293.252	29679.91
293.709	23571.3
294.166	21149.98
294.623	23407.99
295.079	22469.95
295.536	22591.1
295.992	20518.31
296.449	20280.42
296.905	21056.49
297.362	20170.39
297.818	21193.92
298.274	21968.82
298.731	22411.55
299.187	22165.71
299.643	23799.66
300.099	28799.91
300.555	31609.16
301.011	26417.2
301.467	25441.47
301.923	29819.41
302.379	29138.16
302.835	28628.7
303.291	28666.77
303.746	32571.34
304.202	41160.91
304.658	41308.87
305.113	27777.3
305.569	27199.93
306.024	28974.63
306.479	27633.72
306.935	23270.45
307.39	25415.56
307.845	23449.66
308.301	23587.51
308.756	22997.35
309.211	22136.81
309.666	22673.48
310.121	28121.4
310.576	28535.97
311.031	28286.04
311.486	32378.55
311.94	32352.08
312.395	43220.95
312.85	81262.67
313.305	399318.64
313.759	2065517.03
314.214	149570.51
314.668	118524.48
315.123	99558.27
315.577	35700.94
316.032	31782.79
316.486	39810.97
316.94	31395.17
317.394	21866.17
317.849	16995.87
318.303	16097.9
318.757	15185.46
319.211	16802.6
319.665	14696.95
320.119	14889.9
320.572	21363.35
321.026	19929.66
321.48	16584.49
321.934	18096.5
322.387	18136.44
322.841	19590.14
323.295	17596.71
323.748	20278.6
324.202	20578.51
324.655	24719.57
325.108	34511.67
325.562	24349.19
326.015	28984.83
326.468	21875.8
326.921	24452.19
327.374	22811.6
327.827	23743.9
328.28	26864.96
328.733	18006.92
329.186	15832.46
329.639	15086.7
330.092	12714.75
330.545	12103.4
330.997	12194.12
331.45	13351.8
331.903	15632.25
332.355	26862.2
332.808	26094.77
333.26	21565.35
333.713	23374.15
334.165	23527.3
334.617	31395.2
335.069	25363.42
335.522	45950.33
335.974	50945.41
336.426	46516.55
336.878	32168.99
337.33	16300.99
337.782	15907.39
338.234	19882.98
338.686	23808.44
339.137	28181.19
339.589	26532.75
340.041	20803.55
340.493	17857.45
340.944	18247.29
341.396	19633.32
341.847	16546
342.299	19537.11
342.75	23846.52
343.201	20852.12
343.653	24006.37
344.104	29479.95
344.555	23234.96
345.006	36197.45
345.457	27693.21
345.908	22012.4
346.359	20734.68
346.81	16878.01
347.261	17788.31
347.712	17539.44
348.163	18801.25
348.613	19004.36
349.064	17762.07
349.515	15532.54
349.965	15954.89
350.416	19217.71
350.866	21117.26
351.317	23855.48
351.767	39530.36
352.217	49993.2
352.668	41497.43
353.118	38094.22
353.568	36789.31
354.018	29118.63
354.468	30740.43
354.918	22012.11
355.368	19275.3
355.818	27229.87
356.268	78454.02
356.718	328761.61
357.168	81870.82
357.617	41068.33
358.067	45662.23
358.517	42797.07
358.966	50209.76
359.416	56324.15
359.865	60961.09
360.315	72702.14
360.764	34038.02
361.213	19081.7
361.663	18091.6
362.112	22354.14
362.561	36233.01
363.01	27338.17
363.459	23069.67
363.908	25018.41
364.357	21293.67
364.806	36034.33
365.255	24843.76
365.703	22782.42
366.152	22873.69
366.601	18616.76
367.05	15166.72
367.498	13794.48
367.947	14477.97
368.395	15108.26
368.844	13413.84
369.292	16253.66
369.74	11281.06
370.189	17315.93
370.637	20385.63
371.085	17667.48
371.533	21571.83
371.981	20894.43
372.429	20004.48
372.877	20945.74
373.325	17596.03
373.773	18083
374.221	16183.05
374.669	20175.68
375.116	17570.43
375.564	17788.29
376.012	20010.97
376.459	16608.66
376.907	19921.44
377.354	24236.52
377.801	22679.67
378.249	26206.05
378.696	33577.47
379.143	40856.66
379.591	43818.98
380.038	74439.59
380.485	54051.59
380.932	58702.7
381.379	53883.86
381.826	39888.03
382.273	28531.9
382.72	25143.44
383.166	24602.71
383.613	16028.68
384.06	14525.45
384.506	16866.23
384.953	12440.52
385.4	12579.37
385.846	11055.45
386.292	10829.17
386.739	10634.63
387.185	10552.56
387.631	10562.68
388.078	10282.7
388.524	11040.49
388.97	10203.29
389.416	8514.92
389.862	9056.54
390.308	8597.89
390.754	8741.15
391.2	9515.45
391.645	9756.74
392.091	9313.63
392.537	9018.48
392.983	9048.43
393.428	8873.95
393.874	9518.79
394.319	9545.87
394.765	9041.26
395.21	9309.1
395.655	8715.08
396.101	8151.23
396.546	7348.77
396.991	7422.51
397.436	6882.69
397.881	6643.66
398.326	6294.84
398.771	5939.92
399.216	5186.36
399.661	4673.66
400.106	4629.76
400.551	4729.91
400.995	4224.14
401.44	4171.24
401.885	3905.91
402.329	3934.87
402.774	3760.05
403.218	3626.17
403.663	3490.26
404.107	3583.28
404.551	3592.55
404.995	3291.79
405.44	3166.28
405.884	3210.4
406.328	3095.44
406.772	3085.31
407.216	2801
407.66	2699.94
408.104	2563
408.547	2389.59
408.991	2304.35
409.435	2215.58
409.879	2179.49
410.322	2141.96
410.766	2060.79
411.209	1956.07
411.653	1868.85
412.096	1826.96
412.54	1824.08
412.983	1805.09
413.426	1804.67
413.869	1799.16
414.312	1761.75
414.756	1696.72
415.199	1618.29
415.642	1568.5
416.085	1565.6
416.527	1552.08
416.97	1574.92
417.413	1489.81
417.856	1472.98
418.298	1459.55
418.741	1451.34
419.184	1446.41
419.626	1506.43
420.069	1504.36
420.511	1512.11
420.953	1476.6
421.396	1462.67
421.838	1422.6
422.28	1453.19
422.722	1458.38
423.164	1474.39
423.606	1446.55
424.048	1443.64
424.49	1367.11
424.932	1359.05
425.374	1338.53
425.816	1362.35
426.258	1386.54
426.699	1399.44
427.141	1376.07
427.582	1395.68
428.024	1388.24
428.465	1379.45
428.907	1341.34
429.348	1321.58
429.789	1316.88
430.231	1287.05
430.672	1300.02
431.113	1263.67
431.554	1243.79
431.995	1213.31
432.436	1166.13
432.877	1137.62
433.318	1113.4
433.759	1105.28
434.2	1104.94
434.64	1093.16
435.081	1093.44
435.522	1035.61
435.962	998.14
436.403	974.24
436.843	985.21
437.284	964.31
437.724	937.27
438.164	939.12
438.604	919.92
439.045	884.8
439.485	846.03
439.925	827.84
440.365	804.14
440.805	793.34
441.245	783.32
441.685	754.08
442.125	747.89
442.564	752.3
443.004	735.67
443.444	733.5
443.883	732.74
444.323	727.49
444.762	726.91
445.202	738.52
445.641	750.82
446.081	747.26
446.52	753.15
446.959	745.29
447.398	726.43
447.837	716.82
448.276	702.48
448.716	709.28
449.154	716.31
449.593	700.31
450.032	697.99
450.471	683.99
450.91	682.42
451.349	680.42
451.787	676.63
452.226	685.6
452.664	683.81
453.103	685.09
453.541	681.77
453.98	678.64
454.418	682.28
454.856	670.31
455.295	668.82
455.733	675.29
456.171	677.15
456.609	678.93
457.047	679.32
457.485	689.5
457.923	690.08
458.361	682.38
458.798	685.82
459.236	684.82
459.674	689.45
460.111	693.29
460.549	686.35
460.987	685.53
461.424	683.34
461.862	680.4
462.299	670.35
462.736	670.73
463.173	672.39
463.611	664.34
464.048	661.53
464.485	667.34
464.922	661.05
465.359	656.37
465.796	647.07
466.233	641.33
466.67	634.28
467.106	632.57
467.543	625.21
467.98	616.78
468.416	600.7
468.853	596.87
469.29	578.73
469.726	572.58
470.162	557.96
470.599	550.87
471.035	547.08
471.471	534.67
471.907	531.68
472.344	528.44
472.78	529.6
473.216	536.24
473.652	529.6
474.088	528.64
474.523	526.58
474.959	532.26
475.395	527.01
475.831	522.54
476.266	525
476.702	523.08
477.138	517.39
477.573	515.19
478.008	512.51
478.444	514.16
478.879	518.38
479.314	520.35
479.75	518.81
480.185	521.09
480.62	525.58
481.055	528.13
481.49	532.11
481.925	539.72
482.36	549.95
482.795	564.88
483.229	580.41
483.664	591.44
484.099	593.7
484.534	602.81
484.968	609.47
485.403	611.93
485.837	611.83
486.271	610.57
486.706	611.03
487.14	603.83
487.574	595.52
488.009	589.64
488.443	585.47
488.877	591.33
489.311	593.3
489.745	599.72
490.179	605.11
490.613	616.13
491.046	621.35
491.48	626.08
491.914	627.43
492.348	631.93
492.781	636.65
493.215	638.24
493.648	640.76
494.082	646.65
494.515	647.14
494.948	654.25
495.382	658.29
495.815	662.49
496.248	668.1
496.681	679.82
497.114	689.75
497.547	698.81
497.98	710.64
498.413	715.52
498.846	724.16
499.279	732.36
499.711	736.35
500.144	739.5
500.577	749.62
501.009	759.44
501.442	768.51
501.874	770.37
502.306	772.83
502.739	780.64
503.171	794.83
503.603	797.98
504.036	806.55
504.468	811.81
504.9	821.05
505.332	827.13
505.764	830.32
506.196	836.44
506.627	849.48
507.059	860.66
507.491	868.22
507.923	865.97
508.354	878.32
508.786	887.64
509.217	904.08
509.649	918.16
510.08	935.32
510.512	950.78
510.943	964.16
511.374	972.89
511.805	991.22
512.237	1007.11
512.668	1035.09
513.099	1058.92
513.53	1082.49
513.961	1099.28
514.391	1126.01
514.822	1154.31
515.253	1184.8
515.684	1205.77
516.114	1232.29
516.545	1249.31
516.975	1270.96
517.406	1285.27
517.836	1285.59
518.267	1288.83
518.697	1303.39
519.127	1305.35
519.558	1308.92
519.988	1310.51
520.418	1317.73
520.848	1330.24
521.278	1335.57
521.708	1351.54
522.138	1361.23
522.567	1386.83
522.997	1407.95
523.427	1418.79
523.857	1431.04
524.286	1439.49
524.716	1450.62
525.145	1465.88
525.575	1474.62
526.004	1486.28
526.433	1476.4
526.863	1474.9
527.292	1465
527.721	1468.15
528.15	1472.49
528.579	1473.04
529.008	1480.54
529.437	1499.57
529.866	1510.36
530.295	1523.06
530.724	1532.09
531.152	1554.42
531.581	1565.49
532.01	1580.43
532.438	1586.87
532.867	1598.62
533.295	1612.83
533.723	1616.73
534.152	1614.78
534.58	1613.7
535.008	1599.5
535.436	1600.43
535.865	1606.84
536.293	1619.11
536.721	1632.05
537.149	1653.71
537.576	1655.84
538.004	1667.42
538.432	1675.27
538.86	1673.58
539.287	1678.33
539.715	1690.53
540.143	1693.91
540.57	1690.77
540.998	1686.85
541.425	1666.56
541.852	1648.29
542.28	1647.46
542.707	1633.06
543.134	1620.12
543.561	1615.95
543.988	1610.43
544.415	1609.98
544.842	1604.41
545.269	1597.78
545.696	1599.25
546.123	1610.49
546.549	1600.62
546.976	1588.12
547.403	1586.87
547.829	1587.97
548.256	1588.58
548.682	1584.65
549.108	1577.43
549.535	1577.25
549.961	1578.26
550.387	1566.4
550.813	1560.71
551.24	1565.71
551.666	1566.36
552.092	1557.28
552.518	1552.41
552.943	1546.27
553.369	1552.13
553.795	1556.28
554.221	1555.36
554.646	1551.98
555.072	1560.17
555.498	1563.33
555.923	1572.17
556.349	1584.85
556.774	1593.09
557.199	1593.57
557.625	1599.63
558.05	1593.66
558.475	1603.24
558.9	1603.6
559.325	1597.54
559.75	1592.64
560.175	1587.4
560.6	1580.8
561.025	1577.57
561.449	1578.01
561.874	1581.56
562.299	1585.02
562.723	1591.53
563.148	1582.65
563.572	1585.27
563.997	1593.86
564.421	1598.68
564.846	1599.45
565.27	1602.95
565.694	1602.95
566.118	1613.25
566.542	1620.48
566.966	1615.67
567.39	1613.49
567.814	1605.84
568.238	1606.92
568.662	1612.29
569.086	1616.16
569.509	1624.27
569.933	1612.5
570.357	1605.88
570.78	1588.63
571.204	1578.84
571.627	1570.78
572.05	1569.5
572.474	1570.14
572.897	1559.78
573.32	1553.28
573.743	1545.29
574.166	1530.74
574.589	1532.21
575.012	1526.43
575.435	1526.17
575.858	1519.29
576.281	1510.31
576.704	1496.53
577.126	1484.7
577.549	1475.54
577.972	1466.83
578.394	1457.1
578.817	1450.61
579.239	1432.16
579.661	1420.15
580.084	1405.71
580.506	1393.35
580.928	1389.52
581.35	1380.68
581.772	1376.92
582.194	1365.2
582.616	1354.54
583.038	1341.82
583.46	1332.23
583.882	1330.69
584.303	1335.57
584.725	1332.83
585.147	1334.48
585.568	1343.33
585.99	1352.97
586.411	1358.44
586.833	1370.44
587.254	1371.25
587.675	1383.16
588.096	1393.42
588.518	1387.49
588.939	1371.74
589.36	1369.18
589.781	1359.27
590.202	1334.73
590.623	1327.87
591.043	1325.98
591.464	1315.19
591.885	1311.93
592.305	1307.89
592.726	1296.49
593.147	1298.82
593.567	1295.02
593.987	1288.45
594.408	1285.46
594.828	1283.84
595.248	1279.26
595.669	1263.75
596.089	1258.25
596.509	1253.89
596.929	1242.17
597.349	1243.54
597.769	1235.19
598.189	1229.63
598.608	1231.17
599.028	1232.59
599.448	1232.69
599.867	1221.19
600.287	1217.57
600.706	1214.57
601.126	1206.06
601.545	1205.93
601.965	1203.95
602.384	1198.92
602.803	1201.17
603.222	1197.37
603.641	1191.83
604.061	1188.89
604.48	1185.22
604.898	1192.55
605.317	1196.5
605.736	1197.84
606.155	1195.02
606.574	1187.18
606.992	1192.18
607.411	1189.07
607.829	1182.04
608.248	1178.57
608.666	1175.88
609.085	1175.51
609.503	1168.32
609.921	1162.72
610.339	1164.85
610.758	1164.46
611.176	1160.51
611.594	1152.16
612.012	1148.46
612.43	1151.04
612.847	1156.27
613.265	1157.82
613.683	1161.29
614.101	1161.96
614.518	1158.2
614.936	1148.93
615.353	1136.52
615.771	1134.15
616.188	1135.24
616.606	1132.3
617.023	1126.07
617.44	1114.72
617.857	1108.85
618.274	1102.28
618.691	1096.96
619.108	1090
619.525	1084.99
619.942	1090.79
620.359	1092.56
620.776	1087.6
621.192	1084.15
621.609	1082.73
622.026	1088.81
622.442	1093.87
622.859	1097.31
623.275	1091.68
623.691	1096.57
624.108	1107.13
624.524	1120.41
624.94	1120.94
625.356	1129.74
625.772	1142.15
626.188	1152.88
626.604	1153.73
627.02	1150.57
627.436	1148.77
627.852	1155.21
628.268	1165.55
628.683	1158.26
629.099	1150.04
629.514	1146.51
629.93	1150.03
630.345	1153.15
630.761	1149.81
631.176	1153.06
631.591	1148.25
632.007	1143.23
632.422	1141.57
632.837	1131.58
633.252	1128.3
633.667	1119.16
634.082	1111.05
634.497	1099.84
634.911	1083.08
635.326	1080.13
635.741	1065.28
636.155	1055.66
636.57	1056.71
636.984	1056.43
637.399	1058.48
637.813	1058.96
638.228	1058.17
638.642	1062.73
639.056	1054.76
639.47	1056.07
639.884	1048.76
640.298	1044.5
640.712	1044.33
641.126	1033.53
641.54	1026.75
641.954	1022.22
642.368	1012.06
642.781	1005.67
643.195	990.15
643.609	991.5
644.022	985.96
644.436	983.19
644.849	972.57
645.262	962.51
645.676	964.77
646.089	960.33
646.502	947.72
646.915	943.97
647.328	929.78
647.741	927.47
648.154	915.15
648.567	913.38
648.98	901.07
649.393	901.53
649.805	898.58
650.218	891.24
650.631	877.75
651.043	872.59
651.456	866.52
651.868	866.53
652.28	882.28
652.693	895.34
653.105	900.34
653.517	908.25
653.929	907.74
654.341	912.64
654.753	902.25
655.165	906.19
655.577	903.12
655.989	898.48
656.401	892.27
656.813	860.97
657.224	842.8
657.636	817.24
658.047	802.5
658.459	785.62
658.87	777.71
659.282	768.15
659.693	751.05
660.104	737.93
660.515	726.04
660.926	723.13
661.338	719.13
661.749	712.43
662.159	705.1
662.57	700.71
662.981	696.41
663.392	689.92
663.803	691.83
664.213	688.96
664.624	685.88
665.035	688.7
665.445	676.93
665.855	671.22
666.266	664.65
666.676	662.09
667.086	653.08
667.497	651.75
667.907	645.32
668.317	637.42
668.727	635.33
669.137	634.61
669.547	631.51
669.956	633.32
670.366	634.25
670.776	635.19
671.186	638.31
671.595	642.09
672.005	645.47
672.414	644.96
672.824	643.44
673.233	645.47
673.642	647.59
674.052	650.28
674.461	652.94
674.87	656.3
675.279	653.52
675.688	654.78
676.097	655.74
676.506	652.62
676.915	664.52
677.323	666.03
677.732	665.22
678.141	664.29
678.549	655.44
678.958	653.07
679.366	652.38
679.775	657.77
680.183	666.84
680.592	670.72
681	676.16
681.408	670.41
681.816	678.47
682.224	684.97
682.632	693.77
683.04	718.65
683.448	739.52
683.856	764.9
684.264	792.7
684.671	819.03
685.079	853.27
685.487	889.21
685.894	941.72
686.302	983.89
686.709	1018.64
687.116	1059.38
687.524	1092.08
687.931	1120.9
688.338	1145.7
688.745	1164.71
689.152	1185.66
689.559	1217.3
689.966	1249.88
690.373	1261.31
690.78	1289.18
691.187	1336.36
691.593	1369.98
692	1399.54
692.407	1445.47
692.813	1502.67
693.22	1547.69
693.626	1594.01
694.032	1627.94
694.439	1683.86
694.845	1727.38
695.251	1783.83
695.657	1834.12
696.063	1912.01
696.469	1967.48
696.875	2018.27
697.281	2045.02
697.687	2080.11
698.093	2109.03
698.498	2169.58
698.904	2212.84
699.31	2282.07
699.715	2331.01
700.12	2402.15
700.526	2413.1
700.931	2467.19
701.337	2507.33
701.742	2532.76
702.147	2600.87
702.552	2625.06
702.957	2671.54
703.362	2687.53
703.767	2709.28
704.172	2739.48
704.577	2701.64
704.981	2739.47
705.386	2752.61
705.791	2745.06
706.195	2804.68
706.6	2811.47
707.004	2876.28
707.408	2849.63
707.813	2871.15
708.217	2863.05
708.621	2865.44
709.025	2943.19
709.43	2944.47
709.834	2992.59
710.237	3049.42
710.641	3037.3
711.045	3054.72
711.449	3049.35
711.853	3075.07
712.256	3109.83
712.66	3139.23
713.064	3201.57
713.467	3235.92
713.87	3327.53
714.274	3364.99
714.677	3455.24
715.08	3589.19
715.484	3726.4
715.887	3892.3
716.29	4053.63
716.693	4222.34
717.096	4417.71
717.499	4521.4
717.901	4540.01
718.304	4560.39
718.707	4581.69
719.109	4497.78
719.512	4469.21
719.915	4359.06
720.317	4312.29
720.719	4348.58
721.122	4323.75
721.524	4284.83
721.926	4252.71
722.328	4334.86
722.731	4327.44
723.133	4349.04
723.535	4508.42
723.937	4525.13
724.338	4567.29
724.74	4600.79
725.142	4558.08
725.544	4557.86
725.945	4578.53
726.347	4577.22
726.748	4573.13
727.15	4586.02
727.551	4557.59
727.952	4532.69
728.354	4511.61
728.755	4511.81
729.156	4477.53
729.557	4457.15
729.958	4357.84
730.359	4313.71
730.76	4297.54
731.161	4248.52
731.562	4229.08
731.962	4231.48
732.363	4179.66
732.763	4125.4
733.164	4153.6
733.564	4099.84
733.965	4023.86
734.365	3996.99
734.766	4020.37
735.166	3988.68
735.566	3944.12
735.966	3923.44
736.366	3919.1
736.766	3870.35
737.166	3898.36
737.566	3865.61
737.966	3842.98
738.365	3875.93
738.765	3871.24
739.165	3810.08
739.564	3787.63
739.964	3824.79
740.363	3785.83
740.763	3782.58
741.162	3771.7
741.561	3743.45
741.96	3705.24
742.36	3722.85
742.759	3725.39
743.158	3757.67
743.557	3769.55
743.955	3804
744.354	3766.33
744.753	3813.77
745.152	3781.26
745.55	3826.25
745.949	3822.44
746.348	3823.81
746.746	3836.31
747.144	3804.38
747.543	3782.22
747.941	3821.78
748.339	3764.23
748.737	3760.55
749.136	3752.92
749.534	3803.8
749.932	3780.81
750.33	3799.22
750.727	3844.58
751.125	3825.98
751.523	3811.13
751.921	3850.32
752.318	3820.26
752.716	3866.63
753.113	3875.98
753.511	3895.24
753.908	3895.82
754.305	3883
754.703	3933.13
755.1	3981.67
755.497	4030.94
755.894	4186.22
756.291	4327.53
756.688	4592.8
757.085	4943.68
757.482	5439.5
757.878	5978.2
758.275	6467.25
758.672	7137.15
759.068	7683.21
759.465	8461.92
759.861	9462.71
760.258	10625.65
760.654	11226.43
761.05	11136.93
761.447	10628.01
761.843	9892.49
762.239	9136.18
762.635	8795.97
763.031	8473.08
763.427	8003.33
763.822	7506.84
764.218	7021.49
764.614	6381.93
765.01	5953.76
765.405	5678.12
765.801	5471.81
766.196	5205.01
766.592	5057.2
766.987	4804.62
767.382	4633.12
767.778	4561.26
768.173	4458.09
768.568	4398.12
768.963	4302.06
769.358	4316.52
769.753	4280.12
770.148	4211.61
770.542	4211.01
770.937	4185.85
771.332	4258.95
771.726	4273.93
772.121	4222.31
772.515	4267.25
772.91	4252.01
773.304	4308.77
773.699	4257.81
774.093	4300.16
774.487	4344.83
774.881	4381.29
775.275	4379.06
775.669	4344.66
776.063	4379.1
776.457	4406.05
776.851	4344.55
777.245	4341.16
777.638	4364.05
778.032	4455.33
778.425	4426.6
778.819	4462.08
779.212	4426.12
779.606	4391.12
779.999	4407.56
780.392	4392.8
780.786	4460.96
781.179	4476.44
781.572	4510.57
781.965	4521.54
782.358	4474.01
782.751	4518.25
783.143	4476.49
783.536	4534.45
783.929	4569.95
784.322	4659.98
784.714	4684.77
785.107	4678.77
785.499	4740.68
785.891	4721.62
786.284	4707.8
786.676	4823.09
787.068	4807.58
787.46	4853.79
787.852	4869.78
788.245	4941.48
788.636	4967.66
789.028	5024.56
789.42	5056.46
789.812	5059.14
790.204	5138.71
790.595	5218.92
790.987	5059.96
791.378	5079.45
791.77	5180.62
792.161	5288.41
792.553	5329.03
792.944	5239.5
793.335	5182.53
793.726	5243.61
794.117	5320.1
794.508	5428.41
794.899	5403.42
795.29	5516.97
795.681	5563.09
796.072	5449.14
796.463	5302.39
796.853	5309.32
797.244	5433.1
797.634	5462.32
798.025	5460.88
798.415	5465.72
798.806	5537.91
799.196	5603.73
799.586	5643.33
799.976	5612.8
800.366	5793.18
800.756	5982.27
801.146	5946.31
801.536	5969.45
801.926	6028.25
802.316	6046.68
802.706	6102.21
803.095	6001.74
803.485	6083.66
803.874	6115.15
804.264	6320.35
804.653	6300.16
805.043	6415.26
805.432	6508.72
805.821	6509.03
806.21	6521.56
806.599	6615.71
806.988	6649.94
807.377	6734.55
807.766	6838.16
808.155	7066.28
808.544	6855.41
808.933	6866.54
809.321	6848.07
809.71	7076.38
810.098	7199.64
810.487	7566.16
810.875	7948.49
811.264	7968.55
811.652	8199.16
812.04	8312.26
812.428	8439.34
812.816	9041.14
813.204	9364.41
813.592	9803.3
813.98	10071.04
814.368	9995.2
814.756	10374.43
815.144	10303.57
815.531	10674.58
815.919	10609.15
816.306	10851.33
816.694	10601.88
817.081	10639.96
817.469	10917.78
817.856	10915.28
818.243	11132.36
818.63	11443.59
819.017	11106.69
819.404	11154.85
819.791	11448.03
820.178	11937.66
820.565	12134.52
820.952	12873.71
821.339	12481.82
821.725	12627.62
822.112	12036.78
822.498	11999.06
822.885	12102.91
823.271	12031.79
823.657	12361.94
824.044	12369.24
824.43	12423.55
824.816	12394.3
825.202	12051.76
825.588	12861.99
825.974	12878.8
826.36	13289.57
826.746	13318.55
827.132	13600.03
827.517	13581.27
827.903	12962.46
828.289	12999.4
828.674	12389.83
829.06	12312.37
829.445	12624.3
829.83	12901.02
830.216	13279.78
830.601	13570.16
830.986	13250.73
831.371	13146.97
831.756	13598.81
832.141	13263.32
832.526	13257.76
832.911	13481.67
833.295	13393.32
833.68	13765.63
834.065	13283.5
834.449	12563.2
834.834	12504.71
835.218	12507.62
835.603	12779.39
835.987	12614.24
836.371	13281.31
836.755	13202.61
837.139	13523.86
837.524	13712.44
837.908	13578.03
838.291	13627.57
838.675	13688.17
839.059	13852.29
839.443	13839.33
839.827	13664.31
840.21	14041.68
840.594	13918.59
840.977	14078.47
841.361	14060.95
841.744	14365.87
842.127	14239.4
842.511	14438.33
842.894	14902.81
843.277	15215.19
843.66	15652.53
844.043	15712.59
844.426	15077.35
844.809	14828.88
845.191	14860.24
845.574	14491.51
845.957	14199.21
846.339	14115.04
846.722	13692.24
847.104	13748.83
847.487	13606.11
847.869	13616.97
848.252	13837.33
848.634	14087.01
849.016	14297.97
849.398	14392.07
849.78	15070.01
850.162	15072.09
850.544	15401.04
850.926	15896.42
851.307	15816.13
851.689	16037.98
852.071	16387.11
852.452	16634.81
852.834	16621.55
853.215	16938.19
853.597	17059.3
853.978	17300.85
854.359	17655.39
854.741	16873.66
855.122	16797.58
855.503	16573.33
855.884	16684.25
856.265	16633.97
856.646	16733.16
857.026	16425.87
857.407	16372.51
857.788	16494.28
858.169	16710.6
858.549	16045.64
858.93	16529.88
859.31	16565.13
859.69	16733.16
860.071	16404.12
860.451	16231.19
860.831	15648.26
861.211	16558.64
861.591	16998.44
861.971	16982.73
862.351	17141.77
862.731	17435.65
863.111	17647.72
863.491	17919.06
863.87	18608.09
864.25	18884.93
864.629	18572.59
865.009	18975.3
865.388	19655.15
865.768	21057.85
866.147	20979.07
866.526	19816.65
866.905	20062.26
867.284	21189.38
867.663	20111.3
868.042	19282.86
868.421	19226.07
868.8	19549.41
869.179	19738.84
869.558	18597.35
869.936	17132.77
870.315	17441.17
870.693	17866.92
871.072	19267.6
871.45	18350.71
871.828	18589.34
872.207	19541.69
872.585	19243.41
872.963	19758.77
873.341	19091.88
873.719	18854.21
874.097	18640.05
874.475	18993.29
874.853	19429.22
875.23	18624.57
875.608	19405.8
875.986	20993.51
876.363	20084.33
876.741	20705.34
877.118	20196.39
877.495	21164.85
877.873	21524.89
878.25	22642.04
878.627	21708.91
879.004	22018.54
879.381	21913.64
879.758	21330.37
880.135	19860.46
880.512	21003.83
880.889	20437.05
881.265	20228.32
881.642	20077.16
882.019	20416.86
882.395	20014.55
882.772	20812.32
883.148	19905.27
883.524	19828.16
883.901	19722.53
884.277	20021.74
884.653	19887.51
885.029	20473.82
885.405	22669.22
885.781	22495.3
886.157	21574.82
886.532	21830.48
886.908	21818.64
887.284	24254.46
887.659	25036.69
888.035	25831.48
888.411	26485.67
888.786	26834.5
889.161	27746.72
889.537	27228.86
889.912	28092.96
890.287	28065.27
890.662	28788.22
891.037	28271.8
891.412	26369.99
891.787	26107.78
892.162	25193.43
892.536	25788.61
892.911	24819.33
893.286	24301.7
893.66	23320.58
894.035	23919.99
894.409	26038.64
894.784	24996.66
895.158	25410.92
895.532	26910.57
895.906	27647.83
896.281	28284.32
896.655	27835.1
897.029	31797.54
897.402	33127.46
897.776	36881.54
898.15	36745.26
898.524	36346.29
898.898	36807.92
899.271	41219.17
899.645	35716.42
900.018	34302.07
900.392	35574.12
900.765	35849.3
901.138	33191.52
901.511	32676.63
901.884	30018.09
902.258	27688.21
902.631	28607.95
903.003	32932.7
903.376	29703.03
903.749	33300.12
904.122	35657.68
904.495	39256.11
904.867	39750.56
905.24	34514.07
905.612	32130.83
905.985	32847.32
906.357	34354.53
906.729	32807.18
907.102	28037.97
907.474	26944.51
907.846	27109.09
908.218	26749.14
908.59	23639.8
908.962	22865.08
909.334	24614.87
909.705	25859.96
910.077	25101.8
910.449	26125.19
910.82	26866.82
911.192	29545.84
911.563	30719.45
911.935	32880.11
912.306	32942.4
912.677	34017.84
913.048	33697.71
913.419	36569.58
913.79	36785.78
914.161	39443.02
914.532	37695.13
914.903	34621.86
915.274	32895.36
915.645	32427.66
916.015	28536.97
916.386	27188.21
916.756	28947.09
917.127	29850.31
917.497	26672.82
917.868	29020.59
918.238	27597.98
918.608	28396.72
918.978	28979.29
919.348	30669.61
919.718	31692.22
920.088	30537.18
920.458	31741.14
920.828	33399.57
921.198	31680.05
921.567	33833.94
921.937	26207.7
922.306	26458.42
922.676	28528.1
923.045	23830.29
923.415	22658.8
923.784	20628.57
924.153	21206.59
924.522	21190.96
924.891	19921.5
925.26	21332.5
925.629	20830.04
925.998	23938.94
926.367	23367.66
926.736	22255.31
927.104	26493.64
927.473	28488.96
927.842	34414.34
928.21	34084.36
928.578	35822.55
928.947	33867.26
929.315	34058.57
929.683	39977.01
930.051	40298.15
930.42	46776.54
930.788	40016.5
931.156	39718.52
931.523	37224.19
931.891	34409.68
932.259	33059.25
932.627	38299.56
932.994	54220.95
933.362	44836.64
933.729	38958.23
934.097	37305.56
934.464	31577.99
934.831	36426.4
935.199	35919.77
935.566	34818.43
935.933	35249.69
936.3	42732.86
936.667	33302.2
937.034	30042.42
937.401	29740.58
937.767	25641.79
938.134	22830.31
938.501	32220.69
938.867	34342.62
939.234	58054.55
939.6	49593.88
939.967	54762.05
940.333	36626.37
940.699	31175.61
941.065	25046.04
941.431	32816.8
941.798	31699.27
942.163	41640.7
942.529	26009.01
942.895	23935.94
943.261	15481.03
943.627	20301.36
943.992	17781.28
944.358	17800.76
944.723	17876.22
945.089	17411.3
945.454	16110.9
945.82	17180.93
946.185	16514.43
946.55	19122.66
946.915	17160.67
947.28	20127.07
947.645	17723.33
948.01	16351.47
948.375	17087.72
948.74	20458.12
949.104	23865.86
949.469	34414.2
949.834	60764.03
950.198	57553.51
950.562	34481.11
950.927	28730.63
951.291	34559.21
951.655	29458.44
952.02	27655.32
952.384	20896.69
952.748	18191.05
953.112	17742.41
953.476	15428.58
953.839	14259.57
954.203	14126.28
954.567	17670.19
954.931	27787.11
955.294	23764.67
955.658	23852.54
956.021	40589.66
956.385	68741.94
956.748	101444.22
957.111	157390.85
957.474	176826.67
957.837	199236.28
958.2	150766.2
958.563	54278.1
958.926	36759.82
959.289	55791.14
959.652	62443.29
960.015	46809.13
960.377	67241.17
960.74	76787.06
961.102	132512.86
961.465	142326.33
961.827	76334.91
962.189	146524.71
962.552	101529.96
962.914	81368.72
963.276	52786.37
963.638	43631.21
964	43208.14
964.362	29185.87
964.724	28210.95
965.085	20125.71
965.447	16483.52
965.809	18778.92
966.17	18776.41
966.532	20321.8
966.893	18637.91
967.255	16982.26
967.616	20033.07
967.977	16052.09
968.338	17542.45
968.699	14416.24
969.061	14425.1
969.421	14526.56
969.782	16289.98
970.143	13773.32
970.504	14267.46
970.865	16209.23
971.225	16553.52
971.586	16186.32
971.946	23077.65
972.307	20029.12
972.667	26193.55
973.027	26954.61
973.388	32657.91
973.748	22232.18
974.108	24212.9
974.468	32742.25
974.828	25282.53
975.188	19474.05
975.548	17907.14
975.907	15027.89
976.267	16867.71
976.627	14178.61
976.986	14706.13
977.346	14023.04
977.705	13486.35
978.064	12300.28
978.424	10259.45
978.783	10603.85
979.142	12109.85
979.501	11591.62
979.86	12251.15
980.219	11797.23
980.578	15194.58
980.937	17003.4
981.296	15165.48
981.654	15592.2
982.013	24233.4
982.371	31358.07
982.73	29281.05
983.088	33145.98
983.447	35431.71
983.805	50672.63
984.163	105946.72
984.521	117712.06
984.879	172615.59
985.237	-280875.83
985.595	270987.15
985.953	67345
986.311	38977.15
986.669	22658.54
987.026	19552.52
987.384	26243.23
987.741	27141.75
988.099	19384.6
988.456	15436.13
988.814	14434.36
989.171	12537.96
989.528	12351.11
989.885	13054.44
990.242	10346.25
990.599	12900.47
990.956	10541.86
991.313	7383.77
991.67	6068.06
992.027	6440.08
992.383	5727.14
992.74	5033.11
993.096	5285.86
993.453	5491.65
993.809	5682.76
994.165	7561.73
994.522	6918.26
994.878	7637.92
995.234	9581.73
995.59	9450.84
995.946	8931.99
996.302	10201.9
996.658	11782.27
997.013	12970.77
997.369	15388.84
997.725	19693.47
998.08	12732.16
998.436	19648.87
998.791	27073.56
999.147	26984.04
999.502	29382.84
999.857	21434.6
1000.212	34836.03
1000.567	49548.02
1000.922	28626.94
1001.277	18154.74
1001.632	13476.13
1001.987	17370.44
1002.342	12455.34
1002.696	9988.01
1003.051	7978.22
1003.406	9655.46
1003.76	9585.22
1004.114	9467.83
1004.469	7960.67
1004.823	6577.94
1005.177	7109.42
1005.531	5645.83
1005.885	5004.93
1006.239	5651.94
1006.593	7055.97
1006.947	9427.94
1007.301	7078.26
1007.655	7709.92
1008.008	5659.76
1008.362	6376.49
1008.715	9109.39
1009.069	8303.02
1009.422	12501.38
1009.776	25176.55
1010.129	16717.15
1010.482	13966.28
1010.835	11841.56
1011.188	24672.81
1011.541	23284.89
1011.894	-142464.25
1012.247	418770.63
1012.6	28547.32
1012.952	17950.24
1013.305	9248.03
1013.657	6656.48
1014.01	6278.66
1014.362	5204.63
1014.715	4640.21
1015.067	4032.05
1015.419	3939.84
1015.771	3495.49
1016.123	3116.45
1016.475	3201.57
1016.827	3409.09
1017.179	3660.88
1017.531	3694.64
1017.883	3788.24
1018.234	3646.27
1018.586	4586.75
1018.938	4875.38
1019.289	6716.93
1019.64	7655.75
1019.992	7139.06
1020.343	6541.52
1020.694	5162.61
1021.045	4578.93
1021.396	5204.44
1021.747	5581.4
1022.098	6702.48
1022.449	4885.5
1022.8	4534.44
1023.151	3160.05
1023.501	2824.97
1023.852	3051.05
1024.202	3155.29
1024.553	3475.71
1024.903	3394.74
1025.253	2916.13
1025.604	2629.32
1025.954	3259.28
1026.304	3944.26
1026.654	4603.72
1027.004	6745.84
1027.354	10829.86
1027.703	10247.61
1028.053	13511.78
1028.403	19620.44
1028.753	28397.02
1029.102	38367.13
1029.452	195383.05
1029.801	8405.42
1030.15	5433.53
1030.499	4578.51
897.758	2233.41
901.051	2172.46
904.343	2203.76
907.636	2212.54
910.928	2274.01
914.22	2192.61
917.511	2197.33
920.803	2245.65
924.094	2246.68
927.384	2248.06
930.675	2209.9
933.965	2173.3
937.255	2199.32
940.544	2167.08
943.834	2168.04
947.123	2105.42
950.411	2195.35
953.7	2174.45
956.988	2158.18
960.276	2094.84
963.563	2145.24
966.851	2155.61
970.138	2196.64
973.424	2196.23
976.711	2151.98
979.997	2198.93
983.283	2244.62
986.568	2171.83
989.853	2169.07
993.138	2195.65
996.423	2277.83
999.708	2233.72
1002.992	2262.99
1006.275	2177.45
1009.559	2185.99
1012.842	2282.57
1016.125	2234.06
1019.408	2213.41
1022.69	2273.92
1025.972	2301.88
1029.254	2278.82
1032.536	2238.18
1035.817	2253.39
1039.098	2222.93
1042.379	2278.42
1045.659	2304.18
1048.939	2252.74
1052.219	2260.11
1055.498	2256.95
1058.778	2252.12
1062.057	2227.65
1065.335	2249.51
1068.614	2261.91
1071.892	2253.39
1075.17	2311.25
1078.447	2312.14
1081.724	2307.16
1085.001	2333.48
1088.278	2313.22
1091.554	2319.54
1094.83	2314.71
1098.106	2350.84
1101.382	2382.43
1104.657	2381.9
1107.932	2384.85
1111.206	2356.18
1114.481	2311.05
1117.755	2311.51
1121.029	2304.2
1124.302	2360.45
1127.575	2325.85
1130.848	2321
1134.121	2288.69
1137.393	2250.91
1140.665	2310.55
1143.937	2285.09
1147.208	2238.78
1150.48	2293.13
1153.75	2281.35
1157.021	2287.28
1160.291	2262.08
1163.561	2314.05
1166.831	2282.93
1170.101	2312.55
1173.37	2275.32
1176.639	2231.01
1179.907	2275.12
1183.176	2297.28
1186.444	2300.45
1189.711	2324.29
1192.979	2343.62
1196.246	2303.27
1199.513	2314.66
1202.78	2320.11
1206.046	2328.43
1209.312	2355.12
1212.578	2372.85
1215.843	2340.95
1219.108	2307.39
1222.373	2328.6
1225.638	2303.13
1228.902	2296.11
1232.166	2252.61
1235.43	2241.15
1238.693	2266.4
1241.956	2259.58
1245.219	2303.74
1248.482	2288.73
1251.744	2286.2
1255.006	2412.5
1258.268	2361.46
1261.529	2314.4
1264.79	2317.51
1268.051	2414.05
1271.312	2424.45
1274.572	2394.25
1277.832	2382.11
1281.092	2363.46
1284.351	2352.26
1287.61	2335.5
1290.869	2269.38
1294.128	2265.06
1297.386	2318.49
1300.644	2308.92
1303.902	2321.2
1307.159	2191.08
1310.416	2241.67
1313.673	2269.59
1316.93	2269.57
1320.186	2301.52
1323.442	2337.25
1326.697	2335.43
1329.953	2310.78
1333.208	2345.35
1336.463	2318.41
1339.717	2277.74
1342.972	2383.81
1346.226	2357.83
1349.479	2304.44
1352.733	2282.33
1355.986	2291.71
1359.238	2271.47
1362.491	2277.21
1365.743	2275.19
1368.995	2267.81
1372.247	2280.57
1375.498	2299.65
1378.749	2338.64
1382	2290.03
1385.251	2326.79
1388.501	2281.29
1391.751	2279.33
1395	2246.43
1398.25	2271.59
1401.499	2294.47
1404.748	2240.38
1407.996	2221.01
1411.244	2209.92
1414.492	2193.38
1417.74	2177.87
1420.987	2184.07
1424.234	2243.21
1427.481	2208.29
1430.728	2265.9
1433.974	2239.37
1437.22	2241.26
1440.465	2238.23
1443.711	2233.22
1446.956	2257.22
1450.201	2232.28
1453.445	2272.69
1456.689	2260.86
1459.933	2269.5
1463.177	2305.45
1466.42	2279.1
1469.663	2265.06
1472.906	2274.18
1476.148	2325.77
1479.391	2305.75
1482.633	2279.5
1485.874	2301.29
1489.115	2305.98
1492.356	2292.3
1495.597	2273.42
1498.838	2267.69
1502.078	2250.35
1505.318	2219.25
1508.557	2253.65
1511.797	2247.13
1515.036	2285.7
1518.274	2263.05
1521.513	2220.39
1524.751	2233.09
1527.989	2257.68
1531.227	2272.48
1534.464	2283.09
1537.701	2279.89
1540.938	2292.67
1544.174	2242.66
1547.41	2235
1550.646	2273.46
1553.882	2319.79
1557.117	2376.47
1560.352	2382.16
1563.587	2340.48
1566.821	2308.84
1570.055	2327.99
1573.289	2309.02
1576.523	2367.04
1579.756	2382.53
1582.989	2402.23
1586.222	2363.54
1589.454	2388.96
1592.686	2372.71
1595.918	2402.09
1599.15	2400.37
1602.381	2447.36
1605.612	2425.79
1608.843	2518.42
1612.073	2440.99
1615.303	2425.97
1618.533	2422.91
1621.762	2421.19
1624.992	2404.62
1628.221	2401.93
1631.449	2387.92
1634.678	2422.3
1637.906	2388.36
1641.134	2416.58
1644.361	2379.62
1647.588	2370.66
1650.815	2392.72
1654.042	2359.75
1657.269	2387.42
1660.495	2361.75
1663.72	2353.37
1666.946	2324.42
1670.171	2290.41
1673.396	2265.22
1676.621	2247.17
1679.845	2250.43
1683.069	2258
1686.293	2288.85
1689.517	2275.99
1692.74	2225.22
1695.963	2246.63
1699.185	2281
1702.408	2255.7
1705.63	2286.1
1708.852	2304.58
1712.073	2278.28
1715.294	2282.97
1718.515	2329.41
1721.736	2286.22
1724.956	2270.7
1728.176	2292.28
1731.396	2314.15
1734.616	2303.2
1737.835	2336.74
1741.054	2308.42
1744.272	2299.72
1747.491	2337.43
1750.709	2364.14
1753.927	2307.52
1757.144	2337.46
1760.361	2388.02
1763.578	2366.57
1766.795	2318.92
1770.011	2308.15
1773.227	2335.82
1776.443	2376.71
1779.658	2418.42
1782.874	2358.84
1786.089	2350.7
1789.303	2352.67
1792.518	2351
1795.732	2338.76
1798.945	2351.99
1802.159	2392.36
1805.372	2329.87
1808.585	2322.82
1811.797	2325.3
1815.01	2351.17
1818.222	2371.08
1821.434	2333.89
1824.645	2377.88
1827.856	2382.25
1831.067	2415.05
1834.278	2354.54
1837.488	2339.03
1840.698	2464.61
1843.908	2404.4
1847.117	2371.44
1850.326	2291.86
1853.535	2355.64
1856.744	2386.94
1859.952	2310.31
1863.16	2312.8
1866.368	2327.74
1869.575	2440.02
1872.782	2325.42
1875.989	2261.77
1879.196	2313.83
1882.402	2304.73
1885.608	2338.65
1888.814	2277.27
1892.019	2183.92
1895.224	2233.95
1898.429	2203.49
1901.634	2186.12
1904.838	2160.11
1908.042	2214.61
1911.246	2225.71
1914.449	2186.23
1917.652	2171.74
1920.855	2153.98
1924.058	2180.41
1927.26	2224.77
1930.462	2250.42
1933.664	2284.97
1936.865	2227.35
1940.066	2244.46
1943.267	2190.31
1946.467	2199.2
1949.668	2218.76
1952.868	2289.25
1956.067	2277.72
1959.267	2217.17
1962.466	2240.94
1965.665	2222.43
1968.863	2216.32
1972.061	2221.27
1975.259	2217.04
1978.457	2288.29
1981.654	2250.39
1984.852	2253.88
1988.048	2203.96
1991.245	2194.49
1994.441	2282.07
1997.637	2245.09
2000.833	2226.35
2004.028	2262.54
2007.223	2325.13
2010.418	2309.96
2013.613	2265.07
2016.807	2256.69
2020.001	2252.22
2023.194	2272.11
2026.388	2256.65
2029.581	2202.81
2032.774	2262.28
2035.966	2272.44
2039.158	2218.43
2042.35	2236.53
2045.542	2163.29
2048.733	2244.92
2051.924	2242.77
2055.115	2260.58
2058.306	2227.34
2061.496	2281.33
2064.686	2329.18
2067.875	2237.21
2071.065	2243.56
2074.254	2263.11
2077.442	2216.57
2080.631	2301.53
2083.819	2230.2
2087.007	2219.94
2090.195	2204.63
2093.382	2218.05
2096.569	2201.56
2099.756	2165.42
2102.942	2211.93
2106.128	2222.57
2109.314	2211.84
2112.5	2196.13
2115.685	2165.04
2118.87	2172.41
2122.055	2235.4
2125.239	2210.61
2128.424	2200.74
2131.608	2265.14
2134.791	2250.21
2137.974	2287.36
2141.157	2276.25
2144.34	2244.16
2147.523	2237.57
2150.705	2261.06
2153.887	2231.76
2157.068	2199.71
2160.25	2187.58
2163.431	2211.17
2166.611	2178.49
2169.792	2197.97
2172.972	2109.54
2176.152	2162.9
2179.331	2192.29
2182.511	2191.98
2185.69	2214.11
2188.868	2216.7
2192.047	2253.07
2195.225	2262.3
2198.403	2215.33
2201.58	2201.42
2204.758	2189.85
2207.935	2263.45
2211.111	2177.76
2214.288	2164.73
2217.464	2200.05
2220.64	2160.59
2223.815	2210.63
2226.991	2143.56
2230.166	2160.18
2233.34	2199.82
2236.515	2214.92
2239.689	2278.48
2242.863	2229.67
2246.036	2283.37
2249.209	2268.15
2252.382	2289.47
2255.555	2293.81
2258.727	2243
2261.9	2273.6
2265.071	2264.78
2268.243	2259.57
2271.414	2209.85
2274.585	2190.23
2277.756	2250.84
2280.926	2205.83
2284.096	2237.02
2287.266	2164.77
2290.436	2211.77
2293.605	2233.15
2296.774	2266.57
2299.942	2274.12
2303.111	2293.89
2306.279	2341.64
2309.447	2327.77
2312.614	2300.69
2315.781	2326.42
2318.948	2302.92
2322.115	2338.91
2325.281	2240.39
2328.447	2249.16
2331.613	2223.12
2334.779	2212.73
2337.944	2205.44
2341.109	2207.26
2344.274	2196.27
2347.438	2161.62
2350.602	2182.47
2353.766	2192.46
2356.929	2181.06
2360.092	2220.04
2363.255	2188.3
2366.418	2149.36
2369.58	2220.69
2372.742	2089.98
2375.904	2086.08
2379.066	2069.62
2382.227	2099.5
2385.388	2062.39
2388.548	2009.37
2391.709	2051.94
2394.869	2038.23
2398.029	2098.69
2401.188	2095.95
2404.347	2054.94
2407.506	2138.82
2410.665	2175.59
2413.823	2164.34
2416.981	2139.73
2420.139	2155.4
2423.296	2198.14
2426.453	2172.11
2429.61	2192.03
2432.767	2157.16
2435.923	2198.83
2439.079	2150.89
2442.235	2185.22
2445.391	2125.2
2448.546	2164.88
2451.701	2199.63
2454.855	2193.64
2458.009	2226.27
2461.163	2217.7
2464.317	2188.6
2467.471	2215.62
2470.624	2243.81
2473.777	2230.26
2476.929	2246.98
2480.082	2271.57
2483.234	2244.36
2486.385	2186.74
2489.537	2180.97
2492.688	2168.01
2495.839	2181.52
2498.989	2197.06
2502.14	2184.27
2505.29	2173.5
2508.439	2199.07
2511.589	2137.74
2514.738	2140.83
2517.887	2164.63
2521.035	2239.72
2524.183	2201.94
2527.331	2185.89
2530.479	2180.4
2533.627	2183.02
