Data from C_1_DIV_IL_4N_Splice17_11-59-34-986.txt Node
Date: Sat Mar 14 11:59:34 EDT 2020
User: sa697716
Spectrometer: FLMS03696
Trigger mode: 0
Integration Time (sec): 3.180400E-1
Scans to average: 20
Electric dark correction enabled: true
Nonlinearity correction enabled: true
Boxcar width: 5
XAxis mode: Wavelengths
Number of Pixels in Spectrum: 2048
>>>>>Begin Spectral Data<<<<<
187.83	-183455.37
188.298	1464.8
188.766	854.3
189.233	711.38
189.701	971.63
190.169	1339.77
190.636	518
191.104	427.21
191.571	39.51
192.039	-75.09
192.506	-59.72
192.974	430.49
193.441	-575.66
193.908	-83.97
194.375	-1.74
194.842	13.17
195.31	144.38
195.777	209.28
196.244	390.51
196.711	408.3
197.177	498.05
197.644	680.1
198.111	1173.17
198.578	1595.52
199.045	1257.58
199.511	2017.46
199.978	2370.83
200.445	1983.8
200.911	2150.92
201.378	2383.13
201.844	2170.94
202.31	3667.88
202.777	3890.27
203.243	2136.11
203.709	2054.64
204.176	2471.7
204.642	2037.27
205.108	1906.93
205.574	1558.5
206.04	1432.5
206.506	1359.79
206.972	1281.96
207.438	1248.08
207.903	1401.6
208.369	1259.21
208.835	1270.88
209.301	1332.02
209.766	1367.74
210.232	1354
210.697	1686.56
211.163	2074.66
211.628	3149.05
212.094	2674.4
212.559	3293.29
213.024	2065.9
213.49	2534.01
213.955	2455.91
214.42	2412.17
214.885	2253.41
215.35	2157.02
215.815	2083.76
216.28	2226.33
216.745	1793.63
217.21	1965.83
217.675	1820.48
218.14	2079.59
218.604	2337.11
219.069	2723.39
219.534	2911.13
219.998	3445.79
220.463	4256.63
220.927	5321.5
221.392	5077.52
221.856	5228.56
222.32	6631.85
222.785	8272.68
223.249	10480.83
223.713	11789.98
224.177	11854.73
224.642	15273.39
225.106	18931.68
225.57	20769.7
226.034	15489.34
226.497	23634.95
226.961	21409.43
227.425	25004.32
227.889	27834.19
228.353	27907.58
228.816	57792.21
229.28	55414.01
229.744	46866.89
230.207	28512.48
230.671	28097.14
231.134	46615.27
231.597	53905.23
232.061	53951.9
232.524	52769.53
232.987	36390.24
233.45	32850.94
233.914	29519.28
234.377	30307.63
234.84	27775.46
235.303	32758.37
235.766	36576.1
236.229	37825.05
236.691	23844.24
237.154	26830.67
237.617	20202.6
238.08	20709.46
238.542	24244.14
239.005	17356.01
239.468	17234.86
239.93	16252.7
240.393	14779.92
240.855	12995.36
241.317	13317.7
241.78	16227.1
242.242	16784.27
242.704	18114.95
243.166	15763.95
243.629	14322.29
244.091	16490.6
244.553	18071.85
245.015	19440.93
245.477	25182.48
245.939	36919.72
246.4	39186.29
246.862	38065.35
247.324	35899.83
247.786	40188.74
248.247	52789.03
248.709	54542.79
249.17	40848.93
249.632	38547.61
250.093	44700.22
250.555	38618.04
251.016	23573.64
251.477	22390.41
251.939	24203.75
252.4	25404.75
252.861	30249.32
253.322	28109.76
253.783	33500.22
254.244	43434.92
254.705	34281.38
255.166	30478.56
255.627	30024.69
256.088	42352.61
256.549	44974.77
257.009	38706.3
257.47	47001.32
257.931	38270.87
258.391	28752.06
258.852	29659.39
259.312	31158.07
259.773	38498.19
260.233	32613.02
260.694	27561.16
261.154	31319.71
261.614	25160
262.074	22524.22
262.534	23421.9
262.994	22089.49
263.455	29435.45
263.915	24782.99
264.374	23335.23
264.834	25472.79
265.294	28230.25
265.754	29255.53
266.214	27686.83
266.673	25970.26
267.133	32783.43
267.593	32528.59
268.052	39817.65
268.512	34655.01
268.971	41797.74
269.431	45903.54
269.89	41136.05
270.349	61713.24
270.809	68752.26
271.268	61831.47
271.727	138674.87
272.186	89935.58
272.645	67512.05
273.104	48778.8
273.563	70657.17
274.022	55629.88
274.481	47331.13
274.94	36493.42
275.399	27138.62
275.857	31637.33
276.316	42787.99
276.775	38108.96
277.233	37510.63
277.692	35108.79
278.15	39706
278.609	40828.51
279.067	37822.2
279.525	35126.57
279.984	45389.76
280.442	54513.26
280.9	53710.14
281.358	35391.39
281.816	32956.21
282.274	32305.44
282.732	33416.48
283.19	33600.88
283.648	29009.31
284.106	30883.42
284.564	31420.11
285.021	29117.75
285.479	21699.99
285.937	19731.95
286.394	17292.49
286.852	17812.47
287.309	18718.28
287.767	18063.72
288.224	17181.88
288.682	18875.91
289.139	20732.34
289.596	18955.01
290.053	19727.66
290.511	24889.35
290.968	30251.28
291.425	41140.51
291.882	34268.49
292.339	29830.5
292.796	29650.08
293.252	27928.27
293.709	22163.55
294.166	19875.63
294.623	21973.93
295.079	21081.47
295.536	21218.46
295.992	19228.26
296.449	19003.93
296.905	19732.38
297.362	18928.52
297.818	19896.54
298.274	20650.7
298.731	21079.84
299.187	20855.96
299.643	22406.65
300.099	27102.6
300.555	29692.78
301.011	24864.24
301.467	23971.74
301.923	28079.31
302.379	27386.02
302.835	26912.77
303.291	26937.94
303.746	30627.97
304.202	38674.14
304.658	38875.01
305.113	26149.53
305.569	25622.9
306.024	27303.5
306.479	25982.76
306.935	21911.01
307.39	23956.38
307.845	22131.43
308.301	22274.02
308.756	21716.71
309.211	20926.78
309.666	21417.95
310.121	26563.43
310.576	26983.59
311.031	26745.42
311.486	30626.98
311.94	30592.27
312.395	40938.89
312.85	76926.26
313.305	378005.5
313.759	1953443.2
314.214	141465.81
314.668	111942.63
315.123	94122.23
315.577	33751.08
316.032	30039.68
316.486	37623.51
316.94	29691.93
317.394	20653.07
317.849	16072.01
318.303	15208.33
318.757	14339.41
319.211	15863.37
319.665	13910.02
320.119	14082.34
320.572	20195.61
321.026	18869.22
321.48	15735.45
321.934	17153.64
322.387	17184.74
322.841	18522.43
323.295	16669.57
323.748	19239.72
324.202	19497.21
324.655	23400.11
325.108	32655.13
325.562	23054.93
326.015	27384.51
326.468	20686.01
326.921	23161.43
327.374	21600.71
327.827	22492.72
328.28	25418.89
328.733	17017.75
329.186	14974.25
329.639	14272.01
330.092	12037.95
330.545	11470.88
330.997	11569.81
331.45	12624.81
331.903	14765.97
332.355	25418.52
332.808	24676
333.26	20378.99
333.713	22120.97
334.165	22283.34
334.617	29723.7
335.069	24050.48
335.522	43475.39
335.974	48156.9
336.426	44113.17
336.878	30605.42
337.33	15501.88
337.782	15177.92
338.234	18992.03
338.686	22740.84
339.137	26928.92
339.589	25401.33
340.041	19892.35
340.493	17128.92
340.944	17532.64
341.396	18872.88
341.847	15879.34
342.299	18744.87
342.75	22870.07
343.201	19998.72
343.653	22979.97
344.104	28283.26
344.555	22250.01
345.006	34665.86
345.457	26524.44
345.908	21093.52
346.359	19846.26
346.81	16183.95
347.261	17069.9
347.712	16805.32
348.163	18035.4
348.613	18267.13
349.064	17075.97
349.515	14966.82
349.965	15351.75
350.416	18485.44
350.866	20306.44
351.317	22968.32
351.767	38037.31
352.217	48149.09
352.668	40014.11
353.118	36718.59
353.568	35489.79
354.018	28106.07
354.468	29680.01
354.918	21320.48
355.368	18691.4
355.818	26445.34
356.268	76114.64
356.718	318715.69
357.168	79347.08
357.617	39797.97
358.067	44302.45
358.517	41520.27
358.966	48817.37
359.416	54822.23
359.865	59446.41
360.315	70879.51
360.764	33176.14
361.213	18618.89
361.663	17689.63
362.112	21893.82
362.561	35508.13
363.01	26846.56
363.459	22691.42
363.908	24526.19
364.357	20894.35
364.806	35360.05
365.255	24387.58
365.703	22393.25
366.152	22490.18
366.601	18267.98
367.05	14898.09
367.498	13590.32
367.947	14261.71
368.395	14897.13
368.844	13248.94
369.292	16054.09
369.74	11123.69
370.189	17131.81
370.637	20188.09
371.085	17516.48
371.533	21419.84
371.981	20714.54
372.429	19843.83
372.877	20784.6
373.325	17500.3
373.773	17953.32
374.221	16077.26
374.669	20067.39
375.116	17438.81
375.564	17664.06
376.012	19853.92
376.459	16494.94
376.907	19848.56
377.354	24131.85
377.801	22611.21
378.249	26084.84
378.696	33527.55
379.143	40829.09
379.591	43782.83
380.038	74448.25
380.485	54112.59
380.932	58864.85
381.379	54068.62
381.826	39957.93
382.273	28579.04
382.72	25138.13
383.166	24637.31
383.613	16061.95
384.06	14549.14
384.506	16918.64
384.953	12487.48
385.4	12638.21
385.846	11114.85
386.292	10906.47
386.739	10722.97
387.185	10654.05
387.631	10695.83
388.078	10406.52
388.524	11176.06
388.97	10354.3
389.416	8665.33
389.862	9253.12
390.308	8795.99
390.754	8949.12
391.2	9725.23
391.645	9987.58
392.091	9536.13
392.537	9223.49
392.983	9256.19
393.428	9088.6
393.874	9751.76
394.319	9774.85
394.765	9247.37
395.21	9502.9
395.655	8911.84
396.101	8339.41
396.546	7522.46
396.991	7598.8
397.436	7064.58
397.881	6817
398.326	6452.37
398.771	6086.12
399.216	5314.01
399.661	4786.54
400.106	4761.31
400.551	4862.41
400.995	4350.98
401.44	4287.07
401.885	4027.7
402.329	4054.7
402.774	3880.12
403.218	3744.59
403.663	3597.33
404.107	3692.56
404.551	3708.01
404.995	3387.53
405.44	3258.68
405.884	3306.1
406.328	3192.24
406.772	3173.28
407.216	2882.72
407.66	2779.96
408.104	2634.94
408.547	2461.24
408.991	2375.37
409.435	2278.63
409.879	2238.84
410.322	2201.9
410.766	2115.82
411.209	2006.66
411.653	1919.18
412.096	1873.88
412.54	1871.91
412.983	1859.48
413.426	1859.52
413.869	1853.74
414.312	1815.07
414.756	1748.88
415.199	1665.19
415.642	1616.37
416.085	1615.69
416.527	1598.75
416.97	1620.4
417.413	1532.1
417.856	1511
418.298	1495.24
418.741	1485.1
419.184	1481.4
419.626	1541.98
420.069	1540.02
420.511	1545.44
420.953	1509.5
421.396	1494.49
421.838	1455.49
422.28	1487.93
422.722	1495.96
423.164	1515.46
423.606	1486.94
424.048	1480.89
424.49	1403.43
424.932	1396.27
425.374	1375.94
425.816	1400.75
426.258	1429.99
426.699	1442.53
427.141	1419.31
427.582	1438.23
428.024	1428.44
428.465	1418.5
428.907	1380.81
429.348	1365.43
429.789	1361.16
430.231	1329.43
430.672	1343.71
431.113	1307.16
431.554	1287.89
431.995	1254.07
432.436	1207.65
432.877	1177.37
433.318	1154.52
433.759	1148.19
434.2	1143.76
434.64	1131.88
435.081	1133.24
435.522	1072.15
435.962	1033.38
436.403	1012.22
436.843	1026.48
437.284	1005.1
437.724	980.13
438.164	982.83
438.604	962.29
439.045	927.52
439.485	888.59
439.925	870.36
440.365	849.34
440.805	839.3
441.245	827.02
441.685	795.32
442.125	788.52
442.564	792.53
443.004	775.23
443.444	771.8
443.883	770.85
444.323	765.41
444.762	766.87
445.202	776.25
445.641	787.92
446.081	783.79
446.52	791.32
446.959	782.13
447.398	761.43
447.837	751.04
448.276	738.51
448.716	748.1
449.154	752.91
449.593	735.05
450.032	732.72
450.471	719.37
450.91	721.55
451.349	719.76
451.787	718.31
452.226	730.5
452.664	733.37
453.103	734.81
453.541	733.51
453.98	734
454.418	738.42
454.856	727.13
455.295	725.41
455.733	730.87
456.171	734.98
456.609	737.12
457.047	737.79
457.485	746.3
457.923	749.45
458.361	738.93
458.798	740.75
459.236	739.21
459.674	745.82
460.111	749.26
460.549	741.41
460.987	738.48
461.424	734.51
461.862	730.27
462.299	719.55
462.736	717.24
463.173	719.39
463.611	711.73
464.048	709.74
464.485	715.1
464.922	709.29
465.359	704.78
465.796	695.82
466.233	691.57
466.67	686.08
467.106	683.59
467.543	677.12
467.98	668.99
468.416	651.95
468.853	647.52
469.29	628.09
469.726	621.87
470.162	604.87
470.599	597.22
471.035	591.83
471.471	576.95
471.907	574.21
472.344	570.69
472.78	571.73
473.216	577.88
473.652	571.64
474.088	569.94
474.523	567.81
474.959	574.2
475.395	568.11
475.831	564.37
476.266	567.33
476.702	565.73
477.138	559.09
477.573	556.35
478.008	554.54
478.444	556.52
478.879	561.32
479.314	563.54
479.75	562.84
480.185	565.79
480.62	570.78
481.055	573.83
481.49	578.85
481.925	587.11
482.36	597.98
482.795	614.69
483.229	630.66
483.664	644.25
484.099	646.62
484.534	656.75
484.968	663.69
485.403	665.68
485.837	665.09
486.271	663.5
486.706	664.69
487.14	657.02
487.574	646.84
488.009	641.77
488.443	636.14
488.877	642.2
489.311	644.43
489.745	651.57
490.179	657.48
490.613	669.87
491.046	675.42
491.48	679.35
491.914	679.95
492.348	684.74
492.781	688.54
493.215	689.63
493.648	690.65
494.082	695.15
494.515	695.41
494.948	702.27
495.382	706.27
495.815	710.33
496.248	716.85
496.681	729.18
497.114	739.99
497.547	749.15
497.98	762.4
498.413	768.78
498.846	777.46
499.279	785.53
499.711	789.82
500.144	791.35
500.577	800.67
501.009	810.48
501.442	820.21
501.874	820.95
502.306	822.29
502.739	828.71
503.171	842.16
503.603	845.26
504.036	853.05
504.468	856.82
504.9	866.98
505.332	873
505.764	876.37
506.196	881.26
506.627	894.1
507.059	905.64
507.491	911.44
507.923	908.44
508.354	920.88
508.786	929.4
509.217	945.16
509.649	957.02
510.08	972.18
510.512	984.29
510.943	996.88
511.374	1004.54
511.805	1020.97
512.237	1036.66
512.668	1063.54
513.099	1084.18
513.53	1106.48
513.961	1121.25
514.391	1147.45
514.822	1173.57
515.253	1203.28
515.684	1221.91
516.114	1245.25
516.545	1259.77
516.975	1278.98
517.406	1290.91
517.836	1290.85
518.267	1291.93
518.697	1304.83
519.127	1303.58
519.558	1305.19
519.988	1304.35
520.418	1308.8
520.848	1319.65
521.278	1323.66
521.708	1338.74
522.138	1346.47
522.567	1369.33
522.997	1388.34
523.427	1398.05
523.857	1409.75
524.286	1416.72
524.716	1426.57
525.145	1440.5
525.575	1447.65
526.004	1457.49
526.433	1445.07
526.863	1442.35
527.292	1430.85
527.721	1432.64
528.15	1435.43
528.579	1434.49
529.008	1440.98
529.437	1458.34
529.866	1468.6
530.295	1480.71
530.724	1489.28
531.152	1510.52
531.581	1520.87
532.01	1535.36
532.438	1541.39
532.867	1552.51
533.295	1567.43
533.723	1571.77
534.152	1568.71
534.58	1566.55
535.008	1552.63
535.436	1553.46
535.865	1559
536.293	1569.81
536.721	1582.43
537.149	1603.19
537.576	1605.08
538.004	1614.22
538.432	1621.48
538.86	1620.38
539.287	1626.65
539.715	1638.56
540.143	1640.39
540.57	1637.11
540.998	1633.86
541.425	1614.59
541.852	1596.48
542.28	1594.29
542.707	1580.43
543.134	1566.5
543.561	1562.32
543.988	1555.85
544.415	1554.33
544.842	1549.46
545.269	1542.47
545.696	1543.58
546.123	1553.1
546.549	1544.13
546.976	1532.93
547.403	1532.23
547.829	1533.92
548.256	1534.78
548.682	1530.71
549.108	1523.28
549.535	1521.86
549.961	1522.56
550.387	1510.87
550.813	1504.57
551.24	1509.25
551.666	1509.84
552.092	1500.64
552.518	1495.31
552.943	1489.01
553.369	1494.96
553.795	1500.08
554.221	1500.23
554.646	1498.3
555.072	1506.38
555.498	1511.14
555.923	1518.09
556.349	1529.95
556.774	1537
557.199	1537.73
557.625	1543.42
558.05	1538.01
558.475	1546.6
558.9	1546.44
559.325	1540.05
559.75	1535.36
560.175	1531.41
560.6	1527.39
561.025	1525.94
561.449	1527.14
561.874	1532.22
562.299	1536.85
562.723	1543.23
563.148	1535.69
563.572	1539.98
563.997	1548.79
564.421	1554.47
564.846	1555.94
565.27	1560.08
565.694	1559.07
566.118	1571.41
566.542	1578.9
566.966	1574.23
567.39	1571.99
567.814	1563.88
568.238	1565.31
568.662	1572.53
569.086	1576.5
569.509	1584.17
569.933	1572.44
570.357	1568.28
570.78	1551.75
571.204	1542.39
571.627	1536.08
572.05	1536.65
572.474	1538.84
572.897	1530.22
573.32	1524.33
573.743	1518.01
574.166	1502.88
574.589	1504.75
575.012	1499.46
575.435	1500.36
575.858	1494.23
576.281	1485
576.704	1472.77
577.126	1463.5
577.549	1455.23
577.972	1447.44
578.394	1439.13
578.817	1435.64
579.239	1419.71
579.661	1408.97
580.084	1395.06
580.506	1384.3
580.928	1382.17
581.35	1373.42
581.772	1370.92
582.194	1359.92
582.616	1350.09
583.038	1338.27
583.46	1328.35
583.882	1326.03
584.303	1330.62
584.725	1328.6
585.147	1331.13
585.568	1340.92
585.99	1352.34
586.411	1357.87
586.833	1371.19
587.254	1372.88
587.675	1386.04
588.096	1398.78
588.518	1395.04
588.939	1380.4
589.36	1378.54
589.781	1369.5
590.202	1345.15
590.623	1337.31
591.043	1334.45
591.464	1323.96
591.885	1320.71
592.305	1315.86
592.726	1303.65
593.147	1306.12
593.567	1302.93
593.987	1297.52
594.408	1292.8
594.828	1290.97
595.248	1286.54
595.669	1271.73
596.089	1264.58
596.509	1259.74
596.929	1247.56
597.349	1248.5
597.769	1239.64
598.189	1234.18
598.608	1234.26
599.028	1237.38
599.448	1238.04
599.867	1228.34
600.287	1224.6
600.706	1222.27
601.126	1214.48
601.545	1215.15
601.965	1214.91
602.384	1211.03
602.803	1214.66
603.222	1211.59
603.641	1206.34
604.061	1204.13
604.48	1200.22
604.898	1207.88
605.317	1213.71
605.736	1215.95
606.155	1214.02
606.574	1206.03
606.992	1210.94
607.411	1206.93
607.829	1200.58
608.248	1197.94
608.666	1196.73
609.085	1196.96
609.503	1190.45
609.921	1184.7
610.339	1186.79
610.758	1186.65
611.176	1182.39
611.594	1175.09
612.012	1172.06
612.43	1175.75
612.847	1182.16
613.265	1183.17
613.683	1188.19
614.101	1190.47
614.518	1187.12
614.936	1179.08
615.353	1167
615.771	1166.69
616.188	1167.82
616.606	1165.64
617.023	1160.07
617.44	1147.44
617.857	1142.08
618.274	1134.66
618.691	1129.33
619.108	1122.05
619.525	1117.33
619.942	1123.14
620.359	1125.67
620.776	1121.55
621.192	1119.13
621.609	1117.73
622.026	1125.23
622.442	1131.52
622.859	1134.03
623.275	1127.82
623.691	1133.34
624.108	1143.92
624.524	1157.21
624.94	1156.69
625.356	1166.15
625.772	1177.32
626.188	1188.09
626.604	1189.42
627.02	1184.6
627.436	1183.96
627.852	1191.01
628.268	1202.41
628.683	1194.99
629.099	1187.72
629.514	1184.6
629.93	1188.44
630.345	1192.8
630.761	1189.8
631.176	1193.27
631.591	1188.86
632.007	1182.49
632.422	1180.28
632.837	1170.24
633.252	1168.42
633.667	1159.54
634.082	1151.13
634.497	1138.87
634.911	1122.41
635.326	1118.46
635.741	1104.48
636.155	1095.6
636.57	1099.3
636.984	1100.75
637.399	1103.32
637.813	1103.07
638.228	1103.59
638.642	1109.19
639.056	1102.4
639.47	1103.57
639.884	1097.95
640.298	1092.71
640.712	1094.4
641.126	1084.77
641.54	1077.73
641.954	1074.22
642.368	1065.5
642.781	1059.57
643.195	1045.29
643.609	1047.03
644.022	1043.26
644.436	1041.71
644.849	1032.75
645.262	1023.08
645.676	1025.53
646.089	1022.2
646.502	1009.65
646.915	1006.27
647.328	992.52
647.741	991.4
648.154	980.28
648.567	978.05
648.98	965.22
649.393	966.38
649.805	963.03
650.218	956.21
650.631	942.1
651.043	936.58
651.456	930.81
651.868	930.91
652.28	946.59
652.693	958.71
653.105	965.71
653.517	975.21
653.929	975.49
654.341	981.14
654.753	969.66
655.165	976.65
655.577	974.82
655.989	970.76
656.401	963.66
656.813	930.39
657.224	912.76
657.636	886.45
658.047	870.54
658.459	852.81
658.87	845.31
659.282	835.55
659.693	815.49
660.104	802.23
660.515	790.43
660.926	788.62
661.338	786.65
661.749	780.42
662.159	771.08
662.57	766.46
662.981	761.3
663.392	753.79
663.803	757.64
664.213	756.37
664.624	751.47
665.035	753.91
665.445	742.18
665.855	734.69
666.266	727.03
666.676	725.06
667.086	716.45
667.497	716.24
667.907	710.64
668.317	701.13
668.727	697.7
669.137	699.33
669.547	696.48
669.956	697.8
670.366	698.81
670.776	699.96
671.186	703.16
671.595	706.55
672.005	708.86
672.414	707.58
672.824	705.29
673.233	708.64
673.642	708.95
674.052	711.86
674.461	714.14
674.87	718.02
675.279	715.22
675.688	715.16
676.097	715.61
676.506	711.82
676.915	725.01
677.323	726.45
677.732	723.51
678.141	723.88
678.549	713.59
678.958	711.14
679.366	709.37
679.775	713.26
680.183	722.94
680.592	727.72
681	733.15
681.408	726.72
681.816	734.67
682.224	743.1
682.632	752.03
683.04	777.7
683.448	800.38
683.856	828.76
684.264	860.86
684.671	888.96
685.079	923.75
685.487	962.38
685.894	1015.74
686.302	1058.6
686.709	1094.19
687.116	1132.46
687.524	1164.92
687.931	1191.47
688.338	1211.42
688.745	1226.64
689.152	1246.72
689.559	1274.91
689.966	1301.81
690.373	1311.15
690.78	1336.34
691.187	1378.82
691.593	1409.23
692	1433.45
692.407	1474.42
692.813	1528
693.22	1567.89
693.626	1609.1
694.032	1639.9
694.439	1692.25
694.845	1728.93
695.251	1780.59
695.657	1824.22
696.063	1894.87
696.469	1944.74
696.875	1990.72
697.281	2013.48
697.687	2041.87
698.093	2064.92
698.498	2116.28
698.904	2154.51
699.31	2219.1
699.715	2258.59
700.12	2324.72
700.526	2333.8
700.931	2382.27
701.337	2415.27
701.742	2435.29
702.147	2497.61
702.552	2515.59
702.957	2557.79
703.362	2569.3
703.767	2585
704.172	2611.71
704.577	2570.97
704.981	2602.99
705.386	2611.2
705.791	2602.6
706.195	2656.7
706.6	2657.87
707.004	2714.57
707.408	2687.11
707.813	2704.34
708.217	2692.83
708.621	2692.56
709.025	2763.03
709.43	2762.16
709.834	2807.52
710.237	2856.35
710.641	2841
711.045	2857.4
711.449	2852.78
711.853	2873.72
712.256	2902.31
712.66	2928.72
713.064	2984.64
713.467	3015.45
713.87	3098.01
714.274	3129.53
714.677	3212.86
715.08	3332.47
715.484	3456.7
715.887	3607.03
716.29	3756.11
716.693	3910.68
717.096	4088.73
717.499	4184.77
717.901	4200.33
718.304	4219.74
718.707	4235.7
719.109	4157.06
719.512	4133.12
719.915	4029.75
720.317	3986.01
720.719	4016.17
721.122	3993.01
721.524	3953.91
721.926	3921.93
722.328	3995.52
722.731	3984.95
723.133	4004
723.535	4144.99
723.937	4158.41
724.338	4195.56
724.74	4225.1
725.142	4186.77
725.544	4186.91
725.945	4207.72
726.347	4204.65
726.748	4199.23
727.15	4209.14
727.551	4181.26
727.952	4160.65
728.354	4136.29
728.755	4136.93
729.156	4102.45
729.557	4080.77
729.958	3987.56
730.359	3944.37
730.76	3926.48
731.161	3879.98
731.562	3859.95
731.962	3861.83
732.363	3814.54
732.763	3768.12
733.164	3792.96
733.564	3743.9
733.965	3672.73
734.365	3648.97
734.766	3670.18
735.166	3642.49
735.566	3603.92
735.966	3584.67
736.366	3580.57
736.766	3535.05
737.166	3558.39
737.566	3528.36
737.966	3510.58
738.365	3541.47
738.765	3533.47
739.165	3476.05
739.564	3456.84
739.964	3487.54
740.363	3452.79
740.763	3450.76
741.162	3441.32
741.561	3417.51
741.96	3383.16
742.36	3397.08
742.759	3399.2
743.158	3427.63
743.557	3440.84
743.955	3469.15
744.354	3436.3
744.753	3477.72
745.152	3446.39
745.55	3485.78
745.949	3482.12
746.348	3484.2
746.746	3495.43
747.144	3468.81
747.543	3453
747.941	3486.56
748.339	3435.39
748.737	3430.54
749.136	3424.66
749.534	3472.25
749.932	3450.94
750.33	3467.22
750.727	3506.38
751.125	3487.23
751.523	3473.14
751.921	3505.07
752.318	3479.79
752.716	3523.46
753.113	3533.94
753.511	3551.41
753.908	3550.91
754.305	3540.1
754.703	3584
755.1	3627.59
755.497	3671.98
755.894	3812.24
756.291	3943.78
756.688	4183.32
757.085	4502.32
757.482	4951.77
757.878	5442.49
758.275	5886.73
758.672	6495.46
759.068	6991.79
759.465	7699.64
759.861	8616.99
760.258	9671.92
760.654	10219.6
761.05	10139.43
761.447	9676.24
761.843	9010.93
762.239	8326.51
762.635	8014
763.031	7716.97
763.427	7288.74
763.822	6844.58
764.218	6398
764.614	5819.79
765.01	5430.63
765.405	5179.07
765.801	4990.26
766.196	4743.89
766.592	4605.9
766.987	4377.42
767.382	4220.85
767.778	4154.95
768.173	4057.21
768.568	4002.34
768.963	3910.63
769.358	3923.35
769.753	3891.11
770.148	3828.35
770.542	3829.21
770.937	3807.35
771.332	3874.46
771.726	3889.07
772.121	3844.54
772.515	3882.46
772.91	3872.35
773.304	3923.34
773.699	3874.33
774.093	3911.68
774.487	3951.95
774.881	3982.12
775.275	3980.46
775.669	3948.85
776.063	3981.53
776.457	4008.29
776.851	3955.92
777.245	3951.25
777.638	3976.12
778.032	4059.31
778.425	4031.93
778.819	4062.72
779.212	4031.52
779.606	3998.48
779.999	4012.54
780.392	4000.87
780.786	4057.69
781.179	4070.83
781.572	4101.45
781.965	4110.71
782.358	4068.43
782.751	4111.48
783.143	4076.68
783.536	4128.52
783.929	4164.45
784.322	4248.4
784.714	4268.32
785.107	4263.31
785.499	4315.27
785.891	4301.56
786.284	4285.97
786.676	4390.21
787.068	4374.88
787.46	4412.77
787.852	4427.58
788.245	4487.53
788.636	4506.67
789.028	4556.99
789.42	4588.96
789.812	4596.37
790.204	4665.13
790.595	4737.39
790.987	4592.44
791.378	4607.1
791.77	4701.07
792.161	4800.26
792.553	4839.14
792.944	4759.64
793.335	4710.65
793.726	4762.5
794.117	4829.26
794.508	4928.16
794.899	4906.6
795.29	5009.95
795.681	5052.72
796.072	4945.42
796.463	4815.21
796.853	4821.2
797.244	4936.07
797.634	4960.42
798.025	4961.6
798.415	4965.78
798.806	5027.92
799.196	5089.61
799.586	5127.88
799.976	5099.74
800.366	5272.31
800.756	5438.7
801.146	5408.23
801.536	5424.62
801.926	5475.15
802.316	5488.35
802.706	5537.99
803.095	5449.22
803.485	5522.35
803.874	5550.19
804.264	5734.53
804.653	5712.01
805.043	5818.23
805.432	5897.37
805.821	5900.47
806.21	5916.99
806.599	6001.51
806.988	6036.7
807.377	6111.47
807.766	6206.05
808.155	6404.84
808.544	6215.74
808.933	6225.41
809.321	6209.01
809.71	6418.64
810.098	6532.31
810.487	6861.21
810.875	7210.65
811.264	7222.87
811.652	7428.87
812.04	7530.08
812.428	7650.02
812.816	8193.95
813.204	8486.39
813.592	8876.77
813.98	9118.19
814.368	9050.4
814.756	9388.3
815.144	9329.89
815.531	9669.61
815.919	9613.46
816.306	9829.82
816.694	9606.4
817.081	9649.71
817.469	9901.26
817.856	9901.05
818.243	10095.16
818.63	10369.04
819.017	10065.27
819.404	10103.91
819.791	10370.59
820.178	10815.57
820.565	10994.31
820.952	11665.15
821.339	11309.52
821.725	11441.96
822.112	10906.02
822.498	10877.88
822.885	10976.9
823.271	10916.05
823.657	11214.17
824.044	11216.9
824.43	11265.9
824.816	11239.44
825.202	10921.7
825.588	11649.95
825.974	11655.91
826.36	12026.71
826.746	12045.2
827.132	12292.64
827.517	12271.37
827.903	11718.76
828.289	11744.4
828.674	11191.83
829.06	11119.37
829.445	11402.7
829.83	11655.5
830.216	12001.95
830.601	12264.55
830.986	11981.74
831.371	11887.36
831.756	12287.15
832.141	11974.54
832.526	11972.37
832.911	12174.02
833.295	12094.35
833.68	12432.66
834.065	11993.53
834.449	11341.31
834.834	11290.78
835.218	11287.56
835.603	11530.81
835.987	11376.98
836.371	11976.44
836.755	11906.19
837.139	12194.66
837.524	12370.98
837.908	12245.01
838.291	12289.55
838.675	12328.69
839.059	12482.46
839.443	12472.44
839.827	12312.74
840.21	12664.13
840.594	12556.79
840.977	12708.46
841.361	12692.41
841.744	12962.08
842.127	12847.29
842.511	13018.61
842.894	13451.25
843.277	13722.56
843.66	14108.57
844.043	14169.12
844.426	13592.34
844.809	13374.13
845.191	13393.47
845.574	13062.78
845.957	12796.73
846.339	12725.63
846.722	12350.08
847.104	12399.23
847.487	12270.94
847.869	12282.56
848.252	12483.87
848.634	12718.58
849.016	12904.58
849.398	12991.36
849.78	13597.28
850.162	13604.38
850.544	13892.91
850.926	14338.95
851.307	14283.81
851.689	14482.82
852.071	14797.66
852.452	15023.67
852.834	15008.46
853.215	15290.19
853.597	15404.28
853.978	15613.36
854.359	15942.36
854.741	15237.88
855.122	15163.55
855.503	14945.95
855.884	15039.88
856.265	15000.31
856.646	15076.79
857.026	14794.22
857.407	14751.82
857.788	14864.84
858.169	15069.95
858.549	14455.53
858.93	14897.36
859.31	14942.35
859.69	15092.29
860.071	14810.26
860.451	14660
860.831	14131.9
861.211	14967.17
861.591	15358.57
861.971	15331.95
862.351	15469.28
862.731	15749.53
863.111	15937.09
863.491	16164.14
863.87	16794.4
864.25	17042
864.629	16758.47
865.009	17134.06
865.388	17728.78
865.768	18999.89
866.147	18938.76
866.526	17894.26
866.905	18110.72
867.284	19122.19
867.663	18164.63
868.042	17412.46
868.421	17356.79
868.8	17640.75
869.179	17813.38
869.558	16784.08
869.936	15471.11
870.315	15745.28
870.693	16139.66
871.072	17403.59
871.45	16581.92
871.828	16805.55
872.207	17675.36
872.585	17412.15
872.963	17889.63
873.341	17275.25
873.719	17085.43
874.097	16879.34
874.475	17195.94
874.853	17580.82
875.23	16848.91
875.608	17560.04
875.986	18985.57
876.363	18149.4
876.741	18713.65
877.118	18243.51
877.495	19146.65
877.873	19457.73
878.25	20477.04
878.627	19646.57
879.004	19924.97
879.381	19829.76
879.758	19306.24
880.135	17981.33
880.512	19022.67
880.889	18513.85
881.265	18324.21
881.642	18166.77
882.019	18471.47
882.395	18092.69
882.772	18821.98
883.148	18018.43
883.524	17939.52
883.901	17844.02
884.277	18112.76
884.653	17990.91
885.029	18516.53
885.405	20513.23
885.781	20364.2
886.157	19522.01
886.532	19766.54
886.908	19751.21
887.284	21953.63
887.659	22685.61
888.035	23401.66
888.411	24002.1
888.786	24331.96
889.161	25169.57
889.537	24707.88
889.912	25502.69
890.287	25483.55
890.662	26146.63
891.037	25672.63
891.412	23941.1
891.787	23695.39
892.162	22862.61
892.536	23389.46
892.911	22510.57
893.286	22035.57
893.66	21143.73
894.035	21674.75
894.409	23604.27
894.784	22648.86
895.158	23019.14
895.532	24375.66
895.906	25035.02
896.281	25613.52
896.655	25201.89
897.029	28789.41
897.402	29961.56
897.776	33339.85
898.15	33209.72
898.524	32843.25
898.898	33279.67
899.271	37259.24
899.645	32284.81
900.018	31013.83
900.392	32168.76
900.765	32433.18
901.138	30023.91
901.511	29579.66
901.884	27177.94
902.258	25087.38
902.631	25922.22
903.003	29830.3
903.376	26906.12
903.749	30174.59
904.122	32314.28
904.495	35571.15
904.867	36031.52
905.24	31280.48
905.612	29133.43
905.985	29777.55
906.357	31145.06
906.729	29737.97
907.102	25414.76
907.474	24464.36
907.846	24622.5
908.218	24299.14
908.59	21494.57
908.962	20799.68
909.334	22400.83
909.705	23539.15
910.077	22871.62
910.449	23799.62
910.82	24486.18
911.192	26932.64
911.563	28013.67
911.935	29978.96
912.306	30012.55
912.677	30991.35
913.048	30682.76
913.419	33294.37
913.79	33458.88
914.161	35872.77
914.532	34287.14
914.903	31499.77
915.274	29928.13
915.645	29466.54
916.015	25928.9
916.386	24738.64
916.756	26321.16
917.127	27138.11
917.497	24261.42
917.868	26422.48
918.238	25119.47
918.608	25855.98
918.978	26399.67
919.348	27974.66
919.718	28905.4
920.088	27865.46
920.458	28959.41
920.828	30496.53
921.198	28944.84
921.567	30899.47
921.937	23952.98
922.306	24183.4
922.676	26076.33
923.045	21759.98
923.415	20663.22
923.784	18832.62
924.153	19367.53
924.522	19356.49
924.891	18181.83
925.26	19475.7
925.629	19014.88
925.998	21846.79
926.367	21328.54
926.736	20338.73
927.104	24211.18
927.473	26050.66
927.842	31455.24
928.21	31149.9
928.578	32727.18
928.947	30995.67
929.315	31155.21
929.683	36551.48
930.051	36842.47
930.42	42783.29
930.788	36523.29
931.156	36240.89
931.523	33984.83
931.891	31408.9
932.259	30177.77
932.627	34968.38
932.994	49432.14
933.362	40918.88
933.729	35567.71
934.097	34068.3
934.464	28843.22
934.831	33298.93
935.199	32884.85
935.566	31892.17
935.933	32298.21
936.3	39138.34
936.667	30514.41
937.034	27573.4
937.401	27279.27
937.767	23561.35
938.134	20973.59
938.501	29573.07
938.867	31538.39
939.234	53290.45
939.6	45439.96
939.967	50177.72
940.333	33592.84
940.699	28593.25
941.065	22937.52
941.431	30071.12
941.798	28990.54
942.163	38077.73
942.529	23798.8
942.895	21893.81
943.261	14168.84
943.627	18590.99
943.992	16262.62
944.358	16293.78
944.723	16359.5
945.089	15941.94
945.454	14722.44
945.82	15708.28
946.185	15106.83
946.55	17490.6
946.915	15712.03
947.28	18438.61
947.645	16247.14
948.01	14999.53
948.375	15622.02
948.74	18706.18
949.104	21800.28
949.469	31485.75
949.834	55702.18
950.198	52835.25
950.562	31689.29
950.927	26363.12
951.291	31680.09
951.655	26994.01
952.02	25343.25
952.384	19167.07
952.748	16706.59
953.112	16298.41
953.476	14199.79
953.839	13120.46
954.203	12990.01
954.567	16238.29
954.931	25572.05
955.294	21891.61
955.658	22021.6
956.021	37475.01
956.385	63550.67
956.748	93784.85
957.111	145534.91
957.474	163092.18
957.837	183689.73
958.2	138697.75
958.563	49850.72
958.926	33719.81
959.289	51185.85
959.652	57140.86
960.015	42853.57
960.377	61534.29
960.74	70186.18
961.102	121097.1
961.465	130216.31
961.827	69880.77
962.189	134287.73
962.552	93208.98
962.914	74761.23
963.276	48505.34
963.638	40131.71
964	39777.87
964.362	26891.86
964.724	25993.78
965.085	18572.87
965.447	15220.09
965.809	17342.4
966.17	17382.46
966.532	18824.76
966.893	17284.29
967.255	15748.78
967.616	18575.43
967.977	14870.14
968.338	16230.24
968.699	13353.07
969.061	13347.95
969.421	13444.67
969.782	15079.62
970.143	12724.56
970.504	13193.18
970.865	14979.87
971.225	15315.58
971.586	14980.72
971.946	21360.55
972.307	18567.57
972.667	24247.77
973.027	24982.61
973.388	30302.38
973.748	20582.11
974.108	22432.76
974.468	30310.02
974.828	23413.6
975.188	18012.98
975.548	16558.41
975.907	13904.49
976.267	15599.36
976.627	13124.77
976.986	13584.67
977.346	12947.25
977.705	12469.58
978.064	11356.36
978.424	9467.62
978.783	9792.58
979.142	11181.34
979.501	10707.91
979.86	11329.26
980.219	10911.79
980.578	14067.8
980.937	15758.03
981.296	14045.18
981.654	14448.18
982.013	22479.28
982.371	29132.98
982.73	27191.05
983.088	30804.03
983.447	32918.99
983.805	47055.8
984.163	98233.35
984.521	109033.86
984.879	159838.41
985.237	-260249.62
985.595	251298.52
985.953	62521.67
986.311	36179.29
986.669	21009.52
987.026	18130.61
987.384	24401.83
987.741	25229.36
988.099	18069.73
988.456	14391.15
988.814	13498.83
989.171	11729.69
989.528	11561.26
989.885	12211.41
990.242	9673.21
990.599	12060.44
990.956	9863.39
991.313	6897.71
991.67	5661.47
992.027	6009.98
992.383	5359.3
992.74	4698.44
993.096	4934.77
993.453	5129.5
993.809	5307.96
994.165	7066.17
994.522	6490.34
994.878	7145.92
995.234	8953.46
995.59	8827.04
995.946	8335.38
996.302	9503.52
996.658	10999.58
997.013	12081.83
997.369	14298.48
997.725	18358.87
998.08	11872.52
998.436	18250.9
998.791	25240.69
999.147	25211.5
999.502	27531.5
999.857	19998.52
1000.212	32642.54
1000.567	46346.94
1000.922	26825.38
1001.277	17055.99
1001.632	12630.18
1001.987	16278.25
1002.342	11660.51
1002.696	9314.2
1003.051	7430.29
1003.406	8991.71
1003.76	8967.81
1004.114	8814.52
1004.469	7436.5
1004.823	6158.42
1005.177	6649.49
1005.531	5269.25
1005.885	4686.16
1006.239	5321.11
1006.593	6683.06
1006.947	8995.7
1007.301	6759.06
1007.655	7372.13
1008.008	5422.3
1008.362	6084.62
1008.715	8710.36
1009.069	7911.8
1009.422	11918.78
1009.776	23831.64
1010.129	15751.22
1010.482	13141.5
1010.835	11049.71
1011.188	23005.16
1011.541	21683.39
1011.894	-133057.28
1012.247	392214.87
1012.6	26450.27
1012.952	16722.81
1013.305	8600.82
1013.657	6242.06
1014.01	5903.34
1014.362	4875.81
1014.715	4334.15
1015.067	3777.48
1015.419	3702.74
1015.771	3255.91
1016.123	2903.86
1016.475	3004.9
1016.827	3195.06
1017.179	3436.27
1017.531	3441.36
1017.883	3529.73
1018.234	3429.72
1018.586	4324.68
1018.938	4589.88
1019.289	6313.92
1019.64	7239.71
1019.992	6699.27
1020.343	6129.98
1020.694	4850.21
1021.045	4305.8
1021.396	4926.47
1021.747	5269.69
1022.098	6299.74
1022.449	4567.34
1022.8	4218.39
1023.151	2945.06
1023.501	2607.22
1023.852	2838.64
1024.202	2935.71
1024.553	3220.94
1024.903	3155.53
1025.253	2702.1
1025.604	2434.42
1025.954	3028.38
1026.304	3713.26
1026.654	4361.59
1027.004	6366.67
1027.354	10352.24
1027.703	9843.64
1028.053	13039.08
1028.403	18931.24
1028.753	27171.89
1029.102	36984.42
1029.452	190296.78
1029.801	8182.96
1030.15	5285.8
1030.499	4453.64
897.758	2235.01
901.051	2171.53
904.343	2205.46
907.636	2211.31
910.928	2275.07
914.22	2193.63
917.511	2196.96
920.803	2245.58
924.094	2245.84
927.384	2247.85
930.675	2209.54
933.965	2173.13
937.255	2201.26
940.544	2167.47
943.834	2169.54
947.123	2107.21
950.411	2196.2
953.7	2177.5
956.988	2161.36
960.276	2097.6
963.563	2149.49
966.851	2159.07
970.138	2200.87
973.424	2199.54
976.711	2155.91
979.997	2202.45
983.283	2245.74
986.568	2174.21
989.853	2169.25
993.138	2194.85
996.423	2279.97
999.708	2234.03
1002.992	2264.97
1006.275	2178.14
1009.559	2188.07
1012.842	2283.7
1016.125	2234.87
1019.408	2214.28
1022.69	2274.04
1025.972	2303.36
1029.254	2280.07
1032.536	2237.38
1035.817	2251.46
1039.098	2219.73
1042.379	2275.32
1045.659	2298.72
1048.939	2250.16
1052.219	2258.19
1055.498	2254.31
1058.778	2248.29
1062.057	2225.85
1065.335	2247.32
1068.614	2258.71
1071.892	2252.24
1075.17	2307.81
1078.447	2308.3
1081.724	2302.98
1085.001	2327.95
1088.278	2308.91
1091.554	2314.94
1094.83	2310.75
1098.106	2345.05
1101.382	2376.07
1104.657	2376.39
1107.932	2377.13
1111.206	2352.66
1114.481	2307.63
1117.755	2308.46
1121.029	2299.61
1124.302	2356.05
1127.575	2321.52
1130.848	2317.19
1134.121	2284.74
1137.393	2247.58
1140.665	2305.85
1143.937	2280.7
1147.208	2233.42
1150.48	2286.25
1153.75	2275.75
1157.021	2280.17
1160.291	2255.16
1163.561	2306.02
1166.831	2276.62
1170.101	2304.84
1173.37	2267.28
1176.639	2224.35
1179.907	2270.75
1183.176	2290.45
1186.444	2295.52
1189.711	2319.51
1192.979	2339.2
1196.246	2298.52
1199.513	2312.82
1202.78	2315.94
1206.046	2325.38
1209.312	2352.36
1212.578	2370.63
1215.843	2336.66
1219.108	2304.95
1222.373	2325.56
1225.638	2298.46
1228.902	2291.77
1232.166	2248.4
1235.43	2235.29
1238.693	2262.94
1241.956	2254.93
1245.219	2299.32
1248.482	2284.31
1251.744	2282.09
1255.006	2410.14
1258.268	2357.27
1261.529	2311.4
1264.79	2314.98
1268.051	2413.48
1271.312	2422.67
1274.572	2390.3
1277.832	2379.41
1281.092	2362.85
1284.351	2350.72
1287.61	2334.85
1290.869	2266.49
1294.128	2262.77
1297.386	2315.34
1300.644	2306.29
1303.902	2315.36
1307.159	2185.7
1310.416	2237.79
1313.673	2263.71
1316.93	2261.24
1320.186	2293.97
1323.442	2327.85
1326.697	2325.76
1329.953	2302.64
1333.208	2337.58
1336.463	2310.91
1339.717	2270.39
1342.972	2380.02
1346.226	2352.16
1349.479	2300.59
1352.733	2279.05
1355.986	2287.86
1359.238	2269.57
1362.491	2273.77
1365.743	2274.08
1368.995	2267.34
1372.247	2281.44
1375.498	2301.33
1378.749	2337.86
1382	2291.67
1385.251	2327.62
1388.501	2281.08
1391.751	2279.24
1395	2246.89
1398.25	2274.85
1401.499	2294.83
1404.748	2240.21
1407.996	2219.87
1411.244	2209.17
1414.492	2194.45
1417.74	2177.11
1420.987	2185.64
1424.234	2245.42
1427.481	2209.81
1430.728	2266.93
1433.974	2239.87
1437.22	2241.96
1440.465	2238.46
1443.711	2232.51
1446.956	2257.66
1450.201	2231.86
1453.445	2273.5
1456.689	2259.71
1459.933	2271.72
1463.177	2308.99
1466.42	2281.01
1469.663	2263.29
1472.906	2274.55
1476.148	2325.82
1479.391	2305.43
1482.633	2278.62
1485.874	2300.81
1489.115	2304.33
1492.356	2292.58
1495.597	2269.86
1498.838	2264.02
1502.078	2246.89
1505.318	2218.52
1508.557	2251.72
1511.797	2246.7
1515.036	2283.84
1518.274	2260.67
1521.513	2215.57
1524.751	2229.64
1527.989	2248.52
1531.227	2265.71
1534.464	2276.19
1537.701	2273.2
1540.938	2287.45
1544.174	2237.16
1547.41	2227.22
1550.646	2266.52
1553.882	2311.51
1557.117	2369.48
1560.352	2374.84
1563.587	2337.13
1566.821	2303.37
1570.055	2320.28
1573.289	2302.74
1576.523	2359.9
1579.756	2374.56
1582.989	2393.27
1586.222	2353.95
1589.454	2383.88
1592.686	2366.09
1595.918	2394.33
1599.15	2391.53
1602.381	2439.54
1605.612	2420.32
1608.843	2509.35
1612.073	2432.07
1615.303	2419.83
1618.533	2418.19
1621.762	2415.82
1624.992	2395.09
1628.221	2392.41
1631.449	2381.68
1634.678	2414.49
1637.906	2379.9
1641.134	2406.72
1644.361	2371.5
1647.588	2361.95
1650.815	2381.4
1654.042	2350.62
1657.269	2378.77
1660.495	2352.06
1663.72	2345.89
1666.946	2312.57
1670.171	2280.06
1673.396	2257.08
1676.621	2237.95
1679.845	2241.35
1683.069	2251.51
1686.293	2281.43
1689.517	2267.64
1692.74	2218.5
1695.963	2239.48
1699.185	2273.9
1702.408	2250.46
1705.63	2280.17
1708.852	2296.91
1712.073	2273.02
1715.294	2277.66
1718.515	2321.77
1721.736	2281.23
1724.956	2264.73
1728.176	2286.12
1731.396	2309.58
1734.616	2297.45
1737.835	2332.07
1741.054	2304.82
1744.272	2295.48
1747.491	2332.68
1750.709	2359.08
1753.927	2303.13
1757.144	2330.8
1760.361	2383.49
1763.578	2361.16
1766.795	2311.64
1770.011	2302.74
1773.227	2329.24
1776.443	2369.99
1779.658	2412.14
1782.874	2353.39
1786.089	2344.7
1789.303	2346.39
1792.518	2345.59
1795.732	2331.52
1798.945	2345.55
1802.159	2387.27
1805.372	2323.92
1808.585	2315.85
1811.797	2317.08
1815.01	2345.37
1818.222	2364.29
1821.434	2327.43
1824.645	2371.95
1827.856	2375.2
1831.067	2408.63
1834.278	2350.06
1837.488	2332.88
1840.698	2458.71
1843.908	2400.91
1847.117	2367.93
1850.326	2286.23
1853.535	2352.31
1856.744	2383.7
1859.952	2309.8
1863.16	2312.03
1866.368	2327.95
1869.575	2439.69
1872.782	2326.34
1875.989	2260.2
1879.196	2313.6
1882.402	2305.64
1885.608	2340.43
1888.814	2277.03
1892.019	2186.77
1895.224	2233.72
1898.429	2203.13
1901.634	2186.16
1904.838	2160.27
1908.042	2215.65
1911.246	2228.11
1914.449	2186.82
1917.652	2173.57
1920.855	2154.36
1924.058	2183.42
1927.26	2226.21
1930.462	2251
1933.664	2289.3
1936.865	2230.13
1940.066	2247.35
1943.267	2192.22
1946.467	2201.2
1949.668	2220.05
1952.868	2290.1
1956.067	2278.53
1959.267	2220.38
1962.466	2243.95
1965.665	2226.1
1968.863	2217.89
1972.061	2225.15
1975.259	2219.37
1978.457	2292.62
1981.654	2256.16
1984.852	2259.84
1988.048	2209.09
1991.245	2198.73
1994.441	2282.69
1997.637	2246.59
2000.833	2227.68
2004.028	2266.09
2007.223	2325.99
2010.418	2311.3
2013.613	2265.82
2016.807	2256.55
2020.001	2251.54
2023.194	2274.1
2026.388	2258.35
2029.581	2203.64
2032.774	2263.95
2035.966	2274.78
2039.158	2218.01
2042.35	2236.19
2045.542	2164.69
2048.733	2247.21
2051.924	2245.24
2055.115	2262.4
2058.306	2227.15
2061.496	2282.35
2064.686	2332.46
2067.875	2240.21
2071.065	2246.02
2074.254	2265.55
2077.442	2221.13
2080.631	2303.26
2083.819	2230.98
2087.007	2220.27
2090.195	2205.3
2093.382	2222.08
2096.569	2205.71
2099.756	2167.98
2102.942	2212.2
2106.128	2222.93
2109.314	2212.9
2112.5	2195.97
2115.685	2167.12
2118.87	2175
2122.055	2237.43
2125.239	2214.61
2128.424	2200.57
2131.608	2264.64
2134.791	2249.67
2137.974	2288.74
2141.157	2276.7
2144.34	2245.46
2147.523	2238.29
2150.705	2261.05
2153.887	2231.34
2157.068	2199.68
2160.25	2185.89
2163.431	2209.46
2166.611	2176.71
2169.792	2195.86
2172.972	2107.85
2176.152	2162.72
2179.331	2190.58
2182.511	2191.41
2185.69	2212.52
2188.868	2216.97
2192.047	2253.5
2195.225	2264.75
2198.403	2215.83
2201.58	2203.44
2204.758	2192.92
2207.935	2265.26
2211.111	2179.76
2214.288	2168.2
2217.464	2201.56
2220.64	2163.31
2223.815	2211.74
2226.991	2144.12
2230.166	2160.78
2233.34	2203.32
2236.515	2216.53
2239.689	2279.58
2242.863	2230.97
2246.036	2284.1
2249.209	2267.91
2252.382	2290.76
2255.555	2295.66
2258.727	2244.7
2261.9	2275.03
2265.071	2266.38
2268.243	2261.38
2271.414	2211.08
2274.585	2190.41
2277.756	2250.83
2280.926	2207.11
2284.096	2239.44
2287.266	2166.27
2290.436	2211.78
2293.605	2232.75
2296.774	2267.17
2299.942	2275.26
2303.111	2292.18
2306.279	2342.1
2309.447	2327.76
2312.614	2299.24
2315.781	2323.86
2318.948	2300.36
2322.115	2337.22
2325.281	2239.65
2328.447	2248.21
2331.613	2220.63
2334.779	2208.63
2337.944	2205.11
2341.109	2206.51
2344.274	2196.1
2347.438	2163.83
2350.602	2184.1
2353.766	2194.13
2356.929	2182.31
2360.092	2220.95
2363.255	2189.62
2366.418	2151.91
2369.58	2223.28
2372.742	2090.73
2375.904	2086.17
2379.066	2069.93
2382.227	2099.02
2385.388	2061.5
2388.548	2008.59
2391.709	2052.42
2394.869	2040.34
2398.029	2098.67
2401.188	2097.97
2404.347	2057.24
2407.506	2142.15
2410.665	2178.69
2413.823	2168.19
2416.981	2143.8
2420.139	2160.27
2423.296	2204.48
2426.453	2176.07
2429.61	2195.75
2432.767	2163.34
2435.923	2202.71
2439.079	2153.32
2442.235	2188.32
2445.391	2128.64
2448.546	2169.31
2451.701	2203.73
2454.855	2198.83
2458.009	2226.44
2461.163	2220.08
2464.317	2189.76
2467.471	2217.04
2470.624	2245.42
2473.777	2234.2
2476.929	2248.64
2480.082	2275.18
2483.234	2246
2486.385	2189.99
2489.537	2182.81
2492.688	2172.29
2495.839	2185.15
2498.989	2202.45
2502.14	2188.57
2505.29	2179.27
2508.439	2202.86
2511.589	2142.76
2514.738	2142.77
2517.887	2167.52
2521.035	2241.56
2524.183	2204.84
2527.331	2190.2
2530.479	2184.43
2533.627	2185.75
