Data from C_1_DIV_IL_4N_Splice17_11-59-08-272.txt Node
Date: Sat Mar 14 11:59:08 EDT 2020
User: sa697716
Spectrometer: FLMS03696
Trigger mode: 0
Integration Time (sec): 3.180400E-1
Scans to average: 20
Electric dark correction enabled: true
Nonlinearity correction enabled: true
Boxcar width: 5
XAxis mode: Wavelengths
Number of Pixels in Spectrum: 2048
>>>>>Begin Spectral Data<<<<<
187.83	-285802.67
188.298	2133.55
188.766	1141.74
189.233	1026.83
189.701	1435.72
190.169	1928.95
190.636	656.51
191.104	495.86
191.571	24.68
192.039	-109.5
192.506	-162.8
192.974	226.87
193.441	-361.1
193.908	-77.38
194.375	-3.11
194.842	21.14
195.31	-12.6
195.777	97.79
196.244	304.05
196.711	376.74
197.177	480.87
197.644	679.33
198.111	1189.81
198.578	1700.17
199.045	1406.05
199.511	2283.43
199.978	2679.11
200.445	2305.72
200.911	2531.75
201.378	2807.12
201.844	2547.29
202.31	4322.1
202.777	4512.06
203.243	2513.49
203.709	2399.78
204.176	2819.38
204.642	2333.47
205.108	2178.68
205.574	1774.6
206.04	1610.06
206.506	1508.96
206.972	1423.7
207.438	1377.97
207.903	1579.34
208.369	1377.14
208.835	1377.44
209.301	1446.67
209.766	1489.78
210.232	1477.24
210.697	1819.91
211.163	2255.38
211.628	3409.59
212.094	2866.99
212.559	3535.28
213.024	2183.74
213.49	2671.87
213.955	2592.78
214.42	2539.74
214.885	2339.62
215.35	2220.45
215.815	2139.49
216.28	2270.25
216.745	1835.46
217.21	1991.88
217.675	1825.75
218.14	2057.76
218.604	2311.38
219.069	2641.86
219.534	2786.05
219.998	3248.09
220.463	3954.23
220.927	4876.98
221.392	4598.89
221.856	4678.62
222.32	5885.5
222.785	7285.43
223.249	9197.45
223.713	10273.45
224.177	10304.46
224.642	13242.77
225.106	16321.76
225.57	17862.31
226.034	13325.84
226.497	20337.55
226.961	18393.81
227.425	21468.49
227.889	23840.91
228.353	23873.56
228.816	49229.59
229.28	47114.19
229.744	39707.04
230.207	24113.77
230.671	23754.72
231.134	39291.77
231.597	45265.54
232.061	45302.66
232.524	44164.69
232.987	30465.98
233.45	27439.04
233.914	24642.2
234.377	25277.64
234.84	23131.64
235.303	27310.65
235.766	30508.41
236.229	31504.14
236.691	19868.99
237.154	22339.87
237.617	16819.21
238.08	17187.83
238.542	20123.54
239.005	14410.19
239.468	14299.93
239.93	13492.89
240.393	12274.35
240.855	10774.93
241.317	11056.76
241.78	13456.29
242.242	13912.49
242.704	15045.97
243.166	13123.09
243.629	11924.28
244.091	13741.56
244.553	15070.87
245.015	16204.07
245.477	20983.88
245.939	30765.9
246.4	32656.9
246.862	31753.09
247.324	29962.77
247.786	33546.28
248.247	44024.33
248.709	45469.66
249.17	34031.71
249.632	32101.38
250.093	37231.86
250.555	32161.88
251.016	19664.02
251.477	18667.69
251.939	20167.72
252.4	21158.13
252.861	25178.18
253.322	23447.93
253.783	27929.24
254.244	36273.76
254.705	28619.17
255.166	25507.75
255.627	25139.7
256.088	35441.27
256.549	37665.18
257.009	32472.2
257.47	39448.26
257.931	32111.54
258.391	24036.38
258.852	24781.29
259.312	25979.02
259.773	32115.43
260.233	27135.53
260.694	22909.04
261.154	25991.28
261.614	20886.12
262.074	18687.98
262.534	19452.96
262.994	18347.38
263.455	24472.07
263.915	20635.61
264.374	19446.84
264.834	21243.39
265.294	23564.86
265.754	24412.18
266.214	23138.34
266.673	21692.73
267.133	27399.29
267.593	27175.3
268.052	33304.12
268.512	29049.51
268.971	35088.58
269.431	38552.14
269.89	34552.74
270.349	51811.94
270.809	57812.41
271.268	51975.3
271.727	116654.11
272.186	75583.4
272.645	56702.11
273.104	40948.56
273.563	59248.1
274.022	46603.08
274.481	39602.31
274.94	30502.48
275.399	22685.53
275.857	26465.79
276.316	35816.91
276.775	31888.72
277.233	31448.94
277.692	29470.25
278.15	33346.83
278.609	34349.16
279.067	31822.9
279.525	29601.8
279.984	38253.87
280.442	45997.24
280.9	45257.01
281.358	29806.62
281.816	27801.08
282.274	27198.54
282.732	28095.52
283.19	28202.36
283.648	24322.88
284.106	25861.75
284.564	26297.33
285.021	24390.92
285.479	18159.92
285.937	16538.17
286.394	14492.3
286.852	14912.78
287.309	15668.43
287.767	15134.67
288.224	14396.79
288.682	15782.19
289.139	17316.61
289.596	15840.79
290.053	16466.81
290.511	20819.7
290.968	25259.53
291.425	34336.08
291.882	28554.52
292.339	24827.76
292.796	24657.31
293.252	23261.02
293.709	18486.91
294.166	16605.84
294.623	18361.9
295.079	17611.6
295.536	17685.06
295.992	16070.6
296.449	15882.54
296.905	16519.05
297.362	15867.09
297.818	16676.37
298.274	17295.72
298.731	17624.99
299.187	17427.73
299.643	18707.61
300.099	22600.42
300.555	24793.54
301.011	20672.25
301.467	19914.43
301.923	23273.54
302.379	22720.45
302.835	22349.57
303.291	22375
303.746	25454.54
304.202	32155.83
304.658	32267.72
305.113	21760.45
305.569	21315.95
306.024	22767.75
306.479	21697.27
306.935	18307.14
307.39	19992.41
307.845	18429.41
308.301	18516.22
308.756	18062.19
309.211	17394.85
309.666	17822.68
310.121	22080.41
310.576	22397.67
311.031	22188.14
311.486	25374.79
311.94	25297.47
312.395	33801.59
312.85	63408.19
313.305	311348.05
313.759	1610021.6
314.214	116471.72
314.668	92282.39
315.123	77535.16
315.577	27790.03
316.032	24726.19
316.486	30991.23
316.94	24529.15
317.394	17077.41
317.849	13286.49
318.303	12590.19
318.757	11883.92
319.211	13159.59
319.665	11516.74
320.119	11663.37
320.572	16726.76
321.026	15614.97
321.48	12986.34
321.934	14162.38
322.387	14177
322.841	15338.42
323.295	13792.2
323.748	15878.16
324.202	16095.87
324.655	19335.55
325.108	27056.83
325.562	19130.4
326.015	22764.33
326.468	17206.37
326.921	19223.38
327.374	17960.71
327.827	18668.51
328.28	21115.78
328.733	14165.22
329.186	12451.99
329.639	11864.09
330.092	9986.6
330.545	9508.71
330.997	9575.74
331.45	10490.85
331.903	12288.33
332.355	21119.71
332.808	20522.37
333.26	16943.51
333.713	18388.66
334.165	18526.29
334.617	24726.75
335.069	19973.89
335.522	36098.91
335.974	39968.02
336.426	36446.78
336.878	25265.28
337.33	12800.35
337.782	12529.76
338.234	15695.68
338.686	18762.5
339.137	22230.41
339.589	20933.4
340.041	16424.52
340.493	14132.44
340.944	14486.51
341.396	15622.06
341.847	13129.15
342.299	15501.17
342.75	18906.92
343.201	16492.77
343.653	18957.82
344.104	23274.32
344.555	18327.29
345.006	28542.21
345.457	21847.28
345.908	17340.97
346.359	16327.82
346.81	13308.99
347.261	14041.47
347.712	13817.93
348.163	14827.03
348.613	15039.16
349.064	14073.82
349.515	12314.18
349.965	12613.97
350.416	15177.07
350.866	16668.84
351.317	18816.5
351.767	31169.17
352.217	39342.7
352.668	32744.12
353.118	30026.96
353.568	28929.41
354.018	22847.57
354.468	24127.78
354.918	17316.39
355.368	15165.32
355.818	21445.69
356.268	61754.04
356.718	257811.66
357.168	64309.16
357.617	32201.04
358.067	35892.1
358.517	33627.14
358.966	39474.85
359.416	44231.4
359.865	47887.12
360.315	57037.26
360.764	26649.57
361.213	14916.7
361.663	14151.24
362.112	17425.63
362.561	28189.75
363.01	21223.55
363.459	17890.29
363.908	19385.9
364.357	16492.67
364.806	27883.12
365.255	19213
365.703	17660.51
366.152	17729.16
366.601	14452.83
367.05	11778.1
367.498	10737.68
367.947	11256.7
368.395	11722.87
368.844	10417.48
369.292	12613.28
369.74	8751.42
370.189	13420.08
370.637	15754.4
371.085	13667.4
371.533	16666.2
371.981	16141.76
372.429	15444.73
372.877	16183.14
373.325	13628.95
373.773	13933.44
374.221	12473.43
374.669	15535.45
375.116	13512.74
375.564	13694.85
376.012	15372.58
376.459	12757.14
376.907	15328.63
377.354	18633.61
377.801	17476.19
378.249	20177.12
378.696	25936.61
379.143	31590.57
379.591	33903.3
380.038	57803.12
380.485	42029
380.932	45708.48
381.379	42088.11
381.826	31186.39
382.273	22321.58
382.72	19631.84
383.166	19279.21
383.613	12600.42
384.06	11431.9
384.506	13303.87
384.953	9822.33
385.4	9955.82
385.846	8775.89
386.292	8597.09
386.739	8464.89
387.185	8415.29
387.631	8456.18
388.078	8231.54
388.524	8848.15
388.97	8198.6
389.416	6865.75
389.862	7321.13
390.308	6962.98
390.754	7082.6
391.2	7725.41
391.645	7929.16
392.091	7606.22
392.537	7373.67
392.983	7413.86
393.428	7309
393.874	7871.44
394.319	7919.27
394.765	7548.39
395.21	7804.79
395.655	7351.89
396.101	6924.63
396.546	6288.43
396.991	6392.62
397.436	5986.16
397.881	5829.8
398.326	5565.89
398.771	5291.66
399.216	4664.57
399.661	4224.42
400.106	4229.13
400.551	4360.96
400.995	3921.63
401.44	3892.77
401.885	3662.96
402.329	3703.44
402.774	3553.7
403.218	3440.83
403.663	3322.25
404.107	3418.91
404.551	3453.14
404.995	3175.58
405.44	3064.99
405.884	3127.52
406.328	3032.14
406.772	3032.09
407.216	2766.64
407.66	2681.74
408.104	2557.13
408.547	2402.34
408.991	2333.3
409.435	2249.39
409.879	2217.75
410.322	2193.96
410.766	2119.23
411.209	2019.69
411.653	1944.46
412.096	1909.28
412.54	1918.01
412.983	1911.31
413.426	1918.91
413.869	1921.84
414.312	1889.41
414.756	1826.1
415.199	1746.25
415.642	1697.23
416.085	1703.17
416.527	1693.28
416.97	1723.05
417.413	1633.35
417.856	1617.68
418.298	1599.62
418.741	1586.59
419.184	1583.46
419.626	1649.64
420.069	1646.95
420.511	1655.43
420.953	1618.42
421.396	1603.35
421.838	1565.12
422.28	1604.13
422.722	1612.26
423.164	1639.88
423.606	1614.59
424.048	1617.08
424.49	1540
424.932	1534.05
425.374	1515.8
425.816	1541.99
426.258	1565.92
426.699	1573.92
427.141	1534.86
427.582	1546.23
428.024	1531.72
428.465	1522.06
428.907	1484.7
429.348	1469.43
429.789	1476.63
430.231	1447.02
430.672	1469.2
431.113	1441.16
431.554	1429.27
431.995	1411.19
432.436	1375.14
432.877	1357.3
433.318	1342.73
433.759	1342.82
434.2	1348.55
434.64	1337.93
435.081	1346.25
435.522	1279.71
435.962	1239.88
436.403	1220.58
436.843	1245.04
437.284	1224.09
437.724	1194.87
438.164	1201.46
438.604	1179.43
439.045	1136.57
439.485	1091.26
439.925	1074.02
440.365	1053.39
440.805	1044.64
441.245	1033.47
441.685	996.96
442.125	992.23
442.564	1000.96
443.004	978.17
443.444	975.4
443.883	978.08
444.323	974.24
444.762	979.28
445.202	996.61
445.641	1013.19
446.081	1011.18
446.52	1020.68
446.959	1012.46
447.398	989.86
447.837	981.68
448.276	966.9
448.716	979.38
449.154	989.86
449.593	965.15
450.032	959.19
450.471	939.72
450.91	938.1
451.349	934.42
451.787	928.27
452.226	939.45
452.664	937.45
453.103	938.25
453.541	934.58
453.98	930.67
454.418	936.45
454.856	920.36
455.295	920.3
455.733	925.27
456.171	928.6
456.609	928.84
457.047	928.65
457.485	941.66
457.923	940.58
458.361	926.55
458.798	927.9
459.236	925.93
459.674	933.21
460.111	937.28
460.549	930.37
460.987	929.1
461.424	927.36
461.862	922.31
462.299	909.53
462.736	909.39
463.173	914.47
463.611	904.8
464.048	901.86
464.485	909.29
464.922	902.75
465.359	901.48
465.796	886.2
466.233	880.79
466.67	875.29
467.106	873.84
467.543	868.88
467.98	860.56
468.416	843.39
468.853	841.25
469.29	820.34
469.726	815.06
470.162	795.2
470.599	791.73
471.035	788.56
471.471	773.46
471.907	772.79
472.344	771.41
472.78	774.96
473.216	785.94
473.652	776.79
474.088	775.15
474.523	772.86
474.959	781.4
475.395	775.4
475.831	769.42
476.266	772.76
476.702	770.11
477.138	760.49
477.573	756.6
478.008	752.23
478.444	755.1
478.879	761.45
479.314	762.26
479.75	759.26
480.185	760.76
480.62	766.79
481.055	768.28
481.49	770.76
481.925	779.01
482.36	786.13
482.795	801.35
483.229	814.7
483.664	823.61
484.099	820.87
484.534	827.87
484.968	830.21
485.403	828.99
485.837	824.7
486.271	820.86
486.706	820.14
487.14	812.91
487.574	802.14
488.009	797.03
488.443	791.89
488.877	800.27
489.311	802.03
489.745	811.59
490.179	817.09
490.613	830.9
491.046	837.17
491.48	841.34
491.914	841.33
492.348	847.27
492.781	851.99
493.215	853.72
493.648	856.59
494.082	864.19
494.515	864.46
494.948	873.51
495.382	878.76
495.815	881.98
496.248	887.41
496.681	901.17
497.114	912.35
497.547	921.98
497.98	934.52
498.413	938.38
498.846	946.9
499.279	955.49
499.711	959.24
500.144	960.8
500.577	971.56
501.009	983
501.442	992.91
501.874	993.27
502.306	996.15
502.739	1005.76
503.171	1023.69
503.603	1027.62
504.036	1038.02
504.468	1043.97
504.9	1055.07
505.332	1063.31
505.764	1067.93
506.196	1075.87
506.627	1091.81
507.059	1105.44
507.491	1113.84
507.923	1109.48
508.354	1125.87
508.786	1137.43
509.217	1156.89
509.649	1172.9
510.08	1192.47
510.512	1209.29
510.943	1223.49
511.374	1233.57
511.805	1254.1
512.237	1273.75
512.668	1308.56
513.099	1335.46
513.53	1360.62
513.961	1377.18
514.391	1407.38
514.822	1438.75
515.253	1472.25
515.684	1494.88
516.114	1523.65
516.545	1542.81
516.975	1568.21
517.406	1584.56
517.836	1585.21
518.267	1591.42
518.697	1612.23
519.127	1616.88
519.558	1624.31
519.988	1628.13
520.418	1639.76
520.848	1658.31
521.278	1666.66
521.708	1677.84
522.138	1689.49
522.567	1720.9
522.997	1745.03
523.427	1756.99
523.857	1769.79
524.286	1776.11
524.716	1789.34
525.145	1806.72
525.575	1816.05
526.004	1829.38
526.433	1823.79
526.863	1819.91
527.292	1807.72
527.721	1813.35
528.15	1819.79
528.579	1821.35
529.008	1833.61
529.437	1856.5
529.866	1868.98
530.295	1884.66
530.724	1895.17
531.152	1922.03
531.581	1934.96
532.01	1951.22
532.438	1957.43
532.867	1971.03
533.295	1989.32
533.723	1993.21
534.152	1990.18
534.58	1989.27
535.008	1970.78
535.436	1971.44
535.865	1978.65
536.293	1994.2
536.721	2008.82
537.149	2033.65
537.576	2033.72
538.004	2045.77
538.432	2054.01
538.86	2051.45
539.287	2057.83
539.715	2072.2
540.143	2074.46
540.57	2072.14
540.998	2068.82
541.425	2044.68
541.852	2023.21
542.28	2022.36
542.707	2005.41
543.134	1990.77
543.561	1986.59
543.988	1978.5
544.415	1978.06
544.842	1971.78
545.269	1962.23
545.696	1962.77
546.123	1977
546.549	1966.32
546.976	1952.31
547.403	1951.63
547.829	1954.47
548.256	1956.64
548.682	1952.96
549.108	1945.21
549.535	1945.49
549.961	1947.43
550.387	1933.46
550.813	1926.71
551.24	1932.02
551.666	1933.88
552.092	1923.22
552.518	1914.78
552.943	1907.19
553.369	1914.44
553.795	1918.44
554.221	1918.92
554.646	1914.55
555.072	1924.41
555.498	1927.94
555.923	1935.91
556.349	1949.83
556.774	1957.34
557.199	1957.26
557.625	1962.86
558.05	1954.93
558.475	1966.2
558.9	1963.25
559.325	1953.85
559.75	1947.48
560.175	1940.69
560.6	1934.47
561.025	1931.47
561.449	1933.23
561.874	1939.4
562.299	1942.99
562.723	1949.81
563.148	1937.45
563.572	1941.19
563.997	1952.17
564.421	1956.76
564.846	1957.36
565.27	1960.61
565.694	1958.16
566.118	1969.4
566.542	1975.92
566.966	1968.36
567.39	1961.6
567.814	1949.72
568.238	1949.63
568.662	1954.51
569.086	1955.74
569.509	1963.8
569.933	1948.78
570.357	1941.84
570.78	1920.54
571.204	1908.43
571.627	1897.83
572.05	1899
572.474	1900.08
572.897	1887.69
573.32	1880.47
573.743	1873.03
574.166	1853.18
574.589	1853.73
575.012	1845.08
575.435	1844.46
575.858	1833.85
576.281	1823.89
576.704	1806.87
577.126	1794.68
577.549	1782.97
577.972	1773.07
578.394	1761.58
578.817	1755.04
579.239	1735.11
579.661	1721.79
580.084	1704.28
580.506	1690.62
580.928	1686.87
581.35	1676.3
581.772	1672.97
582.194	1659.44
582.616	1645.88
583.038	1630.74
583.46	1619.19
583.882	1615.42
584.303	1620.27
584.725	1616.28
585.147	1616.82
585.568	1624.99
585.99	1634.07
586.411	1636.72
586.833	1647.37
587.254	1644.62
587.675	1656.92
588.096	1668.11
588.518	1658.74
588.939	1637.62
589.36	1633.44
589.781	1623.63
590.202	1593.19
590.623	1584.99
591.043	1583.3
591.464	1572.73
591.885	1570.12
592.305	1564.44
592.726	1549.65
593.147	1553.7
593.567	1549.11
593.987	1541.54
594.408	1535.54
594.828	1534.25
595.248	1528.12
595.669	1509.04
596.089	1501.47
596.509	1494.69
596.929	1481.92
597.349	1483.42
597.769	1471.04
598.189	1464.15
598.608	1464.23
599.028	1465.36
599.448	1464.5
599.867	1451.25
600.287	1447.4
600.706	1443.63
601.126	1433.66
601.545	1431.16
601.965	1429.79
602.384	1425.29
602.803	1428.31
603.222	1424.13
603.641	1417.08
604.061	1414
604.48	1409.48
604.898	1416.31
605.317	1420.51
605.736	1422.11
606.155	1418.47
606.574	1407.08
606.992	1411.25
607.411	1405.16
607.829	1395.24
608.248	1391.45
608.666	1387.58
609.085	1386.86
609.503	1377.54
609.921	1369.63
610.339	1371.22
610.758	1370.53
611.176	1366.16
611.594	1356.19
612.012	1352.19
612.43	1354.74
612.847	1359.68
613.265	1360
613.683	1362.62
614.101	1364.23
614.518	1360.16
614.936	1349.06
615.353	1333.38
615.771	1328.88
616.188	1327.55
616.606	1323.76
617.023	1315.9
617.44	1302.5
617.857	1294.67
618.274	1285.53
618.691	1278.56
619.108	1267.76
619.525	1261.12
619.942	1267.55
620.359	1269.67
620.776	1264.52
621.192	1259.69
621.609	1257.62
622.026	1262.15
622.442	1267.87
622.859	1271.51
623.275	1262.75
623.691	1268.94
624.108	1280.1
624.524	1291.56
624.94	1290.54
625.356	1299.64
625.772	1312.14
626.188	1322.4
626.604	1324.56
627.02	1319.87
627.436	1316.74
627.852	1322.05
628.268	1334.06
628.683	1324
629.099	1315.73
629.514	1311
629.93	1313.87
630.345	1317.38
630.761	1313.48
631.176	1315.83
631.591	1309.18
632.007	1302.14
632.422	1301.36
632.837	1289.34
633.252	1286.46
633.667	1275.83
634.082	1267.49
634.497	1255.73
634.911	1236.44
635.326	1232.82
635.741	1216.53
636.155	1206.01
636.57	1208.08
636.984	1206.95
637.399	1207.83
637.813	1207.08
638.228	1207.84
638.642	1210.44
639.056	1199.14
639.47	1199.14
639.884	1190.36
640.298	1183.24
640.712	1183.26
641.126	1170.45
641.54	1161.68
641.954	1156.55
642.368	1144.27
642.781	1133.92
643.195	1116.62
643.609	1117.05
644.022	1110.93
644.436	1106.38
644.849	1093.9
645.262	1080.27
645.676	1081.11
646.089	1075.31
646.502	1059.42
646.915	1053.54
647.328	1037.3
647.741	1035.14
648.154	1022.92
648.567	1019.53
648.98	1006.49
649.393	1006.26
649.805	1003.19
650.218	996.19
650.631	980.99
651.043	975.47
651.456	969.31
651.868	969.56
652.28	984.91
652.693	995.03
653.105	997.85
653.517	1004.51
653.929	1001.02
654.341	1004.08
654.753	990.21
655.165	994.54
655.577	990.34
655.989	986.14
656.401	978.31
656.813	943.94
657.224	926.24
657.636	901.63
658.047	885.6
658.459	870.32
658.87	863.54
659.282	853.75
659.693	834.37
660.104	820.52
660.515	806.35
660.926	803.79
661.338	801.32
661.749	794.77
662.159	784.79
662.57	780.7
662.981	775.23
663.392	767.1
663.803	768.14
664.213	766.44
664.624	761.13
665.035	763.36
665.445	749.69
665.855	742.49
666.266	734.34
666.676	731.58
667.086	722.68
667.497	721.42
667.907	716.53
668.317	708.15
668.727	703.1
669.137	702.77
669.547	699.52
669.956	701.46
670.366	701.25
670.776	702.12
671.186	704.23
671.595	705.86
672.005	708.51
672.414	704.87
672.824	702.88
673.233	706.62
673.642	708.99
674.052	711.98
674.461	713.72
674.87	717.8
675.279	715.69
675.688	716.88
676.097	716.7
676.506	712.52
676.915	725.6
677.323	728.31
677.732	726.44
678.141	726.22
678.549	716.37
678.958	716.17
679.366	714.17
679.775	718.11
680.183	728.11
680.592	734.59
681	739.24
681.408	733.22
681.816	739.98
682.224	747.04
682.632	754.63
683.04	781.11
683.448	801.41
683.856	829.39
684.264	857.96
684.671	884.12
685.079	915.89
685.487	953.7
685.894	1005.86
686.302	1049.31
686.709	1084.62
687.116	1127.64
687.524	1161.88
687.931	1192.09
688.338	1216.81
688.745	1240.75
689.152	1267.25
689.559	1304.96
689.966	1340.1
690.373	1358.45
690.78	1390.74
691.187	1445.47
691.593	1485.22
692	1517.7
692.407	1567.89
692.813	1632.78
693.22	1683.81
693.626	1736.3
694.032	1777.57
694.439	1842.65
694.845	1893.02
695.251	1958.02
695.657	2013.31
696.063	2097.75
696.469	2161.17
696.875	2221.25
697.281	2252.97
697.687	2292.28
698.093	2324.75
698.498	2390.55
698.904	2440.05
699.31	2515.59
699.715	2567.44
700.12	2647.46
700.526	2664.24
700.931	2726.43
701.337	2771.63
701.742	2800.25
702.147	2874.77
702.552	2901.27
702.957	2954.68
703.362	2973.57
703.767	2999.42
704.172	3037.49
704.577	2996.42
704.981	3039.62
705.386	3055.45
705.791	3048.71
706.195	3118.39
706.6	3128.5
707.004	3200.81
707.408	3173.66
707.813	3199.32
708.217	3189.43
708.621	3190.85
709.025	3278.4
709.43	3278.91
709.834	3334.58
710.237	3399.25
710.641	3385.27
711.045	3406.41
711.449	3402.64
711.853	3430.02
712.256	3468.65
712.66	3503.46
713.064	3573.92
713.467	3613.12
713.87	3712.32
714.274	3752.45
714.677	3848.84
715.08	3991.17
715.484	4137.5
715.887	4318.27
716.29	4492.58
716.693	4674.18
717.096	4886.73
717.499	5001.18
717.901	5022.38
718.304	5049.42
718.707	5071.99
719.109	4984.1
719.512	4960.81
719.915	4843.22
720.317	4794.11
720.719	4838.71
721.122	4818.45
721.524	4776.03
721.926	4740.91
722.328	4832.25
722.731	4825.78
723.133	4849.88
723.535	5022.51
723.937	5041.06
724.338	5089.8
724.74	5126.77
725.142	5065.82
725.544	5062.67
725.945	5085.88
726.347	5081.95
726.748	5076.05
727.15	5088.19
727.551	5056.1
727.952	5032.09
728.354	5007.63
728.755	5007.49
729.156	4971.21
729.557	4964.49
729.958	4857.66
730.359	4808.66
730.76	4795.5
731.161	4744.02
731.562	4723.08
731.962	4730.48
732.363	4679.13
732.763	4622.71
733.164	4657.19
733.564	4597.79
733.965	4512.52
734.365	4482.15
734.766	4512
735.166	4477.46
735.566	4428.86
735.966	4406.94
736.366	4402.33
736.766	4343.19
737.166	4370.98
737.566	4334.43
737.966	4311.48
738.365	4348.78
738.765	4344.5
739.165	4276.2
739.564	4252.87
739.964	4294.62
740.363	4252.72
740.763	4250.44
741.162	4239.41
741.561	4211.71
741.96	4172.2
742.36	4191.91
742.759	4195.19
743.158	4229.85
743.557	4242.93
743.955	4278.83
744.354	4237.66
744.753	4290.51
745.152	4251.63
745.55	4303.98
745.949	4298.54
746.348	4296.77
746.746	4311.75
747.144	4277.73
747.543	4257.87
747.941	4302.32
748.339	4237.43
748.737	4229.37
749.136	4221.32
749.534	4283.09
749.932	4256.63
750.33	4277.34
750.727	4329.65
751.125	4307.53
751.523	4290.46
751.921	4329.49
752.318	4297.23
752.716	4351.5
753.113	4365.38
753.511	4389.53
753.908	4390.64
754.305	4373.65
754.703	4429.96
755.1	4482.56
755.497	4536.91
755.894	4711.97
756.291	4869.46
756.688	5164.73
757.085	5553.68
757.482	6097.51
757.878	6682.61
758.275	7204.98
758.672	7937.87
759.068	8530.07
759.465	9382.68
759.861	10479.21
760.258	11748.5
760.654	12397.58
761.05	12285.58
761.447	11716.85
761.843	10908.73
762.239	10081.5
762.635	9720.39
763.031	9367.42
763.427	8852.54
763.822	8310.86
764.218	7776.43
764.614	7073.1
765.01	6610.46
765.405	6312.98
765.801	6090.29
766.196	5800.63
766.592	5640.9
766.987	5360.37
767.382	5175.05
767.778	5097.77
768.173	4983.1
768.568	4919.14
768.963	4810.02
769.358	4824.6
769.753	4785.46
770.148	4709.47
770.542	4709.17
770.937	4684.96
771.332	4772.01
771.726	4790.8
772.121	4734.71
772.515	4788.87
772.91	4777.77
773.304	4844.61
773.699	4788.42
774.093	4832.88
774.487	4884.68
774.881	4922.68
775.275	4919.72
775.669	4879.53
776.063	4918.84
776.457	4953.44
776.851	4881.29
777.245	4871.96
777.638	4900.47
778.032	5002.1
778.425	4969.25
778.819	5004.82
779.212	4967.45
779.606	4928.91
779.999	4944.71
780.392	4930.82
780.786	5003.82
781.179	5021.53
781.572	5061.15
781.965	5069.98
782.358	5019.16
782.751	5070.69
783.143	5027.15
783.536	5091.84
783.929	5131.48
784.322	5234.04
784.714	5260.72
785.107	5253.95
785.499	5321.22
785.891	5301.35
786.284	5284.09
786.676	5410
787.068	5391.82
787.46	5435.97
787.852	5454.34
788.245	5529
788.636	5551.27
789.028	5604.87
789.42	5641.76
789.812	5643.06
790.204	5726.54
790.595	5813.34
790.987	5635.9
791.378	5654.08
791.77	5770.3
792.161	5886.14
792.553	5933.03
792.944	5835.45
793.335	5776.05
793.726	5836.74
794.117	5917.48
794.508	6039.53
794.899	6010.43
795.29	6135.87
795.681	6186.42
796.072	6059.79
796.463	5896.7
796.853	5903.53
797.244	6043.55
797.634	6071.96
798.025	6071.38
798.415	6083.41
798.806	6158.82
799.196	6235.34
799.586	6279.09
799.976	6246.17
800.366	6446.06
800.756	6655.8
801.146	6617.93
801.536	6640.06
801.926	6701.56
802.316	6719.71
802.706	6778.9
803.095	6672.78
803.485	6761.72
803.874	6793.59
804.264	7019.09
804.653	6999.02
805.043	7126.2
805.432	7218.91
805.821	7220.96
806.21	7241.46
806.599	7344.86
806.988	7379.48
807.377	7466.22
807.766	7574.56
808.155	7825.3
808.544	7589.42
808.933	7597.88
809.321	7571.52
809.71	7830.03
810.098	7965.23
810.487	8363.77
810.875	8780.04
811.264	8795.48
811.652	9043.44
812.04	9165.34
812.428	9294.27
812.816	9950.43
813.204	10308.93
813.592	10788.23
813.98	11073.07
814.368	10988.39
814.756	11402.16
815.144	11326.03
815.531	11726.35
815.919	11656.56
816.306	11917.75
816.694	11647.55
817.081	11687.74
817.469	11981.55
817.856	11985.98
818.243	12216.58
818.63	12550.42
819.017	12188.32
819.404	12245.44
819.791	12569.92
820.178	13105.17
820.565	13322.63
820.952	14139.71
821.339	13716.72
821.725	13878.57
822.112	13220.8
822.498	13189.34
822.885	13307
823.271	13225.19
823.657	13585.82
824.044	13597.44
824.43	13662.83
824.816	13637.41
825.202	13255.1
825.588	14144.51
825.974	14153.19
826.36	14609.85
826.746	14642.76
827.132	14944.88
827.517	14920.84
827.903	14238.92
828.289	14273.52
828.674	13594.64
829.06	13511.11
829.445	13854.52
829.83	14157.12
830.216	14577.68
830.601	14891.51
830.986	14539.03
831.371	14423.79
831.756	14908.94
832.141	14537.15
832.526	14538.88
832.911	14789.86
833.295	14681.87
833.68	15096.57
834.065	14565.9
834.449	13773.6
834.834	13710.9
835.218	13702.1
835.603	14004.31
835.987	13825.37
836.371	14549.67
836.755	14461.69
837.139	14808.52
837.524	15026.04
837.908	14868.46
838.291	14915.77
838.675	14975.89
839.059	15163.49
839.443	15165.55
839.827	14961.51
840.21	15375.18
840.594	15245.05
840.977	15425.71
841.361	15407.45
841.744	15732.9
842.127	15597.63
842.511	15809.87
842.894	16326.74
843.277	16650.83
843.66	17122.45
844.043	17194.4
844.426	16493.36
844.809	16223.82
845.191	16246.13
845.574	15848.15
845.957	15522.95
846.339	15427.39
846.722	14976.15
847.104	15030.38
847.487	14880.75
847.869	14888.34
848.252	15123.36
848.634	15412.63
849.016	15648.34
849.398	15759.95
849.78	16494.53
850.162	16504.56
850.544	16864.85
850.926	17405.78
851.307	17332.97
851.689	17578.89
852.071	17962.3
852.452	18246.9
852.834	18219.81
853.215	18555.2
853.597	18679.13
853.978	18931.08
854.359	19326.06
854.741	18465.04
855.122	18381.47
855.503	18131.48
855.884	18251.01
856.265	18200.53
856.646	18299.38
857.026	17960
857.407	17909.46
857.788	18050.16
858.169	18295.32
858.549	17550.03
858.93	18091.09
859.31	18132.15
859.69	18305.69
860.071	17941.37
860.451	17756
860.831	17106.37
861.211	18107.13
861.591	18577.29
861.971	18546.59
862.351	18718.5
862.731	19056.07
863.111	19280.58
863.491	19564.01
863.87	20319.1
864.25	20627.73
864.629	20275.29
865.009	20730.07
865.388	21466.71
865.768	23006.59
866.147	22918.91
866.526	21658.89
866.905	21914.99
867.284	23139.12
867.663	21972.82
868.042	21065.41
868.421	20998.52
868.8	21351.78
869.179	21562.14
869.558	20306.41
869.936	18712.22
870.315	19044.49
870.693	19500.35
871.072	21036.07
871.45	20039.36
871.828	20288.56
872.207	21331.85
872.585	21010.95
872.963	21575.71
873.341	20838.28
873.719	20605.52
874.097	20365.49
874.475	20758.12
874.853	21233.4
875.23	20348.32
875.608	21207.32
875.986	22950.03
876.363	21942.66
876.741	22606.6
877.118	22048.36
877.495	23123.34
877.873	23504.81
878.25	24719.85
878.627	23706.29
879.004	24038.41
879.381	23907.11
879.758	23271.82
880.135	21645.98
880.512	22890.92
880.889	22276.87
881.265	22041.72
881.642	21859.08
882.019	22222.28
882.395	21774.13
882.772	22639.02
883.148	21657.34
883.524	21590.31
883.901	21460.97
884.277	21790.39
884.653	21647.17
885.029	22277.78
885.405	24662.36
885.781	24466.79
886.157	23458.91
886.532	23750.64
886.908	23736.99
887.284	26393.86
887.659	27240.83
888.035	28087.12
888.411	28822.01
888.786	29218.67
889.161	30230.73
889.537	29677.9
889.912	30631.44
890.287	30610.2
890.662	31384.29
891.037	30820.39
891.412	28729.31
891.787	28443.71
892.162	27460.03
892.536	28092.71
892.911	27032.41
893.286	26451.74
893.66	25373.62
894.035	26023.04
894.409	28313.33
894.784	27172.99
895.158	27613.43
895.532	29268.64
895.906	30062.75
896.281	30765.81
896.655	30276.41
897.029	34587.98
897.402	36019.54
897.776	40106.92
898.15	39968.64
898.524	39560.66
898.898	40095.75
899.271	44900.52
899.645	38858.55
900.018	37340.67
900.392	38717.06
900.765	39033.35
901.138	36116.79
901.511	35578.41
901.884	32661.88
902.258	30121
902.631	31124.49
903.003	35817.23
903.376	32330.45
903.749	36263.34
904.122	38789.55
904.495	42718.55
904.867	43260.37
905.24	37573.43
905.612	34969.69
905.985	35772.1
906.357	37406.52
906.729	35678.61
907.102	30471.34
907.474	29285.21
907.846	29484.56
908.218	29092.96
908.59	25704.49
908.962	24850.37
909.334	26741.3
909.705	28084.25
910.077	27269.71
910.449	28378.39
910.82	29172.64
911.192	32088.63
911.563	33357.76
911.935	35671.21
912.306	35729.67
912.677	36884.71
913.048	36528.98
913.419	39659.63
913.79	39899.66
914.161	42760.73
914.532	40851.91
914.903	37549.34
915.274	35650.59
915.645	35102.46
916.015	30893.21
916.386	29448.2
916.756	31347.84
917.127	32331.06
917.497	28882.49
917.868	31448.8
918.238	29893.94
918.608	30765.78
918.978	31425.61
919.348	33306.7
919.718	34430.38
920.088	33179.78
920.458	34467.1
920.828	36273.43
921.198	34374.39
921.567	36716.09
921.937	28427.46
922.306	28692.58
922.676	30932.08
923.045	25779.12
923.415	24489.28
923.784	22297.81
924.153	22929.33
924.522	22910.65
924.891	21534.04
925.26	23070.39
925.629	22517.71
925.998	25861.04
926.367	25245.09
926.736	24042.14
927.104	28656.61
927.473	30792.34
927.842	37181.05
928.21	36799.86
928.578	38677.17
928.947	36562.08
929.315	36808.26
929.683	43147.51
930.051	43508.15
930.42	50513
930.788	43163.79
931.156	42818.47
931.523	40156.93
931.891	37104.79
932.259	35622.11
932.627	41263.77
932.994	58340.55
933.362	48154.82
933.729	41858.67
934.097	40086.3
934.464	33931.49
934.831	39143.29
935.199	38569.62
935.566	37380.02
935.933	37858.61
936.3	45890.65
936.667	35739.58
937.034	32268.4
937.401	31943.85
937.767	27561.55
938.134	24535.7
938.501	34594.73
938.867	36923.79
939.234	62515.3
939.6	53383.18
939.967	58858.68
940.333	39400.94
940.699	33571.59
941.065	26953.11
941.431	35345.34
941.798	34072.52
942.163	44727.57
942.529	27954.16
942.895	25718.65
943.261	16621.5
943.627	21824.89
943.992	19131.45
944.358	19168.61
944.723	19245.27
945.089	18759.69
945.454	17332.09
945.82	18509.32
946.185	17773.67
946.55	20597.22
946.915	18491.42
947.28	21691.06
947.645	19068.25
948.01	17584.51
948.375	18347.98
948.74	22006.38
949.104	25658.73
949.469	37018.85
949.834	65423.34
950.198	62022.81
950.562	37157.15
950.927	30914.28
951.291	37181.43
951.655	31689.75
952.02	29778.19
952.384	22478.85
952.748	19539.88
953.112	19067.57
953.476	16583.17
953.839	15321.93
954.203	15172.48
954.567	18972.77
954.931	29850
955.294	25538.33
955.658	25683.61
956.021	43597.64
956.385	74036.33
956.748	109269.63
957.111	169423.23
957.474	190491.74
957.837	214644.27
958.2	162428.8
958.563	58410.72
958.926	39550.55
959.289	60058.18
959.652	67076.27
960.015	50375.07
960.377	72207.07
960.74	82441.32
961.102	142282.54
961.465	152705.25
961.827	81786.31
962.189	156999.09
962.552	109004.41
962.914	87412.68
963.276	56655.27
963.638	46842.24
964	46432.02
964.362	31393.57
964.724	30340.5
965.085	21655.98
965.447	17750.4
965.809	20222.5
966.17	20245.74
966.532	21865.7
966.893	20053.57
967.255	18247.45
967.616	21533.31
967.977	17222.33
968.338	18808.16
968.699	15458.1
969.061	15443.2
969.421	15546.96
969.782	17445.94
970.143	14731.28
970.504	15283.15
970.865	17363.86
971.225	17756.64
971.586	17363.26
971.946	24768.44
972.307	21512.76
972.667	28090.61
973.027	28940.98
973.388	35059.59
973.748	23861.55
974.108	26000.35
974.468	35132.63
974.828	27115.64
975.188	20878.71
975.548	19173.11
975.907	16092.81
976.267	18047.03
976.627	15188.92
976.986	15735.33
977.346	14998.73
977.705	14423.58
978.064	13118.09
978.424	10916.16
978.783	11261.47
979.142	12855.45
979.501	12311.17
979.86	13007.97
980.219	12526.12
980.578	16129.47
980.937	18057.97
981.296	16100.96
981.654	16569.78
982.013	25809.3
982.371	33486.49
982.73	31321.25
983.088	35411.52
983.447	37811.97
983.805	54069.99
984.163	112935.05
984.521	125446.83
984.879	183749.6
985.237	-298590.42
985.595	288047.06
985.953	71584.4
986.311	41397.24
986.669	24053.67
987.026	20748.96
987.384	27888.96
987.741	28835.32
988.099	20595.58
988.456	16406.23
988.814	15352.53
989.171	13354.46
989.528	13163.44
989.885	13890.39
990.242	10975.72
990.599	13653.19
990.956	11197.72
991.313	7839.85
991.67	6437.02
992.027	6832.78
992.383	6073.4
992.74	5327.38
993.096	5600.5
993.453	5796.56
993.809	6014.93
994.165	8023.22
994.522	7348.34
994.878	8082.7
995.234	10135.85
995.59	9984.55
995.946	9449.12
996.302	10792.75
996.658	12501.66
997.013	13741.54
997.369	16298.07
997.725	20823.62
998.08	13492.26
998.436	20820.25
998.791	28691.63
999.147	28638.61
999.502	31335.86
999.857	22781.76
1000.212	37087.35
1000.567	52734.98
1000.922	30457.85
1001.277	19395.08
1001.632	14381.63
1001.987	18520.92
1002.342	13278.93
1002.696	10665.43
1003.051	8517.94
1003.406	10282.17
1003.76	10213.03
1004.114	10054.74
1004.469	8467.26
1004.823	7007.49
1005.177	7552.37
1005.531	5993.66
1005.885	5315.93
1006.239	6008.39
1006.593	7516.79
1006.947	10053.76
1007.301	7558.83
1007.655	8253.38
1008.008	6079.71
1008.362	6838.79
1008.715	9771.86
1009.069	8887.19
1009.422	13370.31
1009.776	26815.34
1010.129	17762.98
1010.482	14817.88
1010.835	12501.75
1011.188	25930.19
1011.541	24403.85
1011.894	-148648.52
1012.247	437365.07
1012.6	29667.16
1012.952	18698.32
1013.305	9659.65
1013.657	6969.99
1014.01	6594.97
1014.362	5450.85
1014.715	4865.49
1015.067	4247.98
1015.419	4161.51
1015.771	3699.24
1016.123	3283.67
1016.475	3376.16
1016.827	3601.85
1017.179	3856.23
1017.531	3875.73
1017.883	3959.17
1018.234	3824.53
1018.586	4827.16
1018.938	5118.32
1019.289	7034.81
1019.64	8013.07
1019.992	7489.85
1020.343	6846.92
1020.694	5408.37
1021.045	4798.45
1021.396	5488.22
1021.747	5920.35
1022.098	7093.08
1022.449	5156.41
1022.8	4788.86
1023.151	3344.41
1023.501	2967.95
1023.852	3207.88
1024.202	3334.48
1024.553	3650.22
1024.903	3562.1
1025.253	3042.9
1025.604	2729.6
1025.954	3386.76
1026.304	4114.3
1026.654	4795.39
1027.004	7056.84
1027.354	11427.41
1027.703	10801.56
1028.053	14247.03
1028.403	20643.07
1028.753	29883.84
1029.102	40496.83
1029.452	207140.52
1029.801	8914.64
1030.15	5735.48
1030.499	4823.26
897.758	2223.61
901.051	2165.75
904.343	2197.19
907.636	2204.85
910.928	2266.89
914.22	2186.09
917.511	2192.69
920.803	2241.12
924.094	2241.87
927.384	2243.77
930.675	2207.17
933.965	2170.68
937.255	2194.39
940.544	2162.88
943.834	2165.36
947.123	2102.83
950.411	2192.33
953.7	2171.85
956.988	2155.75
960.276	2091.13
963.563	2141.21
966.851	2150.39
970.138	2192.12
973.424	2192.93
976.711	2148.06
979.997	2192.66
983.283	2237.2
986.568	2165.4
989.853	2161.06
993.138	2185.98
996.423	2269.97
999.708	2225.79
1002.992	2256.79
1006.275	2171.39
1009.559	2178.78
1012.842	2276.3
1016.125	2228.2
1019.408	2208.01
1022.69	2268.07
1025.972	2297.26
1029.254	2272.4
1032.536	2231.16
1035.817	2246.15
1039.098	2214.93
1042.379	2269.55
1045.659	2296.26
1048.939	2243.43
1052.219	2251.86
1055.498	2249.43
1058.778	2243.43
1062.057	2219.22
1065.335	2243.36
1068.614	2253.71
1071.892	2245.57
1075.17	2301.54
1078.447	2303.2
1081.724	2295.28
1085.001	2322.29
1088.278	2300.91
1091.554	2304.78
1094.83	2301.59
1098.106	2336.54
1101.382	2368.13
1104.657	2369.85
1107.932	2370.95
1111.206	2344.59
1114.481	2299.3
1117.755	2301.59
1121.029	2293.06
1124.302	2351.03
1127.575	2317.73
1130.848	2312.39
1134.121	2280.39
1137.393	2242.46
1140.665	2298.22
1143.937	2273.41
1147.208	2227.62
1150.48	2280.97
1153.75	2269.24
1157.021	2275.28
1160.291	2249.69
1163.561	2301.59
1166.831	2271.42
1170.101	2299.42
1173.37	2262.25
1176.639	2219.4
1179.907	2265.46
1183.176	2286
1186.444	2289.5
1189.711	2312.76
1192.979	2332.04
1196.246	2291.19
1199.513	2303.47
1202.78	2306.12
1206.046	2316.48
1209.312	2340.89
1212.578	2361.01
1215.843	2327.32
1219.108	2294.42
1222.373	2315.16
1225.638	2290.75
1228.902	2282.97
1232.166	2241.13
1235.43	2226.82
1238.693	2254.65
1241.956	2245.43
1245.219	2291.43
1248.482	2275.89
1251.744	2274.28
1255.006	2398.9
1258.268	2348.13
1261.529	2300.75
1264.79	2304.19
1268.051	2401.4
1271.312	2411.94
1274.572	2380.15
1277.832	2369.77
1281.092	2352.04
1284.351	2340.69
1287.61	2323.56
1290.869	2257.71
1294.128	2252.15
1297.386	2305.49
1300.644	2296.9
1303.902	2305.46
1307.159	2176.81
1310.416	2227.05
1313.673	2254.7
1316.93	2252.33
1320.186	2283.37
1323.442	2318.68
1326.697	2316.16
1329.953	2294.97
1333.208	2327.13
1336.463	2301.9
1339.717	2261.49
1342.972	2368.95
1346.226	2342.27
1349.479	2290.32
1352.733	2269.96
1355.986	2278.9
1359.238	2259.54
1362.491	2265.42
1365.743	2263.73
1368.995	2257.88
1372.247	2270.63
1375.498	2290.59
1378.749	2328.01
1382	2283.68
1385.251	2319.81
1388.501	2273.88
1391.751	2272.42
1395	2240.08
1398.25	2266.36
1401.499	2287.98
1404.748	2234.81
1407.996	2215.89
1411.244	2204.87
1414.492	2190.58
1417.74	2172.15
1420.987	2178.88
1424.234	2238.22
1427.481	2203.34
1430.728	2260.35
1433.974	2234.18
1437.22	2235.75
1440.465	2233.77
1443.711	2227.66
1446.956	2252.82
1450.201	2227.17
1453.445	2267.08
1456.689	2255.13
1459.933	2264.47
1463.177	2302.35
1466.42	2275.59
1469.663	2260.21
1472.906	2269.84
1476.148	2320.07
1479.391	2299.42
1482.633	2272.55
1485.874	2293.74
1489.115	2299.96
1492.356	2285.36
1495.597	2265.52
1498.838	2257.93
1502.078	2240.9
1505.318	2211
1508.557	2245.38
1511.797	2240.59
1515.036	2276.64
1518.274	2255.94
1521.513	2212.57
1524.751	2224.42
1527.989	2247.28
1531.227	2262.49
1534.464	2274.35
1537.701	2271.78
1540.938	2283.92
1544.174	2235.4
1547.41	2226.17
1550.646	2265.46
1553.882	2308.67
1557.117	2366.01
1560.352	2372.7
1563.587	2332.7
1566.821	2300.68
1570.055	2318.68
1573.289	2299.45
1576.523	2357.26
1579.756	2370.33
1582.989	2389.93
1586.222	2350.74
1589.454	2378.16
1592.686	2361.19
1595.918	2388.74
1599.15	2387.59
1602.381	2434.49
1605.612	2412.38
1608.843	2502.46
1612.073	2427
1615.303	2412.68
1618.533	2409.51
1621.762	2409.4
1624.992	2390.39
1628.221	2387.41
1631.449	2377.66
1634.678	2408.93
1637.906	2376.8
1641.134	2403.65
1644.361	2367.53
1647.588	2356.8
1650.815	2378.67
1654.042	2345.59
1657.269	2374.12
1660.495	2349.05
1663.72	2339.62
1666.946	2308.22
1670.171	2276.05
1673.396	2249.33
1676.621	2234.73
1679.845	2237.2
1683.069	2246.4
1686.293	2276.26
1689.517	2264.6
1692.74	2212.88
1695.963	2234.59
1699.185	2271.31
1702.408	2246.03
1705.63	2275.86
1708.852	2293.03
1712.073	2265.75
1715.294	2270.97
1718.515	2316.56
1721.736	2273.82
1724.956	2258.47
1728.176	2280.93
1731.396	2304.01
1734.616	2289.83
1737.835	2323.19
1741.054	2295.73
1744.272	2289.27
1747.491	2327.03
1750.709	2354.98
1753.927	2298.04
1757.144	2328.1
1760.361	2379.22
1763.578	2356.4
1766.795	2306.96
1770.011	2299.58
1773.227	2328.17
1776.443	2367.82
1779.658	2409.78
1782.874	2350.54
1786.089	2340.69
1789.303	2343.24
1792.518	2340.28
1795.732	2327.74
1798.945	2342.51
1802.159	2383.61
1805.372	2321.52
1808.585	2313.91
1811.797	2316.69
1815.01	2341.48
1818.222	2360.17
1821.434	2325.59
1824.645	2368.97
1827.856	2374.53
1831.067	2406.03
1834.278	2346.57
1837.488	2330.11
1840.698	2454.93
1843.908	2394.48
1847.117	2363.9
1850.326	2285.07
1853.535	2349.8
1856.744	2382.07
1859.952	2305.32
1863.16	2308.38
1866.368	2324.96
1869.575	2435.2
1872.782	2322.85
1875.989	2257.51
1879.196	2309.96
1882.402	2301.04
1885.608	2335.84
1888.814	2274.63
1892.019	2181.06
1895.224	2232.36
1898.429	2202.08
1901.634	2184.57
1904.838	2160.4
1908.042	2214.76
1911.246	2227.42
1914.449	2188.41
1917.652	2173.14
1920.855	2154.84
1924.058	2181.95
1927.26	2225.81
1930.462	2250.26
1933.664	2284.47
1936.865	2227.18
1940.066	2244.82
1943.267	2190.22
1946.467	2199.08
1949.668	2218.99
1952.868	2288.48
1956.067	2276.9
1959.267	2217.33
1962.466	2241.09
1965.665	2223.98
1968.863	2217.65
1972.061	2223.12
1975.259	2217.21
1978.457	2288.15
1981.654	2251.77
1984.852	2254.74
1988.048	2204.11
1991.245	2195.66
1994.441	2279.76
1997.637	2243.88
2000.833	2224.6
2004.028	2260.11
2007.223	2320.16
2010.418	2307.17
2013.613	2261.44
2016.807	2251.33
2020.001	2247.26
2023.194	2270.86
2026.388	2252.07
2029.581	2199.71
2032.774	2257.85
2035.966	2268.24
2039.158	2214.54
2042.35	2234.55
2045.542	2159.72
2048.733	2244.13
2051.924	2241.98
2055.115	2257.92
2058.306	2222.34
2061.496	2279.47
2064.686	2329.19
2067.875	2237.2
2071.065	2242.01
2074.254	2261.42
2077.442	2214.25
2080.631	2298.42
2083.819	2225.9
2087.007	2214.34
2090.195	2199.43
2093.382	2215.22
2096.569	2197.21
2099.756	2159.61
2102.942	2205.05
2106.128	2215.89
2109.314	2205.89
2112.5	2190.55
2115.685	2159.84
2118.87	2167.5
2122.055	2230.07
2125.239	2206.4
2128.424	2192.96
2131.608	2258.59
2134.791	2243
2137.974	2281
2141.157	2269.25
2144.34	2237.33
2147.523	2230.68
2150.705	2253.68
2153.887	2224.73
2157.068	2194.14
2160.25	2179.72
2163.431	2205.31
2166.611	2171.68
2169.792	2192.14
2172.972	2104.06
2176.152	2158.52
2179.331	2188.29
2182.511	2188.25
2185.69	2209.81
2188.868	2212.66
2192.047	2249.47
2195.225	2262.01
2198.403	2212.28
2201.58	2199.51
2204.758	2186.54
2207.935	2260.85
2211.111	2176.02
2214.288	2162.81
2217.464	2197.59
2220.64	2158.14
2223.815	2207.87
2226.991	2139.2
2230.166	2154.77
2233.34	2195.18
2236.515	2209.33
2239.689	2274.03
2242.863	2223.8
2246.036	2276.79
2249.209	2261.28
2252.382	2282.15
2255.555	2286.72
2258.727	2235.8
2261.9	2266.86
2265.071	2258.85
2268.243	2256.46
2271.414	2205.1
2274.585	2183.62
2277.756	2245.8
2280.926	2200.41
2284.096	2231.93
2287.266	2161.74
2290.436	2207.89
2293.605	2228.99
2296.774	2262.4
2299.942	2269.57
2303.111	2286.14
2306.279	2337.92
2309.447	2325.31
2312.614	2295.39
2315.781	2322.76
2318.948	2298.59
2322.115	2333.22
2325.281	2235.35
2328.447	2243.24
2331.613	2218.17
2334.779	2208.18
2337.944	2202.02
2341.109	2202.08
2344.274	2191.28
2347.438	2159.53
2350.602	2177.52
2353.766	2187.54
2356.929	2175.99
2360.092	2216.02
2363.255	2184.82
2366.418	2146.04
2369.58	2217.73
2372.742	2087.47
2375.904	2082.43
2379.066	2065.88
2382.227	2093.2
2385.388	2058.2
2388.548	2005.19
2391.709	2047.11
2394.869	2033.77
2398.029	2094.39
2401.188	2091.57
2404.347	2051.63
2407.506	2135.49
2410.665	2173.02
2413.823	2162.25
2416.981	2138.2
2420.139	2153.18
2423.296	2197.76
2426.453	2171.25
2429.61	2190.22
2432.767	2156.99
2435.923	2196.74
2439.079	2147.94
2442.235	2182.56
2445.391	2121.84
2448.546	2161.48
2451.701	2196.49
2454.855	2192
2458.009	2223.71
2461.163	2215.88
2464.317	2187.19
2467.471	2212.58
2470.624	2241.93
2473.777	2227.6
2476.929	2244.77
2480.082	2269.04
2483.234	2241.87
2486.385	2185.32
2489.537	2178.88
2492.688	2164.9
2495.839	2179.28
2498.989	2196.34
2502.14	2182.35
2505.29	2173.91
2508.439	2199.19
2511.589	2137
2514.738	2138.89
2517.887	2161.94
2521.035	2237.26
2524.183	2200.11
2527.331	2184.04
2530.479	2178.06
2533.627	2178.79
