Data from C_1_DIV_IL_4N_Splice17_11-59-23-110.txt Node
Date: Sat Mar 14 11:59:23 EDT 2020
User: sa697716
Spectrometer: FLMS03696
Trigger mode: 0
Integration Time (sec): 3.180400E-1
Scans to average: 20
Electric dark correction enabled: true
Nonlinearity correction enabled: true
Boxcar width: 5
XAxis mode: Wavelengths
Number of Pixels in Spectrum: 2048
>>>>>Begin Spectral Data<<<<<
187.83	-297815.77
188.298	2186.47
188.766	1204.19
189.233	1107.36
189.701	1468.57
190.169	1961.1
190.636	706.43
191.104	619.14
191.571	144.72
192.039	-15.54
192.506	87.26
192.974	542.84
193.441	-908.43
193.908	-206.95
194.375	-13.38
194.842	57.99
195.31	99.8
195.777	146.67
196.244	343.04
196.711	404.05
197.177	486.85
197.644	691.94
198.111	1177.91
198.578	1622.47
199.045	1292.77
199.511	2088.66
199.978	2395.57
200.445	2038.2
200.911	2249.41
201.378	2525.29
201.844	2311.1
202.31	3931.61
202.777	4074.95
203.243	2268.49
203.709	2196.31
204.176	2632.5
204.642	2159.63
205.108	2018.73
205.574	1653.45
206.04	1513.85
206.506	1420.1
206.972	1344.77
207.438	1308
207.903	1507.04
208.369	1318.55
208.835	1301.89
209.301	1354.48
209.766	1393.52
210.232	1377.1
210.697	1707.47
211.163	2110.44
211.628	3165.54
212.094	2655.6
212.559	3278.07
213.024	2048.82
213.49	2502.81
213.955	2460.39
214.42	2417.81
214.885	2253.38
215.35	2171.56
215.815	2101
216.28	2234.74
216.745	1838
217.21	2017.6
217.675	1886.32
218.14	2144
218.604	2440.58
219.069	2835.55
219.534	3022.78
219.998	3576.3
220.463	4414.27
220.927	5522.88
221.392	5278.71
221.856	5399.68
222.32	6868.02
222.785	8540.24
223.249	10806.88
223.713	12146.89
224.177	12222.68
224.642	15806.18
225.106	19556.54
225.57	21437.22
226.034	15956.87
226.497	24305.29
226.961	22025.08
227.425	25688.85
227.889	28545.8
228.353	28671.2
228.816	59282.54
229.28	56854.38
229.744	47888.42
230.207	29130.08
230.671	28691.08
231.134	47603.28
231.597	54979.67
232.061	55038.22
232.524	53801.19
232.987	37126.35
233.45	33448.12
233.914	30041.38
234.377	30816.63
234.84	28241.27
235.303	33337.62
235.766	37243.05
236.229	38506.29
236.691	24268.21
237.154	27259.92
237.617	20494.68
238.08	20982.53
238.542	24572.13
239.005	17569.89
239.468	17426.1
239.93	16413.83
240.393	14900.86
240.855	13076.85
241.317	13391.76
241.78	16306.11
242.242	16877.45
242.704	18253.08
243.166	15884.82
243.629	14426.05
244.091	16615.32
244.553	18213.05
245.015	19603.85
245.477	25394.37
245.939	37267.88
246.4	39602.11
246.862	38498.62
247.324	36277.64
247.786	40574.38
248.247	53209.58
248.709	54899.23
249.17	41070.54
249.632	38696.71
250.093	44831.64
250.555	38686.83
251.016	23599.45
251.477	22382.18
251.939	24136.96
252.4	25353.68
252.861	30151.1
253.322	28084.51
253.783	33458.96
254.244	43451.45
254.705	34301.6
255.166	30554.11
255.627	30110.62
256.088	42408.07
256.549	45007.13
257.009	38797.39
257.47	47070.5
257.931	38351.8
258.391	28725.26
258.852	29608.6
259.312	31037.93
259.773	38342.2
260.233	32403.19
260.694	27358.37
261.154	31072.38
261.614	24952.86
262.074	22335.92
262.534	23213.05
262.994	21898.38
263.455	29193.96
263.915	24618.67
264.374	23207.32
264.834	25348.48
265.294	28116.17
265.754	29120.94
266.214	27594.16
266.673	25881.15
267.133	32699.64
267.593	32496.06
268.052	39798.35
268.512	34654.61
268.971	41789.63
269.431	45850.18
269.89	41093.19
270.349	61643.89
270.809	68776.17
271.268	61846.31
271.727	138795.6
272.186	89907.13
272.645	67381.08
273.104	48622.85
273.563	70408.84
274.022	55443.53
274.481	47164.28
274.94	36367.55
275.399	27066.96
275.857	31547.07
276.316	42708.22
276.775	38046.5
277.233	37479.72
277.692	35096.44
278.15	39670.39
278.609	40799.56
279.067	37748.31
279.525	35082.22
279.984	45281.59
280.442	54317.31
280.9	53481.99
281.358	35206.4
281.816	32757
282.274	32038.5
282.732	33129.17
283.19	33332.94
283.648	28777.76
284.106	30683.33
284.564	31204.65
285.021	28940.92
285.479	21580.59
285.937	19652.92
286.394	17212.82
286.852	17725.75
287.309	18651.87
287.767	17998.39
288.224	17104.23
288.682	18774.26
289.139	20588.36
289.596	18819.74
290.053	19557.44
290.511	24692.82
290.968	29970.11
291.425	40745.93
291.882	33930.87
292.339	29554.91
292.796	29375.88
293.252	27685.12
293.709	21991.93
294.166	19713.95
294.623	21830.37
295.079	20962.83
295.536	21053.79
295.992	19117.7
296.449	18892.54
296.905	19636.73
297.362	18824.47
297.818	19794.44
298.274	20538.49
298.731	20924.45
299.187	20715.32
299.643	22217.95
300.099	26866.83
300.555	29471.55
301.011	24618.91
301.467	23731.07
301.923	27784.97
302.379	27144.02
302.835	26666.85
303.291	26679.69
303.746	30350.88
304.202	38332.13
304.658	38540.35
305.113	25883.47
305.569	25368.53
306.024	27039.76
306.479	25724.22
306.935	21679.46
307.39	23636.47
307.845	21806.14
308.301	21956.61
308.756	21398.19
309.211	20619.23
309.666	21089.69
310.121	26193.52
310.576	26561.95
311.031	26332.35
311.486	30170.64
311.94	30155.47
312.395	40366.43
312.85	75801.96
313.305	372528.66
313.759	1928651.54
314.214	139770.24
314.668	110908.46
315.123	93217.65
315.577	33407.48
316.032	29705.2
316.486	37188.6
316.94	29315.78
317.394	20374.21
317.849	15821.2
318.303	14960.77
318.757	14108.93
319.211	15571.87
319.665	13606.25
320.119	13784.24
320.572	19769.48
321.026	18467
321.48	15372.01
321.934	16785.66
322.387	16821.88
322.841	18166.62
323.295	16313.3
323.748	18782.76
324.202	19042.35
324.655	22843.53
325.108	31915.35
325.562	22543.78
326.015	26787.91
326.468	20246.95
326.921	22615.78
327.374	21097.6
327.827	21982.72
328.28	24893.66
328.733	16687.88
329.186	14692.17
329.639	14017.67
330.092	11804.69
330.545	11243.78
330.997	11348.66
331.45	12415.05
331.903	14539.77
332.355	25032.58
332.808	24331.54
333.26	20072.63
333.713	21792.76
334.165	21953.58
334.617	29291.17
335.069	23643.75
335.522	42748.48
335.974	47240.62
336.426	43104.26
336.878	29832.8
337.33	15113.53
337.782	14746.61
338.234	18451.79
338.686	22051.89
339.137	26064.91
339.589	24564.46
340.041	19298.12
340.493	16609.98
340.944	17025.25
341.396	18339.14
341.847	15421.17
342.299	18180.34
342.75	22170.68
343.201	19406.94
343.653	22345.8
344.104	27512.55
344.555	21625.19
345.006	33652.13
345.457	25741.31
345.908	20474.15
346.359	19275.07
346.81	15711.75
347.261	16567.8
347.712	16348.83
348.163	17521.8
348.613	17746.7
349.064	16568.99
349.515	14525.27
349.965	14866.72
350.416	17892.34
350.866	19636.43
351.317	22178.05
351.767	36727.23
352.217	46404.33
352.668	38555.75
353.118	35367.25
353.568	34194.27
354.018	27062.27
354.468	28531.53
354.918	20492.43
355.368	17961.59
355.818	25382.38
356.268	73112.05
356.718	306859.03
357.168	76464.62
357.617	38390.27
358.067	42639.11
358.517	39887.74
358.966	46840.75
359.416	52681.85
359.865	57121.83
360.315	68038.63
360.764	31827.73
361.213	17838.31
361.663	16883.46
362.112	20866.95
362.561	33753.13
363.01	25568.62
363.459	21557.94
363.908	23341.95
364.357	19887.04
364.806	33625.13
365.255	23172.28
365.703	21276.21
366.152	21386.62
366.601	17398.13
367.05	14159.94
367.498	12916.84
367.947	13532.14
368.395	14149.43
368.844	12594.04
369.292	15225.11
369.74	10573.87
370.189	16283.9
370.637	19163.1
371.085	16597.24
371.533	20329.48
371.981	19704.34
372.429	18847.02
372.877	19730.18
373.325	16591.21
373.773	17003.71
374.221	15192.1
374.669	18923.2
375.116	16452.56
375.564	16690.9
376.012	18770.48
376.459	15555.39
376.907	18714.14
377.354	22767.65
377.801	21337.64
378.249	24595.63
378.696	31622.18
379.143	38612.21
379.591	41419.83
380.038	70406.86
380.485	51113.5
380.932	55536.3
381.379	51027.26
381.826	37773
382.273	27003.4
382.72	23749.51
383.166	23290.92
383.613	15157.99
384.06	13723.05
384.506	15960.85
384.953	11798.4
385.4	11955.49
385.846	10522.04
386.292	10314.62
386.739	10126.9
387.185	10055.76
387.631	10104.91
388.078	9845.58
388.524	10563.77
388.97	9787.23
389.416	8172.03
389.862	8698.71
390.308	8251.18
390.754	8393.37
391.2	9124.88
391.645	9354.15
392.091	8947.67
392.537	8662.54
392.983	8684.77
393.428	8554.48
393.874	9178.53
394.319	9215.74
394.765	8727.57
395.21	8983.77
395.655	8430.47
396.101	7886.69
396.546	7118.54
396.991	7190.8
397.436	6678.29
397.881	6450.72
398.326	6100.42
398.771	5749.35
399.216	5027.48
399.661	4527.86
400.106	4490.98
400.551	4587.46
400.995	4106.72
401.44	4049.28
401.885	3796.04
402.329	3818.25
402.774	3652.25
403.218	3522.17
403.663	3387.01
404.107	3471.69
404.551	3485.56
404.995	3193.26
405.44	3063.79
405.884	3105.74
406.328	3003.59
406.772	2984.01
407.216	2710.41
407.66	2611.22
408.104	2476.56
408.547	2313.93
408.991	2231.96
409.435	2143.94
409.879	2107.35
410.322	2074.38
410.766	1996.9
411.209	1890.84
411.653	1811.41
412.096	1770.76
412.54	1770.15
412.983	1755.37
413.426	1755.29
413.869	1749.18
414.312	1710.51
414.756	1645.33
415.199	1568.18
415.642	1517.35
416.085	1514.98
416.527	1498.96
416.97	1517.53
417.413	1435.42
417.856	1418.29
418.298	1401.74
418.741	1389.55
419.184	1386.45
419.626	1443.2
420.069	1441.93
420.511	1448.61
420.953	1417.97
421.396	1405.44
421.838	1369.91
422.28	1398.88
422.722	1404.77
423.164	1423.25
423.606	1399.38
424.048	1395.49
424.49	1325.17
424.932	1316.46
425.374	1298.85
425.816	1319.48
426.258	1342.89
426.699	1353.47
427.141	1330.53
427.582	1347.96
428.024	1339.02
428.465	1329.84
428.907	1292.07
429.348	1274.77
429.789	1271.11
430.231	1240.08
430.672	1253.24
431.113	1219.1
431.554	1199.88
431.995	1167.62
432.436	1121.06
432.877	1093.9
433.318	1073.6
433.759	1068.35
434.2	1066.58
434.64	1056.09
435.081	1058.85
435.522	1002.35
435.962	966.68
436.403	944.88
436.843	958.03
437.284	937.86
437.724	911.01
438.164	912.41
438.604	891.92
439.045	856.89
439.485	818.75
439.925	799.39
440.365	779.28
440.805	768.48
441.245	758.9
441.685	731.31
442.125	726.2
442.564	729.98
443.004	712.75
443.444	710.88
443.883	712.04
444.323	708.52
444.762	709.79
445.202	718.74
445.641	731.36
446.081	725.68
446.52	729.86
446.959	722.21
447.398	705.3
447.837	696.26
448.276	682.98
448.716	688.6
449.154	694.8
449.593	678.62
450.032	676.17
450.471	662.02
450.91	662.52
451.349	661.07
451.787	658.52
452.226	667.84
452.664	667.78
453.103	669.88
453.541	670.56
453.98	668.03
454.418	672.39
454.856	661.9
455.295	662.54
455.733	669.2
456.171	672.62
456.609	674.3
457.047	675.18
457.485	685.46
457.923	687.61
458.361	677.59
458.798	679.37
459.236	678.01
459.674	682.89
460.111	685.47
460.549	678.8
460.987	677.29
461.424	674.74
461.862	671.3
462.299	661.71
462.736	660.23
463.173	662.37
463.611	656.25
464.048	654.72
464.485	659.56
464.922	654.08
465.359	649.64
465.796	639.7
466.233	634.51
466.67	629.87
467.106	627.84
467.543	621.53
467.98	613.17
468.416	597.88
468.853	593.72
469.29	576.18
469.726	569.04
470.162	554.69
470.599	548.42
471.035	543.26
471.471	529.63
471.907	525.95
472.344	521.41
472.78	522.49
473.216	528.67
473.652	521.48
474.088	521.04
474.523	520.19
474.959	524.5
475.395	519.41
475.831	515.62
476.266	517.81
476.702	516.49
477.138	511.4
477.573	510.01
478.008	507.08
478.444	509.18
478.879	513.15
479.314	514.13
479.75	512.87
480.185	515.05
480.62	519.64
481.055	522.28
481.49	526.72
481.925	533.82
482.36	542.16
482.795	557.44
483.229	571.74
483.664	583.21
484.099	585.64
484.534	594.99
484.968	600.5
485.403	602.52
485.837	601.81
486.271	599
486.706	600.94
487.14	595.04
487.574	586.24
488.009	581.4
488.443	576.38
488.877	583.17
489.311	585.53
489.745	593.74
490.179	599.31
490.613	610.6
491.046	616.58
491.48	620.81
491.914	621.73
492.348	626.04
492.781	630.83
493.215	633.39
493.648	634.3
494.082	639.27
494.515	639.12
494.948	646.66
495.382	651
495.815	655.82
496.248	661.49
496.681	674.06
497.114	684.9
497.547	694.61
497.98	706.52
498.413	712.8
498.846	722.16
499.279	730.83
499.711	734.97
500.144	737.95
500.577	747.49
501.009	757.7
501.442	766.04
501.874	767.85
502.306	769.29
502.739	776.08
503.171	789.58
503.603	792.97
504.036	801.52
504.468	806.96
504.9	817.57
505.332	824.57
505.764	828.61
506.196	834.94
506.627	847.56
507.059	859.83
507.491	867.61
507.923	865.7
508.354	879.51
508.786	888.41
509.217	904
509.649	916.69
510.08	932.55
510.512	946.7
510.943	959.73
511.374	969.77
511.805	987.36
512.237	1003.89
512.668	1032.04
513.099	1055.12
513.53	1078.55
513.961	1095.49
514.391	1122.09
514.822	1150.41
515.253	1181.42
515.684	1203
516.114	1228.01
516.545	1244.8
516.975	1266.06
517.406	1280.25
517.836	1280.15
518.267	1284.47
518.697	1299.07
519.127	1302.18
519.558	1306.73
519.988	1307.94
520.418	1314.58
520.848	1327.48
521.278	1333.51
521.708	1348.9
522.138	1358.65
522.567	1383.79
522.997	1402.99
523.427	1414.34
523.857	1426.8
524.286	1433.99
524.716	1445.21
525.145	1459.58
525.575	1466.94
526.004	1477.09
526.433	1467.83
526.863	1465.85
527.292	1456.43
527.721	1461.68
528.15	1464.92
528.579	1463.72
529.008	1471.89
529.437	1489.83
529.866	1500.94
530.295	1514.82
530.724	1526.09
531.152	1547.37
531.581	1558.98
532.01	1572.99
532.438	1578.08
532.867	1590.83
533.295	1606.43
533.723	1610.62
534.152	1608.65
534.58	1608.15
535.008	1592.77
535.436	1592.56
535.865	1599.69
536.293	1611.24
536.721	1624.93
537.149	1647.06
537.576	1648.55
538.004	1658.41
538.432	1665.97
538.86	1664.3
539.287	1669.32
539.715	1681.65
540.143	1684.16
540.57	1680.62
540.998	1677.32
541.425	1656.98
541.852	1637.77
542.28	1636.04
542.707	1622.08
543.134	1608.6
543.561	1605.06
543.988	1598.97
544.415	1599.21
544.842	1593.9
545.269	1586.33
545.696	1587.71
546.123	1597.68
546.549	1588.52
546.976	1576.96
547.403	1576.48
547.829	1577.1
548.256	1577.2
548.682	1573.26
549.108	1566.02
549.535	1564.4
549.961	1565.85
550.387	1554.17
550.813	1549.32
551.24	1554.59
551.666	1555.05
552.092	1546.43
552.518	1541.6
552.943	1536.1
553.369	1541.62
553.795	1545.58
554.221	1546.63
554.646	1543.59
555.072	1551.28
555.498	1555.47
555.923	1562.58
556.349	1574.16
556.774	1581.1
557.199	1581.34
557.625	1586.86
558.05	1582.02
558.475	1590.99
558.9	1590.24
559.325	1583.66
559.75	1578.03
560.175	1571.67
560.6	1566.31
561.025	1564.76
561.449	1565.23
561.874	1570.05
562.299	1573.9
562.723	1579.83
563.148	1570.8
563.572	1573.26
563.997	1583.41
564.421	1588.84
564.846	1589.35
565.27	1593.26
565.694	1592.22
566.118	1603.17
566.542	1610.1
566.966	1605.56
567.39	1601.52
567.814	1592.8
568.238	1594.08
568.662	1597.87
569.086	1601.59
569.509	1610.13
569.933	1597.78
570.357	1594.15
570.78	1576.29
571.204	1566.77
571.627	1558.53
572.05	1559.13
572.474	1561.49
572.897	1551.54
573.32	1545.65
573.743	1537.72
574.166	1521.87
574.589	1522.85
575.012	1515.81
575.435	1516.39
575.858	1508.47
576.281	1498.66
576.704	1485.19
577.126	1473.69
577.549	1464.63
577.972	1456.3
578.394	1447.03
578.817	1440.85
579.239	1423.4
579.661	1411.36
580.084	1397.19
580.506	1385.58
580.928	1382.08
581.35	1372.78
581.772	1369.11
582.194	1358.14
582.616	1346.76
583.038	1334.11
583.46	1324.85
583.882	1322.99
584.303	1326.83
584.725	1323.52
585.147	1325.38
585.568	1334.73
585.99	1345.89
586.411	1351.42
586.833	1363.06
587.254	1363.97
587.675	1377.11
588.096	1387.51
588.518	1382.32
588.939	1367
589.36	1364.89
589.781	1355.97
590.202	1330.83
590.623	1322.85
591.043	1321.15
591.464	1310.08
591.885	1308.19
592.305	1303.73
592.726	1291.89
593.147	1293.48
593.567	1289.37
593.987	1283.28
594.408	1279.62
594.828	1278.85
595.248	1273.36
595.669	1257.89
596.089	1252.93
596.509	1247.75
596.929	1235.67
597.349	1237.79
597.769	1228.53
598.189	1222.74
598.608	1223.56
599.028	1225.51
599.448	1226.15
599.867	1214.8
600.287	1210.53
600.706	1206.89
601.126	1198.44
601.545	1197.85
601.965	1197.04
602.384	1193.79
602.803	1197.6
603.222	1193.26
603.641	1186.58
604.061	1183.53
604.48	1180.65
604.898	1188.53
605.317	1193.41
605.736	1195.58
606.155	1192.95
606.574	1183.8
606.992	1187.41
607.411	1182.83
607.829	1176.14
608.248	1172.79
608.666	1169.73
609.085	1169.43
609.503	1161.85
609.921	1155.53
610.339	1156.85
610.758	1156.43
611.176	1152.6
611.594	1145.47
612.012	1142.46
612.43	1145.42
612.847	1151.8
613.265	1153.24
613.683	1157.4
614.101	1159.51
614.518	1156.62
614.936	1148.12
615.353	1136.33
615.771	1135.15
616.188	1135.33
616.606	1132.01
617.023	1125.91
617.44	1114.2
617.857	1108.28
618.274	1101.22
618.691	1094.93
619.108	1087.31
619.525	1082.94
619.942	1088.19
620.359	1089.95
620.776	1085.72
621.192	1082.99
621.609	1082.36
622.026	1087.8
622.442	1092.71
622.859	1095.26
623.275	1088.59
623.691	1092.96
624.108	1103.05
624.524	1116.46
624.94	1116.73
625.356	1126.47
625.772	1137.59
626.188	1147.97
626.604	1149.58
627.02	1147.02
627.436	1145.23
627.852	1152.55
628.268	1163.97
628.683	1155.41
629.099	1146.31
629.514	1141.76
629.93	1144.39
630.345	1149.11
630.761	1144.9
631.176	1148.02
631.591	1141.95
632.007	1136.98
632.422	1135.78
632.837	1125.72
633.252	1123.4
633.667	1114.78
634.082	1107.43
634.497	1095.9
634.911	1078.67
635.326	1075
635.741	1060.42
636.155	1052.3
636.57	1053.93
636.984	1052.98
637.399	1053.83
637.813	1054.01
638.228	1053.41
638.642	1057.43
639.056	1049.44
639.47	1050.06
639.884	1044.49
640.298	1039.8
640.712	1039.17
641.126	1027.87
641.54	1019.76
641.954	1015.56
642.368	1006.28
642.781	1000.44
643.195	985.75
643.609	986.71
644.022	982.15
644.436	978.49
644.849	968.5
645.262	958.21
645.676	960.17
646.089	957.78
646.502	945.16
646.915	939.74
647.328	924.98
647.741	922.95
648.154	910.83
648.567	907.51
648.98	895.71
649.393	894.51
649.805	891.22
650.218	884.75
650.631	870.31
651.043	865.7
651.456	859.9
651.868	860.18
652.28	874.4
652.693	886.35
653.105	891.83
653.517	899.19
653.929	900.88
654.341	905.5
654.753	894.22
655.165	899.98
655.577	896.99
655.989	893.77
656.401	885.69
656.813	854.43
657.224	837.64
657.636	812.82
658.047	797.26
658.459	778.25
658.87	770.48
659.282	760.02
659.693	742.41
660.104	730.07
660.515	717.12
660.926	714.29
661.338	710.34
661.749	703.22
662.159	694.99
662.57	690.85
662.981	687.23
663.392	680.32
663.803	683.24
664.213	679
664.624	674.29
665.035	676.24
665.445	665.69
665.855	659.45
666.266	652.71
666.676	650.37
667.086	641.6
667.497	640.61
667.907	634.89
668.317	626.7
668.727	624.49
669.137	624.82
669.547	622.22
669.956	623.28
670.366	624.92
670.776	625.16
671.186	626.94
671.595	629.42
672.005	631.19
672.414	629.73
672.824	627.77
673.233	629.69
673.642	630.21
674.052	632.99
674.461	635.17
674.87	638.78
675.279	636.46
675.688	637.04
676.097	638.58
676.506	635.74
676.915	648.67
677.323	650.92
677.732	649.39
678.141	648.81
678.549	639.46
678.958	638.92
679.366	637.92
679.775	642.78
680.183	652.88
680.592	657.39
681	662.99
681.408	656.18
681.816	662.92
682.224	670.74
682.632	679.98
683.04	704.87
683.448	724.51
683.856	750.99
684.264	780.49
684.671	806.91
685.079	840.1
685.487	876.55
685.894	927.79
686.302	969.2
686.709	1003.27
687.116	1043.76
687.524	1077.77
687.931	1105.95
688.338	1128.68
688.745	1147.89
689.152	1171.56
689.559	1203.05
689.966	1234.36
690.373	1248.03
690.78	1277.52
691.187	1326.2
691.593	1360.08
692	1389.5
692.407	1434.89
692.813	1491.84
693.22	1536.31
693.626	1580.08
694.032	1615.68
694.439	1672.06
694.845	1714.25
695.251	1770.53
695.657	1819.05
696.063	1895.61
696.469	1949.22
696.875	2000.88
697.281	2028.29
697.687	2062.34
698.093	2091.69
698.498	2149.04
698.904	2192.74
699.31	2260.9
699.715	2307.74
700.12	2379.1
700.526	2390.58
700.931	2444.51
701.337	2483.17
701.742	2507.05
702.147	2573.58
702.552	2595.47
702.957	2642.82
703.362	2657.78
703.767	2681.46
704.172	2713.27
704.577	2672.22
704.981	2710.77
705.386	2725.15
705.791	2719
706.195	2779.4
706.6	2785.7
707.004	2849.81
707.408	2823.61
707.813	2843.61
708.217	2832.94
708.621	2833.93
709.025	2913.54
709.43	2912.31
709.834	2957.59
710.237	3013.11
710.641	2999.93
711.045	3017.08
711.449	3012.21
711.853	3036.52
712.256	3071.78
712.66	3099.88
713.064	3160.18
713.467	3193.93
713.87	3282.95
714.274	3322.4
714.677	3410.67
715.08	3541.29
715.484	3676.24
715.887	3839.4
716.29	3997.57
716.693	4162.73
717.096	4356.42
717.499	4460.82
717.901	4477.84
718.304	4500.1
718.707	4517.46
719.109	4435.34
719.512	4409.64
719.915	4302.21
720.317	4257.73
720.719	4292.42
721.122	4269.47
721.524	4232.73
721.926	4202.09
722.328	4284.02
722.731	4277.36
723.133	4299.56
723.535	4453.78
723.937	4470.2
724.338	4510.83
724.74	4541.94
725.142	4501.78
725.544	4501.78
725.945	4521.24
726.347	4516.62
726.748	4510.93
727.15	4522.12
727.551	4494.7
727.952	4473.16
728.354	4449.4
728.755	4450.14
729.156	4415.26
729.557	4398.49
729.958	4300.86
730.359	4255.71
730.76	4239.88
731.161	4190.8
731.562	4170.91
731.962	4170.47
732.363	4118.57
732.763	4068.32
733.164	4098.56
733.564	4046.18
733.965	3967.77
734.365	3940.45
734.766	3961.74
735.166	3931.27
735.566	3889.1
735.966	3867.72
736.366	3863.61
736.766	3814.89
737.166	3839.06
737.566	3804.41
737.966	3785.37
738.365	3815.41
738.765	3809.38
739.165	3749.06
739.564	3727.82
739.964	3763.21
740.363	3726.04
740.763	3723.68
741.162	3714.7
741.561	3689.9
741.96	3653.57
742.36	3667.41
742.759	3673.47
743.158	3703.75
743.557	3717.9
743.955	3748.43
744.354	3710.61
744.753	3757.82
745.152	3725.38
745.55	3767.54
745.949	3761.1
746.348	3761.66
746.746	3777.57
747.144	3745.52
747.543	3726.42
747.941	3764.92
748.339	3708.96
748.737	3703.62
749.136	3694.15
749.534	3746.84
749.932	3725.14
750.33	3742.46
750.727	3786.42
751.125	3764.25
751.523	3752.04
751.921	3788
752.318	3759.5
752.716	3806.06
753.113	3815.72
753.511	3836.71
753.908	3836.56
754.305	3822.25
754.703	3872.12
755.1	3919.32
755.497	3966.38
755.894	4115.73
756.291	4256.78
756.688	4517.46
757.085	4862.38
757.482	5353
757.878	5882.42
758.275	6361.11
758.672	7023.18
759.068	7564.15
759.465	8332.93
759.861	9327.65
760.258	10478.95
760.654	11070.5
761.05	10978.66
761.447	10481.11
761.843	9753.57
762.239	9010.88
762.635	8672.5
763.031	8350.32
763.427	7883.93
763.822	7395.68
764.218	6912.26
764.614	6284.32
765.01	5863.57
765.405	5593.51
765.801	5388.95
766.196	5125.64
766.592	4981.88
766.987	4736.52
767.382	4569.36
767.778	4498.57
768.173	4397.26
768.568	4339.14
768.963	4240.33
769.358	4254.86
769.753	4218.67
770.148	4151.68
770.542	4151.01
770.937	4122.62
771.332	4192.31
771.726	4208.78
772.121	4160.39
772.515	4203.72
772.91	4191.22
773.304	4245.74
773.699	4193.52
774.093	4233.97
774.487	4277.7
774.881	4311.51
775.275	4308.5
775.669	4273.24
776.063	4307.93
776.457	4333.48
776.851	4271.69
777.245	4267.99
777.638	4294.71
778.032	4386.35
778.425	4357.25
778.819	4392.19
779.212	4357.91
779.606	4327.01
779.999	4345.77
780.392	4330.03
780.786	4396.56
781.179	4415.63
781.572	4447.83
781.965	4457.38
782.358	4412.62
782.751	4457.33
783.143	4417.79
783.536	4475.71
783.929	4510.14
784.322	4598.83
784.714	4622.21
785.107	4616.24
785.499	4669.62
785.891	4654.61
786.284	4640.02
786.676	4752.88
787.068	4738.85
787.46	4779.7
787.852	4798.43
788.245	4865.53
788.636	4889.24
789.028	4942.57
789.42	4978.61
789.812	4985.71
790.204	5060.6
790.595	5140.01
790.987	4982.31
791.378	4999.49
791.77	5102.28
792.161	5205.84
792.553	5248.46
792.944	5162.98
793.335	5112.48
793.726	5169.44
794.117	5242.38
794.508	5350.12
794.899	5324.93
795.29	5438.1
795.681	5485.72
796.072	5373.33
796.463	5231.08
796.853	5238.77
797.244	5362.99
797.634	5389.27
798.025	5384.4
798.415	5392.16
798.806	5459.89
799.196	5526.06
799.586	5565.74
799.976	5536.47
800.366	5715.76
800.756	5901.73
801.146	5871.47
801.536	5890.01
801.926	5943.22
802.316	5963.69
802.706	6019.93
803.095	5922.31
803.485	5999.16
803.874	6024.78
804.264	6223
804.653	6200.05
805.043	6315.63
805.432	6399.2
805.821	6401.04
806.21	6419.05
806.599	6508.4
806.988	6538.59
807.377	6620.67
807.766	6727.22
808.155	6950.89
808.544	6743.3
808.933	6754.37
809.321	6737.37
809.71	6968.31
810.098	7090.52
810.487	7446.21
810.875	7818.93
811.264	7842.99
811.652	8070.7
812.04	8177.69
812.428	8304.98
812.816	8900.82
813.204	9226.53
813.592	9649.22
813.98	9909.98
814.368	9834.31
814.756	10208.08
815.144	10145.71
815.531	10506.07
815.919	10446.71
816.306	10681.13
816.694	10433.82
817.081	10473.52
817.469	10743.09
817.856	10745.51
818.243	10951.52
818.63	11258.05
819.017	10928.58
819.404	10977.32
819.791	11267.75
820.178	11739.36
820.565	11931.72
820.952	12662.59
821.339	12273.55
821.725	12414.25
822.112	11830.28
822.498	11798.68
822.885	11893.16
823.271	11823.57
823.657	12157.14
824.044	12163.3
824.43	12223.16
824.816	12201.4
825.202	11857.88
825.588	12658.28
825.974	12676.73
826.36	13084.11
826.746	13112.57
827.132	13394.06
827.517	13378.67
827.903	12762.85
828.289	12797.14
828.674	12191.65
829.06	12110.21
829.445	12421.63
829.83	12694.17
830.216	13061.8
830.601	13348.18
830.986	13035.71
831.371	12935.68
831.756	13367.71
832.141	13039.25
832.526	13034.26
832.911	13261.27
833.295	13181.55
833.68	13553.17
834.065	13073.47
834.449	12362.54
834.834	12310.5
835.218	12314.37
835.603	12581.92
835.987	12421.83
836.371	13068.28
836.755	12990.14
837.139	13303.86
837.524	13491.72
837.908	13354.34
838.291	13410.69
838.675	13468.07
839.059	13631.31
839.443	13619.25
839.827	13442.15
840.21	13818.92
840.594	13708.53
840.977	13871.64
841.361	13854.27
841.744	14152.71
842.127	14035.63
842.511	14223.67
842.894	14696.9
843.277	14995.87
843.66	15417.51
844.043	15478.76
844.426	14843.9
844.809	14594.42
845.191	14612.17
845.574	14250.97
845.957	13962.45
846.339	13871.07
846.722	13467.43
847.104	13518.12
847.487	13380.98
847.869	13397.6
848.252	13615.11
848.634	13885.08
849.016	14092.96
849.398	14198.53
849.78	14866.95
850.162	14870.24
850.544	15196.24
850.926	15684.57
851.307	15611.16
851.689	15832.57
852.071	16179.06
852.452	16440.1
852.834	16409.07
853.215	16724.38
853.597	16841.02
853.978	17073.03
854.359	17427.79
854.741	16647.16
855.122	16565.76
855.503	16342.61
855.884	16441.57
856.265	16388.37
856.646	16467.72
857.026	16167.48
857.407	16116.79
857.788	16246.36
858.169	16469.99
858.549	15812
858.93	16302.2
859.31	16348.55
859.69	16508.45
860.071	16191.24
860.451	16029.3
860.831	15456.5
861.211	16357.07
861.591	16782.23
861.971	16757.45
862.351	16912.9
862.731	17208.35
863.111	17418.96
863.491	17671.93
863.87	18358.43
864.25	18636.1
864.629	18320.86
865.009	18717.36
865.388	19390.99
865.768	20776.65
866.147	20696.48
866.526	19545.9
866.905	19788.25
867.284	20891.41
867.663	19835.36
868.042	19010.38
868.421	18947.19
868.8	19256.71
869.179	19450.92
869.558	18307.81
869.936	16881.92
870.315	17184.23
870.693	17597.66
871.072	18964.83
871.45	18068.13
871.828	18292.94
872.207	19237.39
872.585	18951.29
872.963	19470.88
873.341	18804.94
873.719	18588.5
874.097	18371.23
874.475	18722.7
874.853	19158.51
875.23	18369.01
875.608	19141.28
875.986	20708.29
876.363	19796.46
876.741	20406.58
877.118	19895.53
877.495	20872.21
877.873	21217.17
878.25	22319.27
878.627	21403.15
879.004	21701.76
879.381	21600.18
879.758	21023.21
880.135	19575.85
880.512	20706.64
880.889	20149.01
881.265	19947.25
881.642	19782.15
882.019	20123.45
882.395	19708.78
882.772	20486.71
883.148	19603.44
883.524	19528.6
883.901	19430.23
884.277	19731.94
884.653	19617.12
885.029	20182.52
885.405	22357.26
885.781	22182.6
886.157	21268.69
886.532	21537.35
886.908	21537.73
887.284	23949.68
887.659	24734.22
888.035	25493.19
888.411	26147.41
888.786	26482.55
889.161	27405.75
889.537	26880.18
889.912	27725.25
890.287	27699.87
890.662	28407.02
891.037	27881.86
891.412	25992.36
891.787	25732.63
892.162	24844.2
892.536	25415.61
892.911	24451.8
893.286	23936.19
893.66	22977.39
894.035	23569.67
894.409	25669.43
894.784	24641.38
895.158	25063.07
895.532	26538.06
895.906	27258.58
896.281	27894.46
896.655	27451.05
897.029	31370.08
897.402	32672.69
897.776	36366.64
898.15	36240.23
898.524	35835.39
898.898	36293.26
899.271	40608.6
899.645	35183.25
900.018	33785.49
900.392	35027.52
900.765	35303.39
901.138	32679.51
901.511	32170.95
901.884	29541.39
902.258	27259.47
902.631	28168.01
903.003	32425.93
903.376	29257.02
903.749	32815.42
904.122	35125.04
904.495	38682.31
904.867	39181.69
905.24	34008.75
905.612	31653.55
905.985	32356.91
906.357	33806.56
906.729	32271.37
907.102	27572.35
907.474	26518.77
907.846	26696.96
908.218	26341.29
908.59	23273.9
908.962	22517.23
909.334	24252.06
909.705	25490.14
910.077	24758.37
910.449	25786.98
910.82	26504.23
911.192	29162.82
911.563	30289.12
911.935	32391.52
912.306	32447.99
912.677	33502.82
913.048	33159.88
913.419	36002.61
913.79	36187.51
914.161	38786.83
914.532	37085.02
914.903	34101.2
915.274	32376.32
915.645	31937.95
916.015	28115.12
916.386	26822.97
916.756	28558.47
917.127	29480.62
917.497	26320.81
917.868	28654.74
918.238	27250.92
918.608	28030.16
918.978	28616.94
919.348	30313.07
919.718	31318.26
920.088	30168.99
920.458	31316.48
920.828	32945.91
921.198	31206.3
921.567	33335.67
921.937	25822.58
922.306	26068.43
922.676	28123.69
923.045	23456.17
923.415	22290.24
923.784	20297.05
924.153	20883.39
924.522	20872.69
924.891	19638.26
925.26	21042
925.629	20553.26
925.998	23622.33
926.367	23069.4
926.736	21956.69
927.104	26149.1
927.473	28116.2
927.842	33934.6
928.21	33584.44
928.578	35303.2
928.947	33394.66
929.315	33601.95
929.683	39415.61
930.051	39756.67
930.42	46153.76
930.788	39475.35
931.156	39174.04
931.523	36724.85
931.891	33958.81
932.259	32633.87
932.627	37832.75
932.994	53526.34
933.362	44262.34
933.729	38431.56
934.097	36770.61
934.464	31110.15
934.831	35882.06
935.199	35373.55
935.566	34326.02
935.933	34774.81
936.3	42152.79
936.667	32812
937.034	29618.17
937.401	29280.66
937.767	25277.14
938.134	22504.3
938.501	31760.48
938.867	33896.96
939.234	57382.41
939.6	48992.49
939.967	54161.99
940.333	36261.01
940.699	30888.8
941.065	24743.99
941.431	32520.34
941.798	31398.24
942.163	41310.57
942.529	25809.42
942.895	23731.92
943.261	15358.21
943.627	20122.53
943.992	17570.88
944.358	17594.19
944.723	17670.3
945.089	17236.69
945.454	15890.98
945.82	16953.11
946.185	16259.86
946.55	18843.04
946.915	16922.34
947.28	19843.86
947.645	17474.91
948.01	16132.35
948.375	16805.29
948.74	20136.41
949.104	23467.24
949.469	33868.81
949.834	59797
950.198	56708.47
950.562	33975.09
950.927	28301.02
951.291	34019.29
951.655	28986.4
952.02	27203.51
952.384	20592.46
952.748	17917.92
953.112	17504.54
953.476	15236.9
953.839	14109.6
954.203	13968.15
954.567	17481.06
954.931	27483.81
955.294	23514.96
955.658	23643.05
956.021	40238.84
956.385	68160.11
956.748	100610.63
957.111	155846.06
957.474	174681.78
957.837	196691.89
958.2	148928.5
958.563	53593.46
958.926	36282.75
959.289	55096.4
959.652	61534.15
960.015	46127.13
960.377	66230.2
960.74	75549.85
961.102	130415.78
961.465	140184.49
961.827	75129.38
962.189	144090.09
962.552	99740.8
962.914	79975.81
963.276	51908.05
963.638	42940.03
964	42553.39
964.362	28742.74
964.724	27794.75
965.085	19839.94
965.447	16283.08
965.809	18539.22
966.17	18579.14
966.532	20130.23
966.893	18474.71
967.255	16792.65
967.616	19806.55
967.977	15871.65
968.338	17363.32
968.699	14282.35
969.061	14285.39
969.421	14373.14
969.782	16124
970.143	13598.85
970.504	14076.43
970.865	15990.12
971.225	16359.98
971.586	16008.69
971.946	22801.22
972.307	19790.05
972.667	25837.65
973.027	26629.44
973.388	32241.74
973.748	21938.41
974.108	23912.78
974.468	32351.56
974.828	24953.46
975.188	19224.57
975.548	17654.12
975.907	14843.1
976.267	16633.64
976.627	13973.9
976.986	14455.3
977.346	13791.78
977.705	13264.34
978.064	12090.73
978.424	10076.3
978.783	10434.08
979.142	11900.67
979.501	11394.07
979.86	12024.38
980.219	11584.86
980.578	14951.88
980.937	16757.17
981.296	14954.01
981.654	15385.45
982.013	23894.67
982.371	30963.4
982.73	28868.03
983.088	32665.83
983.447	34891.75
983.805	49913.34
984.163	104479.76
984.521	115846.07
984.879	169903.07
985.237	-276162.2
985.595	266827.05
985.953	66404.61
986.311	38297.87
986.669	22241.76
987.026	19205.03
987.384	25802.37
987.741	26674.57
988.099	19029.73
988.456	15183.66
988.814	14228.26
989.171	12371.85
989.528	12184.41
989.885	12848.85
990.242	10197.58
990.599	12701.13
990.956	10385.86
991.313	7265.95
991.67	5964.13
992.027	6331.62
992.383	5627.04
992.74	4936.48
993.096	5172.52
993.453	5364.89
993.809	5558.23
994.165	7405.68
994.522	6798.93
994.878	7491
995.234	9403.55
995.59	9280.59
995.946	8797.55
996.302	10042.8
996.658	11605.18
997.013	12767.37
997.369	15146.66
997.725	19453.87
998.08	12579.35
998.436	19330.92
998.791	26612.56
999.147	26586.51
999.502	29013.74
999.857	21050.96
1000.212	34227.29
1000.567	48636.12
1000.922	28103.82
1001.277	17799.07
1001.632	13188.29
1001.987	16997.15
1002.342	12212.79
1002.696	9828.31
1003.051	7850.99
1003.406	9517.63
1003.76	9449.38
1004.114	9346.11
1004.469	7872.79
1004.823	6534.06
1005.177	7063.13
1005.531	5595.2
1005.885	4967.16
1006.239	5622.84
1006.593	7039.65
1006.947	9442.95
1007.301	7071.12
1007.655	7734.71
1008.008	5674.97
1008.362	6382.18
1008.715	9093.8
1009.069	8281.72
1009.422	12490.54
1009.776	25022.98
1010.129	16543.24
1010.482	13779.9
1010.835	11584.58
1011.188	24194.36
1011.541	22797.53
1011.894	-139018.52
1012.247	408931.9
1012.6	27811.93
1012.952	17510.33
1013.305	9022.21
1013.657	6520.76
1014.01	6161.47
1014.362	5085.29
1014.715	4533.73
1015.067	3925.29
1015.419	3816.88
1015.771	3399.73
1016.123	3018.48
1016.475	3103.41
1016.827	3309.73
1017.179	3548.92
1017.531	3568.8
1017.883	3664.22
1018.234	3552.81
1018.586	4469.6
1018.938	4773.27
1019.289	6608.28
1019.64	7560.19
1019.992	7045.98
1020.343	6446.18
1020.694	5101.38
1021.045	4505.33
1021.396	5131.19
1021.747	5475.54
1022.098	6552.5
1022.449	4757.43
1022.8	4390.2
1023.151	3061.56
1023.501	2710.97
1023.852	2951.39
1024.202	3076.04
1024.553	3350.27
1024.903	3282.21
1025.253	2817.41
1025.604	2550.82
1025.954	3165.58
1026.304	3847.49
1026.654	4485.26
1027.004	6552.35
1027.354	10532.45
1027.703	9945.06
1028.053	13022.61
1028.403	19004.65
1028.753	27467.85
1029.102	37326.05
1029.452	191010.42
1029.801	8221.31
1030.15	5334.77
1030.499	4500.5
897.758	2230.36
901.051	2171.27
904.343	2204.72
907.636	2210.61
910.928	2274.3
914.22	2191.8
917.511	2198.27
920.803	2247.06
924.094	2247.46
927.384	2247.21
930.675	2211.57
933.965	2175.22
937.255	2199.43
940.544	2166.57
943.834	2169.46
947.123	2106.1
950.411	2196.06
953.7	2175.11
956.988	2161.51
960.276	2097.55
963.563	2148.38
966.851	2157.02
970.138	2198.85
973.424	2200.9
976.711	2155.41
979.997	2203.06
983.283	2246.63
986.568	2175.2
989.853	2169.77
993.138	2194.61
996.423	2278.04
999.708	2233.7
1002.992	2264.9
1006.275	2178.29
1009.559	2186.1
1012.842	2282.32
1016.125	2232.4
1019.408	2214.62
1022.69	2274.58
1025.972	2304.97
1029.254	2280.61
1032.536	2239.58
1035.817	2254.38
1039.098	2223.25
1042.379	2279.22
1045.659	2304.59
1048.939	2253.85
1052.219	2263.25
1055.498	2258.11
1058.778	2252.58
1062.057	2229.52
1065.335	2251.63
1068.614	2263.32
1071.892	2256.06
1075.17	2312.39
1078.447	2314.02
1081.724	2307.31
1085.001	2334.16
1088.278	2313.58
1091.554	2320.3
1094.83	2314.73
1098.106	2348.86
1101.382	2381.68
1104.657	2381.72
1107.932	2382.68
1111.206	2355.56
1114.481	2308.69
1117.755	2311.01
1121.029	2302.6
1124.302	2358.24
1127.575	2323.7
1130.848	2320.7
1134.121	2288.14
1137.393	2248.54
1140.665	2307.8
1143.937	2283.35
1147.208	2236.72
1150.48	2291.29
1153.75	2278.54
1157.021	2285.68
1160.291	2259.6
1163.561	2311.21
1166.831	2280.06
1170.101	2308.81
1173.37	2273.17
1176.639	2228.7
1179.907	2274.66
1183.176	2297.36
1186.444	2299.55
1189.711	2324.48
1192.979	2343.7
1196.246	2302.43
1199.513	2315.02
1202.78	2320.03
1206.046	2327.87
1209.312	2355.22
1212.578	2374.65
1215.843	2339.61
1219.108	2306.33
1222.373	2329.34
1225.638	2302.82
1228.902	2294.62
1232.166	2252.59
1235.43	2240.5
1238.693	2267.54
1241.956	2260.93
1245.219	2304.53
1248.482	2288.51
1251.744	2287.21
1255.006	2411.55
1258.268	2361.14
1261.529	2315.05
1264.79	2316.39
1268.051	2415.07
1271.312	2424.02
1274.572	2391.92
1277.832	2380.86
1281.092	2362.64
1284.351	2350.43
1287.61	2333.85
1290.869	2269.56
1294.128	2263.63
1297.386	2317.5
1300.644	2309.01
1303.902	2321.36
1307.159	2190.32
1310.416	2242.47
1313.673	2268.55
1316.93	2268.03
1320.186	2300.54
1323.442	2334.85
1326.697	2332.31
1329.953	2308.48
1333.208	2341.89
1336.463	2317.13
1339.717	2273.41
1342.972	2384.32
1346.226	2355.17
1349.479	2303.58
1352.733	2281.4
1355.986	2290.67
1359.238	2272.17
1362.491	2277.87
1365.743	2276.3
1368.995	2269.08
1372.247	2283.22
1375.498	2303.24
1378.749	2339.39
1382	2294.09
1385.251	2329.63
1388.501	2284.19
1391.751	2282.04
1395	2248.56
1398.25	2275.44
1401.499	2298.01
1404.748	2244.26
1407.996	2222.99
1411.244	2212.05
1414.492	2196.05
1417.74	2178.03
1420.987	2187.05
1424.234	2246.94
1427.481	2211.62
1430.728	2268.58
1433.974	2241.53
1437.22	2243.14
1440.465	2239.63
1443.711	2233.78
1446.956	2258.25
1450.201	2232.8
1453.445	2274.16
1456.689	2260.54
1459.933	2268.91
1463.177	2305.94
1466.42	2280.24
1469.663	2263.99
1472.906	2273.8
1476.148	2324.6
1479.391	2305.13
1482.633	2278.92
1485.874	2301.48
1489.115	2306.09
1492.356	2293.17
1495.597	2272.55
1498.838	2267.69
1502.078	2249.86
1505.318	2220.25
1508.557	2253.53
1511.797	2248.23
1515.036	2286.93
1518.274	2264.83
1521.513	2220.99
1524.751	2233.78
1527.989	2255.69
1531.227	2272.58
1534.464	2282.23
1537.701	2280.43
1540.938	2293.16
1544.174	2244.13
1547.41	2236.18
1550.646	2274.03
1553.882	2320.04
1557.117	2374.76
1560.352	2382.48
1563.587	2343.11
1566.821	2310.19
1570.055	2327.55
1573.289	2309.76
1576.523	2367.52
1579.756	2380.86
1582.989	2400.92
1586.222	2359.92
1589.454	2387.4
1592.686	2372.3
1595.918	2399.13
1599.15	2396.55
1602.381	2445.75
1605.612	2425.62
1608.843	2514.11
1612.073	2437.7
1615.303	2426
1618.533	2422.03
1621.762	2423.83
1624.992	2403.57
1628.221	2401.15
1631.449	2390.02
1634.678	2422.69
1637.906	2388.19
1641.134	2414.94
1644.361	2380.17
1647.588	2368.76
1650.815	2390.01
1654.042	2357.92
1657.269	2385.15
1660.495	2359.7
1663.72	2352.03
1666.946	2321.7
1670.171	2288.84
1673.396	2261.62
1676.621	2245.62
1679.845	2248.53
1683.069	2258.4
1686.293	2287.2
1689.517	2274.76
1692.74	2223.19
1695.963	2243.81
1699.185	2279.04
1702.408	2252.35
1705.63	2283.64
1708.852	2303.03
1712.073	2277.16
1715.294	2281.34
1718.515	2325.91
1721.736	2284.6
1724.956	2268.66
1728.176	2291.05
1731.396	2314.69
1734.616	2302.06
1737.835	2337.42
1741.054	2309.26
1744.272	2299.52
1747.491	2335.93
1750.709	2363.96
1753.927	2308.81
1757.144	2336.13
1760.361	2387.46
1763.578	2365.46
1766.795	2316.72
1770.011	2306.64
1773.227	2334.25
1776.443	2373.29
1779.658	2415.64
1782.874	2358.27
1786.089	2347.48
1789.303	2349.73
1792.518	2350.08
1795.732	2337.72
1798.945	2351.81
1802.159	2392.46
1805.372	2330.66
1808.585	2322.26
1811.797	2327.17
1815.01	2352.58
1818.222	2370.79
1821.434	2336.2
1824.645	2378.87
1827.856	2382.19
1831.067	2414.81
1834.278	2356.06
1837.488	2340.39
1840.698	2465.49
1843.908	2406.46
1847.117	2372.44
1850.326	2293.79
1853.535	2359.03
1856.744	2387.72
1859.952	2311.98
1863.16	2316.78
1866.368	2331.41
1869.575	2441.02
1872.782	2329.9
1875.989	2263.57
1879.196	2316.2
1882.402	2307.76
1885.608	2341.3
1888.814	2279.01
1892.019	2187.21
1895.224	2237.76
1898.429	2204.32
1901.634	2187.21
1904.838	2162.24
1908.042	2214.23
1911.246	2227.5
1914.449	2187.1
1917.652	2172.56
1920.855	2155.19
1924.058	2181.45
1927.26	2226.1
1930.462	2250.28
1933.664	2287.79
1936.865	2229.01
1940.066	2246.14
1943.267	2191.06
1946.467	2199.65
1949.668	2219.1
1952.868	2289.13
1956.067	2277.24
1959.267	2216.4
1962.466	2239.81
1965.665	2222.16
1968.863	2215.38
1972.061	2221.47
1975.259	2215.89
1978.457	2288.45
1981.654	2252.38
1984.852	2256.52
1988.048	2204.9
1991.245	2196.65
1994.441	2283.29
1997.637	2247.6
2000.833	2227.39
2004.028	2263.32
2007.223	2323.62
2010.418	2310.09
2013.613	2264.61
2016.807	2254.13
2020.001	2248.43
2023.194	2272.87
2026.388	2254.5
2029.581	2202.23
2032.774	2261.24
2035.966	2273.53
2039.158	2218.61
2042.35	2238.53
2045.542	2164.29
2048.733	2246.58
2051.924	2245.91
2055.115	2262.84
2058.306	2226.32
2061.496	2282.44
2064.686	2329.66
2067.875	2239.41
2071.065	2245.14
2074.254	2264.94
2077.442	2217.79
2080.631	2302.79
2083.819	2230.43
2087.007	2220.01
2090.195	2204.64
2093.382	2220.5
2096.569	2203.39
2099.756	2168.01
2102.942	2210.97
2106.128	2222.16
2109.314	2211.31
2112.5	2196.94
2115.685	2164.85
2118.87	2173.32
2122.055	2234.3
2125.239	2212.91
2128.424	2199.41
2131.608	2265.68
2134.791	2249.63
2137.974	2288.17
2141.157	2276.04
2144.34	2244.42
2147.523	2237.09
2150.705	2261.78
2153.887	2231.11
2157.068	2199.91
2160.25	2187.53
2163.431	2211.46
2166.611	2177.6
2169.792	2196.9
2172.972	2108.06
2176.152	2163.16
2179.331	2193.26
2182.511	2192.17
2185.69	2214.29
2188.868	2218.74
2192.047	2254
2195.225	2262.9
2198.403	2215.73
2201.58	2202.35
2204.758	2191.58
2207.935	2266.49
2211.111	2180.11
2214.288	2166.69
2217.464	2202.48
2220.64	2161.93
2223.815	2211.1
2226.991	2145.79
2230.166	2161.5
2233.34	2200.81
2236.515	2216.28
2239.689	2279.81
2242.863	2228.53
2246.036	2282.53
2249.209	2267.76
2252.382	2288.79
2255.555	2295.62
2258.727	2244.42
2261.9	2275.56
2265.071	2267.41
2268.243	2264.04
2271.414	2211.91
2274.585	2192.72
2277.756	2255.05
2280.926	2210.27
2284.096	2240.94
2287.266	2169.46
2290.436	2214.72
2293.605	2235.89
2296.774	2268.6
2299.942	2275.1
2303.111	2292.32
2306.279	2342.45
2309.447	2328.84
2312.614	2299.93
2315.781	2324.82
2318.948	2302.28
2322.115	2338.28
2325.281	2239.52
2328.447	2248.04
2331.613	2222.78
2334.779	2213.41
2337.944	2207.51
2341.109	2208.31
2344.274	2196.78
2347.438	2164.31
2350.602	2184.89
2353.766	2194.41
2356.929	2182.46
2360.092	2221.65
2363.255	2189.26
2366.418	2149.04
2369.58	2220.68
2372.742	2090.34
2375.904	2086.01
2379.066	2069.12
2382.227	2098.03
2385.388	2059.71
2388.548	2005.66
2391.709	2049.7
2394.869	2036.43
2398.029	2097.41
2401.188	2096.64
2404.347	2055.87
2407.506	2139.79
2410.665	2177.34
2413.823	2165.6
2416.981	2140.86
2420.139	2157.78
2423.296	2201.03
2426.453	2173.33
2429.61	2195.15
2432.767	2160.96
2435.923	2201.51
2439.079	2151.01
2442.235	2185.26
2445.391	2125.27
2448.546	2163.8
2451.701	2201.44
2454.855	2195.84
2458.009	2226.28
2461.163	2219.2
2464.317	2188.6
2467.471	2215.51
2470.624	2242.79
2473.777	2231.44
2476.929	2248.45
2480.082	2272.23
2483.234	2247.03
2486.385	2189.03
2489.537	2182.56
2492.688	2170.55
2495.839	2185.61
2498.989	2200.44
2502.14	2188.01
2505.29	2177.91
2508.439	2201.73
2511.589	2141.14
2514.738	2143.09
2517.887	2166.6
2521.035	2240.29
2524.183	2202.72
2527.331	2188.21
2530.479	2179.9
2533.627	2182.78
