Data from C_1_HIR_IL_4N_Splice17_11-52-15-705.txt Node
Date: Sat Mar 14 11:52:15 EDT 2020
User: sa697716
Spectrometer: FLMS03696
Trigger mode: 0
Integration Time (sec): 3.180400E-1
Scans to average: 20
Electric dark correction enabled: true
Nonlinearity correction enabled: true
Boxcar width: 5
XAxis mode: Wavelengths
Number of Pixels in Spectrum: 2048
>>>>>Begin Spectral Data<<<<<
187.83	-264164.55
188.298	1816.59
188.766	1019.21
189.233	951.86
189.701	1349.09
190.169	1851.29
190.636	703.57
191.104	538.36
191.571	90.23
192.039	-81
192.506	-76.77
192.974	364.71
193.441	-806.5
193.908	-145.49
194.375	-1.85
194.842	33.43
195.31	132.62
195.777	119.22
196.244	319.65
196.711	414.96
197.177	524.64
197.644	771.02
198.111	1346.02
198.578	1894.72
199.045	1552.24
199.511	2561.92
199.978	2999.65
200.445	2543.96
200.911	2851.18
201.378	3173.98
201.844	2909.93
202.31	5014.68
202.777	5244.69
203.243	2909.63
203.709	2791.13
204.176	3305.28
204.642	2714.8
205.108	2552.58
205.574	2108.27
206.04	1943.43
206.506	1818.5
206.972	1699.39
207.438	1632.07
207.903	1854.26
208.369	1643.67
208.835	1645.42
209.301	1717.75
209.766	1766.29
210.232	1745.17
210.697	2124.77
211.163	2612.84
211.628	3957.48
212.094	3363.52
212.559	4145.42
213.024	2605.03
213.49	3149.24
213.955	3073.02
214.42	3030.06
214.885	2814.97
215.35	2704.25
215.815	2596.69
216.28	2751.43
216.745	2245.67
217.21	2421.14
217.675	2217.32
218.14	2483.64
218.604	2787.05
219.069	3182.79
219.534	3325.06
219.998	3892.01
220.463	4735.8
220.927	5871.42
221.392	5553.24
221.856	5640.41
222.32	7126.64
222.785	8817.47
223.249	11114.42
223.713	12414.2
224.177	12420.44
224.642	15976.98
225.106	19682.35
225.57	21533.8
226.034	16027.22
226.497	24393.25
226.961	22038.66
227.425	25675.75
227.889	28559
228.353	28565.32
228.816	59122.43
229.28	56596.49
229.744	47743.53
230.207	29019.56
230.671	28568.83
231.134	47275.29
231.597	54525.79
232.061	54630.16
232.524	53391.04
232.987	36797.71
233.45	33205.85
233.914	29798.39
234.377	30608.1
234.84	28039.69
235.303	33097.92
235.766	36915.99
236.229	38184.78
236.691	24065.5
237.154	27006.85
237.617	20303.01
238.08	20805.04
238.542	24336.84
239.005	17396
239.468	17248.89
239.93	16259.15
240.393	14773.43
240.855	12989.23
241.317	13308.62
241.78	16214.72
242.242	16784.31
242.704	18159.06
243.166	15803
243.629	14353.17
244.091	16564.08
244.553	18183.59
245.015	19562.37
245.477	25302.11
245.939	37108.27
246.4	39434.72
246.862	38375.57
247.324	36237.82
247.786	40549.16
248.247	53263.82
248.709	55065.9
249.17	41202.07
249.632	38855.57
250.093	45103.37
250.555	39037.22
251.016	23830.58
251.477	22600.77
251.939	24421.7
252.4	25635.89
252.861	30522.45
253.322	28419.25
253.783	33866.95
254.244	43936.35
254.705	34645.95
255.166	30839.32
255.627	30411.3
256.088	42948.6
256.549	45708.43
257.009	39344.66
257.47	47753.81
257.931	38843.51
258.391	29111.55
258.852	30056.87
259.312	31541.78
259.773	39004
260.233	32971.08
260.694	27821.67
261.154	31607.91
261.614	25388.66
262.074	22730.58
262.534	23622.15
262.994	22323.41
263.455	29778.45
263.915	25082.68
264.374	23660.2
264.834	25856.73
265.294	28694.19
265.754	29743.86
266.214	28162.02
266.673	26383.84
267.133	33343.64
267.593	33111.03
268.052	40532.67
268.512	35279.08
268.971	42572.97
269.431	46704.82
269.89	41891.38
270.349	62800.82
270.809	70031.79
271.268	63010.73
271.727	141444.6
272.186	91622.33
272.645	68765.06
273.104	49645.64
273.563	71919.49
274.022	56581.79
274.481	48164.87
274.94	37109.85
275.399	27609.08
275.857	32179.43
276.316	43501.59
276.775	38755.99
277.233	38177.7
277.692	35769.36
278.15	40487.28
278.609	41669.51
279.067	38565.35
279.525	35823.3
279.984	46260.34
280.442	55611.27
280.9	54772.93
281.358	36063.75
281.816	33615.14
282.274	32951.67
282.732	34069.1
283.19	34265.15
283.648	29609.39
284.106	31567.09
284.564	32153.41
285.021	29824.37
285.479	22217.25
285.937	20248.77
286.394	17770.53
286.852	18290.34
287.309	19218.01
287.767	18558.84
288.224	17638.02
288.682	19332.43
289.139	21245.2
289.596	19422.49
290.053	20198.05
290.511	25555.43
290.968	30998.65
291.425	42132.1
291.882	35117.41
292.339	30568.07
292.796	30396.29
293.252	28655.45
293.709	22768.45
294.166	20428.34
294.623	22607.02
295.079	21691.82
295.536	21779.47
295.992	19802.85
296.449	19578.71
296.905	20334.68
297.362	19495.44
297.818	20501.85
298.274	21274.41
298.731	21722.65
299.187	21485.97
299.643	23079.98
300.099	27940.99
300.555	30658.11
301.011	25592.24
301.467	24669.83
301.923	28899.52
302.379	28253.36
302.835	27750.94
303.291	27782.83
303.746	31615.28
304.202	39994.48
304.658	40182.99
305.113	27021.88
305.569	26502.4
306.024	28250.5
306.479	26924.21
306.935	22698.45
307.39	24821.05
307.845	22922.57
308.301	23054.73
308.756	22474.07
309.211	21634.33
309.666	22149.77
310.121	27514.61
310.576	27931.27
311.031	27764.82
311.486	31844.53
311.94	31816.38
312.395	42534.39
312.85	79973.05
313.305	393168.15
313.759	2032567.48
314.214	147437.71
314.668	116764.4
315.123	98220.5
315.577	35230.64
316.032	31337.19
316.486	39245.98
316.94	31014.2
317.394	21624.42
317.849	16828.18
318.303	15967.37
318.757	15066
319.211	16645
319.665	14595.92
320.119	14773.24
320.572	21177.2
321.026	19798.15
321.48	16477.79
321.934	17983.79
322.387	18037.4
322.841	19478.08
323.295	17493.81
323.748	20186.89
324.202	20458.57
324.655	24566.52
325.108	34327.76
325.562	24265.98
326.015	28825.84
326.468	21796.7
326.921	24357.02
327.374	22672.33
327.827	23586.85
328.28	26700.17
328.733	17898.54
329.186	15770.41
329.639	15038.36
330.092	12682.56
330.545	12098.96
330.997	12205.41
331.45	13322.17
331.903	15615.43
332.355	26903.54
332.808	26169.79
333.26	21621.23
333.713	23464.37
334.165	23661.27
334.617	31609.97
335.069	25549.54
335.522	46164.17
335.974	51138.09
336.426	46804.34
336.878	32461.38
337.33	16479.22
337.782	16102.72
338.234	20164.47
338.686	24123.42
339.137	28595.86
339.589	26926.94
340.041	21109.03
340.493	18138.56
340.944	18608.23
341.396	20048.11
341.847	16850.95
342.299	19841.62
342.75	24204.72
343.201	21213.69
343.653	24418.15
344.104	30001.79
344.555	23648.72
345.006	36879.35
345.457	28229.03
345.908	22439.97
346.359	21141.77
346.81	17227.33
347.261	18159.75
347.712	17934.7
348.163	19219.97
348.613	19478.29
349.064	18189.14
349.515	15914.32
349.965	16316.67
350.416	19699.37
350.866	21627.05
351.317	24449.92
351.767	40536.32
352.217	51338.69
352.668	42565.46
353.118	39029.39
353.568	37687.39
354.018	29789.4
354.468	31425.11
354.918	22547.74
355.368	19737.73
355.818	27904.44
356.268	80256.01
356.718	335912.05
357.168	83499.88
357.617	41898.43
358.067	46577.39
358.517	43597.99
358.966	51194.71
359.416	57429.34
359.865	62112
360.315	73897.65
360.764	34507.77
361.213	19360.62
361.663	18354.65
362.112	22666.67
362.561	36693.27
363.01	27706.75
363.459	23314.48
363.908	25207.6
364.357	21393.41
364.806	36114.06
365.255	24853.56
365.703	22762.69
366.152	22794.64
366.601	18484.83
367.05	15045.4
367.498	13644.07
367.947	14264.66
368.395	14862.26
368.844	13196.84
369.292	15959.95
369.74	11052.28
370.189	16906.65
370.637	19829.37
371.085	17126.89
371.533	20894.72
371.981	20133.4
372.429	19239.42
372.877	20039.38
373.325	16765.42
373.773	17101.86
374.221	15241.03
374.669	18957.47
375.116	16460.64
375.564	16640.56
376.012	18653.89
376.459	15392.92
376.907	18455.36
377.354	22390.46
377.801	20945.88
378.249	24192.88
378.696	31009
379.143	37690.18
379.591	40261.23
380.038	68165.59
380.485	49399.18
380.932	53480.42
381.379	49050.19
381.826	36187.85
382.273	25759.61
382.72	22585.46
383.166	22041.76
383.613	14341.36
384.06	12959.12
384.506	15017.56
384.953	11069.86
385.4	11153.37
385.846	9791.83
386.292	9579.08
386.739	9400.76
387.185	9331.43
387.631	9346.96
388.078	9073.16
388.524	9718.6
388.97	8972.85
389.416	7493.04
389.862	7956.21
390.308	7545.74
390.754	7657.6
391.2	8308.1
391.645	8483.58
392.091	8090.94
392.537	7815.23
392.983	7832.82
393.428	7682.32
393.874	8216.34
394.319	8228.05
394.765	7805.53
395.21	8018.31
395.655	7499.26
396.101	7015.1
396.546	6337.64
396.991	6387.81
397.436	5927.68
397.881	5714
398.326	5413.9
398.771	5121.93
399.216	4475.98
399.661	4019.92
400.106	3999.08
400.551	4089.91
400.995	3658.31
401.44	3607.85
401.885	3381.81
402.329	3412.82
402.774	3268.96
403.218	3153.39
403.663	3031.94
404.107	3105.65
404.551	3122.89
404.995	2857.98
405.44	2748.68
405.884	2790.68
406.328	2693.15
406.772	2684.66
407.216	2435.29
407.66	2345.53
408.104	2221.81
408.547	2075.4
408.991	2006.83
409.435	1927.12
409.879	1895.52
410.322	1866.29
410.766	1795.72
411.209	1705.6
411.653	1633.58
412.096	1597.39
412.54	1598.52
412.983	1587.77
413.426	1590.66
413.869	1588.07
414.312	1557.81
414.756	1499.61
415.199	1430.67
415.642	1385.26
416.085	1386.55
416.527	1373.99
416.97	1396.3
417.413	1321.65
417.856	1307.17
418.298	1290.45
418.741	1280.52
419.184	1275.15
419.626	1325.14
420.069	1324.37
420.511	1330.12
420.953	1299.28
421.396	1287.24
421.838	1252.23
422.28	1278.86
422.722	1282.05
423.164	1301.07
423.606	1275.78
424.048	1272.38
424.49	1208.59
424.932	1201.21
425.374	1186.94
425.816	1204.44
426.258	1226.83
426.699	1239.17
427.141	1222.77
427.582	1242.44
428.024	1236.57
428.465	1233.18
428.907	1202.04
429.348	1188.28
429.789	1185.96
430.231	1158.36
430.672	1175.57
431.113	1147.48
431.554	1129.01
431.995	1100.26
432.436	1060.14
432.877	1034.24
433.318	1011.9
433.759	1009.83
434.2	1010.73
434.64	1001.77
435.081	1004.75
435.522	953.1
435.962	916.89
436.403	899.04
436.843	911.92
437.284	892.12
437.724	869.47
438.164	876.51
438.604	857.4
439.045	823.46
439.485	789.96
439.925	773.92
440.365	753.18
440.805	743.66
441.245	733.31
441.685	705.72
442.125	701.26
442.564	705.01
443.004	687.09
443.444	681.94
443.883	683.69
444.323	676.79
444.762	675.48
445.202	684.49
445.641	695.45
446.081	690.25
446.52	694.01
446.959	684.48
447.398	666.24
447.837	654.8
448.276	643.13
448.716	648.96
449.154	654.65
449.593	639.21
450.032	635.79
450.471	623.1
450.91	623.42
451.349	621.71
451.787	619.34
452.226	628.35
452.664	630.52
453.103	632.71
453.541	628.47
453.98	627.32
454.418	631.35
454.856	620.08
455.295	619.67
455.733	624.25
456.171	627.24
456.609	627.81
457.047	626.68
457.485	634.6
457.923	634.81
458.361	625.83
458.798	627.44
459.236	626.79
459.674	633.58
460.111	636.28
460.549	630.41
460.987	628.81
461.424	627.65
461.862	624.65
462.299	614.92
462.736	614.12
463.173	617.62
463.611	611.21
464.048	609.27
464.485	612.29
464.922	608.46
465.359	604.68
465.796	597.86
466.233	593.62
466.67	590.16
467.106	589.25
467.543	584.65
467.98	577.99
468.416	563.63
468.853	558.3
469.29	542.9
469.726	536.24
470.162	522.54
470.599	514.83
471.035	509.69
471.471	497.69
471.907	495.32
472.344	491.12
472.78	491.54
473.216	496.96
473.652	492.05
474.088	489.6
474.523	487
474.959	490.88
475.395	486.37
475.831	482.6
476.266	482.85
476.702	480.43
477.138	475.63
477.573	473.69
478.008	471.14
478.444	471.66
478.879	476.31
479.314	477.5
479.75	476.79
480.185	478.27
480.62	482.25
481.055	485.46
481.49	488.28
481.925	493.47
482.36	501.97
482.795	515.01
483.229	528.48
483.664	538.66
484.099	541.38
484.534	549.39
484.968	554.25
485.403	554.38
485.837	552.61
486.271	551.22
486.706	551.79
487.14	544.15
487.574	535.41
488.009	530.26
488.443	524.8
488.877	528.9
489.311	529.78
489.745	534.86
490.179	539.31
490.613	549.67
491.046	552.8
491.48	556.07
491.914	556.61
492.348	559.87
492.781	562.23
493.215	562.22
493.648	562.28
494.082	565.72
494.515	564.78
494.948	571.07
495.382	572.61
495.815	575.47
496.248	579.4
496.681	588.08
497.114	596.5
497.547	603.99
497.98	613.49
498.413	617.79
498.846	624.12
499.279	629.84
499.711	631.1
500.144	631.65
500.577	638.94
501.009	644.92
501.442	652.54
501.874	652.04
502.306	652.4
502.739	658.28
503.171	668.36
503.603	669.93
504.036	676.63
504.468	680.63
504.9	688.88
505.332	693.76
505.764	697.58
506.196	702.31
506.627	713.64
507.059	723.6
507.491	729.22
507.923	727.89
508.354	739.07
508.786	747.96
509.217	762.56
509.649	774.48
510.08	789.34
510.512	802.61
510.943	813.9
511.374	823.44
511.805	840.27
512.237	856.72
512.668	883.75
513.099	907.73
513.53	930.02
513.961	946.67
514.391	973.76
514.822	1001.74
515.253	1031.98
515.684	1054.74
516.114	1079.95
516.545	1098.47
516.975	1121.57
517.406	1136.61
517.836	1140.77
518.267	1148.77
518.697	1166.96
519.127	1173.49
519.558	1181.79
519.988	1187.08
520.418	1198.03
520.848	1215.55
521.278	1225.35
521.708	1245.78
522.138	1259.14
522.567	1286.54
522.997	1310.28
523.427	1324.78
523.857	1340.47
524.286	1352.53
524.716	1369.06
525.145	1387.33
525.575	1398.03
526.004	1412.15
526.433	1405.65
526.863	1408.13
527.292	1403.05
527.721	1408.67
528.15	1414.79
528.579	1417.23
529.008	1426.58
529.437	1445.85
529.866	1458.98
530.295	1475.27
530.724	1486.94
531.152	1511.55
531.581	1525.67
532.01	1540.98
532.438	1550.41
532.867	1564.22
533.295	1580.8
533.723	1586.82
534.152	1587.17
534.58	1587.07
535.008	1573.23
535.436	1575.96
535.865	1583.45
536.293	1596.7
536.721	1611.54
537.149	1634.14
537.576	1638.11
538.004	1649.99
538.432	1658.77
538.86	1657.12
539.287	1664.72
539.715	1678.17
540.143	1682.13
540.57	1680.05
540.998	1675.68
541.425	1654.41
541.852	1636.15
542.28	1634.74
542.707	1621.32
543.134	1609.28
543.561	1607.03
543.988	1600.25
544.415	1600.04
544.842	1595.58
545.269	1588.8
545.696	1591.11
546.123	1603.82
546.549	1594.66
546.976	1582.57
547.403	1581.29
547.829	1582.43
548.256	1582.86
548.682	1579.87
549.108	1573.62
549.535	1571.88
549.961	1573.3
550.387	1561.36
550.813	1555.57
551.24	1561.58
551.666	1562.66
552.092	1554.03
552.518	1548.17
552.943	1542.36
553.369	1547.34
553.795	1551.05
554.221	1552.15
554.646	1548.38
555.072	1556.8
555.498	1559.89
555.923	1565.95
556.349	1577.64
556.774	1583.33
557.199	1583.13
557.625	1586.42
558.05	1580.35
558.475	1588.19
558.9	1585.36
559.325	1576.46
559.75	1568.64
560.175	1561.61
560.6	1554.51
561.025	1551.26
561.449	1551.34
561.874	1553.14
562.299	1555.85
562.723	1560.66
563.148	1549.94
563.572	1551.98
563.997	1558.78
564.421	1561.85
564.846	1560.96
565.27	1561.57
565.694	1557.39
566.118	1565.37
566.542	1571.79
566.966	1564.45
567.39	1557.43
567.814	1546.01
568.238	1541.97
568.662	1543.78
569.086	1543.76
569.509	1546.78
569.933	1532.09
570.357	1523.43
570.78	1503.32
571.204	1488.4
571.627	1476.33
572.05	1472.76
572.474	1469.37
572.897	1457.38
573.32	1449.28
573.743	1438.51
574.166	1421.38
574.589	1418.94
575.012	1410.55
575.435	1407.03
575.858	1397.73
576.281	1386.89
576.704	1371.97
577.126	1359.43
577.549	1348.56
577.972	1337.69
578.394	1326.86
578.817	1319.53
579.239	1302.02
579.661	1288.78
580.084	1274.26
580.506	1261.48
580.928	1256.36
581.35	1246.28
581.772	1242.95
582.194	1230.22
582.616	1218.84
583.038	1207.84
583.46	1197.49
583.882	1194.33
584.303	1197.32
584.725	1192.59
585.147	1194.41
585.568	1201.07
585.99	1209.59
586.411	1212.6
586.833	1223.02
587.254	1223.67
587.675	1232.05
588.096	1240.84
588.518	1235.63
588.939	1220.19
589.36	1217.3
589.781	1206.12
590.202	1184.59
590.623	1175.68
591.043	1173.27
591.464	1162.88
591.885	1159.03
592.305	1153.88
592.726	1143.19
593.147	1143.82
593.567	1139.8
593.987	1133.64
594.408	1130.64
594.828	1127.91
595.248	1123.79
595.669	1108.83
596.089	1103.41
596.509	1097.25
596.929	1086.92
597.349	1087.22
597.769	1078.14
598.189	1072.74
598.608	1073.77
599.028	1074.83
599.448	1074.98
599.867	1064.41
600.287	1060.44
600.706	1057.06
601.126	1049.3
601.545	1048.19
601.965	1046.53
602.384	1042.66
602.803	1044.96
603.222	1040.8
603.641	1035.09
604.061	1031.87
604.48	1029.23
604.898	1035.61
605.317	1038.48
605.736	1039.85
606.155	1037
606.574	1029.81
606.992	1032.49
607.411	1028.29
607.829	1020.49
608.248	1016.6
608.666	1013.45
609.085	1011.43
609.503	1003.36
609.921	997.65
610.339	998.15
610.758	996.52
611.176	991.41
611.594	984.43
612.012	980.25
612.43	982.5
612.847	986.67
613.265	987.81
613.683	990.37
614.101	990.69
614.518	987
614.936	978.97
615.353	967.66
615.771	965.18
616.188	964.89
616.606	961.81
617.023	956.35
617.44	945.63
617.857	938.31
618.274	931.65
618.691	927.53
619.108	919.35
619.525	914.53
619.942	918.49
620.359	919.56
620.776	915.21
621.192	912.57
621.609	909.83
622.026	914.17
622.442	918.94
622.859	920.69
623.275	914
623.691	918.3
624.108	927.09
624.524	937.97
624.94	938.08
625.356	944.98
625.772	954.37
626.188	963.89
626.604	964.89
627.02	960.46
627.436	959.33
627.852	964.86
628.268	974.66
628.683	966.8
629.099	960.81
629.514	957.35
629.93	960.98
630.345	963.89
630.761	959.99
631.176	962.29
631.591	958.99
632.007	954.63
632.422	953.41
632.837	944.93
633.252	943.66
633.667	936.26
634.082	929.16
634.497	918.74
634.911	903.93
635.326	901.37
635.741	888.85
636.155	881.77
636.57	882.03
636.984	881.2
637.399	881.86
637.813	880.11
638.228	877.55
638.642	879.66
639.056	871.55
639.47	871.45
639.884	865.71
640.298	860.07
640.712	859.56
641.126	850.61
641.54	843.38
641.954	838.07
642.368	830.45
642.781	826.53
643.195	814.09
643.609	815.92
644.022	812.01
644.436	808.77
644.849	801.07
645.262	792.19
645.676	793.97
646.089	792.35
646.502	783.41
646.915	780.37
647.328	768.6
647.741	768.35
648.154	759.21
648.567	758.75
648.98	750.27
649.393	751.36
649.805	749.58
650.218	744.38
650.631	733.51
651.043	730.13
651.456	726.16
651.868	726.62
652.28	739.72
652.693	749.41
653.105	753.71
653.517	761.26
653.929	761.59
654.341	766.22
654.753	758.9
655.165	764.09
655.577	762.46
655.989	759.41
656.401	754.66
656.813	729.23
657.224	716.07
657.636	696.26
658.047	683.56
658.459	671.28
658.87	665.15
659.282	656.68
659.693	643.36
660.104	635.12
660.515	627.3
660.926	626.99
661.338	626.86
661.749	623.64
662.159	619.85
662.57	618.84
662.981	617.05
663.392	613.9
663.803	619.1
664.213	618.45
664.624	617.26
665.035	621.78
665.445	614.27
665.855	610.94
666.266	608.04
666.676	608.5
667.086	604.04
667.497	606.01
667.907	603.34
668.317	598.7
668.727	597.72
669.137	599.92
669.547	599.2
669.956	602.93
670.366	606.14
670.776	608.14
671.186	611.06
671.595	615.13
672.005	619.9
672.414	620.17
672.824	619.61
673.233	623.6
673.642	625.19
674.052	628.89
674.461	631.75
674.87	636.14
675.279	634.11
675.688	636.42
676.097	638.21
676.506	635.49
676.915	647.69
677.323	650.84
677.732	650.96
678.141	650.6
678.549	641.3
678.958	639.59
679.366	637.9
679.775	641.41
680.183	650.44
680.592	652.43
681	655.16
681.408	647.31
681.816	651.04
682.224	655.94
682.632	661.78
683.04	683.37
683.448	698.9
683.856	719.2
684.264	742.13
684.671	760.18
685.079	786.76
685.487	814.25
685.894	856.76
686.302	887.27
686.709	911.45
687.116	941.35
687.524	963.9
687.931	983.25
688.338	997.03
688.745	1009.05
689.152	1024.82
689.559	1048.52
689.966	1074.27
690.373	1083.1
690.78	1109.68
691.187	1150.73
691.593	1182.11
692	1210.24
692.407	1252.61
692.813	1308.95
693.22	1355.26
693.626	1403.49
694.032	1443.63
694.439	1503.23
694.845	1551.83
695.251	1612.88
695.657	1670.39
696.063	1752.35
696.469	1816.51
696.875	1879.42
697.281	1920.44
697.687	1969.14
698.093	2010.74
698.498	2084.67
698.904	2143.25
699.31	2227.95
699.715	2293.37
700.12	2380.95
700.526	2410.85
700.931	2483.61
701.337	2542.09
701.742	2585.57
702.147	2670.12
702.552	2711.76
702.957	2775.98
703.362	2810.13
703.767	2850.55
704.172	2899.91
704.577	2874.71
704.981	2931.51
705.386	2961.55
705.791	2970.22
706.195	3051.17
706.6	3075.11
707.004	3161.49
707.408	3148.59
707.813	3187.71
708.217	3190.6
708.621	3206.96
709.025	3310.24
709.43	3325.68
709.834	3394.88
710.237	3473.91
710.641	3474
711.045	3507.16
711.449	3515.31
711.853	3556.74
712.256	3611
712.66	3660.42
713.064	3745.8
713.467	3799.67
713.87	3920.03
714.274	3977.78
714.677	4098.08
715.08	4269.61
715.484	4448.55
715.887	4662.45
716.29	4873.21
716.693	5090.68
717.096	5345.68
717.499	5489.5
717.901	5528.77
718.304	5572.5
718.707	5614.71
719.109	5525.09
719.512	5504.5
719.915	5383.21
720.317	5339.84
720.719	5396.97
721.122	5381.27
721.524	5343.62
721.926	5314.08
722.328	5428.99
722.731	5429.48
723.133	5467.28
723.535	5676.51
723.937	5710.16
724.338	5775.87
724.74	5825.37
725.142	5755
725.544	5761.52
725.945	5793.37
726.347	5799.43
726.748	5800.29
727.15	5823.6
727.551	5791.2
727.952	5770.26
728.354	5748.68
728.755	5753.33
729.156	5718.1
729.557	5727.22
729.958	5606
730.359	5554.11
730.76	5539.88
731.161	5484.51
731.562	5464.63
731.962	5474.63
732.363	5410.82
732.763	5347.3
733.164	5390.89
733.564	5325.28
733.965	5225.16
734.365	5193.19
734.766	5230.22
735.166	5191.49
735.566	5136.84
735.966	5110.79
736.366	5107.26
736.766	5046.96
737.166	5081.38
737.566	5040.67
737.966	5017.93
738.365	5064.39
738.765	5061.01
739.165	4981.48
739.564	4959
739.964	5008.38
740.363	4962.59
740.763	4963.67
741.162	4954.14
741.561	4924.68
741.96	4878.66
742.36	4898.09
742.759	4905.48
743.158	4948.33
743.557	4968.1
743.955	5010.64
744.354	4962.78
744.753	5026.91
745.152	4981.8
745.55	5040.68
745.949	5035.12
746.348	5036.3
746.746	5057.1
747.144	5015.78
747.543	4993.28
747.941	5044.35
748.339	4968.44
748.737	4962.29
749.136	4953.01
749.534	5025.01
749.932	4996.2
750.33	5020.68
750.727	5080.77
751.125	5056.57
751.523	5039.85
751.921	5086.15
752.318	5051.19
752.716	5118.15
753.113	5135.05
753.511	5163.32
753.908	5163.67
754.305	5143.59
754.703	5209.07
755.1	5273.69
755.497	5336.11
755.894	5538.52
756.291	5728.88
756.688	6080.49
757.085	6549.23
757.482	7204.52
757.878	7918.58
758.275	8567.09
758.672	9463.21
759.068	10194.27
759.465	11238.04
759.861	12582.6
760.258	14138.75
760.654	14945.95
761.05	14827.21
761.447	14141.36
761.843	13163.27
762.239	12158.62
762.635	11709.42
763.031	11276.57
763.427	10642.55
763.822	9976.14
764.218	9321.53
764.614	8471.99
765.01	7902
765.405	7535.02
765.801	7256.61
766.196	6903.76
766.592	6707.02
766.987	6368.7
767.382	6136.79
767.778	6045.56
768.173	5910.47
768.568	5832.24
768.963	5701.16
769.358	5721.6
769.753	5673.4
770.148	5584.5
770.542	5583.57
770.937	5548.38
771.332	5648.41
771.726	5673.02
772.121	5603.35
772.515	5660.49
772.91	5647.61
773.304	5723.26
773.699	5654.2
774.093	5708.58
774.487	5770.91
774.881	5818.35
775.275	5815.08
775.669	5768.08
776.063	5815.88
776.457	5855.64
776.851	5772.99
777.245	5760.88
777.638	5795.01
778.032	5917.15
778.425	5879.1
778.819	5922.06
779.212	5875.75
779.606	5832.82
779.999	5853.81
780.392	5834.78
780.786	5924.79
781.179	5948.05
781.572	5995.23
781.965	6008.86
782.358	5947.64
782.751	6009.13
783.143	5956.55
783.536	6033.62
783.929	6080.13
784.322	6203.61
784.714	6238.2
785.107	6230.24
785.499	6306.35
785.891	6284.22
786.284	6264.75
786.676	6415.38
787.068	6390.2
787.46	6447.74
787.852	6469.16
788.245	6562.35
788.636	6591.83
789.028	6658.12
789.42	6701.19
789.812	6713.45
790.204	6815.86
790.595	6921.32
790.987	6711.06
791.378	6736.06
791.77	6872.59
792.161	7016.51
792.553	7070.9
792.944	6954.19
793.335	6883.33
793.726	6957.63
794.117	7051.51
794.508	7196.94
794.899	7162.25
795.29	7308.8
795.681	7373.68
796.072	7223.96
796.463	7022.13
796.853	7031.84
797.244	7197.75
797.634	7234.24
798.025	7236.19
798.415	7246.8
798.806	7340.08
799.196	7433.31
799.586	7487.85
799.976	7446.54
800.366	7689.23
800.756	7950.04
801.146	7908.57
801.536	7940.26
801.926	8020.58
802.316	8045.37
802.706	8120.66
803.095	7986.89
803.485	8092.73
803.874	8135.39
804.264	8409.24
804.653	8379.15
805.043	8528.67
805.432	8642.58
805.821	8640.34
806.21	8659.29
806.599	8785.82
806.988	8833.14
807.377	8952.61
807.766	9089.04
808.155	9384.56
808.544	9106
808.933	9120.62
809.321	9099.96
809.71	9410.42
810.098	9570.62
810.487	10062.64
810.875	10568.19
811.264	10589.81
811.652	10886.33
812.04	11036.44
812.428	11209.93
812.816	12013.29
813.204	12452.66
813.592	13027.97
813.98	13381.67
814.368	13288.96
814.756	13787.61
815.144	13698.6
815.531	14192.25
815.919	14113.46
816.306	14437.19
816.694	14107.25
817.081	14161.4
817.469	14524.52
817.856	14521.56
818.243	14809.64
818.63	15223.26
819.017	14781.37
819.404	14847.13
819.791	15244.43
820.178	15894.89
820.565	16156.4
820.952	17142.13
821.339	16621.65
821.725	16815.42
822.112	16029.63
822.498	15987
822.885	16122.23
823.271	16019.18
823.657	16463.09
824.044	16463.81
824.43	16539.75
824.816	16506.1
825.202	16049.15
825.588	17125.49
825.974	17145.01
826.36	17688.93
826.746	17722.01
827.132	18094.34
827.517	18070.89
827.903	17237.88
828.289	17287.79
828.674	16463.66
829.06	16359.5
829.445	16778.91
829.83	17157.15
830.216	17661.95
830.601	18058.98
830.986	17634.65
831.371	17505.33
831.756	18091.59
832.141	17649.44
832.526	17644.5
832.911	17954.89
833.295	17834.49
833.68	18336.63
834.065	17675.51
834.449	16716.3
834.834	16641.84
835.218	16638.77
835.603	16994.42
835.987	16779.59
836.371	17659.34
836.755	17548.09
837.139	17979.77
837.524	18246.8
837.908	18059.98
838.291	18133.53
838.675	18205.74
839.059	18423.35
839.443	18418.02
839.827	18182.86
840.21	18691.77
840.594	18539.86
840.977	18769.64
841.361	18745.43
841.744	19140.72
842.127	18979.45
842.511	19245.61
842.894	19882.94
843.277	20288.71
843.66	20864.65
844.043	20949.11
844.426	20093.93
844.809	19770.43
845.191	19802.25
845.574	19308.95
845.957	18926.18
846.339	18810.52
846.722	18254.19
847.104	18323.54
847.487	18148.64
847.869	18160.9
848.252	18459.5
848.634	18814.02
849.016	19094.96
849.398	19231.16
849.78	20135.91
850.162	20136.2
850.544	20574.46
850.926	21233.95
851.307	21137.2
851.689	21427
852.071	21905.52
852.452	22242.8
852.834	22221.52
853.215	22638.36
853.597	22793.83
853.978	23104.56
854.359	23587.78
854.741	22533.91
855.122	22423.31
855.503	22122.87
855.884	22265.45
856.265	22198.4
856.646	22324.73
857.026	21906.47
857.407	21828.58
857.788	21992.98
858.169	22295.73
858.549	21395.45
858.93	22060.42
859.31	22118.79
859.69	22328.65
860.071	21900.25
860.451	21670.43
860.831	20883.58
861.211	22107.53
861.591	22685.31
861.971	22665.63
862.351	22863.86
862.731	23267.12
863.111	23541.35
863.491	23889.51
863.87	24824.77
864.25	25188.53
864.629	24761.9
865.009	25308.28
865.388	26216.81
865.768	28106.19
866.147	27989.67
866.526	26440.84
866.905	26753.01
867.284	28266.78
867.663	26836.77
868.042	25724.37
868.421	25647.95
868.8	26073.34
869.179	26328.63
869.558	24785.62
869.936	22846.61
870.315	23253.72
870.693	23824.8
871.072	25699.26
871.45	24467.93
871.828	24784.67
872.207	26053.08
872.585	25659.18
872.963	26359.07
873.341	25448.47
873.719	25151.91
874.097	24836.8
874.475	25322.01
874.853	25912.85
875.23	24838.94
875.608	25870.61
875.986	27987.7
876.363	26766.61
876.741	27587.63
877.118	26898.16
877.495	28220.87
877.873	28685.45
878.25	30196.43
878.627	28952.72
879.004	29348.01
879.381	29219.92
879.758	28463.79
880.135	26493.8
880.512	28023.81
880.889	27273.97
881.265	26998.41
881.642	26775.08
882.019	27244.2
882.395	26698.8
882.772	27765.74
883.148	26560.81
883.524	26450.51
883.901	26301.53
884.277	26690.32
884.653	26518.06
885.029	27278.51
885.405	30208.36
885.781	29973.28
886.157	28722.38
886.532	29070.13
886.908	29037.1
887.284	32295.13
887.659	33342.04
888.035	34384.21
888.411	35285.61
888.786	35736.67
889.161	36982.79
889.537	36308.6
889.912	37483.4
890.287	37462.28
890.662	38432.48
891.037	37749.27
891.412	35208.1
891.787	34860.31
892.162	33646.6
892.536	34443.8
892.911	33164.34
893.286	32462.86
893.66	31143.37
894.035	31940.87
894.409	34782.82
894.784	33383.95
895.158	33942.21
895.532	35949.43
895.906	36926.42
896.281	37791.35
896.655	37165.85
897.029	42463.37
897.402	44224.26
897.776	49241.52
898.15	49063.18
898.524	48518.27
898.898	49139.66
899.271	55014.1
899.645	47642.85
900.018	45756.66
900.392	47447.6
900.765	47834.01
901.138	44268.47
901.511	43605.6
901.884	40026.85
902.258	36917.41
902.631	38158.11
903.003	43916.76
903.376	39622.1
903.749	44425.9
904.122	47564.07
904.495	52340.88
904.867	53006.24
905.24	46026.78
905.612	42852.29
905.985	43835.91
906.357	45825.71
906.729	43730.86
907.102	37380.12
907.474	35945.51
907.846	36176.57
908.218	35676.84
908.59	31544.48
908.962	30509.41
909.334	32845.19
909.705	34476.33
910.077	33462.68
910.449	34832.18
910.82	35799.61
911.192	39357.36
911.563	40895.18
911.935	43753.27
912.306	43817.52
912.677	45250.7
913.048	44785.86
913.419	48595.4
913.79	48893.57
914.161	52405.96
914.532	50063.58
914.903	45999.56
915.274	43705.97
915.645	43059.43
916.015	37908.69
916.386	36169.31
916.756	38475.59
917.127	39693.97
917.497	35475.89
917.868	38601.79
918.238	36704.21
918.608	37763.48
918.978	38563.89
919.348	40838.26
919.718	42167.36
920.088	40628.91
920.458	42196.23
920.828	44413.74
921.198	42094.24
921.567	44921.35
921.937	34784.11
922.306	35107.77
922.676	37855.73
923.045	31559.99
923.415	29978.93
923.784	27320.27
924.153	28072.1
924.522	28047.39
924.891	26367.18
925.26	28245.77
925.629	27595.81
925.998	31725.48
926.367	30967.41
926.736	29490.29
927.104	35123.34
927.473	37735.37
927.842	45571.13
928.21	45135.79
928.578	47447.12
928.947	44845.76
929.315	45113.24
929.683	52866.89
930.051	53301.17
930.42	61890.53
930.788	52914.85
931.156	52533.05
931.523	49265.77
931.891	45505.9
932.259	43706.09
932.627	50581.78
932.994	71601.86
933.362	59192.08
933.729	51440.71
934.097	49225.36
934.464	41634.36
934.831	48068.6
935.199	47425.79
935.566	46009.83
935.933	46714.79
936.3	56549.71
936.667	44068.1
937.034	39731.51
937.401	39309.66
937.767	33931.15
938.134	30232.45
938.501	42651.79
938.867	45441.5
939.234	76789.02
939.6	65507.25
939.967	72101.63
940.333	48289.13
940.699	41153.61
941.065	33045.01
941.431	43334.21
941.798	41765.35
942.163	54802.59
942.529	34264.39
942.895	31532.53
943.261	20397.8
943.627	26749.59
943.992	23419.03
944.358	23467.28
944.723	23549.86
945.089	22958.23
945.454	21198.67
945.82	22615.1
946.185	21750.34
946.55	25208.35
946.915	22628.66
947.28	26519.23
947.645	23367.17
948.01	21562.08
948.375	22486.84
948.74	26965.8
949.104	31444.17
949.469	45443.69
949.834	80341.97
950.198	76099.37
950.562	45593.52
950.927	37976.38
951.291	45774.42
951.655	39025.63
952.02	36658.23
952.384	27724.35
952.748	24119.56
953.112	23519.49
953.476	20450.72
953.839	18926.26
954.203	18717.08
954.567	23415.37
954.931	36893.32
955.294	31545.9
955.658	31706.27
956.021	53953.72
956.385	91434.67
956.748	134900.33
957.111	209475.45
957.474	235102.75
957.837	264543.08
958.2	200356.4
958.563	72079.94
958.926	48726.77
959.289	73953.01
959.652	82626.3
960.015	61936.74
960.377	88934.12
960.74	101556.58
961.102	175291.41
961.465	187959.51
961.827	100617.09
962.189	193104.61
962.552	133820.32
962.914	107252.69
963.276	69554.13
963.638	57502.4
964	56941.31
964.362	38453.24
964.724	37178.19
965.085	26514.21
965.447	21765.76
965.809	24835.46
966.17	24851.6
966.532	26879.36
966.893	24673.97
967.255	22447.53
967.616	26494.82
967.977	21210.53
968.338	23194.46
968.699	19054.12
969.061	19057.22
969.421	19190.17
969.782	21556.22
970.143	18233.92
970.504	18885.4
970.865	21459.98
971.225	21935.46
971.586	21436.19
971.946	30590.19
972.307	26535.69
972.667	34697.81
973.027	35707.58
973.388	43281.18
973.748	29423.71
974.108	32031.58
974.468	43355.88
974.828	33413.14
975.188	25701.4
975.548	23609.7
975.907	19807.09
976.267	22220.65
976.627	18637.36
976.986	19334.76
977.346	18439.73
977.705	17726.14
978.064	16136.27
978.424	13419.59
978.783	13876.16
979.142	15854.58
979.501	15172.62
979.86	16037.56
980.219	15446.22
980.578	19970.24
980.937	22346.65
981.296	19921
981.654	20491.81
982.013	31910.42
982.371	41375.67
982.73	38599.94
983.088	43706.11
983.447	46697.07
983.805	66783.13
984.163	139753.79
984.521	154857.65
984.879	227023.26
985.237	-368686.3
985.595	355384.01
985.953	88300.48
986.311	51113.91
986.669	29731.89
987.026	25656.74
987.384	34492.14
987.741	35603.26
988.099	25411.61
988.456	20252.27
988.814	18949.74
989.171	16491.84
989.528	16284.39
989.885	17193.48
990.242	13601.24
990.599	16950.73
990.956	13870.97
991.313	9708.24
991.67	7968.96
992.027	8418.26
992.383	7489.5
992.74	6577.68
993.096	6887.56
993.453	7143.89
993.809	7405.27
994.165	9868.28
994.522	9027.07
994.878	9945.18
995.234	12470.07
995.59	12302.81
995.946	11688.94
996.302	13323.33
996.658	15369.44
997.013	16934.78
997.369	20050.81
997.725	25643.07
998.08	16618.83
998.436	25631.75
998.791	35362.73
999.147	35287.52
999.502	38511.07
999.857	28021.21
1000.212	45658.91
1000.567	65065.62
1000.922	37595.62
1001.277	23906.08
1001.632	17722.89
1001.987	22773.67
1002.342	16369.68
1002.696	13076.52
1003.051	10458.18
1003.406	12669.41
1003.76	12630.19
1004.114	12459.13
1004.469	10462.77
1004.823	8654.57
1005.177	9328.16
1005.531	7405.58
1005.885	6569.16
1006.239	7388.05
1006.593	9262.77
1006.947	12362.71
1007.301	9270.34
1007.655	10084.88
1008.008	7390.47
1008.362	8324.58
1008.715	11893.57
1009.069	10801.23
1009.422	16207.96
1009.776	32549.2
1010.129	21608.27
1010.482	18105.27
1010.835	15321.42
1011.188	31932.78
1011.541	30051.83
1011.894	-183804
1012.247	540696.4
1012.6	36749.5
1012.952	23181.61
1013.305	11986.61
1013.657	8645.35
1014.01	8209.51
1014.362	6761.27
1014.715	6004.03
1015.067	5220.45
1015.419	5102.06
1015.771	4519.9
1016.123	4016.5
1016.475	4121.27
1016.827	4406.07
1017.179	4721.1
1017.531	4752.09
1017.883	4850.28
1018.234	4653.98
1018.586	5858.89
1018.938	6195.25
1019.289	8538.95
1019.64	9793.34
1019.992	9125.97
1020.343	8399.45
1020.694	6614.05
1021.045	5862.07
1021.396	6694.51
1021.747	7177.24
1022.098	8632.63
1022.449	6270.1
1022.8	5835.77
1023.151	4069.53
1023.501	3610.83
1023.852	3931.46
1024.202	4055.85
1024.553	4467.76
1024.903	4358.14
1025.253	3727.35
1025.604	3348
1025.954	4183.29
1026.304	5106.38
1026.654	5950.19
1027.004	8690.51
1027.354	13993.14
1027.703	13167.77
1028.053	17293.29
1028.403	25002.89
1028.753	36194.88
1029.102	49419.25
1029.452	255195.4
1029.801	11000.63
1030.15	7104.49
1030.499	6014.71
897.758	2107.27
901.051	2041.4
904.343	2073.99
907.636	2083.49
910.928	2143.59
914.22	2065.68
917.511	2069.02
920.803	2116.73
924.094	2112.24
927.384	2119.8
930.675	2083.57
933.965	2049.13
937.255	2079.6
940.544	2051.3
943.834	2043.47
947.123	1986.42
950.411	2070.78
953.7	2052.76
956.988	2040.36
960.276	1976.03
963.563	2022.04
966.851	2031.04
970.138	2070.65
973.424	2073.23
976.711	2026.47
979.997	2076.78
983.283	2118.19
986.568	2054.9
989.853	2043.46
993.138	2069.29
996.423	2153.65
999.708	2113.21
1002.992	2145.35
1006.275	2063.29
1009.559	2070.17
1012.842	2165.5
1016.125	2120.38
1019.408	2102.07
1022.69	2154.15
1025.972	2190.72
1029.254	2166.07
1032.536	2133.79
1035.817	2142.55
1039.098	2112.08
1042.379	2158.21
1045.659	2182.25
1048.939	2134.83
1052.219	2140.71
1055.498	2132.19
1058.778	2129.69
1062.057	2105.91
1065.335	2129.36
1068.614	2140.69
1071.892	2139.01
1075.17	2190.38
1078.447	2194.82
1081.724	2190.14
1085.001	2215.26
1088.278	2193.37
1091.554	2197.9
1094.83	2193.78
1098.106	2229.15
1101.382	2256.3
1104.657	2256.54
1107.932	2254.5
1111.206	2233.29
1114.481	2186.8
1117.755	2188.08
1121.029	2180.75
1124.302	2241.73
1127.575	2210.71
1130.848	2207.28
1134.121	2178.39
1137.393	2145.97
1140.665	2200.19
1143.937	2181.03
1147.208	2129.36
1150.48	2190.06
1153.75	2179
1157.021	2177.19
1160.291	2156.22
1163.561	2209.46
1166.831	2176.08
1170.101	2202.43
1173.37	2159.33
1176.639	2120
1179.907	2160.08
1183.176	2185.39
1186.444	2186.39
1189.711	2208.17
1192.979	2234.06
1196.246	2190.83
1199.513	2202.55
1202.78	2207.63
1206.046	2217.47
1209.312	2243.96
1212.578	2260.3
1215.843	2232.13
1219.108	2197.66
1222.373	2219.16
1225.638	2194.6
1228.902	2188.17
1232.166	2142.16
1235.43	2131.13
1238.693	2157.35
1241.956	2146.6
1245.219	2196.75
1248.482	2177.97
1251.744	2175.7
1255.006	2291.84
1258.268	2239.9
1261.529	2197.34
1264.79	2196.85
1268.051	2293.67
1271.312	2302.31
1274.572	2274.68
1277.832	2263.11
1281.092	2242.41
1284.351	2235.1
1287.61	2221.01
1290.869	2161.46
1294.128	2160.9
1297.386	2203.17
1300.644	2197.76
1303.902	2206.41
1307.159	2077.45
1310.416	2126.71
1313.673	2155.42
1316.93	2155.06
1320.186	2184.25
1323.442	2215.52
1326.697	2218.21
1329.953	2190.75
1333.208	2228.36
1336.463	2197.84
1339.717	2163.23
1342.972	2265.92
1346.226	2236.39
1349.479	2188.48
1352.733	2170.12
1355.986	2172.97
1359.238	2155.01
1362.491	2158.8
1365.743	2158.43
1368.995	2147.31
1372.247	2160.71
1375.498	2179.7
1378.749	2223.08
1382	2175.13
1385.251	2207.48
1388.501	2158.8
1391.751	2163.32
1395	2127.03
1398.25	2153.34
1401.499	2175.37
1404.748	2132.13
1407.996	2108.5
1411.244	2097.48
1414.492	2083.81
1417.74	2068.09
1420.987	2072.21
1424.234	2132.39
1427.481	2091.41
1430.728	2148.49
1433.974	2122.87
1437.22	2120.85
1440.465	2115.5
1443.711	2118.48
1446.956	2141.56
1450.201	2110.84
1453.445	2151.6
1456.689	2143.14
1459.933	2152.52
1463.177	2194.21
1466.42	2169.62
1469.663	2153.5
1472.906	2171.47
1476.148	2217.92
1479.391	2185.59
1482.633	2161.51
1485.874	2188.94
1489.115	2199
1492.356	2179.83
1495.597	2160.16
1498.838	2151.85
1502.078	2137.82
1505.318	2112.37
1508.557	2144.12
1511.797	2140.85
1515.036	2192.34
1518.274	2159.75
1521.513	2110.34
1524.751	2120.5
1527.989	2146.95
1531.227	2165.42
1534.464	2181.57
1537.701	2173.19
1540.938	2184.63
1544.174	2133.46
1547.41	2123.43
1550.646	2157.37
1553.882	2211.25
1557.117	2268.85
1560.352	2277.57
1563.587	2238.79
1566.821	2207.51
1570.055	2220.67
1573.289	2203.05
1576.523	2258.85
1579.756	2274.3
1582.989	2296.67
1586.222	2259.23
1589.454	2284.05
1592.686	2269.45
1595.918	2296.01
1599.15	2295.89
1602.381	2338.09
1605.612	2322.18
1608.843	2414.54
1612.073	2337.67
1615.303	2326.86
1618.533	2326.39
1621.762	2322.27
1624.992	2297.56
1628.221	2302.49
1631.449	2292.23
1634.678	2313.39
1637.906	2282.64
1641.134	2307.59
1644.361	2274.6
1647.588	2263.2
1650.815	2284.93
1654.042	2245.98
1657.269	2274.89
1660.495	2258.14
1663.72	2239.67
1666.946	2208.71
1670.171	2187.79
1673.396	2156.47
1676.621	2140.91
1679.845	2133.7
1683.069	2142.63
1686.293	2171.36
1689.517	2164.85
1692.74	2119.64
1695.963	2139.35
1699.185	2182.79
1702.408	2155.44
1705.63	2182.43
1708.852	2206.11
1712.073	2175.18
1715.294	2190.57
1718.515	2228.55
1721.736	2189.52
1724.956	2166.32
1728.176	2186.86
1731.396	2208.44
1734.616	2192.5
1737.835	2229.99
1741.054	2199.87
1744.272	2190.77
1747.491	2231.47
1750.709	2250.52
1753.927	2204.98
1757.144	2225.65
1760.361	2286.02
1763.578	2258.73
1766.795	2210.58
1770.011	2200.43
1773.227	2221.94
1776.443	2263.8
1779.658	2306.73
1782.874	2244.3
1786.089	2239.87
1789.303	2241.62
1792.518	2240.32
1795.732	2225.5
1798.945	2243.65
1802.159	2281.16
1805.372	2227.39
1808.585	2222.71
1811.797	2225.48
1815.01	2240.5
1818.222	2267.04
1821.434	2220.73
1824.645	2261.9
1827.856	2272.04
1831.067	2303.22
1834.278	2237.14
1837.488	2224.75
1840.698	2340.3
1843.908	2285.72
1847.117	2253.57
1850.326	2187.26
1853.535	2241.64
1856.744	2281.55
1859.952	2206.26
1863.16	2208.24
1866.368	2218.53
1869.575	2331.34
1872.782	2214.58
1875.989	2149.4
1879.196	2193.02
1882.402	2184.67
1885.608	2214.61
1888.814	2161.62
1892.019	2070.62
1895.224	2120.14
1898.429	2082.25
1901.634	2067.26
1904.838	2044.02
1908.042	2098.01
1911.246	2111.56
1914.449	2077.97
1917.652	2057.23
1920.855	2039.18
1924.058	2058.73
1927.26	2105.64
1930.462	2125.53
1933.664	2170.03
1936.865	2112.46
1940.066	2129.39
1943.267	2074.77
1946.467	2084.13
1949.668	2100.65
1952.868	2171.15
1956.067	2162.53
1959.267	2105.29
1962.466	2126.95
1965.665	2110.57
1968.863	2102.89
1972.061	2104.96
1975.259	2096.04
1978.457	2171.41
1981.654	2132.43
1984.852	2136.3
1988.048	2090.56
1991.245	2079.55
1994.441	2168.97
1997.637	2123.57
2000.833	2105.85
2004.028	2139.82
2007.223	2205.23
2010.418	2195.41
2013.613	2143.7
2016.807	2141.31
2020.001	2135.39
2023.194	2156.43
2026.388	2140.54
2029.581	2085.29
2032.774	2150.15
2035.966	2161.99
2039.158	2109.7
2042.35	2127.22
2045.542	2054.6
2048.733	2133.23
2051.924	2119.9
2055.115	2135.13
2058.306	2101.99
2061.496	2156.59
2064.686	2203.65
2067.875	2108.6
2071.065	2107.69
2074.254	2124.8
2077.442	2081.52
2080.631	2158.82
2083.819	2097.39
2087.007	2091.27
2090.195	2077.6
2093.382	2091.93
2096.569	2075.49
2099.756	2038.57
2102.942	2089.93
2106.128	2106.02
2109.314	2093.92
2112.5	2080.71
2115.685	2048.79
2118.87	2055.92
2122.055	2115.25
2125.239	2097.09
2128.424	2085.01
2131.608	2138.31
2134.791	2122.47
2137.974	2158.37
2141.157	2147.64
2144.34	2122.11
2147.523	2108.84
2150.705	2138.14
2153.887	2105.45
2157.068	2082.05
2160.25	2059.21
2163.431	2081.42
2166.611	2054.81
2169.792	2077.11
2172.972	1991.95
2176.152	2037.05
2179.331	2064.63
2182.511	2068.7
2185.69	2088.61
2188.868	2093.79
2192.047	2126.09
2195.225	2145.74
2198.403	2093.58
2201.58	2079.09
2204.758	2065.48
2207.935	2137.12
2211.111	2061.67
2214.288	2048.96
2217.464	2084.78
2220.64	2037.51
2223.815	2086.21
2226.991	2020.16
2230.166	2034.84
2233.34	2080.46
2236.515	2091.08
2239.689	2153.37
2242.863	2104.71
2246.036	2154.48
2249.209	2136.59
2252.382	2152.3
2255.555	2165.93
2258.727	2117.6
2261.9	2143.53
2265.071	2136.1
2268.243	2130.77
2271.414	2084.97
2274.585	2069.3
2277.756	2128.76
2280.926	2086.62
2284.096	2114.56
2287.266	2047.2
2290.436	2091.33
2293.605	2109.3
2296.774	2149.58
2299.942	2151.59
2303.111	2167.93
2306.279	2217.75
2309.447	2204.78
2312.614	2173.65
2315.781	2197.9
2318.948	2176.04
2322.115	2213.88
2325.281	2113.51
2328.447	2120.79
2331.613	2090.94
2334.779	2086.07
2337.944	2080.37
2341.109	2083.38
2344.274	2071.95
2347.438	2041.84
2350.602	2060.26
2353.766	2067.81
2356.929	2056.91
2360.092	2095.02
2363.255	2068.07
2366.418	2038.15
2369.58	2097.77
2372.742	1987.91
2375.904	1976.83
2379.066	1963.98
2382.227	1985.22
2385.388	1952.73
2388.548	1907.74
2391.709	1946.07
2394.869	1938.04
2398.029	1984.15
2401.188	1976.92
2404.347	1944.57
2407.506	2012.86
2410.665	2054.91
2413.823	2037.63
2416.981	2022.88
2420.139	2031.8
2423.296	2070.53
2426.453	2045.09
2429.61	2064.94
2432.767	2041.78
2435.923	2083.44
2439.079	2025.74
2442.235	2056.23
2445.391	1999.79
2448.546	2041.54
2451.701	2072.56
2454.855	2074.04
2458.009	2098.35
2461.163	2085.81
2464.317	2058.17
2467.471	2084.34
2470.624	2109.8
2473.777	2106.12
2476.929	2123.44
2480.082	2146.22
2483.234	2123.55
2486.385	2063.67
2489.537	2057.19
2492.688	2051.01
2495.839	2068.74
2498.989	2085.04
2502.14	2070
2505.29	2065.1
2508.439	2086.3
2511.589	2028.76
2514.738	2029.58
2517.887	2050.22
2521.035	2127.68
2524.183	2082.47
2527.331	2071.68
2530.479	2066.69
2533.627	2067.16
