Data from C_1_DEC_NC_4N_Splice17_11-43-54-166.txt Node
Date: Sat Mar 14 11:43:54 EDT 2020
User: sa697716
Spectrometer: FLMS03696
Trigger mode: 0
Integration Time (sec): 3.180400E-1
Scans to average: 20
Electric dark correction enabled: true
Nonlinearity correction enabled: true
Boxcar width: 5
XAxis mode: Wavelengths
Number of Pixels in Spectrum: 2048
>>>>>Begin Spectral Data<<<<<
187.83	-261634.14
188.298	1914.47
188.766	980.32
189.233	879.39
189.701	1266.65
190.169	1776.47
190.636	677.31
191.104	533.51
191.571	100.66
192.039	-43.18
192.506	-94.49
192.974	338.3
193.441	-557.01
193.908	-211.5
194.375	-118.16
194.842	9.85
195.31	64.54
195.777	125.86
196.244	196.75
196.711	85.47
197.177	84.01
197.644	38.2
198.111	49.35
198.578	43.04
199.045	10.78
199.511	11.27
199.978	-95.39
200.445	-42.74
200.911	-89.22
201.378	-169.81
201.844	-101.16
202.31	-235.24
202.777	-269.73
203.243	-153.84
203.709	-145.86
204.176	-145.44
204.642	-112.76
205.108	-75.92
205.574	-73.18
206.04	-96.14
206.506	-76.33
206.972	-97.69
207.438	-115.01
207.903	-118.2
208.369	-85.14
208.835	-56.36
209.301	-66.27
209.766	-80.69
210.232	-95.3
210.697	-137.9
211.163	-161.71
211.628	-295.09
212.094	-197.74
212.559	-127.73
213.024	-62.62
213.49	-13.92
213.955	-50.34
214.42	-92.75
214.885	-60.34
215.35	-40.39
215.815	46.16
216.28	57.93
216.745	56.99
217.21	78.79
217.675	26.86
218.14	29.25
218.604	-9.19
219.069	1.31
219.534	41.77
219.998	23.75
220.463	23.08
220.927	-60.19
221.392	-71.74
221.856	-61.16
222.32	-142.3
222.785	-127.27
223.249	-163.9
223.713	-179.92
224.177	-171.87
224.642	-277.3
225.106	-368.27
225.57	-424.32
226.034	-225.34
226.497	-294.22
226.961	-204.15
227.425	-169.75
227.889	-234.98
228.353	-261.69
228.816	-575.94
229.28	-497.09
229.744	-396.73
230.207	-143.4
230.671	-104.83
231.134	-338.39
231.597	-370.44
232.061	-461.58
232.524	-545.07
232.987	-350.61
233.45	-230.37
233.914	-197.88
234.377	-256.14
234.84	-231.64
235.303	-300.44
235.766	-351.34
236.229	-331.31
236.691	-217.91
237.154	-245.48
237.617	-136.44
238.08	-158.43
238.542	-203.88
239.005	-133.56
239.468	-107.34
239.93	-98.26
240.393	-87.03
240.855	-63.63
241.317	-86.51
241.78	-124.95
242.242	-116.22
242.704	-103.95
243.166	-68.21
243.629	-38.86
244.091	-34.35
244.553	-52.71
245.015	-31.19
245.477	-58.95
245.939	-130.08
246.4	-98.52
246.862	-93.51
247.324	-112.55
247.786	-173.88
248.247	-287.92
248.709	-436.43
249.17	-312.15
249.632	-199.37
250.093	-178.98
250.555	-143.95
251.016	-52.28
251.477	-57.82
251.939	-55.27
252.4	-52.75
252.861	-89.53
253.322	-56.27
253.783	-78.17
254.244	-132.56
254.705	-163.81
255.166	-228.03
255.627	-242
256.088	-343.63
256.549	-340.13
257.009	-283.11
257.47	-328.88
257.931	-270.47
258.391	-194.76
258.852	-178.41
259.312	-201.75
259.773	-261.19
260.233	-129.56
260.694	-56.53
261.154	-62.33
261.614	14.46
262.074	9.67
262.534	17.37
262.994	36.77
263.455	11.15
263.915	22.85
264.374	30.25
264.834	42.28
265.294	12.52
265.754	18.31
266.214	10.52
266.673	-26.4
267.133	-55.16
267.593	-83.37
268.052	-94.79
268.512	-77.08
268.971	-53.64
269.431	-43.01
269.89	-62.97
270.349	-53.4
270.809	-105.59
271.268	-103.63
271.727	-344.58
272.186	-160.47
272.645	-103.25
273.104	-139.22
273.563	-222.83
274.022	-278.33
274.481	-204.98
274.94	-125.55
275.399	-130.31
275.857	-174.32
276.316	-248.89
276.775	-233.25
277.233	-235.19
277.692	-187.11
278.15	-164.88
278.609	-98.17
279.067	-81.76
279.525	-79.51
279.984	-152.61
280.442	-155.94
280.9	-78.12
281.358	-41.04
281.816	-24.98
282.274	-21.96
282.732	-78.36
283.19	-122.05
283.648	-146.48
284.106	-156.15
284.564	-181.2
285.021	-130.84
285.479	-106.26
285.937	-137.2
286.394	-99.08
286.852	-113.25
287.309	-135.2
287.767	-93.6
288.224	-64.42
288.682	-64.18
289.139	-42.15
289.596	-29.17
290.053	-39.98
290.511	-73.37
290.968	-51.79
291.425	-117.18
291.882	-30.79
292.339	9.21
292.796	-42.37
293.252	-57.55
293.709	-9.92
294.166	-15.59
294.623	-28.36
295.079	-50.87
295.536	-23.7
295.992	-17.54
296.449	-17.41
296.905	-27.92
297.362	-2.43
297.818	19.52
298.274	30.62
298.731	-4.39
299.187	-9.12
299.643	-4.4
300.099	4.81
300.555	-10.68
301.011	-11.32
301.467	54.65
301.923	26.44
302.379	-1.53
302.835	-28.48
303.291	-32.46
303.746	-31.22
304.202	-62.83
304.658	-86.04
305.113	-46.27
305.569	-36.14
306.024	-60.47
306.479	-148.28
306.935	-85.65
307.39	-106.87
307.845	-79.84
308.301	-68.79
308.756	-102.6
309.211	-65.51
309.666	-84.03
310.121	-82.91
310.576	-128.32
311.031	-150.14
311.486	-176.18
311.94	-213.26
312.395	-314.07
312.85	-717.63
313.305	-4610.56
313.759	-16192.26
314.214	-1454.1
314.668	-1134.14
315.123	-906.08
315.577	-251.19
316.032	-171.22
316.486	-221.13
316.94	-149.38
317.394	-84.94
317.849	-48.94
318.303	-42.64
318.757	-42.11
319.211	-33.03
319.665	-10.26
320.119	-17.45
320.572	-53.46
321.026	-41.23
321.48	-38.15
321.934	-82.04
322.387	-106.12
322.841	-100.09
323.295	-13.64
323.748	-69.74
324.202	-59.95
324.655	-81.41
325.108	-31.62
325.562	-0.93
326.015	-42.21
326.468	-19.14
326.921	11.3
327.374	76.49
327.827	97.71
328.28	51.31
328.733	64.45
329.186	62.79
329.639	73
330.092	33.74
330.545	42
330.997	57.58
331.45	88.52
331.903	117.5
332.355	113.27
332.808	49.13
333.26	30.72
333.713	13.52
334.165	-9.9
334.617	-68.4
335.069	-118.28
335.522	-304.22
335.974	-393.6
336.426	-483.71
336.878	-405.76
337.33	-171.29
337.782	-172.45
338.234	-182.38
338.686	-224.82
339.137	-287.19
339.589	-270.13
340.041	-167.96
340.493	-143.29
340.944	-131.81
341.396	-118.13
341.847	-69.79
342.299	-46.64
342.75	30.62
343.201	-30.03
343.653	-59.22
344.104	-97.56
344.555	-56.52
345.006	-180.68
345.457	-36.19
345.908	-54.39
346.359	-28.99
346.81	-33.61
347.261	-71.06
347.712	-93.93
348.163	-108.93
348.613	-40.21
349.064	-30.02
349.515	-36.88
349.965	-7.65
350.416	-61.77
350.866	-76.62
351.317	-129.91
351.767	-242.56
352.217	-346.33
352.668	-327.52
353.118	-272.43
353.568	-363.37
354.018	-262.2
354.468	-252.58
354.918	-183.38
355.368	-160.58
355.818	-224.15
356.268	-784.25
356.718	-2491.19
357.168	-471.46
357.617	-252.53
358.067	-301.14
358.517	-306.82
358.966	-317.17
359.416	-278.65
359.865	-353.06
360.315	-449.73
360.764	-210.09
361.213	-91.21
361.663	-125.38
362.112	-211.04
362.561	-325.93
363.01	-247.09
363.459	-193.01
363.908	-273.52
364.357	-218.34
364.806	-391.66
365.255	-248.59
365.703	-175.66
366.152	-147.89
366.601	-123.31
367.05	-66.39
367.498	-51.61
367.947	-78.1
368.395	-83.92
368.844	-42.54
369.292	-95
369.74	-45.7
370.189	-118.04
370.637	-175.62
371.085	-165.08
371.533	-224.57
371.981	-237.85
372.429	-196.28
372.877	-189.4
373.325	-155.95
373.773	-181.88
374.221	-173.48
374.669	-212.55
375.116	-166.48
375.564	-173.21
376.012	-200.18
376.459	-128.4
376.907	-175.26
377.354	-247.89
377.801	-161.21
378.249	-175.32
378.696	-238.4
379.143	-262.11
379.591	-331.82
380.038	-617.38
380.485	-345.2
380.932	-309.9
381.379	-199.2
381.826	-46.35
382.273	-45.85
382.72	-98.65
383.166	-78.4
383.613	-35.05
384.06	-36.14
384.506	-30.5
384.953	-10.75
385.4	-37.81
385.846	-47.32
386.292	-58.07
386.739	-84.03
387.185	-88.24
387.631	-84.35
388.078	-63.36
388.524	-77.7
388.97	-69.72
389.416	-49.71
389.862	-46.78
390.308	-40.1
390.754	-25.28
391.2	-40.47
391.645	-40
392.091	1.99
392.537	17.29
392.983	-10.58
393.428	32.43
393.874	31.9
394.319	36.75
394.765	51.85
395.21	50.55
395.655	43.71
396.101	49.83
396.546	52.45
396.991	23.72
397.436	13.42
397.881	11.91
398.326	-12.94
398.771	0.96
399.216	-6.22
399.661	-11.61
400.106	-4.56
400.551	-4.42
400.995	-2.29
401.44	0.03
401.885	2.79
402.329	4.14
402.774	9.23
403.218	26.85
403.663	20.96
404.107	26.29
404.551	27.4
404.995	20.32
405.44	17.66
405.884	10
406.328	1.31
406.772	-2.39
407.216	-0.84
407.66	-3.19
408.104	-19.21
408.547	-18.57
408.991	-18.77
409.435	-18.37
409.879	-12.26
410.322	-11.42
410.766	-7.24
411.209	-1.81
411.653	-1.8
412.096	2.08
412.54	-0.46
412.983	2.23
413.426	4.97
413.869	2.18
414.312	4.36
414.756	1.08
415.199	-0.07
415.642	2.87
416.085	5.72
416.527	6.41
416.97	0.33
417.413	5.35
417.856	3.89
418.298	2.39
418.741	-0
419.184	-5.6
419.626	-11.36
420.069	-10.36
420.511	-10.73
420.953	-11.5
421.396	-11.16
421.838	-9.15
422.28	-11.62
422.722	-8.39
423.164	-11.47
423.606	-7.45
424.048	-5.99
424.49	-1.72
424.932	-3.12
425.374	-5.33
425.816	-9.12
426.258	-8.47
426.699	-7.84
427.141	-2.71
427.582	-4.47
428.024	-4.44
428.465	-7.4
428.907	-6.05
429.348	-5.67
429.789	-3.27
430.231	-0.81
430.672	0.59
431.113	1.42
431.554	0.63
431.995	-4.65
432.436	-3.18
432.877	0.35
433.318	5.04
433.759	4.86
434.2	3.78
434.64	2.9
435.081	4.08
435.522	4.02
435.962	2.48
436.403	4.41
436.843	2.36
437.284	0.21
437.724	-4.12
438.164	-10.82
438.604	-11.35
439.045	-7.62
439.485	-3.56
439.925	-4.13
440.365	-4.24
440.805	-3.3
441.245	-4.09
441.685	-2.01
442.125	-2.37
442.564	-2.98
443.004	0.18
443.444	0.28
443.883	-0.71
444.323	-5.03
444.762	-10.41
445.202	-11.46
445.641	-9.55
446.081	-11.27
446.52	-11.28
446.959	-10.39
447.398	-7.25
447.837	-7.92
448.276	-8.96
448.716	-7.74
449.154	-9.41
449.593	-4.92
450.032	-3.59
450.471	-7.86
450.91	-7.88
451.349	-5.64
451.787	-6.59
452.226	-7.81
452.664	-7.88
453.103	-7.51
453.541	-10.19
453.98	-6.27
454.418	-7.84
454.856	-6.05
455.295	-5.43
455.733	-3.56
456.171	-4.87
456.609	-2.11
457.047	-1.79
457.485	0.2
457.923	3.3
458.361	3.98
458.798	2.35
459.236	2.93
459.674	1.42
460.111	1.87
460.549	1.66
460.987	1
461.424	-1.08
461.862	-0.47
462.299	-0.52
462.736	-1.63
463.173	-1.42
463.611	2.6
464.048	3.13
464.485	3.94
464.922	4.71
465.359	3.3
465.796	12.08
466.233	13.78
466.67	16.57
467.106	17.53
467.543	15.69
467.98	14.13
468.416	11.03
468.853	9.21
469.29	7.93
469.726	6.29
470.162	6.15
470.599	-1.08
471.035	-3.13
471.471	-4.44
471.907	-6.89
472.344	-6.58
472.78	-4.92
473.216	-6.59
473.652	-4.89
474.088	-5.26
474.523	-4.4
474.959	-4.45
475.395	-4.4
475.831	-3.05
476.266	-3.83
476.702	-4.19
477.138	-3.77
477.573	-4.19
478.008	-3.5
478.444	-3.2
478.879	-1.97
479.314	-1.12
479.75	-0.67
480.185	-0.51
480.62	-1.45
481.055	-1.62
481.49	-0.33
481.925	0.28
482.36	2.37
482.795	1.77
483.229	0.9
483.664	0.58
484.099	0.58
484.534	1.27
484.968	2.01
485.403	1.9
485.837	1.41
486.271	0.77
486.706	-0.05
487.14	-1.49
487.574	-0.92
488.009	-1.16
488.443	-1.11
488.877	-0.59
489.311	-1.22
489.745	-1.28
490.179	-0.58
490.613	1.61
491.046	1.77
491.48	2.24
491.914	2.17
492.348	1.97
492.781	2.88
493.215	2.44
493.648	0.63
494.082	0.57
494.515	0.61
494.948	1.1
495.382	-1.03
495.815	-0.94
496.248	-1.06
496.681	-1.58
497.114	-1.95
497.547	-2.13
497.98	-0.58
498.413	1.93
498.846	1.98
499.279	1.05
499.711	0.24
500.144	0.13
500.577	1.27
501.009	0.88
501.442	2.27
501.874	3.25
502.306	2.89
502.739	4.32
503.171	3.45
503.603	3.86
504.036	4.24
504.468	4.15
504.9	4.46
505.332	3.25
505.764	4.03
506.196	3.42
506.627	3.18
507.059	3.18
507.491	0.35
507.923	0.86
508.354	1.01
508.786	0.78
509.217	1.2
509.649	1.68
510.08	1.67
510.512	2.46
510.943	2.44
511.374	2.88
511.805	2.66
512.237	2.62
512.668	1.53
513.099	0.35
513.53	0.06
513.961	0.39
514.391	0.14
514.822	2.16
515.253	2.02
515.684	2.03
516.114	1.48
516.545	2.43
516.975	2.6
517.406	2.67
517.836	3.36
518.267	4.02
518.697	4.59
519.127	4.81
519.558	2.97
519.988	1.61
520.418	1.15
520.848	0.28
521.278	-0.5
521.708	32.75
522.138	33.68
522.567	33.24
522.997	33.15
523.427	32.56
523.857	32.28
524.286	32.42
524.716	33.14
525.145	33.9
525.575	34.97
526.004	34.73
526.433	2.25
526.863	0.82
527.292	2.13
527.721	2.5
528.15	1.9
528.579	2.41
529.008	2.76
529.437	1.47
529.866	1.2
530.295	0.3
530.724	1.42
531.152	1.51
531.581	2.64
532.01	2.21
532.438	1.52
532.867	1.26
533.295	1.33
533.723	0.72
534.152	1.74
534.58	1.67
535.008	2.55
535.436	3.05
535.865	2.72
536.293	1.52
536.721	0.88
537.149	1.02
537.576	2.42
538.004	2.35
538.432	2.12
538.86	2.7
539.287	2.45
539.715	2.19
540.143	0.48
540.57	0.98
540.998	1.15
541.425	3
541.852	2.87
542.28	2.09
542.707	1.87
543.134	2.55
543.561	2.81
543.988	3.25
544.415	3.02
544.842	3.56
545.269	3.15
545.696	4.5
546.123	3.54
546.549	3.71
546.976	3.7
547.403	3.54
547.829	2.53
548.256	1.43
548.682	1.28
549.108	2.58
549.535	2.62
549.961	2.09
550.387	1.04
550.813	2.17
551.24	2.47
551.666	2.27
552.092	2.49
552.518	2.75
552.943	3.8
553.369	3.43
553.795	2.8
554.221	2.8
554.646	3.24
555.072	5.19
555.498	3.25
555.923	2.17
556.349	2
556.774	1.55
557.199	1.46
557.625	0.21
558.05	0.13
558.475	-0.34
558.9	-0.22
559.325	0.78
559.75	0.19
560.175	0.23
560.6	0.53
561.025	0.32
561.449	0.9
561.874	0.35
562.299	1.51
562.723	1.74
563.148	1.38
563.572	0.87
563.997	0.28
564.421	-0.86
564.846	-0.89
565.27	-0.65
565.694	-0.4
566.118	-0.9
566.542	0.57
566.966	0.3
567.39	0.29
567.814	1.22
568.238	1.8
568.662	0.58
569.086	0.89
569.509	0.2
569.933	2.06
570.357	2.56
570.78	2.61
571.204	3.52
571.627	3.54
572.05	3.8
572.474	4.64
572.897	4.71
573.32	6.01
573.743	5.83
574.166	7.47
574.589	5.76
575.012	5.27
575.435	4.82
575.858	4.5
576.281	4.48
576.704	3.91
577.126	2.13
577.549	1.51
577.972	0.91
578.394	0.84
578.817	2.61
579.239	2.46
579.661	2.95
580.084	4.72
580.506	4.41
580.928	3.99
581.35	4.44
581.772	4.9
582.194	5.31
582.616	5.26
583.038	4.37
583.46	1.93
583.882	2.15
584.303	0.99
584.725	-0.43
585.147	3.31
585.568	3.81
585.99	4.09
586.411	4.28
586.833	4.28
587.254	4.16
587.675	3.73
588.096	3.93
588.518	4.44
588.939	5.37
589.36	5.77
589.781	-0.19
590.202	2.17
590.623	1.86
591.043	1.31
591.464	1.82
591.885	2.47
592.305	2.64
592.726	2.1
593.147	1.68
593.567	1.84
593.987	1.3
594.408	2.05
594.828	-0.81
595.248	-0.43
595.669	0.86
596.089	0.43
596.509	-0.41
596.929	0.08
597.349	0.94
597.769	1.41
598.189	1.17
598.608	1.09
599.028	1.19
599.448	0.96
599.867	0.75
600.287	-0.26
600.706	0.28
601.126	1.11
601.545	1.69
601.965	1.34
602.384	0.47
602.803	-0.09
603.222	0.68
603.641	0.67
604.061	1.05
604.48	0.85
604.898	1.07
605.317	0.56
605.736	-0.12
606.155	0.54
606.574	0.37
606.992	0.82
607.411	1.61
607.829	0.55
608.248	-0
608.666	-0.59
609.085	-0.66
609.503	-0.69
609.921	0.09
610.339	0.15
610.758	-1.16
611.176	-1.34
611.594	-0.74
612.012	-1.07
612.43	0.51
612.847	0.31
613.265	1.99
613.683	2.05
614.101	2.5
614.518	1.42
614.936	1.71
615.353	2.76
615.771	3.28
616.188	2.72
616.606	2.55
617.023	2.45
617.44	3.05
617.857	1.46
618.274	1.69
618.691	1.82
619.108	1.61
619.525	0.95
619.942	0.87
620.359	1.03
620.776	0.78
621.192	1.84
621.609	2.04
622.026	2.9
622.442	3.84
622.859	3.26
623.275	2.29
623.691	2.51
624.108	3.24
624.524	2.37
624.94	2.2
625.356	1.9
625.772	0.42
626.188	-0.95
626.604	-1.52
627.02	-2.57
627.436	-2.03
627.852	-0.44
628.268	-0.11
628.683	-1.26
629.099	-1.02
629.514	-1.26
629.93	-0.99
630.345	-0.49
630.761	-0.53
631.176	-0.3
631.591	1.78
632.007	1.71
632.422	0.49
632.837	0.07
633.252	2.12
633.667	2.77
634.082	2.86
634.497	3.04
634.911	5.28
635.326	5.33
635.741	5.39
636.155	4.37
636.57	5.62
636.984	5.34
637.399	6.73
637.813	5.49
638.228	4.26
638.642	3.92
639.056	4.33
639.47	3.32
639.884	3.4
640.298	2.75
640.712	2.78
641.126	2.44
641.54	1.92
641.954	-1.12
642.368	-0.99
642.781	2.3
643.195	2.5
643.609	2.43
644.022	1.22
644.436	0.81
644.849	0.63
645.262	0.16
645.676	-1.53
646.089	-1.57
646.502	1.01
646.915	0.41
647.328	-1.07
647.741	-0.8
648.154	-1.01
648.567	1.82
648.98	3.07
649.393	3.44
649.805	4.13
650.218	4.45
650.631	6.1
651.043	5.83
651.456	6.61
651.868	5.71
652.28	4.24
652.693	3.72
653.105	1.89
653.517	1.32
653.929	0.83
654.341	0.09
654.753	0.88
655.165	-0.05
655.577	-0.27
655.989	0.32
656.401	-0.21
656.813	1.76
657.224	1.93
657.636	0.8
658.047	1.73
658.459	1.93
658.87	0.58
659.282	0.23
659.693	1.33
660.104	2.09
660.515	1.3
660.926	0.61
661.338	0.55
661.749	-0.47
662.159	0.37
662.57	-0.71
662.981	-0.78
663.392	-0.24
663.803	-0.78
664.213	-2.04
664.624	-3.56
665.035	-3.85
665.445	-3.71
665.855	-3.35
666.266	-1.52
666.676	-1.75
667.086	-2.61
667.497	-2.19
667.907	-1.41
668.317	-1.1
668.727	2.44
669.137	2.41
669.547	2.41
669.956	2.14
670.366	1.24
670.776	1.11
671.186	0.45
671.595	1.39
672.005	0.23
672.414	0.33
672.824	0.82
673.233	-2.88
673.642	-2.99
674.052	-2.37
674.461	-1.25
674.87	-1.34
675.279	0.12
675.688	-1.13
676.097	-0.56
676.506	-0.05
676.915	-0.88
677.323	-0.65
677.732	0.06
678.141	-0.28
678.549	-1.22
678.958	-2.25
679.366	-2.12
679.775	-4.58
680.183	-1.23
680.592	-2.37
681	-1.87
681.408	-1.07
681.816	-1.12
682.224	-1.97
682.632	0.43
683.04	0.71
683.448	0.72
683.856	1.05
684.264	2.66
684.671	-0.28
685.079	-0.68
685.487	-0.78
685.894	-2.09
686.302	-4.05
686.709	-3.79
687.116	-5.87
687.524	-4.65
687.931	-3.25
688.338	-4.11
688.745	-6.69
689.152	-5.92
689.559	-4.48
689.966	-3.44
690.373	-2.36
690.78	-1.13
691.187	-0.73
691.593	0.95
692	0.17
692.407	0.21
692.813	3.44
693.22	5.64
693.626	4.66
694.032	4.45
694.439	4.5
694.845	5.14
695.251	4.36
695.657	4.54
696.063	2.12
696.469	1.86
696.875	1.71
697.281	0.13
697.687	-0.86
698.093	-0.62
698.498	0.3
698.904	-1.58
699.31	-2.83
699.715	0.1
700.12	-0.4
700.526	1.5
700.931	0.36
701.337	0.87
701.742	1.05
702.147	0.63
702.552	2.31
702.957	0.8
703.362	1.48
703.767	1.35
704.172	-0.87
704.577	-0.54
704.981	-2.2
705.386	-0.95
705.791	-1.34
706.195	-2.76
706.6	-2.3
707.004	-4.58
707.408	-4.99
707.813	-4.03
708.217	-2.76
708.621	-2.25
709.025	-2.48
709.43	-0.11
709.834	0.41
710.237	0.51
710.641	1.25
711.045	2.57
711.449	5.31
711.853	9.85
712.256	9.48
712.66	8.2
713.064	7.53
713.467	7.91
713.87	7.09
714.274	7.52
714.677	8.82
715.08	8.99
715.484	7.62
715.887	9.3
716.29	4.37
716.693	5.45
717.096	6.57
717.499	6.93
717.901	5.76
718.304	4.65
718.707	2.32
719.109	0.9
719.512	-0.15
719.915	3.17
720.317	0.56
720.719	0.14
721.122	-0.92
721.524	-0.09
721.926	5.03
722.328	6.07
722.731	5.7
723.133	7.21
723.535	7.42
723.937	7.64
724.338	7.26
724.74	8.94
725.142	63.64
725.544	67.98
725.945	80.73
726.347	75.84
726.748	76.25
727.15	78.29
727.551	82.33
727.952	80.67
728.354	79.17
728.755	78.76
729.156	76.24
729.557	23.62
729.958	18.59
730.359	5.32
730.76	5.34
731.161	4.85
731.562	2.68
731.962	-2.48
732.363	-1.79
732.763	-0.21
733.164	-2.98
733.564	-2.48
733.965	-2.68
734.365	-1.88
734.766	-1.08
735.166	-1.47
735.566	-0.6
735.966	0.74
736.366	2.41
736.766	2.47
737.166	0.83
737.566	1.42
737.966	1.8
738.365	2.76
738.765	4.05
739.165	2.76
739.564	2.74
739.964	1.41
740.363	0.69
740.763	-1.24
741.162	0.09
741.561	-0.28
741.96	0.39
742.36	-0.9
742.759	-0.26
743.158	-2.48
743.557	-2.13
743.955	-2.18
744.354	-1.89
744.753	-2.26
745.152	-0.27
745.55	-1.98
745.949	-1.12
746.348	-1.69
746.746	-2.32
747.144	-0.08
747.543	0.46
747.941	-0.24
748.339	-0.03
748.737	-0.23
749.136	0.68
749.534	-1.77
749.932	-0
750.33	-0.54
750.727	-0.39
751.125	1.23
751.523	-0.41
751.921	2.62
752.318	4.17
752.716	5.87
753.113	5.93
753.511	5.76
753.908	7.59
754.305	11.5
754.703	12.71
755.1	13.09
755.497	12.54
755.894	10.96
756.291	7.68
756.688	7.18
757.085	5.31
757.482	6.44
757.878	7.12
758.275	7.01
758.672	-1.65
759.068	-3.61
759.465	-4.85
759.861	-8.18
760.258	-11.41
760.654	-10.64
761.05	-10.57
761.447	-9.94
761.843	-9.67
762.239	-11.02
762.635	-12.08
763.031	-12.86
763.427	-11.4
763.822	-10.35
764.218	-8.54
764.614	-5.9
765.01	-7.97
765.405	-7.78
765.801	-6.38
766.196	-5.77
766.592	-5.26
766.987	-3.47
767.382	-2.02
767.778	-1.32
768.173	-1.81
768.568	-2
768.963	-0.58
769.358	0.19
769.753	2.35
770.148	2.1
770.542	1.37
770.937	1.64
771.332	1.77
771.726	0.16
772.121	3.61
772.515	4.51
772.91	4.15
773.304	3.15
773.699	3.22
774.093	0.82
774.487	0.41
774.881	0.34
775.275	0.01
775.669	-1.59
776.063	-1.13
776.457	-3.98
776.851	-4.37
777.245	-2.43
777.638	-2.62
778.032	-3.36
778.425	-1.63
778.819	2.14
779.212	4.88
779.606	8.32
779.999	7.15
780.392	9.78
780.786	8.58
781.179	8.57
781.572	9.36
781.965	10.65
782.358	11.99
782.751	10.59
783.143	7.45
783.536	5.52
783.929	2.36
784.322	4.13
784.714	0.99
785.107	1.48
785.499	3.53
785.891	4.14
786.284	2.42
786.676	2.19
787.068	5.68
787.46	5.5
787.852	4.45
788.245	3.05
788.636	0.93
789.028	4.16
789.42	5.56
789.812	4.43
790.204	3.42
790.595	6.87
790.987	7.29
791.378	6.21
791.77	3.5
792.161	1.91
792.553	3.98
792.944	5.09
793.335	2.22
793.726	1.1
794.117	4.05
794.508	1.22
794.899	-4.17
795.29	-6.07
795.681	-8.09
796.072	-7.38
796.463	16.09
796.853	19.13
797.244	21.04
797.634	21.38
798.025	20.72
798.415	15.02
798.806	18.41
799.196	23.21
799.586	27.66
799.976	29.64
800.366	30.14
800.756	5.11
801.146	1.63
801.536	-0.52
801.926	-0.25
802.316	1.37
802.706	3.33
803.095	3.65
803.485	2.21
803.874	-0.17
804.264	-1.21
804.653	0.27
805.043	5.82
805.432	7.53
805.821	13.03
806.21	13.96
806.599	14.26
806.988	15.9
807.377	10.5
807.766	8.96
808.155	8.24
808.544	7.9
808.933	8.35
809.321	8.58
809.71	3.63
810.098	0.94
810.487	-3.7
810.875	-8.22
811.264	-8.37
811.652	4.9
812.04	6.58
812.428	6.74
812.816	1.71
813.204	3.82
813.592	-4.91
813.98	-2.09
814.368	2.62
814.756	5.12
815.144	8.48
815.531	11.86
815.919	2.83
816.306	1.22
816.694	-0.13
817.081	3.63
817.469	4.5
817.856	4.3
818.243	3.1
818.63	-4.83
819.017	-1.56
819.404	0.42
819.791	-6.03
820.178	-11.77
820.565	-7.71
820.952	1.61
821.339	7.36
821.725	6.91
822.112	12.42
822.498	12.92
822.885	12.21
823.271	8.45
823.657	1.75
824.044	3.36
824.43	5.72
824.816	11.51
825.202	9.26
825.588	4.52
825.974	3.76
826.36	2.22
826.746	1.57
827.132	2.32
827.517	10.43
827.903	13.56
828.289	19.58
828.674	17.78
829.06	12.99
829.445	7.55
829.83	5.29
830.216	2.57
830.601	7.3
830.986	18.88
831.371	20.65
831.756	21.23
832.141	29.59
832.526	26.38
832.911	29.89
833.295	26.68
833.68	27.73
834.065	29.67
834.449	28.73
834.834	28.38
835.218	25.35
835.603	27.41
835.987	20.59
836.371	14.46
836.755	16.35
837.139	11.23
837.524	7.79
837.908	5.8
838.291	10.64
838.675	9.67
839.059	5.04
839.443	1.33
839.827	-3.59
840.21	-5.54
840.594	-2.82
840.977	-4.96
841.361	-2.59
841.744	-2.41
842.127	-0.76
842.511	-5.44
842.894	-3.91
843.277	-4.92
843.66	-7.41
844.043	-7.19
844.426	-0.93
844.809	-6.15
845.191	-6.65
845.574	-6.66
845.957	-1.81
846.339	0.2
846.722	2.78
847.104	0.57
847.487	1.36
847.869	2.78
848.252	5.81
848.634	7.37
849.016	9.29
849.398	5.74
849.78	0.61
850.162	0.19
850.544	-0.18
850.926	-4.15
851.307	-2.86
851.689	-2.47
852.071	-7.11
852.452	-8.22
852.834	-13.8
853.215	-11.53
853.597	-12.01
853.978	-2.14
854.359	-1.96
854.741	1.97
855.122	-0.62
855.503	-0.78
855.884	-0.68
856.265	1.5
856.646	-4.77
857.026	0.23
857.407	1.1
857.788	3.75
858.169	-3.66
858.549	2.81
858.93	-0.7
859.31	0.65
859.69	5.66
860.071	5.97
860.451	9.42
860.831	15.58
861.211	9.56
861.591	1.34
861.971	-2.72
862.351	-2.48
862.731	-10.9
863.111	-8.93
863.491	-5.47
863.87	-11.51
864.25	-12.32
864.629	-9.12
865.009	-12.77
865.388	-7.98
865.768	-8.58
866.147	-0.95
866.526	3.85
866.905	9.5
867.284	-2.69
867.663	-9.41
868.042	-8.95
868.421	-9.67
868.8	-16.41
869.179	-12.35
869.558	-12.61
869.936	-6.15
870.315	-8.77
870.693	-6.92
871.072	-18.01
871.45	-14.68
871.828	-4.08
872.207	-5.27
872.585	1.46
872.963	-2.02
873.341	7.37
873.719	16.58
874.097	20.1
874.475	16.64
874.853	11.25
875.23	16.96
875.608	19.7
875.986	13.58
876.363	13.27
876.741	17.88
877.118	32.12
877.495	29.2
877.873	20.58
878.25	8.74
878.627	11.06
879.004	11.41
879.381	8.44
879.758	9.26
880.135	11.67
880.512	10.75
880.889	-1.06
881.265	-11.25
881.642	-20.7
882.019	-19.4
882.395	-6.5
882.772	3.96
883.148	9.99
883.524	12.25
883.901	16.53
884.277	13.51
884.653	12.43
885.029	23.05
885.405	31.01
885.781	31.99
886.157	25.51
886.532	16.2
886.908	5.1
887.284	-1.58
887.659	0.85
888.035	-4.94
888.411	-11.13
888.786	-4.9
889.161	-13.34
889.537	-19.56
889.912	-19.25
890.287	-14.59
890.662	-13.37
891.037	-16.95
891.412	-16.72
891.787	-23.22
892.162	-17.95
892.536	-13.81
892.911	-9.88
893.286	-14.73
893.66	-13.22
894.035	-11.64
894.409	-24.08
894.784	-16.14
895.158	-12.38
895.532	-4.27
895.906	2.29
896.281	4.47
896.655	12.63
897.029	4.02
897.402	6.22
897.776	-0.63
898.15	-0.77
898.524	8.67
898.898	5.16
899.271	13.32
899.645	10.38
900.018	7.89
900.392	4.38
900.765	-14.14
901.138	-11.48
901.511	-19.12
901.884	-0.55
902.258	1.85
902.631	12.92
903.003	15.38
903.376	11.9
903.749	8.98
904.122	0.46
904.495	-9.94
904.867	-10.18
905.24	-3.59
905.612	3.04
905.985	-20.41
906.357	-25.46
906.729	-34.73
907.102	-27.65
907.474	-28.03
907.846	-25.63
908.218	-19.34
908.59	0.27
908.962	5.88
909.334	0.24
909.705	8.51
910.077	16.01
910.449	10.62
910.82	27.77
911.192	20.12
911.563	30.6
911.935	13.73
912.306	-8.31
912.677	-24.36
913.048	-18.31
913.419	-10.48
913.79	-30.73
914.161	-34.19
914.532	-17.95
914.903	-23.89
915.274	-21.19
915.645	-28.49
916.015	-19.15
916.386	-13.81
916.756	-16.33
917.127	-27.81
917.497	-20.09
917.868	-5.58
918.238	-5.95
918.608	-13.33
918.978	-24.81
919.348	-30.79
919.718	-39.75
920.088	-32
920.458	-9.03
920.828	-17.51
921.198	-6.64
921.567	-17.76
921.937	-14.19
922.306	-29.76
922.676	-34.62
923.045	-10.13
923.415	2.87
923.784	1.04
924.153	7.73
924.522	6.35
924.891	12.45
925.26	8.68
925.629	11.69
925.998	3.91
926.367	17.72
926.736	42.8
927.104	19.77
927.473	1.99
927.842	5
928.21	-12.32
928.578	-31.78
928.947	-25.51
929.315	-12.03
929.683	-20.76
930.051	-13.64
930.42	-21.51
930.788	-45.42
931.156	-27.58
931.523	14.3
931.891	28.36
932.259	43.56
932.627	69.67
932.994	79.67
933.362	91.24
933.729	88.72
934.097	79.4
934.464	77.42
934.831	63.67
935.199	65.82
935.566	60.89
935.933	48
936.3	58.83
936.667	23.42
937.034	119.19
937.401	85.45
937.767	67.13
938.134	68.04
938.501	98.34
938.867	134.04
939.234	175.72
939.6	63.1
939.967	58.47
940.333	42.56
940.699	27.78
941.065	-90.14
941.431	-99.42
941.798	-27.93
942.163	-27.11
942.529	-52.36
942.895	-70.26
943.261	-29.78
943.627	-21.28
943.992	-5.8
944.358	-12.24
944.723	30.44
945.089	16.61
945.454	25.19
945.82	-5.78
946.185	-17.07
946.55	-10.47
946.915	-5.16
947.28	-6.53
947.645	1.57
948.01	17.09
948.375	43.98
948.74	10.66
949.104	33.9
949.469	-32.08
949.834	-7.57
950.198	90.98
950.562	116
950.927	111.77
951.291	108.4
951.655	84.11
952.02	48.65
952.384	30.18
952.748	70.94
953.112	109.84
953.476	111.25
953.839	87.3
954.203	93.1
954.567	97.05
954.931	107.17
955.294	127.09
955.658	119.7
956.021	185.08
956.385	172.93
956.748	91.8
957.111	-262.4
957.474	-397.78
957.837	-440.94
958.2	-544.1
958.563	-215.34
958.926	-106.32
959.289	-209.65
959.652	-189.9
960.015	-121.01
960.377	-176.38
960.74	-188
961.102	-404.78
961.465	-213.61
961.827	316.66
962.189	552.13
962.552	457.84
962.914	355.9
963.276	202.03
963.638	140.28
964	122.8
964.362	116.06
964.724	92.81
965.085	104.21
965.447	82.13
965.809	6.75
966.17	-0.61
966.532	-21.98
966.893	-1.52
967.255	0.16
967.616	3.03
967.977	1.91
968.338	-24.62
968.699	-3.9
969.061	-18.73
969.421	-20.91
969.782	-34.45
970.143	-11.15
970.504	30.82
970.865	40.16
971.225	71.27
971.586	76.17
971.946	110.92
972.307	118.75
972.667	115.8
973.027	132.95
973.388	120.2
973.748	87.04
974.108	118.06
974.468	42.45
974.828	89.54
975.188	52.4
975.548	27.76
975.907	36.56
976.267	45.3
976.627	73.32
976.986	60.31
977.346	54.75
977.705	47.31
978.064	33.34
978.424	48.07
978.783	6.25
979.142	4
979.501	17.55
979.86	15.43
980.219	0.56
980.578	-29.39
980.937	-51.49
981.296	-30.15
981.654	-30.44
982.013	-108.3
982.371	-127.47
982.73	-127.22
983.088	-173.73
983.447	-171.11
983.805	-257.61
984.163	-475.61
984.521	-701.09
984.879	-985.02
985.237	1451.47
985.595	-869.2
985.953	-228.22
986.311	-243.55
986.669	-106.4
987.026	-118.13
987.384	-237.78
987.741	-279.02
988.099	-149.54
988.456	-104.36
988.814	-98.07
989.171	-77.95
989.528	-119.22
989.885	-110.36
990.242	-55.79
990.599	-107.77
990.956	-60.83
991.313	-31.53
991.67	-20.53
992.027	20.87
992.383	30.84
992.74	43.56
993.096	51.08
993.453	58.14
993.809	48.43
994.165	48.99
994.522	113.63
994.878	108.72
995.234	144.95
995.59	146.74
995.946	45.42
996.302	47.93
996.658	17.03
997.013	-36.09
997.369	3.36
997.725	31.07
998.08	23.26
998.436	-195.12
998.791	-235.47
999.147	-242.62
999.502	-278.95
999.857	-152.61
1000.212	-258.73
1000.567	-231.27
1000.922	-13.9
1001.277	-40.96
1001.632	1.86
1001.987	-6.34
1002.342	4.57
1002.696	26.82
1003.051	35.67
1003.406	52.9
1003.76	20.48
1004.114	20.42
1004.469	14.73
1004.823	3.33
1005.177	-14.13
1005.531	-14.57
1005.885	2.63
1006.239	30.02
1006.593	29.17
1006.947	47.26
1007.301	14.94
1007.655	15.71
1008.008	15.6
1008.362	26
1008.715	36.82
1009.069	29.55
1009.422	110.76
1009.776	112.78
1010.129	55.35
1010.482	8.33
1010.835	-69.05
1011.188	-186.5
1011.541	-211.36
1011.894	1387.38
1012.247	-4508.67
1012.6	-414.21
1012.952	-173.08
1013.305	-130.49
1013.657	-50.35
1014.01	-87.53
1014.362	-81.81
1014.715	-3.77
1015.067	18.34
1015.419	16.32
1015.771	24.98
1016.123	29.63
1016.475	37.8
1016.827	22.06
1017.179	28.49
1017.531	4.85
1017.883	15.99
1018.234	86.25
1018.586	86.37
1018.938	142.98
1019.289	214.94
1019.64	166.71
1019.992	127.05
1020.343	105.25
1020.694	150.72
1021.045	115.66
1021.396	147.45
1021.747	195.16
1022.098	110.12
1022.449	82.52
1022.8	43.69
1023.151	57.52
1023.501	87.96
1023.852	88.51
1024.202	118.28
1024.553	78.56
1024.903	124.14
1025.253	134.27
1025.604	126.08
1025.954	158.5
1026.304	161.03
1026.654	138.79
1027.004	142.42
1027.354	84.23
1027.703	186.8
1028.053	75.17
1028.403	541.57
1028.753	359.08
1029.102	-295.95
1029.452	-4575.18
1029.801	-243.22
1030.15	-166.73
1030.499	-132.41
897.758	1879.29
901.051	1806.05
904.343	1839.05
907.636	1847.13
910.928	1902.53
914.22	1831.55
917.511	1836.33
920.803	1873.52
924.094	1864.27
927.384	1872.51
930.675	1835.96
933.965	1807.13
937.255	1841.21
940.544	1815.97
943.834	1802.17
947.123	1751.32
950.411	1829.45
953.7	1812.58
956.988	1805.96
960.276	1740.32
963.563	1776.18
966.851	1788.63
970.138	1821.5
973.424	1823.33
976.711	1779.29
979.997	1823.54
983.283	1858.29
986.568	1801.55
989.853	1785.99
993.138	1805.72
996.423	1886.8
999.708	1853.38
1002.992	1879.07
1006.275	1794.96
1009.559	1797.19
1012.842	1879.15
1016.125	1844.27
1019.408	1824.7
1022.69	1867.34
1025.972	1897.09
1029.254	1876.14
1032.536	1850.32
1035.817	1850.13
1039.098	1823.43
1042.379	1867.19
1045.659	1889.83
1048.939	1843.41
1052.219	1843.86
1055.498	1831.62
1058.778	1828.6
1062.057	1804.31
1065.335	1827.07
1068.614	1831.41
1071.892	1832.47
1075.17	1870.03
1078.447	1875.25
1081.724	1868.22
1085.001	1887.77
1088.278	1867.59
1091.554	1869.62
1094.83	1864.5
1098.106	1898.18
1101.382	1918.92
1104.657	1917.54
1107.932	1915.34
1111.206	1898.72
1114.481	1853.04
1117.755	1856.77
1121.029	1853.51
1124.302	1906.35
1127.575	1881.44
1130.848	1879.57
1134.121	1854.13
1137.393	1822.92
1140.665	1872.32
1143.937	1854.53
1147.208	1805.77
1150.48	1862.54
1153.75	1849.33
1157.021	1841.69
1160.291	1825.03
1163.561	1870.98
1166.831	1835.68
1170.101	1856.52
1173.37	1818.12
1176.639	1784.29
1179.907	1819.99
1183.176	1844.08
1186.444	1844.76
1189.711	1864.67
1192.979	1889.54
1196.246	1851.11
1199.513	1861.6
1202.78	1867.85
1206.046	1876.81
1209.312	1901.83
1212.578	1911.86
1215.843	1886.42
1219.108	1861.03
1222.373	1879.72
1225.638	1861.74
1228.902	1857.54
1232.166	1817.6
1235.43	1808.62
1238.693	1837.1
1241.956	1827.77
1245.219	1873.39
1248.482	1857.13
1251.744	1856.35
1255.006	1953.14
1258.268	1905.88
1261.529	1870.09
1264.79	1867.21
1268.051	1948.26
1271.312	1955.91
1274.572	1928.51
1277.832	1915.88
1281.092	1897.97
1284.351	1894.83
1287.61	1882.87
1290.869	1829.46
1294.128	1831.96
1297.386	1860.41
1300.644	1856.37
1303.902	1865.17
1307.159	1753.42
1310.416	1794.77
1313.673	1820.72
1316.93	1822.11
1320.186	1845
1323.442	1872.55
1326.697	1879.33
1329.953	1853.19
1333.208	1891.49
1336.463	1866.06
1339.717	1840.23
1342.972	1929.68
1346.226	1906.33
1349.479	1870.31
1352.733	1855.13
1355.986	1856.89
1359.238	1842.53
1362.491	1849.11
1365.743	1849.47
1368.995	1841.6
1372.247	1859.07
1375.498	1875.65
1378.749	1920.74
1382	1879.1
1385.251	1906.39
1388.501	1865.95
1391.751	1875.69
1395	1845.66
1398.25	1868.48
1401.499	1897.11
1404.748	1858.56
1407.996	1838.66
1411.244	1831.87
1414.492	1821.52
1417.74	1811.48
1420.987	1814.9
1424.234	1867.84
1427.481	1829.48
1430.728	1880.32
1433.974	1859.88
1437.22	1853.44
1440.465	1848.13
1443.711	1855.58
1446.956	1872.19
1450.201	1840.41
1453.445	1876.9
1456.689	1867.73
1459.933	1874.86
1463.177	1910.54
1466.42	1888.16
1469.663	1871.52
1472.906	1890.94
1476.148	1929.79
1479.391	1887.74
1482.633	1868.01
1485.874	1893.83
1489.115	1901.92
1492.356	1882.45
1495.597	1864.15
1498.838	1853.18
1502.078	1841.48
1505.318	1819.81
1508.557	1844.95
1511.797	1843.14
1515.036	1891.6
1518.274	1856.98
1521.513	1807.84
1524.751	1814.49
1527.989	1834.48
1531.227	1851.22
1534.464	1864.73
1537.701	1853.81
1540.938	1861.28
1544.174	1812.36
1547.41	1799.57
1550.646	1832.41
1553.882	1876.14
1557.117	1925.33
1560.352	1926.32
1563.587	1896.29
1566.821	1868.66
1570.055	1874.67
1573.289	1857.74
1576.523	1902.27
1579.756	1916.06
1582.989	1934.8
1586.222	1895.65
1589.454	1921.57
1592.686	1909.09
1595.918	1933.67
1599.15	1929.42
1602.381	1963.25
1605.612	1954.69
1608.843	2030.92
1612.073	1967.45
1615.303	1959.09
1618.533	1955.31
1621.762	1956.34
1624.992	1927.38
1628.221	1931.32
1631.449	1922.16
1634.678	1937.49
1637.906	1908.86
1641.134	1930.73
1644.361	1902.35
1647.588	1895.39
1650.815	1914.39
1654.042	1879.85
1657.269	1900.44
1660.495	1891.36
1663.72	1871.01
1666.946	1844.62
1670.171	1832.61
1673.396	1810.54
1676.621	1794.06
1679.845	1786.91
1683.069	1785.99
1686.293	1807.77
1689.517	1807.26
1692.74	1772.73
1695.963	1787.15
1699.185	1825.78
1702.408	1806.56
1705.63	1827.4
1708.852	1844.75
1712.073	1816.52
1715.294	1834.14
1718.515	1871.14
1721.736	1840.19
1724.956	1818.62
1728.176	1837.76
1731.396	1855.64
1734.616	1846.46
1737.835	1880.14
1741.054	1854.41
1744.272	1847.52
1747.491	1888.82
1750.709	1901.33
1753.927	1868.83
1757.144	1883.97
1760.361	1939.73
1763.578	1911.38
1766.795	1872.85
1770.011	1861.22
1773.227	1878.39
1776.443	1917.69
1779.658	1954.66
1782.874	1903.21
1786.089	1900.22
1789.303	1903.05
1792.518	1901.69
1795.732	1889
1798.945	1907.73
1802.159	1942.81
1805.372	1902.96
1808.585	1899.5
1811.797	1899.58
1815.01	1913.6
1818.222	1940.3
1821.434	1899.32
1824.645	1930.86
1827.856	1947.34
1831.067	1972.28
1834.278	1915.18
1837.488	1902.23
1840.698	2002.51
1843.908	1960.47
1847.117	1934.15
1850.326	1881.95
1853.535	1926.47
1856.744	1965.77
1859.952	1905.09
1863.16	1906.58
1866.368	1922.31
1869.575	2029.91
1872.782	1929.61
1875.989	1873.28
1879.196	1910.28
1882.402	1907.96
1885.608	1936.23
1888.814	1895.67
1892.019	1824.49
1895.224	1871.86
1898.429	1836.85
1901.634	1825.94
1904.838	1803.17
1908.042	1859.05
1911.246	1873.36
1914.449	1848.58
1917.652	1829.64
1920.855	1812.41
1924.058	1828.71
1927.26	1870.59
1930.462	1889.08
1933.664	1932.56
1936.865	1884.04
1940.066	1901.3
1943.267	1847.71
1946.467	1856.54
1949.668	1870.3
1952.868	1933.74
1956.067	1929.61
1959.267	1879.7
1962.466	1899.57
1965.665	1878.92
1968.863	1874.31
1972.061	1869.23
1975.259	1859.42
1978.457	1927.48
1981.654	1890.99
1984.852	1894.43
1988.048	1857.42
1991.245	1843.19
1994.441	1921.74
1997.637	1873.04
2000.833	1860.55
2004.028	1888.33
2007.223	1948.39
2010.418	1941.28
2013.613	1893.59
2016.807	1895.6
2020.001	1886.17
2023.194	1901.31
2026.388	1888.74
2029.581	1837.97
2032.774	1901.74
2035.966	1912.02
2039.158	1867.96
2042.35	1884.66
2045.542	1816.79
2048.733	1885.81
2051.924	1868.47
2055.115	1880.03
2058.306	1853.79
2061.496	1900.86
2064.686	1941.31
2067.875	1854.11
2071.065	1850.84
2074.254	1864.46
2077.442	1823.05
2080.631	1897.93
2083.819	1848.49
2087.007	1840.62
2090.195	1832.22
2093.382	1838.61
2096.569	1828.05
2099.756	1795.64
2102.942	1845.61
2106.128	1862.45
2109.314	1852
2112.5	1844.84
2115.685	1815.01
2118.87	1821.14
2122.055	1876.22
2125.239	1859.36
2128.424	1854.54
2131.608	1893.92
2134.791	1879.27
2137.974	1907.9
2141.157	1898.34
2144.34	1879.39
2147.523	1861.9
2150.705	1887.79
2153.887	1853.46
2157.068	1839.09
2160.25	1813.91
2163.431	1831.23
2166.611	1809.92
2169.792	1833.51
2172.972	1756.4
2176.152	1796.68
2179.331	1818.22
2182.511	1828.29
2185.69	1845.28
2188.868	1854.52
2192.047	1877.72
2195.225	1904.03
2198.403	1852.9
2201.58	1840.63
2204.758	1823.3
2207.935	1890.67
2211.111	1821.65
2214.288	1812.04
2217.464	1841.76
2220.64	1795.57
2223.815	1837.73
2226.991	1782.25
2230.166	1794.49
2233.34	1838.66
2236.515	1847.67
2239.689	1904.6
2242.863	1861.64
2246.036	1906.39
2249.209	1887.74
2252.382	1899.73
2255.555	1916.28
2258.727	1875.88
2261.9	1897.62
2265.071	1891.55
2268.243	1891.84
2271.414	1850.44
2274.585	1842.62
2277.756	1893.48
2280.926	1856.73
2284.096	1878.18
2287.266	1823.69
2290.436	1863.89
2293.605	1878.5
2296.774	1918.37
2299.942	1917.46
2303.111	1929.52
2306.279	1980.16
2309.447	1962.65
2312.614	1938.68
2315.781	1961.35
2318.948	1943.54
2322.115	1976.11
2325.281	1884.85
2328.447	1888.15
2331.613	1860.76
2334.779	1859.16
2337.944	1851.76
2341.109	1854.42
2344.274	1848.13
2347.438	1817.07
2350.602	1837.06
2353.766	1843.95
2356.929	1836.6
2360.092	1866.36
2363.255	1846.69
2366.418	1824.27
2369.58	1864.19
2372.742	1796.66
2375.904	1776.8
2379.066	1769.25
2382.227	1790.21
2385.388	1756.92
2388.548	1718.46
2391.709	1749.09
2394.869	1746.95
2398.029	1780.69
2401.188	1768.89
2404.347	1750.99
2407.506	1787.89
2410.665	1833.47
2413.823	1811.6
2416.981	1800.63
2420.139	1807.79
2423.296	1844.35
2426.453	1822.37
2429.61	1838.49
2432.767	1825.51
2435.923	1863.54
2439.079	1807.8
2442.235	1834.14
2445.391	1786
2448.546	1831.1
2451.701	1857.84
2454.855	1863.46
2458.009	1879.08
2461.163	1864.64
2464.317	1843.42
2467.471	1862.79
2470.624	1887.43
2473.777	1884.76
2476.929	1902.16
2480.082	1920.58
2483.234	1898.75
2486.385	1839.2
2489.537	1832.52
2492.688	1835.73
2495.839	1849.99
2498.989	1864.45
2502.14	1854.79
2505.29	1851.2
2508.439	1872.35
2511.589	1822.12
2514.738	1818.96
2517.887	1837.24
2521.035	1912.7
2524.183	1865.66
2527.331	1856.48
2530.479	1856.61
2533.627	1857.15
