Data from C_1_DEC_VA_2N_Splice17_11-57-41-035.txt Node
Date: Sat Mar 14 11:57:41 EDT 2020
User: sa697716
Spectrometer: FLMS03696
Trigger mode: 0
Integration Time (sec): 3.180400E-1
Scans to average: 20
Electric dark correction enabled: true
Nonlinearity correction enabled: true
Boxcar width: 5
XAxis mode: Wavelengths
Number of Pixels in Spectrum: 2048
>>>>>Begin Spectral Data<<<<<
187.83	-250634.17
188.298	1860.25
188.766	1045.51
189.233	957.63
189.701	1416.56
190.169	1809.01
190.636	657.36
191.104	475.24
191.571	80.27
192.039	-38.89
192.506	-44.72
192.974	567.53
193.441	-880.67
193.908	-220.14
194.375	-5.81
194.842	55.33
195.31	58.91
195.777	127.41
196.244	337.43
196.711	473.38
197.177	606.16
197.644	864.36
198.111	1487.32
198.578	2084.94
199.045	1668.26
199.511	2684.92
199.978	3162.34
200.445	2683.96
200.911	2957.82
201.378	3291.98
201.844	2982.36
202.31	5142.31
202.777	5375.19
203.243	2994.57
203.709	2847.25
204.176	3389.1
204.642	2828.57
205.108	2632.18
205.574	2146.46
206.04	1966.88
206.506	1836.51
206.972	1729.78
207.438	1662.86
207.903	1892.77
208.369	1662.59
208.835	1652.46
209.301	1735.95
209.766	1772.48
210.232	1748.43
210.697	2167.83
211.163	2660.67
211.628	4033
212.094	3394.75
212.559	4144.42
213.024	2572.58
213.49	3121.45
213.955	3041.54
214.42	2966.94
214.885	2764.88
215.35	2658.16
215.815	2558.43
216.28	2723.86
216.745	2217.35
217.21	2379.69
217.675	2185.09
218.14	2448.98
218.604	2739.71
219.069	3118.76
219.534	3269.26
219.998	3790.49
220.463	4621.27
220.927	5673.09
221.392	5355.2
221.856	5418.76
222.32	6842.29
222.785	8435.83
223.249	10653.94
223.713	11847.56
224.177	11878.89
224.642	15276.49
225.106	18788.29
225.57	20524.69
226.034	15291.36
226.497	23241.94
226.961	20991.29
227.425	24422.67
227.889	27118.99
228.353	27067.94
228.816	55964.51
229.28	53468.64
229.744	45117.91
230.207	27423.99
230.671	26930.62
231.134	44514.73
231.597	51279.9
232.061	51298.05
232.524	50094.51
232.987	34568.28
233.45	31094.81
233.914	27910.98
234.377	28644.24
234.84	26176.76
235.303	30934.07
235.766	34556.99
236.229	35707.18
236.691	22529.56
237.154	25318.91
237.617	19049.83
238.08	19495.79
238.542	22840.45
239.005	16347.66
239.468	16239.96
239.93	15301.88
240.393	13890.94
240.855	12185.38
241.317	12497.53
241.78	15205.97
242.242	15739.2
242.704	16989.67
243.166	14797.57
243.629	13448.53
244.091	15489.59
244.553	16969.29
245.015	18262.03
245.477	23637.36
245.939	34706.45
246.4	36795.37
246.862	35768.99
247.324	33691.46
247.786	37736.76
248.247	49435.61
248.709	51032.03
249.17	38212.29
249.632	36022.16
250.093	41791.67
250.555	36064.71
251.016	21992.54
251.477	20900.3
251.939	22565.16
252.4	23676.31
252.861	28171.09
253.322	26265.87
253.783	31296.31
254.244	40603.54
254.705	32006.98
255.166	28507.14
255.627	28108.63
256.088	39686.54
256.549	42186.89
257.009	36362.04
257.47	44167.92
257.931	35947.18
258.391	26913.17
258.852	27752.26
259.312	29104.17
259.773	35966.1
260.233	30359.14
260.694	25616.69
261.154	29051.93
261.614	23308.46
262.074	20855.71
262.534	21681.7
262.994	20444.38
263.455	27296.59
263.915	23022.21
264.374	21684.77
264.834	23690.36
265.294	26279.51
265.754	27222.97
266.214	25779.64
266.673	24148.91
267.133	30453.05
267.593	30223.41
268.052	37030.39
268.512	32193.69
268.971	38787.68
269.431	42527.64
269.89	38057.2
270.349	57015.07
270.809	63595.47
271.268	57104.12
271.727	128134.15
272.186	83081.54
272.645	62308.69
273.104	44923.39
273.563	64982.48
274.022	51081.21
274.481	43451.36
274.94	33504.62
275.399	24901.84
275.857	28993.28
276.316	39232.73
276.775	34911.94
277.233	34356.07
277.692	32135.13
278.15	36344.49
278.609	37408.44
279.067	34653.46
279.525	32193.01
279.984	41555.15
280.442	49901.35
280.9	49160.69
281.358	32386.6
281.816	30189.01
282.274	29582.4
282.732	30603.65
283.19	30778.6
283.648	26572.2
284.106	28285.77
284.564	28799.76
285.021	26701.62
285.479	19912.65
285.937	18118.4
286.394	15892.98
286.852	16360.38
287.309	17195.73
287.767	16604.53
288.224	15778.24
288.682	17313.99
289.139	19024.81
289.596	17381.02
290.053	18079.03
290.511	22824.4
290.968	27694.35
291.425	37584.33
291.882	31283.35
292.339	27259.94
292.796	27053.57
293.252	25499.83
293.709	20256.71
294.166	18145.81
294.623	20076.28
295.079	19274.11
295.536	19380.24
295.992	17596.33
296.449	17410.27
296.905	18084
297.362	17314.82
297.818	18220.83
298.274	18921.03
298.731	19294.99
299.187	19109.14
299.643	20511.67
300.099	24813.93
300.555	27235.88
301.011	22782.87
301.467	21926.66
301.923	25686.18
302.379	25103.8
302.835	24657.63
303.291	24664.72
303.746	28062.35
304.202	35423.15
304.658	35579.94
305.113	23922.02
305.569	23447.1
306.024	25021.15
306.479	23865.25
306.935	20141.75
307.39	21999.42
307.845	20319.28
308.301	20477.67
308.756	19976.78
309.211	19282.03
309.666	19766.63
310.121	24543.88
310.576	24909.85
311.031	24692.2
311.486	28292.61
311.94	28279.31
312.395	37883.93
312.85	71229.25
313.305	349815.26
313.759	1808403.68
314.214	130967.24
314.668	103895.69
315.123	87513.75
315.577	31396.7
316.032	27921.08
316.486	35013.72
316.94	27574.41
317.394	19168.58
317.849	14903.26
318.303	14114.46
318.757	13310.16
319.211	14711.5
319.665	12887.5
320.119	13026.15
320.572	18661.7
321.026	17438.22
321.48	14520.16
321.934	15839.21
322.387	15886.4
322.841	17171.54
323.295	15433.8
323.748	17812
324.202	18077.91
324.655	21686.19
325.108	30309.37
325.562	21426.93
326.015	25483.52
326.468	19209.51
326.921	21519.92
327.374	20059.18
327.827	20864.21
328.28	23614.67
328.733	15819.63
329.186	13905.18
329.639	13253.13
330.092	11176.93
330.545	10641.4
330.997	10730.26
331.45	11753.26
331.903	13768.78
332.355	23687.97
332.808	23071.67
333.26	19059.84
333.713	20708.3
334.165	20930.24
334.617	27945.02
335.069	22554.5
335.522	40804.51
335.974	45234.46
336.426	41361.87
336.878	28615.53
337.33	14523.71
337.782	14148.84
338.234	17708.52
338.686	21155.21
339.137	25019.39
339.589	23559.08
340.041	18489.03
340.493	15892.05
340.944	16260.94
341.396	17525.05
341.847	14761.43
342.299	17394.99
342.75	21259.41
343.201	18579.79
343.653	21387.85
344.104	26286.84
344.555	20685.73
345.006	32219.23
345.457	24657.3
345.908	19590.73
346.359	18398.62
346.81	14995.62
347.261	15830.41
347.712	15582.97
348.163	16700.48
348.613	16908.6
349.064	15757.98
349.515	13802.54
349.965	14144.6
350.416	17031.14
350.866	18697.1
351.317	21147.84
351.767	34961.39
352.217	44110.81
352.668	36602.57
353.118	33559.46
353.568	32356.63
354.018	25622.93
354.468	26988.73
354.918	19377.68
355.368	16965.32
355.818	23983.5
356.268	69005.45
356.718	288916.87
357.168	72023.83
357.617	36120.67
358.067	40110.16
358.517	37547.83
358.966	44058.58
359.416	49495.9
359.865	53532.12
360.315	63783.67
360.764	29771.29
361.213	16671.3
361.663	15758.57
362.112	19441.65
362.561	31402.59
363.01	23711.29
363.459	19972.43
363.908	21593.49
364.357	18367.57
364.806	31007.5
365.255	21311.2
365.703	19475.7
366.152	19499.39
366.601	15872.37
367.05	12880.31
367.498	11696.53
367.947	12224.14
368.395	12720.12
368.844	11272.64
369.292	13547.06
369.74	9357
370.189	14339.41
370.637	16828.93
371.085	14541.19
371.533	17690.4
371.981	17050.4
372.429	16269.53
372.877	16956.64
373.325	14163.29
373.773	14405.02
374.221	12847.84
374.669	15934.55
375.116	13765.59
375.564	13877.81
376.012	15519.64
376.459	12771.54
376.907	15280.07
377.354	18500.67
377.801	17255.81
378.249	19915.35
378.696	25474
379.143	30854.13
379.591	32904.82
380.038	55624.08
380.485	40277.25
380.932	43502.84
381.379	39848.9
381.826	29291.08
382.273	20815.65
382.72	18195.81
383.166	17689.11
383.613	11503.03
384.06	10372.23
384.506	11996.26
384.953	8819.94
385.4	8881.47
385.846	7776.91
386.292	7581.92
386.739	7448.66
387.185	7371.16
387.631	7372.77
388.078	7167.8
388.524	7662.97
388.97	7097.93
389.416	5935.87
389.862	6333.57
390.308	6008.92
390.754	6116.58
391.2	6661.76
391.645	6817.01
392.091	6529.52
392.537	6334.43
392.983	6357.57
393.428	6275.17
393.874	6735.22
394.319	6768.21
394.765	6418.29
395.21	6601.2
395.655	6212.33
396.101	5819.67
396.546	5256.09
396.991	5312.45
397.436	4940.85
397.881	4776.14
398.326	4527.58
398.771	4282.9
399.216	3746.1
399.661	3381.53
400.106	3372.6
400.551	3449.5
400.995	3097.4
401.44	3065.65
401.885	2883.89
402.329	2912.66
402.774	2796.99
403.218	2706.26
403.663	2603.7
404.107	2677.89
404.551	2691.63
404.995	2467.7
405.44	2374.56
405.884	2406.98
406.328	2328.29
406.772	2316.72
407.216	2108.97
407.66	2038.02
408.104	1933.48
408.547	1816.61
408.991	1756.61
409.435	1687.09
409.879	1661.37
410.322	1639.57
410.766	1581.46
411.209	1503.11
411.653	1443.11
412.096	1413.08
412.54	1412.58
412.983	1400.37
413.426	1397.94
413.869	1394.26
414.312	1368.67
414.756	1320.39
415.199	1257.43
415.642	1223.39
416.085	1223.36
416.527	1215.13
416.97	1230.97
417.413	1167.05
417.856	1157.65
418.298	1143.04
418.741	1136.17
419.184	1133.83
419.626	1179.04
420.069	1178.29
420.511	1180.8
420.953	1154.35
421.396	1140.8
421.838	1112.61
422.28	1133.85
422.722	1137.1
423.164	1157.23
423.606	1136.29
424.048	1131.24
424.49	1073.71
424.932	1069.69
425.374	1054.96
425.816	1072
426.258	1090.37
426.699	1098.18
427.141	1082.23
427.582	1096.95
428.024	1087.65
428.465	1078.54
428.907	1052.93
429.348	1037.46
429.789	1034.61
430.231	1012.61
430.672	1022.86
431.113	1000.74
431.554	986.21
431.995	961.19
432.436	925.38
432.877	903.14
433.318	889.66
433.759	882.61
434.2	884.16
434.64	873.08
435.081	874.2
435.522	831.25
435.962	798.71
436.403	784.69
436.843	795.09
437.284	779.01
437.724	758.07
438.164	758.73
438.604	744.5
439.045	716.52
439.485	686.7
439.925	672.71
440.365	655.25
440.805	646.37
441.245	637.17
441.685	613.57
442.125	608.04
442.564	613.25
443.004	599.44
443.444	599.96
443.883	601.56
444.323	597.47
444.762	597.72
445.202	604.58
445.641	616.41
446.081	610.85
446.52	615.71
446.959	610.9
447.398	596.68
447.837	591
448.276	579.13
448.716	584.67
449.154	592.13
449.593	579.03
450.032	578.18
450.471	567.86
450.91	570.24
451.349	570.22
451.787	567.38
452.226	575.86
452.664	575.89
453.103	576.53
453.541	575.36
453.98	573.49
454.418	577.28
454.856	570.38
455.295	569.8
455.733	573.53
456.171	575.43
456.609	576.52
457.047	575.89
457.485	584.6
457.923	586.86
458.361	578.24
458.798	580.31
459.236	579.3
459.674	581.19
460.111	583.58
460.549	578.82
460.987	577.12
461.424	575.5
461.862	572.17
462.299	563.02
462.736	560.97
463.173	563.94
463.611	559
464.048	558.22
464.485	563.86
464.922	558.16
465.359	554.7
465.796	549.02
466.233	545.11
466.67	541.22
467.106	539.14
467.543	534.75
467.98	527.53
468.416	513.22
468.853	508.15
469.29	492.26
469.726	487.05
470.162	474.73
470.599	467.2
471.035	462.72
471.471	452.29
471.907	449.44
472.344	446.1
472.78	447.64
473.216	452
473.652	447.61
474.088	446.34
474.523	445.12
474.959	448.77
475.395	444.83
475.831	441.52
476.266	442.99
476.702	441.9
477.138	436.62
477.573	434.3
478.008	432.67
478.444	433.54
478.879	437.76
479.314	439.88
479.75	438.75
480.185	440.26
480.62	443.9
481.055	444.66
481.49	448.32
481.925	454.35
482.36	462.83
482.795	474.74
483.229	486.73
483.664	496.84
484.099	497.96
484.534	505.8
484.968	511.03
485.403	512.1
485.837	512.77
486.271	511.24
486.706	512.15
487.14	506.05
487.574	498.57
488.009	494.99
488.443	490.68
488.877	496.43
489.311	498.93
489.745	504.95
490.179	510.86
490.613	520.85
491.046	525.79
491.48	530.74
491.914	532.62
492.348	538.28
492.781	543.14
493.215	546.02
493.648	548.5
494.082	553.4
494.515	555.21
494.948	561.9
495.382	567.01
495.815	572.12
496.248	577.84
496.681	590.03
497.114	601.68
497.547	611.16
497.98	623
498.413	629.88
498.846	639.78
499.279	648.71
499.711	654.46
500.144	658.75
500.577	670.11
501.009	682.29
501.442	692.94
501.874	696.14
502.306	701.38
502.739	710.95
503.171	726.43
503.603	732.55
504.036	744.77
504.468	753.68
504.9	767.11
505.332	776.5
505.764	783.05
506.196	792.59
506.627	809.4
507.059	824.43
507.491	836.5
507.923	838.63
508.354	856.7
508.786	869.55
509.217	890.47
509.649	909.02
510.08	930.44
510.512	951.37
510.943	969.58
511.374	983.75
511.805	1006.84
512.237	1029.15
512.668	1064.75
513.099	1094.79
513.53	1126.4
513.961	1150.79
514.391	1185.1
514.822	1221.3
515.253	1260.34
515.684	1289.43
516.114	1323.69
516.545	1349.31
516.975	1380.76
517.406	1402.46
517.836	1409.41
518.267	1419.82
518.697	1441.56
519.127	1450.51
519.558	1462.69
519.988	1469.13
520.418	1483.28
520.848	1503.89
521.278	1516.36
521.708	1533.97
522.138	1549.22
522.567	1584.04
522.997	1612.74
523.427	1630.72
523.857	1650.55
524.286	1662.86
524.716	1680.91
525.145	1703.08
525.575	1717.43
526.004	1734.2
526.433	1731.99
526.863	1734.38
527.292	1725.31
527.721	1731.04
528.15	1739.03
528.579	1740.88
529.008	1752.6
529.437	1777.65
529.866	1791.92
530.295	1809.73
530.724	1823.06
531.152	1852.33
531.581	1869
532.01	1887.8
532.438	1898.92
532.867	1914.9
533.295	1934.9
533.723	1943.21
534.152	1940.87
534.58	1941.85
535.008	1926.08
535.436	1928.82
535.865	1937.76
536.293	1953.71
536.721	1972.39
537.149	2000.01
537.576	2004.33
538.004	2018.42
538.432	2028.22
538.86	2029.04
539.287	2038.05
539.715	2054.66
540.143	2059.13
540.57	2056.71
540.998	2053.09
541.425	2027.93
541.852	2006.29
542.28	2004.13
542.707	1986.29
543.134	1971.35
543.561	1965.89
543.988	1957.28
544.415	1955.42
544.842	1949.39
545.269	1941.02
545.696	1942.54
546.123	1956.55
546.549	1944.19
546.976	1929.66
547.403	1929.07
547.829	1930.32
548.256	1931.26
548.682	1926.84
549.108	1918.72
549.535	1917.79
549.961	1919.49
550.387	1904.46
550.813	1897.35
551.24	1903.71
551.666	1904.99
552.092	1894.34
552.518	1886.49
552.943	1881.14
553.369	1889.61
553.795	1894.52
554.221	1894.57
554.646	1890.22
555.072	1900.31
555.498	1904.84
555.923	1912.97
556.349	1927.61
556.774	1936.73
557.199	1937.81
557.625	1942.43
558.05	1933.74
558.475	1943.88
558.9	1942.2
559.325	1932.17
559.75	1925.54
560.175	1918.19
560.6	1910.35
561.025	1906.63
561.449	1905.06
561.874	1909.41
562.299	1913.74
562.723	1920.84
563.148	1908.79
563.572	1911.89
563.997	1922.4
564.421	1926.22
564.846	1926.27
565.27	1930.89
565.694	1927.59
566.118	1939.23
566.542	1946.69
566.966	1937.84
567.39	1931.95
567.814	1919.01
568.238	1917.44
568.662	1921.97
569.086	1923.11
569.509	1929.44
569.933	1911
570.357	1902.33
570.78	1879.52
571.204	1864.22
571.627	1852.69
572.05	1848.64
572.474	1848.01
572.897	1832.57
573.32	1822.2
573.743	1810.91
574.166	1789.55
574.589	1788.98
575.012	1780.45
575.435	1778.4
575.858	1766.44
576.281	1752.87
576.704	1736.02
577.126	1721.38
577.549	1709.14
577.972	1697.21
578.394	1685.87
578.817	1676.71
579.239	1656.35
579.661	1640.35
580.084	1621.54
580.506	1606.56
580.928	1600.8
581.35	1588.01
581.772	1583.26
582.194	1569.11
582.616	1556.17
583.038	1539.49
583.46	1528.18
583.882	1522.77
584.303	1525.75
584.725	1521.06
585.147	1522.06
585.568	1531.6
585.99	1542.62
586.411	1547.01
586.833	1561.38
587.254	1561.12
587.675	1575.26
588.096	1586.74
588.518	1580.77
588.939	1562.88
589.36	1560.38
589.781	1550.01
590.202	1520.2
590.623	1510.89
591.043	1508.3
591.464	1494.21
591.885	1488.68
592.305	1482.26
592.726	1468.49
593.147	1468.35
593.567	1463.83
593.987	1455.19
594.408	1448.98
594.828	1448.27
595.248	1441.35
595.669	1421.6
596.089	1413.69
596.509	1407.31
596.929	1392.41
597.349	1392.29
597.769	1382.47
598.189	1375.24
598.608	1376.12
599.028	1378.63
599.448	1378.01
599.867	1365.56
600.287	1361.24
600.706	1356.67
601.126	1346.98
601.545	1345.92
601.965	1344.32
602.384	1338.51
602.803	1340.22
603.222	1335.51
603.641	1327
604.061	1322.51
604.48	1317.25
604.898	1324.69
605.317	1328.09
605.736	1329.1
606.155	1326.16
606.574	1316.1
606.992	1319.78
607.411	1314.7
607.829	1304.3
608.248	1300.98
608.666	1296.91
609.085	1295.2
609.503	1285.21
609.921	1278.54
610.339	1279.06
610.758	1276.53
611.176	1270.37
611.594	1260.92
612.012	1255.43
612.43	1257.91
612.847	1262.09
613.265	1261.65
613.683	1264.98
614.101	1266
614.518	1260.57
614.936	1250
615.353	1234.1
615.771	1230.4
616.188	1229.05
616.606	1224.81
617.023	1217.27
617.44	1203.21
617.857	1195.62
618.274	1186.22
618.691	1178.61
619.108	1168.91
619.525	1162.09
619.942	1167.17
620.359	1167.61
620.776	1161.16
621.192	1156.37
621.609	1152.96
622.026	1157.32
622.442	1162.47
622.859	1164.85
623.275	1157.87
623.691	1163.11
624.108	1172.9
624.524	1185.27
624.94	1184.96
625.356	1194.1
625.772	1205.33
626.188	1216.44
626.604	1218.77
627.02	1213.83
627.436	1211.41
627.852	1217.02
628.268	1226.85
628.683	1218.62
629.099	1210.74
629.514	1206.27
629.93	1209.03
630.345	1212.62
630.761	1207.08
631.176	1209.32
631.591	1203.93
632.007	1198.13
632.422	1195.17
632.837	1183.05
633.252	1179.68
633.667	1170.34
634.082	1161.65
634.497	1149.27
634.911	1131.37
635.326	1127.73
635.741	1110.39
636.155	1099.57
636.57	1099.25
636.984	1097.52
637.399	1098.83
637.813	1096.36
638.228	1092.75
638.642	1094.26
639.056	1083.08
639.47	1081.05
639.884	1071.05
640.298	1064.04
640.712	1059.47
641.126	1045.45
641.54	1034.52
641.954	1026.25
642.368	1013.11
642.781	1002.92
643.195	984.48
643.609	981.97
644.022	973.32
644.436	966.55
644.849	952.38
645.262	941.08
645.676	939.43
646.089	933.46
646.502	919.28
646.915	911.8
647.328	895.87
647.741	892.28
648.154	879.68
648.567	874.52
648.98	861.69
649.393	860.72
649.805	854.68
650.218	846.15
650.631	832.39
651.043	825.16
651.456	819.46
651.868	819.03
652.28	830.97
652.693	840.34
653.105	845.02
653.517	852.62
653.929	851.16
654.341	856.52
654.753	845.68
655.165	847.99
655.577	843.43
655.989	837.67
656.401	828.01
656.813	797.68
657.224	779.77
657.636	754.38
658.047	737.14
658.459	719.79
658.87	709.31
659.282	698.17
659.693	680.57
660.104	667.99
660.515	654.35
660.926	649.12
661.338	644.5
661.749	637
662.159	628.31
662.57	622.36
662.981	615.92
663.392	608.71
663.803	609.25
664.213	605.41
664.624	599.79
665.035	601.33
665.445	590.88
665.855	583.22
666.266	576.35
666.676	572.55
667.086	564.53
667.497	562.97
667.907	557.02
668.317	549.22
668.727	546.25
669.137	545.37
669.547	542.18
669.956	543.85
670.366	545.49
670.776	546.32
671.186	549.75
671.595	551.97
672.005	554.78
672.414	554.94
672.824	554.77
673.233	557.87
673.642	559.63
674.052	562.36
674.461	564
674.87	567.89
675.279	567.1
675.688	568.05
676.097	570.74
676.506	568.48
676.915	578.35
677.323	580.03
677.732	578.67
678.141	579.79
678.549	573.63
678.958	574.43
679.366	575.34
679.775	578.81
680.183	588.96
680.592	593.66
681	599.71
681.408	597.02
681.816	605.52
682.224	613.67
682.632	624.54
683.04	649.8
683.448	671.75
683.856	697.51
684.264	730.21
684.671	758.94
685.079	795.71
685.487	835.14
685.894	889.83
686.302	936.58
686.709	978.29
687.116	1024.14
687.524	1063.25
687.931	1099.79
688.338	1133.36
688.745	1162.18
689.152	1194.75
689.559	1237.62
689.966	1282.47
690.373	1308.68
690.78	1351.32
691.187	1413.25
691.593	1462.96
692	1509.29
692.407	1572.82
692.813	1648.4
693.22	1710.49
693.626	1776.92
694.032	1831.21
694.439	1910.35
694.845	1972.02
695.251	2049.18
695.657	2120.4
696.063	2223.84
696.469	2302.72
696.875	2375.35
697.281	2421.5
697.687	2476.23
698.093	2521.85
698.498	2603.76
698.904	2668.73
699.31	2764.22
699.715	2833.26
700.12	2933.61
700.526	2958.64
700.931	3034.6
701.337	3093.92
701.742	3134.78
702.147	3225.1
702.552	3263.9
702.957	3331.43
703.362	3358.06
703.767	3395.28
704.172	3444.57
704.577	3400.84
704.981	3454.81
705.386	3476.06
705.791	3475.88
706.195	3558.5
706.6	3575.78
707.004	3660.88
707.408	3634.21
707.813	3667.47
708.217	3658.7
708.621	3664.8
709.025	3772.42
709.43	3778.34
709.834	3845.12
710.237	3921.31
710.641	3909.34
711.045	3935.83
711.449	3934.88
711.853	3966.84
712.256	4012.94
712.66	4057.27
713.064	4139.71
713.467	4183.98
713.87	4305.07
714.274	4357.34
714.677	4474.85
715.08	4646.24
715.484	4827.29
715.887	5044.18
716.29	5260.21
716.693	5484.22
717.096	5740.54
717.499	5881.76
717.901	5913.08
718.304	5946.89
718.707	5977.27
719.109	5872.08
719.512	5843.03
719.915	5698.88
720.317	5641.53
720.719	5690.04
721.122	5661.13
721.524	5609.9
721.926	5567.28
722.328	5673.45
722.731	5661.38
723.133	5692.06
723.535	5901.21
723.937	5926.01
724.338	5982.71
724.74	6027.5
725.142	5945.33
725.544	5943.22
725.945	5967.47
726.347	5966.86
726.748	5960.08
727.15	5977.46
727.551	5938.48
727.952	5909.27
728.354	5881.01
728.755	5880.61
729.156	5835.05
729.557	5838.34
729.958	5708.67
730.359	5653.97
730.76	5634.13
731.161	5571.91
731.562	5546.53
731.962	5550.33
732.363	5481.82
732.763	5409.56
733.164	5447.86
733.564	5377.56
733.965	5275.76
734.365	5239.48
734.766	5270
735.166	5228.02
735.566	5171.19
735.966	5142.92
736.366	5138.95
736.766	5076.02
737.166	5115.01
737.566	5074.26
737.966	5047.36
738.365	5085.99
738.765	5080.74
739.165	5001.25
739.564	4973.16
739.964	5021.61
740.363	4972.3
740.763	4968.96
741.162	4952.9
741.561	4917.61
741.96	4869.99
742.36	4891.3
742.759	4899.42
743.158	4940.51
743.557	4955.7
743.955	4998.29
744.354	4948.91
744.753	5010.91
745.152	4965.71
745.55	5023.15
745.949	5015.67
746.348	5014.37
746.746	5033.31
747.144	4988.33
747.543	4965.39
747.941	5016.85
748.339	4942.78
748.737	4936.04
749.136	4926.68
749.534	4996.62
749.932	4968.58
750.33	4992.84
750.727	5052.87
751.125	5024.74
751.523	5007.09
751.921	5050.51
752.318	5013.24
752.716	5075.18
753.113	5088.91
753.511	5113.57
753.908	5113.75
754.305	5094.02
754.703	5159.59
755.1	5223.46
755.497	5286.78
755.894	5491.7
756.291	5682.1
756.688	6029.26
757.085	6496.45
757.482	7149.03
757.878	7865.32
758.275	8514.7
758.672	9407.23
759.068	10129.44
759.465	11161.79
759.861	12494.64
760.258	14036.07
760.654	14841.27
761.05	14729.05
761.447	14045.88
761.843	13078.56
762.239	12071.5
762.635	11610.76
763.031	11177.36
763.427	10552.39
763.822	9896.53
764.218	9246.32
764.614	8405.14
765.01	7837.18
765.405	7471.1
765.801	7197.52
766.196	6843.5
766.592	6649.33
766.987	6315.6
767.382	6087.8
767.778	5992.88
768.173	5854.9
768.568	5779.69
768.963	5647.27
769.358	5666.39
769.753	5619.66
770.148	5529.81
770.542	5528.12
770.937	5495.99
771.332	5590.9
771.726	5614.89
772.121	5546.27
772.515	5605.08
772.91	5591.74
773.304	5666.14
773.699	5598.02
774.093	5654.87
774.487	5715.41
774.881	5761.35
775.275	5754.32
775.669	5714.92
776.063	5758.6
776.457	5798.82
776.851	5716.78
777.245	5706.22
777.638	5742.94
778.032	5865.6
778.425	5825.73
778.819	5868.71
779.212	5821.51
779.606	5779.91
779.999	5800.77
780.392	5782.58
780.786	5868.85
781.179	5894.26
781.572	5938.74
781.965	5950.87
782.358	5885.77
782.751	5943.44
783.143	5892.76
783.536	5970.65
783.929	6014.82
784.322	6130.41
784.714	6161.11
785.107	6154.04
785.499	6224.12
785.891	6200.42
786.284	6178.37
786.676	6331.04
787.068	6306.45
787.46	6357.81
787.852	6377.96
788.245	6466.82
788.636	6496.5
789.028	6568.4
789.42	6612.97
789.812	6625.54
790.204	6724.58
790.595	6830.07
790.987	6619.35
791.378	6646.69
791.77	6784.05
792.161	6928.19
792.553	6987.19
792.944	6875.43
793.335	6801.66
793.726	6875.65
794.117	6966.76
794.508	7113.17
794.899	7081.44
795.29	7227.41
795.681	7289.1
796.072	7137.35
796.463	6937.07
796.853	6944.17
797.244	7102.93
797.634	7137.71
798.025	7138.18
798.415	7150.63
798.806	7243.21
799.196	7332.97
799.586	7387.52
799.976	7346.92
800.366	7590.49
800.756	7846.95
801.146	7807.32
801.536	7841.64
801.926	7920.82
802.316	7948.94
802.706	8024.98
803.095	7894.72
803.485	7998.9
803.874	8042.85
804.264	8312.55
804.653	8285.58
805.043	8433.86
805.432	8550.58
805.821	8555.07
806.21	8577.18
806.599	8700.2
806.988	8744.76
807.377	8857.18
807.766	8993.55
808.155	9288.02
808.544	9014.18
808.933	9027.9
809.321	9012.73
809.71	9319.15
810.098	9478.4
810.487	9965.35
810.875	10469.12
811.264	10493.08
811.652	10793.91
812.04	10942.68
812.428	11113.54
812.816	11916.02
813.204	12358.37
813.592	12931.06
813.98	13278.66
814.368	13184.56
814.756	13674.75
815.144	13583.19
815.531	14067.19
815.919	13993.06
816.306	14314.02
816.694	13985.66
817.081	14033.94
817.469	14384.64
817.856	14378.06
818.243	14661.79
818.63	15072.33
819.017	14630.55
819.404	14704.58
819.791	15108.69
820.178	15751.32
820.565	16017.72
820.952	16994.55
821.339	16478.31
821.725	16673.66
822.112	15900.97
822.498	15858.01
822.885	15983.57
823.271	15891.05
823.657	16328.08
824.044	16334.57
824.43	16409.28
824.816	16372.03
825.202	15914.89
825.588	16985.44
825.974	17007.07
826.36	17546
826.746	17587.65
827.132	17968.07
827.517	17946.16
827.903	17120.75
828.289	17163.38
828.674	16347.91
829.06	16239.25
829.445	16660.39
829.83	17021.49
830.216	17514.67
830.601	17898.11
830.986	17474.82
831.371	17331.02
831.756	17914.71
832.141	17475.98
832.526	17464.29
832.911	17761.84
833.295	17645.4
833.68	18140.05
834.065	17500.81
834.449	16551.26
834.834	16475.57
835.218	16469.65
835.603	16829.11
835.987	16609.52
836.371	17475.69
836.755	17370.98
837.139	17793.53
837.524	18041.2
837.908	17851.26
838.291	17913.88
838.675	17991.45
839.059	18211.13
839.443	18201.01
839.827	17960.98
840.21	18465.28
840.594	18311.62
840.977	18533.72
841.361	18510.98
841.744	18916.88
842.127	18755.07
842.511	19022.65
842.894	19647.4
843.277	20048.32
843.66	20621.72
844.043	20715.65
844.426	19872.6
844.809	19550.27
845.191	19589.33
845.574	19111.1
845.957	18731.84
846.339	18623.52
846.722	18068.03
847.104	18139.25
847.487	17960.67
847.869	17970.96
848.252	18264.28
848.634	18612.86
849.016	18889.29
849.398	19013.84
849.78	19899.19
850.162	19895.23
850.544	20328.46
850.926	20990.75
851.307	20896.85
851.689	21193.49
852.071	21671.05
852.452	22010.09
852.834	21977.34
853.215	22385.99
853.597	22538.74
853.978	22851.5
854.359	23328.55
854.741	22283.64
855.122	22169.85
855.503	21857.78
855.884	21985.79
856.265	21912.57
856.646	22017.81
857.026	21620.62
857.407	21550.39
857.788	21720.04
858.169	22024.17
858.549	21137.92
858.93	21786.21
859.31	21843.73
859.69	22074.29
860.071	21654.86
860.451	21436
860.831	20672.03
861.211	21874.56
861.591	22452.96
861.971	22425.12
862.351	22631.99
862.731	23035.65
863.111	23320.02
863.491	23652.61
863.87	24565.78
864.25	24934.53
864.629	24501.82
865.009	25048.29
865.388	25935.7
865.768	27789.26
866.147	27681.53
866.526	26138.05
866.905	26445.44
867.284	27927.06
867.663	26528.09
868.042	25422.24
868.421	25334.95
868.8	25757.09
869.179	25996.9
869.558	24489.39
869.936	22574.87
870.315	22977.53
870.693	23528.95
871.072	25373.59
871.45	24173.59
871.828	24483.83
872.207	25738.41
872.585	25358.66
872.963	26049.98
873.341	25149.91
873.719	24852.88
874.097	24558.86
874.475	25025.12
874.853	25614.11
875.23	24556.83
875.608	25577.25
875.986	27666.6
876.363	26453.28
876.741	27260.06
877.118	26569.69
877.495	27889.1
877.873	28351.39
878.25	29829.14
878.627	28623.22
879.004	29021
879.381	28878.37
879.758	28118.77
880.135	26183.96
880.512	27696.05
880.889	26963.55
881.265	26702.36
881.642	26474.82
882.019	26940.17
882.395	26399.2
882.772	27440.45
883.148	26248.6
883.524	26149.99
883.901	26008.63
884.277	26404.83
884.653	26242.78
885.029	26990.58
885.405	29882.5
885.781	29651.59
886.157	28422.94
886.532	28766.44
886.908	28751.88
887.284	31976.05
887.659	33018.67
888.035	34040.77
888.411	34911.75
888.786	35373.82
889.161	36618.45
889.537	35951.88
889.912	37091.79
890.287	37053.59
890.662	38010.82
891.037	37341.03
891.412	34822.97
891.787	34454.2
892.162	33253.45
892.536	34017.88
892.911	32735.43
893.286	32011.51
893.66	30710
894.035	31500.91
894.409	34315.07
894.784	32928.54
895.158	33457.93
895.532	35438.28
895.906	36431.72
896.281	37291.87
896.655	36700.48
897.029	41944.21
897.402	43704.99
897.776	48667.16
898.15	48502.62
898.524	47963.59
898.898	48614.51
899.271	54409.83
899.645	47120.1
900.018	45256.05
900.392	46925.25
900.765	47317.24
901.138	43773.75
901.511	43121.84
901.884	39598.55
902.258	36524.67
902.631	37735.87
903.003	43410.22
903.376	39176.25
903.749	43902.04
904.122	46983.99
904.495	51762.28
904.867	52406.9
905.24	45508.08
905.612	42364.47
905.985	43309.68
906.357	45283.48
906.729	43211.53
907.102	36936.79
907.474	35516.44
907.846	35758.67
908.218	35285.16
908.59	31159.89
908.962	30141.24
909.334	32460.49
909.705	34087.83
910.077	33087.66
910.449	34422.96
910.82	35387.34
911.192	38925.51
911.563	40454.52
911.935	43276.03
912.306	43331.73
912.677	44755.68
913.048	44291.51
913.419	48038.45
913.79	48289.15
914.161	51801.72
914.532	49516.51
914.903	45504.32
915.274	43193.47
915.645	42587.83
916.015	37493.34
916.386	35749.87
916.756	38040.92
917.127	39250.12
917.497	35068.49
917.868	38178.95
918.238	36263.74
918.608	37315.4
918.978	38086.98
919.348	40346.3
919.718	41657.19
920.088	40122.78
920.458	41663.12
920.828	43839.03
921.198	41552.94
921.567	44381.72
921.937	34366.74
922.306	34693.7
922.676	37398.32
923.045	31197.33
923.415	29640.14
923.784	26987.42
924.153	27744.07
924.522	27720.86
924.891	26044.56
925.26	27886.5
925.629	27219.6
925.998	31287.01
926.367	30547.7
926.736	29101.97
927.104	34657.3
927.473	37253.37
927.842	45006.04
928.21	44574.9
928.578	46886.13
928.947	44326.45
929.315	44613.97
929.683	52353.83
930.051	52806.99
930.42	61324.45
930.788	52442.64
931.156	52056.86
931.523	48776.72
931.891	45053.12
932.259	43282.63
932.627	50131.93
932.994	71038.19
933.362	58688.26
933.729	50961.14
934.097	48773.37
934.464	41267.53
934.831	47644.85
935.199	46975.5
935.566	45574.62
935.933	46175.13
936.3	55946.73
936.667	43564.19
937.034	39241.29
937.401	38828.48
937.767	33510.86
938.134	29823.37
938.501	42066.88
938.867	44786.14
939.234	75725.61
939.6	64620.91
939.967	71244.07
940.333	47682.3
940.699	40622.94
941.065	32658.92
941.431	42840.47
941.798	41299.92
942.163	54266.83
942.529	33912.56
942.895	31217.51
943.261	20196.12
943.627	26511.86
943.992	23245.65
944.358	23314.05
944.723	23392.55
945.089	22802.82
945.454	21055.04
945.82	22503.46
946.185	21613.01
946.55	25064.78
946.915	22467.35
947.28	26350.45
947.645	23206.78
948.01	21406.27
948.375	22293.83
948.74	26703.93
949.104	31154.08
949.469	45024.39
949.834	79473.95
950.198	75348.64
950.562	45147.61
950.927	37633.02
951.291	45325.09
951.655	38620.65
952.02	36280.24
952.384	27443.53
952.748	23897.56
953.112	23269.53
953.476	20244.01
953.839	18721.93
954.203	18545.13
954.567	23179.57
954.931	36513.55
955.294	31229.06
955.658	31393.31
956.021	53327.72
956.385	90483.2
956.748	133541.92
957.111	207195.77
957.474	232522.32
957.837	262213
958.2	198450.19
958.563	71369.86
958.926	48230.48
959.289	73250.13
959.652	81801.04
960.015	61401.97
960.377	88061.74
960.74	100473.03
961.102	173638.4
961.465	186565.51
961.827	99686.08
962.189	191385.24
962.552	132688.36
962.914	106423.32
963.276	68997.55
963.638	57006.27
964	56530.7
964.362	38246.87
964.724	37018.09
965.085	26393.36
965.447	21616.66
965.809	24683.79
966.17	24703.85
966.532	26736.84
966.893	24522.59
967.255	22302.31
967.616	26338.78
967.977	21058.86
968.338	22991.05
968.699	18867.62
969.061	18859.76
969.421	18993.84
969.782	21293.01
970.143	17988.76
970.504	18635.29
970.865	21201.33
971.225	21690.56
971.586	21251.64
971.946	30315.89
972.307	26304.07
972.667	34401.96
973.027	35405.55
973.388	42948.11
973.748	29245.19
974.108	31821.41
974.468	43089.48
974.828	33200.68
975.188	25528.09
975.548	23413.17
975.907	19647.4
976.267	22027.74
976.627	18507.57
976.986	19202.56
977.346	18298.06
977.705	17583.28
978.064	16014.03
978.424	13319.31
978.783	13767.91
979.142	15729.18
979.501	15052.25
979.86	15916.47
980.219	15342.78
980.578	19785.17
980.937	22135.93
981.296	19732.56
981.654	20322.04
982.013	31647.55
982.371	41036.03
982.73	38398
983.088	43457.9
983.447	46395.1
983.805	66351.22
984.163	138614.22
984.521	153953.97
984.879	225798.78
985.237	-367207.89
985.595	354043.26
985.953	87966.78
986.311	50847.32
986.669	29469.47
987.026	25463.89
987.384	34289.03
987.741	35432.65
988.099	25292.08
988.456	20120.67
988.814	18842.97
989.171	16382.98
989.528	16156.8
989.885	17048.45
990.242	13492.88
990.599	16818.9
990.956	13765.06
991.313	9628.63
991.67	7899.3
992.027	8377.76
992.383	7457.89
992.74	6539.04
993.096	6854.5
993.453	7106.3
993.809	7367.96
994.165	9810.31
994.522	8978.12
994.878	9888.66
995.234	12391.83
995.59	12229.18
995.946	11584.69
996.302	13216.07
996.658	15270.7
997.013	16852.35
997.369	19995.72
997.725	25614.89
998.08	16606.13
998.436	25643.97
998.791	35362.33
999.147	35350.4
999.502	38568.37
999.857	28022.09
1000.212	45644.64
1000.567	64871.33
1000.922	37412.67
1001.277	23749.5
1001.632	17595.06
1001.987	22692.43
1002.342	16251.57
1002.696	13006.28
1003.051	10370.5
1003.406	12580.68
1003.76	12522.42
1004.114	12366.19
1004.469	10427.88
1004.823	8633.6
1005.177	9334.61
1005.531	7421.68
1005.885	6586.3
1006.239	7436
1006.593	9293.94
1006.947	12430.2
1007.301	9312.33
1007.655	10167.57
1008.008	7440.17
1008.362	8350.6
1008.715	11903.5
1009.069	10790.86
1009.422	16189.41
1009.776	32429.52
1010.129	21577.43
1010.482	18050.11
1010.835	15264.69
1011.188	31790.29
1011.541	29883.25
1011.894	-183171.9
1012.247	539451.01
1012.6	36675.67
1012.952	23159.27
1013.305	11912.72
1013.657	8579.18
1014.01	8115.56
1014.362	6693.03
1014.715	5940.68
1015.067	5171.06
1015.419	5066.97
1015.771	4485.11
1016.123	4000.73
1016.475	4101.07
1016.827	4373.23
1017.179	4706.08
1017.531	4737.81
1017.883	4832.42
1018.234	4669.51
1018.586	5887.5
1018.938	6217.96
1019.289	8574.05
1019.64	9843.58
1019.992	9123.37
1020.343	8395.02
1020.694	6602.09
1021.045	5851.7
1021.396	6692.34
1021.747	7151.66
1022.098	8587.09
1022.449	6252.12
1022.8	5835.34
1023.151	4064.8
1023.501	3585.44
1023.852	3911.77
1024.202	4048.5
1024.553	4473.03
1024.903	4350.31
1025.253	3724.32
1025.604	3370.53
1025.954	4192.99
1026.304	5133.13
1026.654	5966.23
1027.004	8714.81
1027.354	14084.78
1027.703	13258.27
1028.053	17448.89
1028.403	25176.85
1028.753	36684.21
1029.102	49721.82
1029.452	255159.15
1029.801	10953.54
1030.15	7013.25
1030.499	5931.35
897.758	2208.01
901.051	2141.7
904.343	2175.81
907.636	2182.45
910.928	2245.34
914.22	2165.92
917.511	2171.14
920.803	2220.11
924.094	2220.23
927.384	2220.64
930.675	2184.69
933.965	2147.89
937.255	2175.94
940.544	2143.24
943.834	2145.89
947.123	2083.47
950.411	2173.8
953.7	2154.95
956.988	2137.31
960.276	2073.2
963.563	2124.07
966.851	2133.84
970.138	2175.87
973.424	2178.44
976.711	2134.09
979.997	2178.45
983.283	2224.59
986.568	2152.23
989.853	2143.34
993.138	2172.24
996.423	2258.19
999.708	2213.31
1002.992	2244.49
1006.275	2160.38
1009.559	2167.46
1012.842	2266.48
1016.125	2219.46
1019.408	2200.06
1022.69	2255.46
1025.972	2290.14
1029.254	2266.55
1032.536	2226.44
1035.817	2239.78
1039.098	2208.69
1042.379	2261.01
1045.659	2286.48
1048.939	2234.56
1052.219	2243.54
1055.498	2237.85
1058.778	2236.36
1062.057	2211.55
1065.335	2233.98
1068.614	2245.63
1071.892	2238.72
1075.17	2295.91
1078.447	2297.41
1081.724	2293.82
1085.001	2318.72
1088.278	2298.94
1091.554	2303.55
1094.83	2300.19
1098.106	2335.51
1101.382	2366.37
1104.657	2365.94
1107.932	2369.32
1111.206	2343.11
1114.481	2298.47
1117.755	2298.94
1121.029	2292.59
1124.302	2350.64
1127.575	2316.89
1130.848	2312.57
1134.121	2282.65
1137.393	2246.54
1140.665	2301.93
1143.937	2280.28
1147.208	2230.25
1150.48	2285.76
1153.75	2274.05
1157.021	2277.86
1160.291	2253.53
1163.561	2309.61
1166.831	2275.45
1170.101	2303.45
1173.37	2262.11
1176.639	2222.3
1179.907	2266.4
1183.176	2289.1
1186.444	2292.49
1189.711	2317.43
1192.979	2338.4
1196.246	2297.25
1199.513	2304.99
1202.78	2313.38
1206.046	2323.1
1209.312	2351.4
1212.578	2368.15
1215.843	2335.14
1219.108	2302.24
1222.373	2324.46
1225.638	2297.04
1228.902	2287.98
1232.166	2242.46
1235.43	2232.4
1238.693	2258.21
1241.956	2248.69
1245.219	2296.59
1248.482	2281.11
1251.744	2277.67
1255.006	2403.75
1258.268	2349.51
1261.529	2305.18
1264.79	2309.19
1268.051	2406.8
1271.312	2419.41
1274.572	2387.31
1277.832	2375.87
1281.092	2357.69
1284.351	2348.34
1287.61	2331.76
1290.869	2264.71
1294.128	2262.64
1297.386	2313.66
1300.644	2304.61
1303.902	2314.44
1307.159	2182.94
1310.416	2234.74
1313.673	2263.52
1316.93	2259.16
1320.186	2290.43
1323.442	2325.21
1326.697	2325.73
1329.953	2299.84
1333.208	2334.06
1336.463	2307.73
1339.717	2269.7
1342.972	2372.63
1346.226	2344.91
1349.479	2292.96
1352.733	2273.47
1355.986	2278.4
1359.238	2259.43
1362.491	2266.06
1365.743	2266.2
1368.995	2258.84
1372.247	2270.74
1375.498	2289
1378.749	2332.3
1382	2283.31
1385.251	2320.69
1388.501	2271.71
1391.751	2274.09
1395	2240.84
1398.25	2264.86
1401.499	2288.32
1404.748	2235.88
1407.996	2212.67
1411.244	2203.51
1414.492	2188.89
1417.74	2171.89
1420.987	2176.14
1424.234	2238.71
1427.481	2200.53
1430.728	2257.31
1433.974	2232.01
1437.22	2229.36
1440.465	2227.58
1443.711	2227.55
1446.956	2251.58
1450.201	2223.71
1453.445	2265.73
1456.689	2256.63
1459.933	2265.97
1463.177	2307.35
1466.42	2280.03
1469.663	2263.34
1472.906	2279.1
1476.148	2329.59
1479.391	2302.31
1482.633	2277.33
1485.874	2302.32
1489.115	2310.82
1492.356	2292.69
1495.597	2274.95
1498.838	2266.59
1502.078	2251.21
1505.318	2222.48
1508.557	2258.69
1511.797	2252.52
1515.036	2300.1
1518.274	2274.45
1521.513	2226.35
1524.751	2238.15
1527.989	2263.78
1531.227	2280.22
1534.464	2294.18
1537.701	2290.15
1540.938	2303.81
1544.174	2250.36
1547.41	2241.92
1550.646	2278.96
1553.882	2328.97
1557.117	2388.46
1560.352	2395.31
1563.587	2356.58
1566.821	2322.62
1570.055	2343.04
1573.289	2321.45
1576.523	2381.18
1579.756	2395.21
1582.989	2415.97
1586.222	2377.92
1589.454	2402.47
1592.686	2386.38
1595.918	2415.56
1599.15	2413.98
1602.381	2459.17
1605.612	2436.48
1608.843	2533.63
1612.073	2451.63
1615.303	2441.81
1618.533	2440.42
1621.762	2436.98
1624.992	2415.83
1628.221	2416.28
1631.449	2402.76
1634.678	2431.98
1637.906	2401.56
1641.134	2429.6
1644.361	2392.93
1647.588	2384.63
1650.815	2404.21
1654.042	2367.74
1657.269	2396.61
1660.495	2374.33
1663.72	2360.68
1666.946	2330.78
1670.171	2300.62
1673.396	2273.71
1676.621	2256.38
1679.845	2253.06
1683.069	2261.62
1686.293	2292.44
1689.517	2282.96
1692.74	2232.43
1695.963	2254.41
1699.185	2295.85
1702.408	2267.87
1705.63	2298.48
1708.852	2315.9
1712.073	2285.76
1715.294	2296.62
1718.515	2340.46
1721.736	2298.08
1724.956	2276.85
1728.176	2299.59
1731.396	2321.18
1734.616	2306.72
1737.835	2343.15
1741.054	2314.58
1744.272	2306.36
1747.491	2345.55
1750.709	2371.85
1753.927	2317.69
1757.144	2344.38
1760.361	2401.77
1763.578	2377.32
1766.795	2327.05
1770.011	2316.52
1773.227	2343.22
1776.443	2384.76
1779.658	2428.44
1782.874	2366.49
1786.089	2358.05
1789.303	2360.53
1792.518	2359.21
1795.732	2344.98
1798.945	2359.31
1802.159	2401.89
1805.372	2339.71
1808.585	2332.4
1811.797	2334.09
1815.01	2355.26
1818.222	2378.07
1821.434	2338.84
1824.645	2381.75
1827.856	2387.28
1831.067	2417.4
1834.278	2357.24
1837.488	2339.61
1840.698	2464.3
1843.908	2404.48
1847.117	2371.38
1850.326	2295.99
1853.535	2359.74
1856.744	2390.6
1859.952	2312.54
1863.16	2314.14
1866.368	2329.12
1869.575	2442.75
1872.782	2323.6
1875.989	2255.02
1879.196	2308.65
1882.402	2297.92
1885.608	2329.91
1888.814	2266.82
1892.019	2174.29
1895.224	2224.37
1898.429	2189.39
1901.634	2173.2
1904.838	2143.23
1908.042	2201.28
1911.246	2213.79
1914.449	2170.92
1917.652	2155.15
1920.855	2136.41
1924.058	2161.97
1927.26	2205.67
1930.462	2228.12
1933.664	2268.93
1936.865	2209.29
1940.066	2228.12
1943.267	2169.47
1946.467	2181.34
1949.668	2200.81
1952.868	2269.13
1956.067	2257.59
1959.267	2199.24
1962.466	2223.78
1965.665	2206.02
1968.863	2197.2
1972.061	2205.35
1975.259	2196.65
1978.457	2272.96
1981.654	2233.98
1984.852	2236.95
1988.048	2188.51
1991.245	2179.49
1994.441	2266.13
1997.637	2226.73
2000.833	2209.82
2004.028	2247.04
2007.223	2306.05
2010.418	2295.88
2013.613	2247.08
2016.807	2239.11
2020.001	2235.29
2023.194	2258.9
2026.388	2241.64
2029.581	2189.13
2032.774	2249.12
2035.966	2259.77
2039.158	2204.99
2042.35	2222.26
2045.542	2150.96
2048.733	2235.16
2051.924	2228.88
2055.115	2245.75
2058.306	2210.55
2061.496	2266.45
2064.686	2312.69
2067.875	2220.6
2071.065	2225.76
2074.254	2244.73
2077.442	2200.12
2080.631	2281.09
2083.819	2210.31
2087.007	2201.72
2090.195	2185.2
2093.382	2201.65
2096.569	2185.25
2099.756	2148.59
2102.942	2196.4
2106.128	2207.78
2109.314	2193.71
2112.5	2180.66
2115.685	2148.4
2118.87	2156.02
2122.055	2217.28
2125.239	2195.92
2128.424	2183.42
2131.608	2247.06
2134.791	2228.84
2137.974	2266.24
2141.157	2254.54
2144.34	2226.86
2147.523	2218.13
2150.705	2243.36
2153.887	2212.53
2157.068	2183.88
2160.25	2167.26
2163.431	2188.91
2166.611	2156.96
2169.792	2178.95
2172.972	2090.17
2176.152	2141.56
2179.331	2171.2
2182.511	2172.65
2185.69	2192.89
2188.868	2196.45
2192.047	2233.3
2195.225	2246.6
2198.403	2197.79
2201.58	2182.13
2204.758	2169.49
2207.935	2244.57
2211.111	2159.85
2214.288	2146.93
2217.464	2179.76
2220.64	2141.04
2223.815	2191.21
2226.991	2120.2
2230.166	2136.28
2233.34	2178.59
2236.515	2192.01
2239.689	2257.79
2242.863	2206.97
2246.036	2260.6
2249.209	2243.84
2252.382	2264.47
2255.555	2269.54
2258.727	2217.7
2261.9	2251.67
2265.071	2241.42
2268.243	2237.59
2271.414	2187.55
2274.585	2168.43
2277.756	2228.55
2280.926	2184.33
2284.096	2213.82
2287.266	2144.64
2290.436	2190.41
2293.605	2211.34
2296.774	2246.27
2299.942	2251.88
2303.111	2268.84
2306.279	2318.95
2309.447	2301.49
2312.614	2272.92
2315.781	2301.25
2318.948	2277.27
2322.115	2312.36
2325.281	2214.78
2328.447	2222.52
2331.613	2192.52
2334.779	2185
2337.944	2179.02
2341.109	2179.65
2344.274	2171.95
2347.438	2139.48
2350.602	2156.29
2353.766	2167.44
2356.929	2155.43
2360.092	2191.88
2363.255	2161.87
2366.418	2126.46
2369.58	2196.43
2372.742	2068.71
2375.904	2064.2
2379.066	2047.54
2382.227	2073.97
2385.388	2037.98
2388.548	1988.35
2391.709	2030.03
2394.869	2018.28
2398.029	2074.21
2401.188	2071.77
2404.347	2030.43
2407.506	2110.72
2410.665	2148.13
2413.823	2136.29
2416.981	2114.31
2420.139	2130.08
2423.296	2170.99
2426.453	2143.59
2429.61	2167.05
2432.767	2136.99
2435.923	2176.18
2439.079	2124.71
2442.235	2160.62
2445.391	2101.19
2448.546	2142.17
2451.701	2176.31
2454.855	2171.01
2458.009	2201.84
2461.163	2191.7
2464.317	2160.56
2467.471	2188.17
2470.624	2216.15
2473.777	2205.15
2476.929	2220.3
2480.082	2244.87
2483.234	2216.64
2486.385	2159.85
2489.537	2153.89
2492.688	2140.51
2495.839	2157.27
2498.989	2174.01
2502.14	2158.05
2505.29	2150.94
2508.439	2176.78
2511.589	2117.11
2514.738	2116.28
2517.887	2140.49
2521.035	2214.3
2524.183	2176.53
2527.331	2162.73
2530.479	2156.8
2533.627	2157.06
