Data from C_1_DEC_ON_6N_Splice17_11-54-04-777.txt Node
Date: Sat Mar 14 11:54:04 EDT 2020
User: sa697716
Spectrometer: FLMS03696
Trigger mode: 0
Integration Time (sec): 3.180400E-1
Scans to average: 20
Electric dark correction enabled: true
Nonlinearity correction enabled: true
Boxcar width: 5
XAxis mode: Wavelengths
Number of Pixels in Spectrum: 2048
>>>>>Begin Spectral Data<<<<<
187.83	-205569.78
188.298	1668.16
188.766	874.73
189.233	771.61
189.701	1094.19
190.169	1539.71
190.636	546.15
191.104	502.58
191.571	90.36
192.039	-27.26
192.506	-18.63
192.974	519.36
193.441	-834.1
193.908	-259.53
194.375	-59.15
194.842	-24.7
195.31	83.09
195.777	111.74
196.244	305.2
196.711	347.12
197.177	463.96
197.644	652.9
198.111	1099.82
198.578	1548.37
199.045	1228.73
199.511	1980.45
199.978	2302.41
200.445	1970.09
200.911	2192
201.378	2450.79
201.844	2257.42
202.31	3850.3
202.777	3991.48
203.243	2217.7
203.709	2123.98
204.176	2537.78
204.642	2132.78
205.108	2005.97
205.574	1610.52
206.04	1464.96
206.506	1361.93
206.972	1275.89
207.438	1214.23
207.903	1380.69
208.369	1217.01
208.835	1207.09
209.301	1247.32
209.766	1251.92
210.232	1243.68
210.697	1536.62
211.163	1883.34
211.628	2818.64
212.094	2365.44
212.559	2921.36
213.024	1810.2
213.49	2210.04
213.955	2168.86
214.42	2108.79
214.885	1944.1
215.35	1835.78
215.815	1770.19
216.28	1850.15
216.745	1482.99
217.21	1570.33
217.675	1375.14
218.14	1488.06
218.604	1580.42
219.069	1705.44
219.534	1742.93
219.998	1960.28
220.463	2269.71
220.927	2642.25
221.392	2418.39
221.856	2388.15
222.32	2901.24
222.785	3529.55
223.249	4354.5
223.713	4773.17
224.177	4707.07
224.642	5905.73
225.106	7134.15
225.57	7729.89
226.034	5755.32
226.497	8681.9
226.961	7835.78
227.425	9057.51
227.889	9976.26
228.353	9916.8
228.816	20343.93
229.28	19371.75
229.744	16189.54
230.207	9833.12
230.671	9618.36
231.134	15699.33
231.597	18125.83
232.061	17971.41
232.524	17430.02
232.987	11946.58
233.45	10744.33
233.914	9594.8
234.377	9774.44
234.84	8957.04
235.303	10486.83
235.766	11720.34
236.229	12095.86
236.691	7552.77
237.154	8446.21
237.617	6371.43
238.08	6513.37
238.542	7610.64
239.005	5464.77
239.468	5443.92
239.93	5120.24
240.393	4671.13
240.855	4096.89
241.317	4192.82
241.78	5099.47
242.242	5300.71
242.704	5745.83
243.166	5007.41
243.629	4571.2
244.091	5254.89
244.553	5749.24
245.015	6182.44
245.477	7969.41
245.939	11643.98
246.4	12343.85
246.862	11967.01
247.324	11268.72
247.786	12559.01
248.247	16458.43
248.709	16886.86
249.17	12661.14
249.632	12001.62
250.093	13973.04
250.555	12076.88
251.016	7403.6
251.477	7015.82
251.939	7578.1
252.4	7936.74
252.861	9436.4
253.322	8795.94
253.783	10431.02
254.244	13454.58
254.705	10543.03
255.166	9321.1
255.627	9177.7
256.088	12927.19
256.549	13805.08
257.009	11882.88
257.47	14354.96
257.931	11633.83
258.391	8672.88
258.852	8935.38
259.312	9347.61
259.773	11498.74
260.233	9763.57
260.694	8225.59
261.154	9277.82
261.614	7455.3
262.074	6646.47
262.534	6902.07
262.994	6505.72
263.455	8639.33
263.915	7281.8
264.374	6830.71
264.834	7469.91
265.294	8219.35
265.754	8488.3
266.214	8029.83
266.673	7471.34
267.133	9394.43
267.593	9300.36
268.052	11371.94
268.512	9880.56
268.971	11907.61
269.431	13078.5
269.89	11676.59
270.349	17455.62
270.809	19446.56
271.268	17456.73
271.727	39087.8
272.186	25336.61
272.645	18989
273.104	13646.8
273.563	19724.04
274.022	15428.92
274.481	13124.77
274.94	10093.88
275.399	7491.54
275.857	8687.04
276.316	11712.09
276.775	10409.54
277.233	10230.38
277.692	9596.29
278.15	10874.6
278.609	11234.83
279.067	10396.23
279.525	9693.52
279.984	12528.67
280.442	15084.59
280.9	15015.18
281.358	9906.82
281.816	9236.09
282.274	9068.41
282.732	9334.64
283.19	9397.11
283.648	8104.46
284.106	8651.75
284.564	8779.46
285.021	8197.25
285.479	6133.54
285.937	5552.98
286.394	4903.96
286.852	5063.73
287.309	5349.15
287.767	5230.88
288.224	4989
288.682	5481.95
289.139	6047.71
289.596	5565.89
290.053	5771.52
290.511	7274.62
290.968	8865.94
291.425	11983.93
291.882	10019.86
292.339	8724.15
292.796	8617.23
293.252	8124.4
293.709	6484.52
294.166	5813.48
294.623	6411.89
295.079	6148.2
295.536	6189.44
295.992	5600.08
296.449	5542.72
296.905	5746.15
297.362	5550.35
297.818	5836.61
298.274	6063.77
298.731	6160.02
299.187	6084.65
299.643	6526.9
300.099	7917.68
300.555	8688.14
301.011	7286.46
301.467	7110.79
301.923	8316.88
302.379	8090.45
302.835	7982.74
303.291	7976.66
303.746	9091.13
304.202	11547.84
304.658	11633.59
305.113	7829.92
305.569	7707.86
306.024	8211.12
306.479	7759.82
306.935	6584.55
307.39	7182.11
307.845	6629.38
308.301	6723.31
308.756	6555.07
309.211	6326.4
309.666	6484.84
310.121	8113.44
310.576	8222.72
311.031	8184.01
311.486	9370.35
311.94	9343.26
312.395	12490.14
312.85	23501.39
313.305	114895.4
313.759	600608.59
314.214	43624.2
314.668	34775.95
315.123	29203.11
315.577	10533.78
316.032	9374.25
316.486	11742.76
316.94	9329.86
317.394	6528.32
317.849	5074.98
318.303	4815.58
318.757	4552.74
319.211	5025.56
319.665	4391.35
320.119	4449
320.572	6357.06
321.026	5963.48
321.48	4986.78
321.934	5426
322.387	5436.49
322.841	5902.4
323.295	5362.91
323.748	6119.39
324.202	6218.6
324.655	7504.15
325.108	10558.51
325.562	7458.02
326.015	8852.95
326.468	6695.19
326.921	7512.84
327.374	7052.87
327.827	7344.12
328.28	8267.27
328.733	5579.27
329.186	4927.28
329.639	4686.51
330.092	3941.49
330.545	3783.69
330.997	3827.74
331.45	4198.72
331.903	4935.98
332.355	8422.51
332.808	8182.54
333.26	6773.52
333.713	7379.14
334.165	7411.39
334.617	9903.35
335.069	7948.9
335.522	14288.24
335.974	15864.05
336.426	14446.37
336.878	9968.92
337.33	5104.19
337.782	4997.2
338.234	6279.7
338.686	7484.25
339.137	8884.08
339.589	8362.24
340.041	6595.79
340.493	5685.24
340.944	5819.72
341.396	6283.79
341.847	5309.57
342.299	6313.72
342.75	7730.99
343.201	6715.78
343.653	7703.81
344.104	9459.43
344.555	7424.75
345.006	11470.27
345.457	8844.22
345.908	6982.18
346.359	6594.61
346.81	5351.5
347.261	5568.17
347.712	5442.83
348.163	5826.11
348.613	5958.1
349.064	5582.09
349.515	4893.24
349.965	5059.84
350.416	6073.68
350.866	6685.46
351.317	7542.09
351.767	12496.6
352.217	15827.88
352.668	13149.95
353.118	12058.32
353.568	11529.77
354.018	9115.66
354.468	9663.58
354.918	6920.72
355.368	6045.99
355.818	8544.52
356.268	24480.69
356.718	103031.54
357.168	25804.63
357.617	13010.48
358.067	14529.5
358.517	13708.39
358.966	16154.97
359.416	18263.52
359.865	19720.9
360.315	23517.45
360.764	11023.79
361.213	6201.48
361.663	5848.9
362.112	7219.2
362.561	11669.48
363.01	8808.11
363.459	7381.81
363.908	7976.86
364.357	6780.43
364.806	11427.86
365.255	7885.22
365.703	7255.95
366.152	7261.94
366.601	5929.72
367.05	4826.4
367.498	4417.2
367.947	4613.36
368.395	4820.82
368.844	4293.45
369.292	5146.32
369.74	3590.77
370.189	5482.52
370.637	6433.55
371.085	5585.13
371.533	6793.29
371.981	6564.49
372.429	6272.92
372.877	6560.08
373.325	5497.88
373.773	5582.71
374.221	4973.2
374.669	6166.53
375.116	5343.68
375.564	5392.49
376.012	6042.43
376.459	4995.55
376.907	5949.13
377.354	7175.68
377.801	6734.97
378.249	7791.38
378.696	10002.89
379.143	12152.8
379.591	12994.8
380.038	22141.88
380.485	16099.53
380.932	17382.53
381.379	16092.89
381.826	11958.18
382.273	8513.03
382.72	7428.37
383.166	7277.29
383.613	4727.34
384.06	4284.03
384.506	4974.12
384.953	3648.62
385.4	3667.07
385.846	3216.75
386.292	3113.7
386.739	3042.77
387.185	3017.79
387.631	3035.52
388.078	2954.38
388.524	3160.58
388.97	2921.35
389.416	2446.4
389.862	2617.15
390.308	2487.42
390.754	2537.52
391.2	2765.04
391.645	2829.55
392.091	2742.58
392.537	2659.33
392.983	2653.01
393.428	2647.46
393.874	2856.82
394.319	2884.23
394.765	2757.13
395.21	2849.21
395.655	2689.73
396.101	2528.64
396.546	2298.31
396.991	2309.27
397.436	2153.89
397.881	2104.67
398.326	1982.68
398.771	1885.87
399.216	1651.66
399.661	1491.07
400.106	1494.14
400.551	1534.6
400.995	1385.88
401.44	1376.95
401.885	1298.24
402.329	1316.63
402.774	1261.73
403.218	1238.55
403.663	1191.04
404.107	1228.89
404.551	1243.65
404.995	1142.44
405.44	1101.68
405.884	1114.43
406.328	1078.52
406.772	1074.71
407.216	984.71
407.66	956.04
408.104	902.33
408.547	849.33
408.991	822.22
409.435	790.77
409.879	787.2
410.322	783.44
410.766	761.14
411.209	727.35
411.653	705.07
412.096	693.03
412.54	693.59
412.983	694.27
413.426	701.05
413.869	702.98
414.312	695.18
414.756	667.71
415.199	637.29
415.642	623.97
416.085	629.32
416.527	623.86
416.97	632.04
417.413	599.87
417.856	594.5
418.298	587.87
418.741	584.13
419.184	581.67
419.626	604.18
420.069	606.04
420.511	608.99
420.953	597.01
421.396	595.15
421.838	580.48
422.28	597.01
422.722	602.5
423.164	610.74
423.606	604.22
424.048	604.73
424.49	579.08
424.932	576.66
425.374	569.29
425.816	577.16
426.258	586.2
426.699	593.79
427.141	587.41
427.582	594.12
428.024	590.03
428.465	584.5
428.907	570.35
429.348	563.72
429.789	566.29
430.231	555.68
430.672	563.95
431.113	552.78
431.554	544.63
431.995	531.41
432.436	516.79
432.877	508.4
433.318	504.17
433.759	501.66
434.2	503.47
434.64	498.6
435.081	501.46
435.522	478.19
435.962	461.14
436.403	455.37
436.843	460.24
437.284	448.49
437.724	437.08
438.164	435.1
438.604	425.56
439.045	411.19
439.485	394.8
439.925	385.81
440.365	376.72
440.805	372.16
441.245	367.75
441.685	355.85
442.125	353.12
442.564	356.46
443.004	349.15
443.444	350.34
443.883	350.54
444.323	347.38
444.762	348.25
445.202	354.02
445.641	363.53
446.081	360.72
446.52	364.76
446.959	362.89
447.398	355.31
447.837	353.06
448.276	346.75
448.716	352.31
449.154	354.94
449.593	346.97
450.032	345.31
450.471	337.73
450.91	338.71
451.349	339.4
451.787	338.05
452.226	342.18
452.664	341.83
453.103	342.75
453.541	340.25
453.98	342.37
454.418	346.08
454.856	342.45
455.295	342.73
455.733	345.3
456.171	346.05
456.609	348.28
457.047	348.64
457.485	354.97
457.923	357.91
458.361	352.85
458.798	353.97
459.236	352.87
459.674	355.74
460.111	356.89
460.549	355.69
460.987	354.35
461.424	353.23
461.862	352.56
462.299	347.74
462.736	346.73
463.173	348.91
463.611	347.11
464.048	347.65
464.485	350.02
464.922	348.03
465.359	346.03
465.796	347.62
466.233	345.25
466.67	344.18
467.106	345.04
467.543	341.64
467.98	337.57
468.416	327.58
468.853	324.16
469.29	314.92
469.726	311.17
470.162	303.46
470.599	295.74
471.035	292.4
471.471	284.45
471.907	281.32
472.344	279.72
472.78	280.44
473.216	283.45
473.652	280.69
474.088	278.87
474.523	277.75
474.959	279.78
475.395	276.9
475.831	276.2
476.266	277.58
476.702	275.84
477.138	272.13
477.573	271.24
478.008	270.32
478.444	271.73
478.879	275.32
479.314	277.62
479.75	277.75
480.185	279.35
480.62	280.64
481.055	281.38
481.49	284.59
481.925	289.15
482.36	296.65
482.795	304.79
483.229	312.82
483.664	318.87
484.099	319.89
484.534	324.17
484.968	328.16
485.403	329.91
485.837	329.6
486.271	328.68
486.706	329.78
487.14	324.5
487.574	319.45
488.009	317.3
488.443	314.67
488.877	318.93
489.311	321.21
489.745	325.15
490.179	329.67
490.613	338.62
491.046	343.24
491.48	346.59
491.914	348.95
492.348	353.72
492.781	357.43
493.215	360.79
493.648	362.41
494.082	367.08
494.515	370.13
494.948	376.57
495.382	381.04
495.815	385.7
496.248	392.2
496.681	401.78
497.114	410.79
497.547	419.92
497.98	431.03
498.413	439.21
498.846	448.59
499.279	456.26
499.711	462
500.144	466.44
500.577	476.96
501.009	486.86
501.442	497.16
501.874	502.72
502.306	507.71
502.739	516.9
503.171	530.26
503.603	537.13
504.036	547.98
504.468	557.03
504.9	569.1
505.332	578.43
505.764	586.24
506.196	595.47
506.627	610.33
507.059	624.34
507.491	634.82
507.923	638.22
508.354	653.01
508.786	665.66
509.217	682.92
509.649	698.42
510.08	716.81
510.512	734.25
510.943	750.32
511.374	763.44
511.805	783.02
512.237	801.49
512.668	829.58
513.099	853.4
513.53	877.85
513.961	897.74
514.391	926.57
514.822	956.55
515.253	987.8
515.684	1010.49
516.114	1036.53
516.545	1057.1
516.975	1082.47
517.406	1100.51
517.836	1108.09
518.267	1117.33
518.697	1134.29
519.127	1141.33
519.558	1149.71
519.988	1154.97
520.418	1166.54
520.848	1184.03
521.278	1193.69
521.708	1202.84
522.138	1214.9
522.567	1241.14
522.997	1263.35
523.427	1278.19
523.857	1293.34
524.286	1302.88
524.716	1317.64
525.145	1334.81
525.575	1344.74
526.004	1357.65
526.433	1361.01
526.863	1362.81
527.292	1355.56
527.721	1361.11
528.15	1367.09
528.579	1367.79
529.008	1377.08
529.437	1395.88
529.866	1407.03
530.295	1420.98
530.724	1431.85
531.152	1454.12
531.581	1466.45
532.01	1481.19
532.438	1488.49
532.867	1500.68
533.295	1517.22
533.723	1523.44
534.152	1521.69
534.58	1522.88
535.008	1510.84
535.436	1513.12
535.865	1519.89
536.293	1532.11
536.721	1545.81
537.149	1568.22
537.576	1570.69
538.004	1581.51
538.432	1588.59
538.86	1588.47
539.287	1594.01
539.715	1605.69
540.143	1608.52
540.57	1606.04
540.998	1603.53
541.425	1586.12
541.852	1567.81
542.28	1567.22
542.707	1552.79
543.134	1541.34
543.561	1537.92
543.988	1531.82
544.415	1531.24
544.842	1526.95
545.269	1520.67
545.696	1522.04
546.123	1530.91
546.549	1522.15
546.976	1511.14
547.403	1511.81
547.829	1512.3
548.256	1513.08
548.682	1509.96
549.108	1503.9
549.535	1502.09
549.961	1502.69
550.387	1491.37
550.813	1487.35
551.24	1491.71
551.666	1491.19
552.092	1481.57
552.518	1476.12
552.943	1471.06
553.369	1475.3
553.795	1478.2
554.221	1477.82
554.646	1474.57
555.072	1483.19
555.498	1485.57
555.923	1492.69
556.349	1504.5
556.774	1511.14
557.199	1510.9
557.625	1514.05
558.05	1509.15
558.475	1516.86
558.9	1515.01
559.325	1507.16
559.75	1500.7
560.175	1495.02
560.6	1487.67
561.025	1484.64
561.449	1484.2
561.874	1487.05
562.299	1490.03
562.723	1494.56
563.148	1485.42
563.572	1487.43
563.997	1494.44
564.421	1496.8
564.846	1495.2
565.27	1498
565.694	1494.43
566.118	1502.2
566.542	1508.29
566.966	1501.86
567.39	1497.24
567.814	1487.24
568.238	1486.2
568.662	1488.65
569.086	1489.68
569.509	1494.8
569.933	1480.26
570.357	1473.19
570.78	1454.53
571.204	1442.44
571.627	1431.87
572.05	1429.25
572.474	1427.94
572.897	1415.41
573.32	1408.74
573.743	1398.62
574.166	1382.13
574.589	1380.55
575.012	1372.32
575.435	1370
575.858	1360.33
576.281	1349.77
576.704	1334.51
577.126	1322.63
577.549	1312.95
577.972	1302.72
578.394	1292.71
578.817	1286.28
579.239	1269.91
579.661	1258.13
580.084	1243.85
580.506	1231.72
580.928	1227.77
581.35	1217.53
581.772	1213.09
582.194	1201.31
582.616	1190.06
583.038	1178.13
583.46	1167.84
583.882	1163.47
584.303	1164.63
584.725	1160.66
585.147	1161.51
585.568	1167.33
585.99	1176.12
586.411	1179.35
586.833	1188.83
587.254	1188.63
587.675	1197.29
588.096	1204.76
588.518	1200.35
588.939	1187.9
589.36	1185.41
589.781	1175.42
590.202	1154.4
590.623	1146.32
591.043	1142.39
591.464	1132.37
591.885	1129.67
592.305	1125.51
592.726	1114.99
593.147	1115.31
593.567	1110.23
593.987	1103.78
594.408	1099.99
594.828	1097.49
595.248	1092.65
595.669	1080.24
596.089	1074.47
596.509	1068.48
596.929	1057.06
597.349	1057.97
597.769	1049.83
598.189	1045.21
598.608	1045.24
599.028	1046.94
599.448	1046.07
599.867	1036.4
600.287	1032.56
600.706	1029.04
601.126	1021.83
601.545	1021.35
601.965	1018.26
602.384	1014.37
602.803	1015.88
603.222	1012.97
603.641	1006.83
604.061	1004.31
604.48	1000.19
604.898	1004.54
605.317	1006.53
605.736	1006.54
606.155	1003.85
606.574	997.29
606.992	999.43
607.411	994.1
607.829	985.17
608.248	980.45
608.666	976.71
609.085	975.21
609.503	968.9
609.921	963.8
610.339	964.38
610.758	962.23
611.176	957.03
611.594	949.34
612.012	945.95
612.43	947.81
612.847	951.87
613.265	950.65
613.683	951.34
614.101	949.75
614.518	945.57
614.936	936.48
615.353	924.65
615.771	921.48
616.188	919.87
616.606	915.38
617.023	908.87
617.44	897.29
617.857	891.56
618.274	885.4
618.691	880.11
619.108	872.3
619.525	867.02
619.942	870.44
620.359	871.47
620.776	866.86
621.192	864.33
621.609	862.08
622.026	866.18
622.442	869.87
622.859	871.83
623.275	865.94
623.691	868.57
624.108	875.7
624.524	884.1
624.94	883.35
625.356	890.27
625.772	898.05
626.188	905.54
626.604	907.11
627.02	903.9
627.436	902.13
627.852	907.09
628.268	916.41
628.683	910.51
629.099	905.28
629.514	901.5
629.93	904.24
630.345	907.13
630.761	904.75
631.176	906.13
631.591	901.73
632.007	897.48
632.422	894.77
632.837	885.46
633.252	882.52
633.667	873.35
634.082	865.47
634.497	855.08
634.911	841.12
635.326	836.42
635.741	823.56
636.155	814.97
636.57	813.62
636.984	812.1
637.399	810.7
637.813	808.88
638.228	806.57
638.642	807.07
639.056	797.55
639.47	794.21
639.884	786.78
640.298	780.24
640.712	776.82
641.126	766.18
641.54	756.78
641.954	750.05
642.368	738.23
642.781	731.89
643.195	718.17
643.609	715.94
644.022	708.68
644.436	702.46
644.849	691.41
645.262	680.78
645.676	678.43
646.089	673.08
646.502	662.08
646.915	656.1
647.328	641.08
647.741	637.63
648.154	627.21
648.567	625.52
648.98	616.17
649.393	614.09
649.805	609.9
650.218	603.06
650.631	592.16
651.043	587.31
651.456	583.34
651.868	582.89
652.28	590.95
652.693	596.76
653.105	597.76
653.517	601.09
653.929	599.57
654.341	601.38
654.753	593.26
655.165	595.06
655.577	591.11
655.989	585.65
656.401	578.2
656.813	556.6
657.224	543.32
657.636	523.66
658.047	511.57
658.459	498.46
658.87	489.61
659.282	479.64
659.693	465.71
660.104	455.31
660.515	445.67
660.926	441.93
661.338	435.95
661.749	429.3
662.159	422.68
662.57	417.46
662.981	412.25
663.392	406.66
663.803	405.84
664.213	401.58
664.624	397.14
665.035	396.48
665.445	387.92
665.855	383.76
666.266	379.78
666.676	377.37
667.086	371.34
667.497	369.83
667.907	365.54
668.317	360.31
668.727	359.78
669.137	358.78
669.547	356.11
669.956	356.51
670.366	356.73
670.776	357.16
671.186	357.83
671.595	359.08
672.005	360.27
672.414	361.17
672.824	361.11
673.233	362.06
673.642	363.88
674.052	366.82
674.461	369.17
674.87	372.11
675.279	372.19
675.688	373.86
676.097	375.92
676.506	376.03
676.915	382.42
677.323	385.22
677.732	384.79
678.141	385.5
678.549	380.66
678.958	381.26
679.366	380.89
679.775	383.8
680.183	391.48
680.592	396.87
681	401.46
681.408	401.28
681.816	406.58
682.224	414.56
682.632	423.59
683.04	442.48
683.448	457.82
683.856	478.96
684.264	502.92
684.671	523.99
685.079	551.4
685.487	581.2
685.894	621.37
686.302	657.05
686.709	688.15
687.116	724.97
687.524	757.17
687.931	787.93
688.338	815.5
688.745	840.12
689.152	868.43
689.559	902.8
689.966	940.19
690.373	963.29
690.78	1000.3
691.187	1051.18
691.593	1091.87
692	1129.57
692.407	1181.84
692.813	1243.65
693.22	1293.83
693.626	1345.06
694.032	1389.19
694.439	1451.78
694.845	1501.33
695.251	1563.49
695.657	1620.72
696.063	1702.49
696.469	1765.78
696.875	1826.18
697.281	1864.71
697.687	1910.07
698.093	1951.58
698.498	2016.38
698.904	2068.96
699.31	2146.07
699.715	2201.45
700.12	2277.24
700.526	2300.21
700.931	2362.77
701.337	2409.53
701.742	2440.56
702.147	2511.98
702.552	2541.45
702.957	2596.41
703.362	2617.53
703.767	2646.92
704.172	2685.39
704.577	2655.48
704.981	2697.15
705.386	2714.23
705.791	2712.06
706.195	2777.8
706.6	2790.67
707.004	2858.73
707.408	2838.51
707.813	2865.85
708.217	2861.14
708.621	2866.45
709.025	2949.25
709.43	2954.31
709.834	3006.45
710.237	3066.11
710.641	3057.55
711.045	3078.36
711.449	3079.6
711.853	3106.78
712.256	3143.16
712.66	3176.67
713.064	3242.03
713.467	3279.62
713.87	3374.46
714.274	3418.3
714.677	3514.31
715.08	3651.38
715.484	3793.86
715.887	3963.88
716.29	4135.29
716.693	4313.77
717.096	4518.41
717.499	4629.8
717.901	4654.34
718.304	4680.51
718.707	4702.11
719.109	4620.61
719.512	4597.28
719.915	4488.78
720.317	4442.94
720.719	4478.18
721.122	4456.09
721.524	4413.2
721.926	4382.4
722.328	4467.9
722.731	4461.73
723.133	4486.98
723.535	4645.41
723.937	4665.8
724.338	4710.9
724.74	4748.45
725.142	4699.87
725.544	4699.36
725.945	4723.77
726.347	4721.31
726.748	4717.48
727.15	4730.17
727.551	4699.64
727.952	4682.16
728.354	4657.27
728.755	4656.73
729.156	4619.07
729.557	4605.19
729.958	4501.27
730.359	4456.51
730.76	4441.27
731.161	4391.1
731.562	4372.86
731.962	4376.59
732.363	4322.42
732.763	4269.1
733.164	4301.5
733.564	4248.06
733.965	4169.59
734.365	4142.15
734.766	4164.62
735.166	4132.15
735.566	4085.7
735.966	4062.39
736.366	4058.66
736.766	4007.21
737.166	4033.76
737.566	3998.36
737.966	3976.27
738.365	4011.71
738.765	4006.86
739.165	3945.17
739.564	3923.94
739.964	3962.67
740.363	3924.33
740.763	3920.32
741.162	3910.7
741.561	3883.47
741.96	3845.7
742.36	3862.55
742.759	3865.86
743.158	3899.82
743.557	3911.46
743.955	3944.94
744.354	3906.52
744.753	3954.24
745.152	3920.94
745.55	3966.48
745.949	3961.8
746.348	3963.18
746.746	3976.77
747.144	3942.65
747.543	3924.19
747.941	3965.79
748.339	3908.26
748.737	3901.76
749.136	3893.25
749.534	3949.28
749.932	3924.6
750.33	3945.59
750.727	3993.32
751.125	3972.68
751.523	3959.7
751.921	3994.92
752.318	3964.73
752.716	4013.35
753.113	4026.01
753.511	4048.02
753.908	4046.7
754.305	4034.56
754.703	4085.47
755.1	4135.03
755.497	4183.57
755.894	4342.14
756.291	4492.06
756.688	4767.76
757.085	5134.25
757.482	5651.27
757.878	6214.75
758.275	6725.58
758.672	7425.39
759.068	7999.32
759.465	8813.9
759.861	9873.02
760.258	11095.9
760.654	11724.27
761.05	11639.6
761.447	11104.31
761.843	10332.81
762.239	9543.47
762.635	9184.25
763.031	8838.19
763.427	8342.77
763.822	7825.97
764.218	7310.91
764.614	6641.21
765.01	6195.93
765.405	5904.75
765.801	5687.21
766.196	5410.4
766.592	5252.57
766.987	4989.81
767.382	4812.64
767.778	4734.83
768.173	4625.2
768.568	4565.77
768.963	4461.95
769.358	4475.43
769.753	4436.55
770.148	4366.79
770.542	4364.51
770.937	4338.23
771.332	4412.32
771.726	4429.85
772.121	4379.51
772.515	4423.56
772.91	4409.82
773.304	4470.48
773.699	4417.05
774.093	4462.52
774.487	4511.36
774.881	4548.62
775.275	4546.65
775.669	4515.43
776.063	4552.92
776.457	4583.41
776.851	4521.33
777.245	4517.21
777.638	4545.59
778.032	4640.72
778.425	4609.27
778.819	4642.75
779.212	4605.83
779.606	4571.49
779.999	4586.61
780.392	4572.64
780.786	4639.46
781.179	4658.91
781.572	4689.47
781.965	4696.11
782.358	4647.96
782.751	4697.09
783.143	4656.03
783.536	4717.09
783.929	4753.56
784.322	4848.32
784.714	4871.66
785.107	4870.75
785.499	4929.28
785.891	4914.84
786.284	4902.58
786.676	5023.6
787.068	5006.01
787.46	5050.07
787.852	5068.98
788.245	5141.76
788.636	5165.13
789.028	5222.43
789.42	5254.45
789.812	5261.13
790.204	5340.72
790.595	5420.79
790.987	5255.31
791.378	5273.74
791.77	5382.58
792.161	5491.95
792.553	5534.8
792.944	5442.58
793.335	5383.42
793.726	5443.81
794.117	5518.33
794.508	5632.13
794.899	5605.63
795.29	5720.57
795.681	5769.71
796.072	5650.65
796.463	5498.5
796.853	5511.64
797.244	5644.1
797.634	5673.85
798.025	5671.23
798.415	5676.29
798.806	5747.8
799.196	5819.83
799.586	5864.52
799.976	5831.34
800.366	6018.87
800.756	6218.83
801.146	6180.05
801.536	6197.8
801.926	6258.81
802.316	6278.22
802.706	6339.92
803.095	6240.02
803.485	6322.17
803.874	6353.92
804.264	6567.31
804.653	6548.43
805.043	6665.94
805.432	6757.41
805.821	6764.47
806.21	6782.31
806.599	6878.26
806.988	6914.09
807.377	7002.24
807.766	7104.69
808.155	7337.72
808.544	7119.82
808.933	7128.11
809.321	7113.7
809.71	7356.44
810.098	7487.7
810.487	7863.59
810.875	8262.98
811.264	8282.93
811.652	8521.29
812.04	8648.14
812.428	8782.68
812.816	9411.7
813.204	9753.61
813.592	10203.94
813.98	10482.51
814.368	10397.03
814.756	10793.43
815.144	10726.59
815.531	11117.38
815.919	11051.13
816.306	11304.91
816.694	11051.63
817.081	11102.52
817.469	11389.48
817.856	11382.29
818.243	11595.38
818.63	11916.83
819.017	11569.01
819.404	11617.56
819.791	11928.57
820.178	12443.95
820.565	12647.7
820.952	13416.31
821.339	13005.47
821.725	13156.86
822.112	12543.53
822.498	12514.55
822.885	12626.87
823.271	12550.04
823.657	12887.39
824.044	12887.79
824.43	12943.14
824.816	12922.52
825.202	12562.6
825.588	13395.25
825.974	13414.91
826.36	13847.59
826.746	13883.21
827.132	14175.2
827.517	14153.49
827.903	13521.41
828.289	13557.99
828.674	12920.03
829.06	12834.68
829.445	13163.97
829.83	13464.8
830.216	13861.26
830.601	14165.41
830.986	13824.81
831.371	13715.87
831.756	14181.94
832.141	13820.9
832.526	13817.75
832.911	14051.75
833.295	13953.69
833.68	14341.38
834.065	13826.43
834.449	13072.09
834.834	13015.07
835.218	13021.11
835.603	13300.92
835.987	13135.23
836.371	13834.65
836.755	13743.39
837.139	14078.29
837.524	14280.48
837.908	14142.59
838.291	14201.22
838.675	14263.59
839.059	14433.5
839.443	14423.09
839.827	14240.95
840.21	14635.33
840.594	14512.3
840.977	14697.07
841.361	14685.41
841.744	15004.83
842.127	14866.86
842.511	15073.05
842.894	15566.04
843.277	15887.4
843.66	16339.21
844.043	16407.16
844.426	15736.66
844.809	15485.31
845.191	15505.66
845.574	15123.11
845.957	14817.58
846.339	14732.53
846.722	14296.87
847.104	14353.5
847.487	14206.76
847.869	14213.56
848.252	14443.32
848.634	14722.18
849.016	14930.7
849.398	15038.68
849.78	15742.16
850.162	15744.9
850.544	16087.27
850.926	16603.17
851.307	16527.33
851.689	16763.07
852.071	17147.68
852.452	17411.03
852.834	17392.27
853.215	17717.49
853.597	17845.81
853.978	18100.64
854.359	18472.97
854.741	17653.17
855.122	17566.81
855.503	17323.8
855.884	17438.71
856.265	17382.18
856.646	17482.9
857.026	17159.67
857.407	17113.18
857.788	17238.91
858.169	17461.65
858.549	16758.16
858.93	17275.03
859.31	17317.71
859.69	17490.86
860.071	17145.68
860.451	16961.21
860.831	16346.33
861.211	17294.82
861.591	17745.97
861.971	17728.02
862.351	17884.72
862.731	18206.32
863.111	18421.16
863.491	18689.6
863.87	19426.26
864.25	19718.73
864.629	19387.52
865.009	19809.24
865.388	20525.06
865.768	21995.11
866.147	21913.39
866.526	20712.1
866.905	20964.41
867.284	22134.6
867.663	21022.52
868.042	20142.95
868.421	20069.49
868.8	20406.55
869.179	20611.32
869.558	19397.14
869.936	17883.71
870.315	18193.36
870.693	18633.63
871.072	20094.04
871.45	19138.85
871.828	19386.26
872.207	20382.57
872.585	20090.66
872.963	20640.12
873.341	19933.22
873.719	19710.87
874.097	19473.05
874.475	19848.84
874.853	20302.9
875.23	19460.57
875.608	20282.02
875.986	21935.59
876.363	20974.13
876.741	21606.5
877.118	21054.01
877.495	22093.17
877.873	22455.3
878.25	23635.29
878.627	22663.78
879.004	22978.61
879.381	22869.51
879.758	22265.26
880.135	20732.18
880.512	21914.63
880.889	21332.38
881.265	21113.27
881.642	20939.34
882.019	21299.77
882.395	20863.3
882.772	21700.17
883.148	20767.34
883.524	20681.35
883.901	20572.13
884.277	20883.23
884.653	20761.23
885.029	21369.37
885.405	23661.56
885.781	23482.54
886.157	22517.46
886.532	22796.29
886.908	22774.86
887.284	25304.47
887.659	26138.03
888.035	26941.72
888.411	27642.73
888.786	28003.38
889.161	28960.96
889.537	28434.57
889.912	29332.12
890.287	29301.16
890.662	30033.93
891.037	29497.71
891.412	27511.9
891.787	27222.02
892.162	26270.73
892.536	26876.16
892.911	25874.38
893.286	25336.77
893.66	24309.01
894.035	24934.36
894.409	27162.49
894.784	26088.28
895.158	26532.06
895.532	28108.08
895.906	28897.13
896.281	29577.82
896.655	29116.25
897.029	33260.9
897.402	34627.95
897.776	38573.08
898.15	38431.83
898.524	38006.45
898.898	38494.87
899.271	43073.1
899.645	37293.92
900.018	35794.52
900.392	37127.61
900.765	37408.96
901.138	34625.28
901.511	34092.7
901.884	31284.95
902.258	28844.02
902.631	29802.73
903.003	34295.98
903.376	30952.58
903.749	34699.46
904.122	37151.51
904.495	40891.49
904.867	41399.79
905.24	35933.37
905.612	33455.35
905.985	34216.98
906.357	35790.69
906.729	34133.48
907.102	29165.27
907.474	28044.27
907.846	28240.69
908.218	27870.79
908.59	24633.77
908.962	23823.94
909.334	25660.39
909.705	26964.97
910.077	26178.58
910.449	27249.6
910.82	28021.74
911.192	30833.22
911.563	32024.38
911.935	34271.69
912.306	34309.92
912.677	35436.6
913.048	35101.55
913.419	38070.01
913.79	38261.09
914.161	41027.74
914.532	39213.3
914.903	36022.2
915.274	34201.16
915.645	33710.33
916.015	29670.92
916.386	28290.22
916.756	30094.43
917.127	31031.38
917.497	27731.96
917.868	30195
918.238	28683.33
918.608	29513.52
918.978	30148.11
919.348	31928.31
919.718	32982.78
920.088	31779.89
920.458	33008.03
920.828	34733.18
921.198	32934.06
921.567	35188.84
921.937	27242.3
922.306	27512.1
922.676	29635.94
923.045	24715.37
923.415	23472.82
923.784	21381.38
924.153	21964.93
924.522	21960.45
924.891	20636.09
925.26	22107.83
925.629	21578.63
925.998	24816.46
926.367	24221.79
926.736	23077.88
927.104	27481.51
927.473	29538.65
927.842	35650.66
928.21	35328.51
928.578	37114.48
928.947	35118.65
929.315	35307.12
929.683	41394.47
930.051	41702.92
930.42	48444.03
930.788	41439.58
931.156	41131.66
931.523	38596.82
931.891	35692.44
932.259	34262.12
932.627	39717.23
932.994	56222.12
933.362	46487.75
933.729	40346.2
934.097	38598.31
934.464	32646.29
934.831	37636.5
935.199	37102.47
935.566	35966.56
935.933	36413.13
936.3	44089.33
936.667	34298.51
937.034	30917.13
937.401	30569.7
937.767	26407.37
938.134	23527.57
938.501	33187.49
938.867	35400.87
939.234	59826.91
939.6	51033.18
939.967	56267.66
940.333	37689.88
940.699	32124.26
941.065	25799.39
941.431	33807.77
941.798	32628.61
942.163	42871.29
942.529	26759.34
942.895	24632.86
943.261	15935.33
943.627	20896.8
943.992	18292.16
944.358	18332.65
944.723	18390.27
945.089	17906.01
945.454	16553.86
945.82	17654.59
946.185	16959.66
946.55	19680.88
946.915	17670.65
947.28	20738.57
947.645	18259.45
948.01	16861.84
948.375	17566.7
948.74	21058.89
949.104	24566.73
949.469	35454.8
949.834	62613.43
950.198	59427.47
950.562	35602.09
950.927	29604.31
951.291	35636.88
951.655	30384.77
952.02	28551.33
952.384	21610.52
952.748	18799.99
953.112	18337.14
953.476	15966.75
953.839	14761.65
954.203	14605.28
954.567	18265.68
954.931	28795.93
955.294	24643.77
955.658	24781.31
956.021	42100.16
956.385	71343.08
956.748	105208.39
957.111	162997.7
957.474	182961.04
957.837	206248.72
958.2	155896.84
958.563	56032.67
958.926	37850.42
959.289	57460.09
959.652	64149.5
960.015	48204.99
960.377	69166.1
960.74	78949.17
961.102	136484.87
961.465	146611.19
961.827	78518.68
962.189	150661.54
962.552	104451.66
962.914	83770.68
963.276	54273.92
963.638	44855.63
964	44310.69
964.362	29933.33
964.724	28953.18
965.085	20649.83
965.447	16931.04
965.809	19294.12
966.17	19342.33
966.532	20940.6
966.893	19223.87
967.255	17518.94
967.616	20686.55
967.977	16590.94
968.338	18139.83
968.699	14907.12
969.061	14904.71
969.421	14981.07
969.782	16839.78
970.143	14222.65
970.504	14735.06
970.865	16734.16
971.225	17100.87
971.586	16726.96
971.946	23820.76
972.307	20682.36
972.667	27085.95
973.027	27898.26
973.388	33878.37
973.748	23024.72
974.108	25079.36
974.468	33905.88
974.828	26153.44
975.188	20137.11
975.548	18479.81
975.907	15522.86
976.267	17409.81
976.627	14598.99
976.986	15128.94
977.346	14413.64
977.705	13864.17
978.064	12612.79
978.424	10503.74
978.783	10862.23
979.142	12368.75
979.501	11847.64
979.86	12529.89
980.219	12073.54
980.578	15573.64
980.937	17449.19
981.296	15536.5
981.654	15949.47
982.013	24833.54
982.371	32239.99
982.73	30123.41
983.088	34147.35
983.447	36453.93
983.805	52058.42
984.163	108748.18
984.521	120539.69
984.879	176548.79
985.237	-287480.1
985.595	277928.59
985.953	69049.74
986.311	39908.71
986.669	23170.66
987.026	20019.27
987.384	26885.03
987.741	27834.08
988.099	19872.98
988.456	15837.88
988.814	14827.7
989.171	12892.02
989.528	12711.68
989.885	13424.77
990.242	10611.85
990.599	13204.41
990.956	10799
991.313	7568.88
991.67	6210.95
992.027	6597.86
992.383	5874.55
992.74	5152.09
993.096	5398.18
993.453	5587.83
993.809	5785.66
994.165	7706.86
994.522	7066.63
994.878	7785.42
995.234	9761.85
995.59	9631.4
995.946	9121.44
996.302	10401.76
996.658	12017.76
997.013	13257.11
997.369	15740.66
997.725	20180.53
998.08	13057.03
998.436	20144.56
998.791	27795.19
999.147	27779
999.502	30280.16
999.857	21949.5
1000.212	35780.38
1000.567	50960.66
1000.922	29439.59
1001.277	18700.89
1001.632	13864.95
1001.987	17853.59
1002.342	12799.6
1002.696	10245.91
1003.051	8178.24
1003.406	9899.82
1003.76	9840.24
1004.114	9702.99
1004.469	8157.23
1004.823	6741.97
1005.177	7270.78
1005.531	5759.78
1005.885	5123.42
1006.239	5782.49
1006.593	7232.81
1006.947	9678.29
1007.301	7258.01
1007.655	7941.4
1008.008	5831.83
1008.362	6556.29
1008.715	9356.44
1009.069	8506.84
1009.422	12817.68
1009.776	25697.16
1010.129	17036.25
1010.482	14197.16
1010.835	12051.16
1011.188	25183.73
1011.541	23639.8
1011.894	-144507.27
1012.247	425756.8
1012.6	29046.95
1012.952	18347.42
1013.305	9472.61
1013.657	6816.92
1014.01	6451.83
1014.362	5341.05
1014.715	4745.28
1015.067	4129.18
1015.419	4040.09
1015.771	3584.89
1016.123	3200.51
1016.475	3282.12
1016.827	3487.92
1017.179	3743.86
1017.531	3781.02
1017.883	3863.88
1018.234	3740.09
1018.586	4685.41
1018.938	4946.5
1019.289	6830.42
1019.64	7813.6
1019.992	7239.95
1020.343	6625
1020.694	5273.56
1021.045	4650.85
1021.396	5314.42
1021.747	5737.43
1022.098	6893.76
1022.449	5024.38
1022.8	4676.08
1023.151	3255.91
1023.501	2896.22
1023.852	3137.98
1024.202	3250.83
1024.553	3538.63
1024.903	3464.86
1025.253	2961.09
1025.604	2640.2
1025.954	3268.66
1026.304	3993.95
1026.654	4642.97
1027.004	6798.48
1027.354	10923.78
1027.703	10338.72
1028.053	13629.9
1028.403	20045.65
1028.753	29082.15
1029.102	39421.88
1029.452	203065.03
1029.801	8720.39
1030.15	5594.61
1030.499	4750.61
897.758	2164.77
901.051	2099.32
904.343	2133.38
907.636	2139.78
910.928	2203.12
914.22	2121.27
917.511	2126.5
920.803	2174.13
924.094	2170.41
927.384	2173.94
930.675	2138.19
933.965	2101.72
937.255	2130.12
940.544	2098.12
943.834	2096.68
947.123	2035.03
950.411	2124.14
953.7	2105.44
956.988	2088.17
960.276	2024.47
963.563	2073.65
966.851	2083.03
970.138	2125.06
973.424	2126.6
976.711	2082.6
979.997	2129.25
983.283	2171.79
986.568	2103.81
989.853	2095.07
993.138	2122.96
996.423	2210.61
999.708	2167.09
1002.992	2196.78
1006.275	2120.05
1009.559	2125.91
1012.842	2220.34
1016.125	2174.19
1019.408	2156.82
1022.69	2208.56
1025.972	2243.42
1029.254	2216.44
1032.536	2178.47
1035.817	2187.7
1039.098	2157.16
1042.379	2198.72
1045.659	2225.18
1048.939	2177.4
1052.219	2183.58
1055.498	2177.07
1058.778	2175.07
1062.057	2150.81
1065.335	2174.27
1068.614	2184.7
1071.892	2181.08
1075.17	2235.29
1078.447	2236.67
1081.724	2233.01
1085.001	2255.06
1088.278	2234.73
1091.554	2238.37
1094.83	2234.66
1098.106	2268.7
1101.382	2298.55
1104.657	2299.16
1107.932	2298.03
1111.206	2275.7
1114.481	2231.98
1117.755	2230.27
1121.029	2224.97
1124.302	2282.87
1127.575	2250.16
1130.848	2246.79
1134.121	2217.82
1137.393	2181.79
1140.665	2237.31
1143.937	2216.69
1147.208	2164.85
1150.48	2221.3
1153.75	2208.29
1157.021	2211.86
1160.291	2188.46
1163.561	2240.55
1166.831	2209.78
1170.101	2235.77
1173.37	2195.86
1176.639	2154.11
1179.907	2198.43
1183.176	2222.49
1186.444	2223.15
1189.711	2247.98
1192.979	2270.82
1196.246	2229.18
1199.513	2240.44
1202.78	2246.5
1206.046	2254.89
1209.312	2281.63
1212.578	2298.99
1215.843	2266.73
1219.108	2232.94
1222.373	2256.92
1225.638	2230.26
1228.902	2219.77
1232.166	2179.47
1235.43	2170.29
1238.693	2193.85
1241.956	2184.87
1245.219	2233.53
1248.482	2218.55
1251.744	2215.55
1255.006	2335.89
1258.268	2283.25
1261.529	2241.11
1264.79	2242.52
1268.051	2336.48
1271.312	2344.81
1274.572	2315.5
1277.832	2306.63
1281.092	2285.98
1284.351	2274.86
1287.61	2260.17
1290.869	2197.13
1294.128	2193.77
1297.386	2242.32
1300.644	2235.58
1303.902	2243.6
1307.159	2113.91
1310.416	2163.78
1313.673	2189.25
1316.93	2188.33
1320.186	2219.12
1323.442	2252.97
1326.697	2253.3
1329.953	2228.81
1333.208	2262.99
1336.463	2236.76
1339.717	2200.74
1342.972	2307.8
1346.226	2278.53
1349.479	2229.4
1352.733	2210.46
1355.986	2217.31
1359.238	2197.08
1362.491	2202.51
1365.743	2202.59
1368.995	2195.36
1372.247	2207.72
1375.498	2226.97
1378.749	2267.1
1382	2220.02
1385.251	2254.7
1388.501	2207.5
1391.751	2205.83
1395	2173.53
1398.25	2199.03
1401.499	2220.21
1404.748	2170.06
1407.996	2149.39
1411.244	2139.29
1414.492	2124.47
1417.74	2109.61
1420.987	2115.24
1424.234	2173.7
1427.481	2139.85
1430.728	2195.75
1433.974	2170.82
1437.22	2169.53
1440.465	2165.82
1443.711	2164.01
1446.956	2186.62
1450.201	2160.15
1453.445	2199.72
1456.689	2187.83
1459.933	2197.74
1463.177	2236.36
1466.42	2210.64
1469.663	2195.18
1472.906	2210.22
1476.148	2256.28
1479.391	2231.55
1482.633	2206.81
1485.874	2228.75
1489.115	2236.52
1492.356	2221.07
1495.597	2201.92
1498.838	2193.42
1502.078	2179.07
1505.318	2150.25
1508.557	2183.33
1511.797	2179.62
1515.036	2220.81
1518.274	2196.04
1521.513	2147.89
1524.751	2161.03
1527.989	2184.55
1531.227	2201.82
1534.464	2214.21
1537.701	2208.59
1540.938	2219.92
1544.174	2168.9
1547.41	2159.88
1550.646	2198.87
1553.882	2246.09
1557.117	2303.43
1560.352	2308.35
1563.587	2271.2
1566.821	2238.35
1570.055	2254.9
1573.289	2234.77
1576.523	2292.55
1579.756	2308.91
1582.989	2330.26
1586.222	2288.74
1589.454	2317.5
1592.686	2302.1
1595.918	2330.21
1599.15	2326.88
1602.381	2372.94
1605.612	2353.59
1608.843	2445.99
1612.073	2368.9
1615.303	2355.97
1618.533	2355.1
1621.762	2352.5
1624.992	2326.74
1628.221	2331.14
1631.449	2318.77
1634.678	2344.84
1637.906	2313.26
1641.134	2337.86
1644.361	2303.85
1647.588	2295.02
1650.815	2314.79
1654.042	2279.04
1657.269	2309.02
1660.495	2288.11
1663.72	2272.6
1666.946	2245.86
1670.171	2220.23
1673.396	2192.16
1676.621	2178.18
1679.845	2173.21
1683.069	2181.59
1686.293	2210.08
1689.517	2199.84
1692.74	2151.67
1695.963	2172.93
1699.185	2213.68
1702.408	2185.81
1705.63	2214.17
1708.852	2232.76
1712.073	2205.21
1715.294	2217.56
1718.515	2258.82
1721.736	2219.98
1724.956	2200.25
1728.176	2221.2
1731.396	2244.74
1734.616	2229.29
1737.835	2263.95
1741.054	2236.24
1744.272	2228.98
1747.491	2265.24
1750.709	2288.66
1753.927	2237.78
1757.144	2263.15
1760.361	2320.62
1763.578	2297.22
1766.795	2244.96
1770.011	2235.51
1773.227	2259.84
1776.443	2301.98
1779.658	2343.69
1782.874	2284.57
1786.089	2277.68
1789.303	2279.81
1792.518	2277.41
1795.732	2261.89
1798.945	2277.24
1802.159	2317.65
1805.372	2260.69
1808.585	2255.36
1811.797	2255.36
1815.01	2276.7
1818.222	2299.42
1821.434	2260.98
1824.645	2303.14
1827.856	2311.02
1831.067	2341.33
1834.278	2281.95
1837.488	2266.76
1840.698	2386.47
1843.908	2329.47
1847.117	2297.52
1850.326	2223.54
1853.535	2285.04
1856.744	2316.61
1859.952	2241.75
1863.16	2245.15
1866.368	2257.42
1869.575	2365.86
1872.782	2253.39
1875.989	2185.69
1879.196	2235.62
1882.402	2227.38
1885.608	2259.4
1888.814	2199.52
1892.019	2111.28
1895.224	2159.45
1898.429	2124.62
1901.634	2113.04
1904.838	2088.02
1908.042	2142.36
1911.246	2158.39
1914.449	2119.78
1917.652	2102.31
1920.855	2085
1924.058	2109.16
1927.26	2152.86
1930.462	2175.5
1933.664	2214.79
1936.865	2156.21
1940.066	2172.97
1943.267	2119.14
1946.467	2127.54
1949.668	2145.49
1952.868	2213.48
1956.067	2203.77
1959.267	2146.72
1962.466	2170.02
1965.665	2152.09
1968.863	2144.83
1972.061	2149.39
1975.259	2140.52
1978.457	2215.85
1981.654	2177.82
1984.852	2182.12
1988.048	2135.76
1991.245	2125.35
1994.441	2212.06
1997.637	2169.56
2000.833	2152.08
2004.028	2188.5
2007.223	2247.81
2010.418	2238.64
2013.613	2187.76
2016.807	2181.09
2020.001	2176.4
2023.194	2198.15
2026.388	2182.42
2029.581	2126.22
2032.774	2190.19
2035.966	2201.48
2039.158	2146.96
2042.35	2167
2045.542	2094.74
2048.733	2177.72
2051.924	2169.98
2055.115	2186.74
2058.306	2153.41
2061.496	2207.07
2064.686	2255.71
2067.875	2162.53
2071.065	2166.27
2074.254	2184.99
2077.442	2139.73
2080.631	2220.91
2083.819	2152.75
2087.007	2147.23
2090.195	2129.37
2093.382	2145.78
2096.569	2129.4
2099.756	2095.13
2102.942	2142.69
2106.128	2154.84
2109.314	2143.55
2112.5	2130.69
2115.685	2099.55
2118.87	2106.29
2122.055	2165.2
2125.239	2146.61
2128.424	2133.94
2131.608	2194.15
2134.791	2176.94
2137.974	2212.71
2141.157	2201.37
2144.34	2174.28
2147.523	2163.87
2150.705	2188.84
2153.887	2158.2
2157.068	2130.92
2160.25	2111.54
2163.431	2135.09
2166.611	2105.19
2169.792	2125.05
2172.972	2041.39
2176.152	2088.95
2179.331	2115.87
2182.511	2120.32
2185.69	2140.09
2188.868	2145
2192.047	2179.79
2195.225	2196.77
2198.403	2144.76
2201.58	2131.85
2204.758	2116.99
2207.935	2190.25
2211.111	2110.28
2214.288	2098.38
2217.464	2132.63
2220.64	2088.97
2223.815	2137.18
2226.991	2070.74
2230.166	2086.05
2233.34	2129.86
2236.515	2139.17
2239.689	2206.35
2242.863	2155.82
2246.036	2207.11
2249.209	2192.22
2252.382	2208.92
2255.555	2217.51
2258.727	2167.96
2261.9	2198.79
2265.071	2191.2
2268.243	2186.88
2271.414	2139.17
2274.585	2120.49
2277.756	2181.67
2280.926	2140.83
2284.096	2171.09
2287.266	2100.07
2290.436	2149.28
2293.605	2167.67
2296.774	2203.87
2299.942	2207.91
2303.111	2223.79
2306.279	2274.5
2309.447	2261.28
2312.614	2230.45
2315.781	2253.09
2318.948	2228.54
2322.115	2267.36
2325.281	2166.87
2328.447	2176.18
2331.613	2145.62
2334.779	2138.52
2337.944	2133.76
2341.109	2136.03
2344.274	2124.65
2347.438	2093.51
2350.602	2113.58
2353.766	2122.83
2356.929	2112.03
2360.092	2147.94
2363.255	2118.39
2366.418	2085.51
2369.58	2150.42
2372.742	2031.02
2375.904	2023.44
2379.066	2008.42
2382.227	2033.58
2385.388	1996.87
2388.548	1947.41
2391.709	1990.03
2394.869	1980.59
2398.029	2035.63
2401.188	2028.28
2404.347	1993.66
2407.506	2067.4
2410.665	2107.47
2413.823	2093.8
2416.981	2073.17
2420.139	2090.76
2423.296	2130.01
2426.453	2103.7
2429.61	2125.23
2432.767	2094.88
2435.923	2138.28
2439.079	2083.78
2442.235	2117.13
2445.391	2059.18
2448.546	2101.44
2451.701	2132.21
2454.855	2128.78
2458.009	2159.25
2461.163	2144.01
2464.317	2117.02
2467.471	2145.52
2470.624	2171.41
2473.777	2161.95
2476.929	2180.75
2480.082	2201.64
2483.234	2175.54
2486.385	2118.53
2489.537	2112.11
2492.688	2100.72
2495.839	2120.19
2498.989	2135.12
2502.14	2117.78
2505.29	2113.27
2508.439	2136.09
2511.589	2076.53
2514.738	2077.16
2517.887	2100.04
2521.035	2175.74
2524.183	2135.45
2527.331	2124.04
2530.479	2117.63
2533.627	2118.5
