Data from C_1_DEC_ON_6N_Splice17_11-53-53-651.txt Node
Date: Sat Mar 14 11:53:53 EDT 2020
User: sa697716
Spectrometer: FLMS03696
Trigger mode: 0
Integration Time (sec): 3.180400E-1
Scans to average: 20
Electric dark correction enabled: true
Nonlinearity correction enabled: true
Boxcar width: 5
XAxis mode: Wavelengths
Number of Pixels in Spectrum: 2048
>>>>>Begin Spectral Data<<<<<
187.83	-120522.15
188.298	899.03
188.766	521.27
189.233	474.26
189.701	731.63
190.169	1083.99
190.636	351.37
191.104	304.73
191.571	-7.77
192.039	-137.34
192.506	-209.85
192.974	293.2
193.441	-754.26
193.908	-400.27
194.375	-118.22
194.842	-16.91
195.31	71.9
195.777	110.74
196.244	323.12
196.711	375.75
197.177	458.05
197.644	628.99
198.111	1111.83
198.578	1565.72
199.045	1290.87
199.511	2107.78
199.978	2403.06
200.445	2037.22
200.911	2242.93
201.378	2458.36
201.844	2229.97
202.31	3788.09
202.777	3955.09
203.243	2203.76
203.709	2107.9
204.176	2458.3
204.642	2035.87
205.108	1905.66
205.574	1553.12
206.04	1433.44
206.506	1351.5
206.972	1256.92
207.438	1213.06
207.903	1363.85
208.369	1195.74
208.835	1182.44
209.301	1247.15
209.766	1272.71
210.232	1265.25
210.697	1561.37
211.163	1877.71
211.628	2791.56
212.094	2342.27
212.559	2865.11
213.024	1770.2
213.49	2157.49
213.955	2088.76
214.42	2009.74
214.885	1862.04
215.35	1769.01
215.815	1719.03
216.28	1831.92
216.745	1479.3
217.21	1572.06
217.675	1395.83
218.14	1523.32
218.604	1603.97
219.069	1761.13
219.534	1789.29
219.998	1971.88
220.463	2287.6
220.927	2632.2
221.392	2376.88
221.856	2329.37
222.32	2836
222.785	3419.32
223.249	4221.44
223.713	4670.01
224.177	4593.61
224.642	5751.98
225.106	7023.14
225.57	7605.27
226.034	5672.69
226.497	8593.06
226.961	7772.67
227.425	9021.32
227.889	9920.14
228.353	9829.33
228.816	20056.84
229.28	19196.5
229.744	16151.46
230.207	9782.63
230.671	9579.82
231.134	15696.64
231.597	18078.17
232.061	17955.83
232.524	17402.6
232.987	11967.96
233.45	10757.2
233.914	9655.42
234.377	9829.18
234.84	9008.19
235.303	10594.83
235.766	11812.69
236.229	12164.23
236.691	7627.82
237.154	8518.37
237.617	6419.74
238.08	6550.01
238.542	7657.33
239.005	5475.19
239.468	5439.52
239.93	5109.5
240.393	4636.56
240.855	4068.98
241.317	4167.95
241.78	5054.48
242.242	5246.83
242.704	5685.07
243.166	4954.97
243.629	4513.46
244.091	5199.81
244.553	5687.63
245.015	6121.67
245.477	7919.23
245.939	11579.22
246.4	12286.41
246.862	11948.67
247.324	11246.7
247.786	12546.03
248.247	16417.95
248.709	16892.15
249.17	12633.07
249.632	11997.45
250.093	13966
250.555	12067.36
251.016	7393.94
251.477	7000.65
251.939	7558.91
252.4	7921.86
252.861	9394.32
253.322	8750.28
253.783	10397.58
254.244	13474.74
254.705	10553.24
255.166	9305.31
255.627	9139.51
256.088	12894.36
256.549	13700.15
257.009	11750.56
257.47	14237.73
257.931	11538.68
258.391	8656.58
258.852	8914.8
259.312	9307.32
259.773	11439.11
260.233	9725.01
260.694	8206.63
261.154	9270.03
261.614	7450.78
262.074	6644.86
262.534	6892.87
262.994	6515.25
263.455	8625.85
263.915	7245.64
264.374	6825.06
264.834	7456.36
265.294	8218.77
265.754	8512.44
266.214	8039.66
266.673	7503.95
267.133	9458.67
267.593	9344.17
268.052	11400.6
268.512	9904.85
268.971	11978.38
269.431	13126.94
269.89	11722.81
270.349	17524.48
270.809	19480.31
271.268	17473.34
271.727	39049.83
272.186	25257.61
272.645	18952.82
273.104	13616.78
273.563	19673.77
274.022	15397.7
274.481	13078.05
274.94	10075.4
275.399	7482.37
275.857	8680.39
276.316	11699.26
276.775	10434.24
277.233	10268.25
277.692	9658.41
278.15	10961.84
278.609	11302.42
279.067	10439.2
279.525	9750.28
279.984	12606.01
280.442	15148.35
280.9	15034.79
281.358	9917.94
281.816	9251.88
282.274	9086.63
282.732	9335.98
283.19	9385.16
283.648	8112.34
284.106	8676.13
284.564	8793.71
285.021	8173.9
285.479	6102.07
285.937	5542.67
286.394	4897.94
286.852	5046.79
287.309	5321.21
287.767	5195.47
288.224	4973.8
288.682	5488.14
289.139	6061.19
289.596	5583.91
290.053	5806.6
290.511	7336.84
290.968	8907.45
291.425	12062.3
291.882	10102.41
292.339	8789.52
292.796	8663.85
293.252	8137.06
293.709	6487.07
294.166	5819.3
294.623	6403.79
295.079	6144.54
295.536	6205.94
295.992	5648.84
296.449	5591.93
296.905	5797.5
297.362	5600.24
297.818	5917.25
298.274	6153.89
298.731	6257.68
299.187	6195.24
299.643	6663.51
300.099	8076.79
300.555	8843.49
301.011	7386.05
301.467	7176.21
301.923	8372.43
302.379	8170.24
302.835	7991.53
303.291	8033.18
303.746	9159.41
304.202	11549.06
304.658	11611.56
305.113	7816.39
305.569	7685.42
306.024	8200.24
306.479	7762.37
306.935	6595.94
307.39	7190.94
307.845	6696.15
308.301	6763.63
308.756	6580.15
309.211	6354.97
309.666	6517.57
310.121	8130.59
310.576	8251.51
311.031	8208.79
311.486	9408.4
311.94	9391.54
312.395	12589.71
312.85	23641.29
313.305	115562.62
313.759	604087.72
314.214	43986.71
314.668	34962.05
315.123	29616.65
315.577	10666.61
316.032	9505.33
316.486	11895.78
316.94	9414.79
317.394	6580.2
317.849	5133.34
318.303	4856.58
318.757	4570.39
319.211	5042.92
319.665	4432.06
320.119	4469.3
320.572	6386.73
321.026	6003.85
321.48	5002.24
321.934	5445.9
322.387	5445.5
322.841	5891.25
323.295	5366.33
323.748	6157.08
324.202	6253.41
324.655	7517.95
325.108	10542.81
325.562	7499.51
326.015	8853.5
326.468	6735.39
326.921	7556.79
327.374	7086.87
327.827	7401.67
328.28	8343.7
328.733	5628.73
329.186	4967.81
329.639	4736.8
330.092	3995.21
330.545	3808.43
330.997	3871.67
331.45	4264.26
331.903	5026.66
332.355	8588.19
332.808	8323.85
333.26	6863.11
333.713	7485.86
334.165	7562.93
334.617	10072.26
335.069	8096.83
335.522	14584.72
335.974	16123.76
336.426	14656
336.878	10103.37
337.33	5176.56
337.782	5077.76
338.234	6417.16
338.686	7661.35
339.137	9047.96
339.589	8561.16
340.041	6744.58
340.493	5805.43
340.944	5930.32
341.396	6385.87
341.847	5396.71
342.299	6375.57
342.75	7783.13
343.201	6735.66
343.653	7706.35
344.104	9475.98
344.555	7419.04
345.006	11460.61
345.457	8819.92
345.908	7021.2
346.359	6650.6
346.81	5397.2
347.261	5657.54
347.712	5542.23
348.163	5936.81
348.613	6055.49
349.064	5649
349.515	4931.44
349.965	5084.72
350.416	6111.56
350.866	6697.03
351.317	7478.63
351.767	12379.2
352.217	15635.52
352.668	13024.57
353.118	11912.5
353.568	11398.76
354.018	9046.32
354.468	9601.51
354.918	6893.93
355.368	6058.14
355.818	8544.11
356.268	24611.69
356.718	103753.75
357.168	25940.3
357.617	13026.92
358.067	14519.88
358.517	13652.81
358.966	16032.69
359.416	18112.65
359.865	19546.71
360.315	23180.53
360.764	10890.1
361.213	6137.17
361.663	5775.75
362.112	7117.38
362.561	11519.31
363.01	8761.11
363.459	7423.96
363.908	8070.54
364.357	6894.69
364.806	11641.74
365.255	8010.28
365.703	7406.66
366.152	7438.15
366.601	6075.14
367.05	4986.92
367.498	4559.78
367.947	4749.59
368.395	4923.28
368.844	4368.48
369.292	5238.22
369.74	3660.71
370.189	5595.87
370.637	6531.23
371.085	5648.67
371.533	6875.85
371.981	6579.84
372.429	6276.3
372.877	6545.57
373.325	5489.93
373.773	5581.16
374.221	4962.02
374.669	6147.6
375.116	5343.02
375.564	5396.21
376.012	6046.28
376.459	5020.39
376.907	5992.09
377.354	7243.18
377.801	6788.99
378.249	7864.67
378.696	10069.14
379.143	12286.82
379.591	13061.72
380.038	22295.01
380.485	16250.84
380.932	17571.25
381.379	16119.63
381.826	11994.89
382.273	8532.18
382.72	7431.62
383.166	7242.63
383.613	4718.97
384.06	4246.06
384.506	4930.89
384.953	3616.04
385.4	3624.27
385.846	3175.65
386.292	3094.16
386.739	3020.63
387.185	2990.4
387.631	3015.57
388.078	2949.4
388.524	3158.76
388.97	2926.87
389.416	2448.87
389.862	2606.74
390.308	2483.75
390.754	2538.83
391.2	2764.25
391.645	2831.81
392.091	2746.27
392.537	2662.44
392.983	2661.87
393.428	2654.3
393.874	2855.18
394.319	2899.31
394.765	2767.56
395.21	2844.57
395.655	2678.91
396.101	2518.03
396.546	2290.48
396.991	2307.41
397.436	2153.98
397.881	2089.42
398.326	1967.18
398.771	1874.58
399.216	1638.24
399.661	1480.89
400.106	1484.07
400.551	1528.89
400.995	1374.76
401.44	1362.12
401.885	1284.25
402.329	1300.34
402.774	1255.38
403.218	1231.31
403.663	1192.74
404.107	1235.3
404.551	1253.2
404.995	1156.43
405.44	1114.17
405.884	1136.29
406.328	1102.89
406.772	1100.64
407.216	1008.7
407.66	974.9
408.104	921.79
408.547	863.06
408.991	835.57
409.435	804.77
409.879	798.78
410.322	790.58
410.766	767.7
411.209	733.66
411.653	707.51
412.096	696.26
412.54	696.56
412.983	694.87
413.426	702.12
413.869	702.88
414.312	693.3
414.756	667.1
415.199	640.91
415.642	623.88
416.085	628.76
416.527	626.01
416.97	637.87
417.413	609.59
417.856	602.36
418.298	593.79
418.741	590.43
419.184	586.78
419.626	608.88
420.069	608.52
420.511	612.39
420.953	599.17
421.396	595.21
421.838	579.44
422.28	593.34
422.722	601.49
423.164	610.85
423.606	602.72
424.048	603.73
424.49	577.67
424.932	574.92
425.374	567.33
425.816	576.03
426.258	587.16
426.699	592.51
427.141	587.15
427.582	593.07
428.024	590.03
428.465	586.22
428.907	570.67
429.348	562.94
429.789	563.66
430.231	553.3
430.672	564.31
431.113	551.19
431.554	545.03
431.995	530.79
432.436	515.11
432.877	506.54
433.318	501.05
433.759	501.02
434.2	502.3
434.64	498.04
435.081	503.09
435.522	478.35
435.962	462.96
436.403	455.94
436.843	461.63
437.284	452.93
437.724	439.92
438.164	440.21
438.604	432
439.045	417.31
439.485	404
439.925	394.69
440.365	383.42
440.805	379.27
441.245	375.68
441.685	362.98
442.125	360.63
442.564	363.73
443.004	355.67
443.444	354.94
443.883	357.12
444.323	352.42
444.762	351.38
445.202	357.52
445.641	364.69
446.081	361.76
446.52	364.9
446.959	361.95
447.398	354.1
447.837	349.94
448.276	343.87
448.716	347.1
449.154	349.75
449.593	343.1
450.032	343.45
450.471	335.87
450.91	335.87
451.349	337.23
451.787	334.44
452.226	339.94
452.664	340.43
453.103	342.09
453.541	341.59
453.98	343.74
454.418	346.29
454.856	341.51
455.295	341.74
455.733	345.82
456.171	346.85
456.609	350.41
457.047	351.62
457.485	358.01
457.923	359.72
458.361	353.83
458.798	353.6
459.236	354.01
459.674	355.8
460.111	358.1
460.549	355.22
460.987	353.81
461.424	351.84
461.862	350.39
462.299	345.25
462.736	345.5
463.173	348.79
463.611	347.73
464.048	347.29
464.485	351.48
464.922	349.79
465.359	347.1
465.796	348.8
466.233	346.77
466.67	345.4
467.106	346.16
467.543	342.06
467.98	337.19
468.416	327.09
468.853	323.25
469.29	313.09
469.726	309.24
470.162	301.42
470.599	294.01
471.035	291.32
471.471	283.45
471.907	280.44
472.344	278.91
472.78	280.01
473.216	283.62
473.652	280.53
474.088	279.5
474.523	278.43
474.959	281.36
475.395	277.97
475.831	277.03
476.266	278.18
476.702	276.73
477.138	273.59
477.573	272.53
478.008	272
478.444	274.03
478.879	276.86
479.314	278.28
479.75	278.43
480.185	280.57
480.62	282.48
481.055	284.04
481.49	286.93
481.925	291.19
482.36	297.37
482.795	304.99
483.229	312.43
483.664	319.58
484.099	320.89
484.534	326.18
484.968	329.47
485.403	330.27
485.837	329.37
486.271	329.15
486.706	330.18
487.14	326.07
487.574	321.92
488.009	319.7
488.443	317.62
488.877	322.12
489.311	323.24
489.745	328.38
490.179	332.82
490.613	342.24
491.046	346.53
491.48	350.78
491.914	353.12
492.348	357.38
492.781	361.25
493.215	363.56
493.648	366.31
494.082	371.12
494.515	373.17
494.948	380.14
495.382	383.88
495.815	388.9
496.248	394.25
496.681	404.18
497.114	412.83
497.547	422.4
497.98	432.93
498.413	439.74
498.846	449.41
499.279	457.56
499.711	462.55
500.144	467.54
500.577	477.89
501.009	488.5
501.442	498.81
501.874	504.29
502.306	508.9
502.739	519.37
503.171	533.07
503.603	539.64
504.036	550.14
504.468	560.27
504.9	571.93
505.332	581.1
505.764	588.4
506.196	597.45
506.627	612.04
507.059	626.61
507.491	636.36
507.923	639.85
508.354	655.14
508.786	667.58
509.217	684.44
509.649	700.82
510.08	718.48
510.512	735.91
510.943	751.53
511.374	764.99
511.805	784.53
512.237	802.99
512.668	832.14
513.099	856.81
513.53	881.93
513.961	901.04
514.391	928.49
514.822	958.3
515.253	989.86
515.684	1013.73
516.114	1040.25
516.545	1060.14
516.975	1084.72
517.406	1101.35
517.836	1107
518.267	1116.05
518.697	1134.06
519.127	1140.93
519.558	1149.98
519.988	1155.76
520.418	1167.31
520.848	1183.58
521.278	1194.15
521.708	1204.15
522.138	1216.94
522.567	1244.74
522.997	1267.08
523.427	1281.52
523.857	1297.09
524.286	1307.39
524.716	1321.6
525.145	1337.89
525.575	1348.67
526.004	1360.54
526.433	1363.49
526.863	1365.18
527.292	1357.58
527.721	1362.47
528.15	1368.61
528.579	1370.41
529.008	1379.75
529.437	1398.35
529.866	1410.49
530.295	1425.3
530.724	1437.14
531.152	1460.04
531.581	1471.68
532.01	1486.97
532.438	1494.52
532.867	1506.82
533.295	1521.32
533.723	1526.11
534.152	1525.11
534.58	1524.66
535.008	1511.12
535.436	1513.06
535.865	1519.15
536.293	1531.82
536.721	1544.26
537.149	1565.28
537.576	1567.85
538.004	1579.41
538.432	1586.66
538.86	1585.98
539.287	1592.55
539.715	1604.66
540.143	1607.04
540.57	1606.37
540.998	1603.08
541.425	1584.57
541.852	1568.18
542.28	1567
542.707	1553.91
543.134	1542.93
543.561	1539
543.988	1533.4
544.415	1533.16
544.842	1528.14
545.269	1520.83
545.696	1522.43
546.123	1533.67
546.549	1524.79
546.976	1513.32
547.403	1512.87
547.829	1513.26
548.256	1514.44
548.682	1510.63
549.108	1503.88
549.535	1503.29
549.961	1504.02
550.387	1492.28
550.813	1486.5
551.24	1490.91
551.666	1490.61
552.092	1481.55
552.518	1476.26
552.943	1471.53
553.369	1475.67
553.795	1479.93
554.221	1479.58
554.646	1476.04
555.072	1484.4
555.498	1488.07
555.923	1494.93
556.349	1505.69
556.774	1511.62
557.199	1512.02
557.625	1515.66
558.05	1510.35
558.475	1516.9
558.9	1515.15
559.325	1507.46
559.75	1500.02
560.175	1494.22
560.6	1486.96
561.025	1485.49
561.449	1485.48
561.874	1488.57
562.299	1490.68
562.723	1495.52
563.148	1485.84
563.572	1487.82
563.997	1496.02
564.421	1500.93
564.846	1498.9
565.27	1501.11
565.694	1498.06
566.118	1505.88
566.542	1509.97
566.966	1503.35
567.39	1498.79
567.814	1489.11
568.238	1487.69
568.662	1489.46
569.086	1489.64
569.509	1494.66
569.933	1480.81
570.357	1473.39
570.78	1456.2
571.204	1445.14
571.627	1435.75
572.05	1432.28
572.474	1431.65
572.897	1419.94
573.32	1411.99
573.743	1402.6
574.166	1385.72
574.589	1384.44
575.012	1376.53
575.435	1373.27
575.858	1364.14
576.281	1352.76
576.704	1338.67
577.126	1326.13
577.549	1315.12
577.972	1305.87
578.394	1296.19
578.817	1289.75
579.239	1272.5
579.661	1260.62
580.084	1246.78
580.506	1234.03
580.928	1229.27
581.35	1219.48
581.772	1215.7
582.194	1204.21
582.616	1192.54
583.038	1180.11
583.46	1169.91
583.882	1166.37
584.303	1168.06
584.725	1163.25
585.147	1164.66
585.568	1172
585.99	1180.15
586.411	1183.63
586.833	1194.16
587.254	1193.77
587.675	1202.28
588.096	1210.25
588.518	1206.75
588.939	1192.53
589.36	1190.32
589.781	1180
590.202	1157.53
590.623	1149.33
591.043	1146.35
591.464	1135.6
591.885	1132.73
592.305	1128.3
592.726	1118.11
593.147	1117.87
593.567	1114.21
593.987	1107.7
594.408	1103.79
594.828	1101.72
595.248	1097.45
595.669	1082.65
596.089	1077.25
596.509	1071.08
596.929	1060.49
597.349	1060.59
597.769	1052.51
598.189	1046.77
598.608	1047.04
599.028	1048.53
599.448	1047.94
599.867	1037.3
600.287	1034.35
600.706	1030.52
601.126	1024.15
601.545	1023.4
601.965	1021.61
602.384	1017.44
602.803	1019.15
603.222	1015.21
603.641	1009.2
604.061	1005.84
604.48	1002.54
604.898	1006.95
605.317	1009.69
605.736	1009.41
606.155	1005.04
606.574	997.02
606.992	999.5
607.411	994.6
607.829	987.27
608.248	983.72
608.666	980.22
609.085	978.59
609.503	970.65
609.921	964.82
610.339	964.8
610.758	963.32
611.176	958.97
611.594	950.23
612.012	946.39
612.43	946.97
612.847	949.66
613.265	949.49
613.683	950.86
614.101	951.96
614.518	947.08
614.936	938.75
615.353	927.7
615.771	924.18
616.188	923.06
616.606	918.53
617.023	912.59
617.44	901.75
617.857	894.82
618.274	886.94
618.691	879.75
619.108	872.21
619.525	867.26
619.942	870.15
620.359	870.44
620.776	866.4
621.192	862.63
621.609	860.24
622.026	863.98
622.442	867.51
622.859	869.78
623.275	864.32
623.691	867.8
624.108	874.58
624.524	883.75
624.94	883.66
625.356	889.86
625.772	900.05
626.188	907.78
626.604	908.13
627.02	904.83
627.436	902.92
627.852	908.64
628.268	916.72
628.683	910.2
629.099	904.48
629.514	900.61
629.93	903.17
630.345	904.93
630.761	901.12
631.176	904.42
631.591	900.62
632.007	895.41
632.422	892.94
632.837	884.44
633.252	882.67
633.667	874.18
634.082	866.58
634.497	856.59
634.911	842.35
635.326	838.73
635.741	824.66
636.155	816.29
636.57	816.59
636.984	814.99
637.399	814.9
637.813	811.78
638.228	809.28
638.642	809.67
639.056	799.95
639.47	797.86
639.884	790.03
640.298	782.89
640.712	779.57
641.126	768.43
641.54	758.1
641.954	750.73
642.368	740.39
642.781	732.71
643.195	719.34
643.609	716.75
644.022	709.47
644.436	704.19
644.849	693.55
645.262	681.98
645.676	679.44
646.089	675.42
646.502	664.51
646.915	658.17
647.328	645.52
647.741	642.09
648.154	632.37
648.567	628.64
648.98	616.97
649.393	615.59
649.805	612.41
650.218	606.33
650.631	594.92
651.043	589.5
651.456	585.04
651.868	583.35
652.28	591.33
652.693	597.28
653.105	599.24
653.517	604.05
653.929	601.79
654.341	603.53
654.753	594.76
655.165	596.84
655.577	592.62
655.989	587.76
656.401	580.48
656.813	558.6
657.224	544.31
657.636	525.91
658.047	514.43
658.459	502.14
658.87	493.9
659.282	484.78
659.693	470.43
660.104	460.47
660.515	449.33
660.926	445.13
661.338	440.1
661.749	433.8
662.159	426.8
662.57	420.75
662.981	415.74
663.392	410.4
663.803	409.07
664.213	405.12
664.624	400.65
665.035	400.37
665.445	391.43
665.855	386.71
666.266	381.2
666.676	377.81
667.086	370.98
667.497	369.43
667.907	364.95
668.317	359.96
668.727	359.9
669.137	358.99
669.547	357.31
669.956	357.68
670.366	356.85
670.776	358.36
671.186	359.83
671.595	362.52
672.005	363.5
672.414	363.81
672.824	364.09
673.233	363.43
673.642	365.26
674.052	366.96
674.461	370.2
674.87	374.18
675.279	374.52
675.688	375.72
676.097	377.98
676.506	377.42
676.915	384.14
677.323	386.05
677.732	387.03
678.141	387.04
678.549	383.62
678.958	383.89
679.366	384.47
679.775	387.2
680.183	394.69
680.592	399.38
681	403.58
681.408	402.73
681.816	408.67
682.224	415.57
682.632	424.57
683.04	442.34
683.448	457.58
683.856	478.41
684.264	502.21
684.671	523.8
685.079	549.86
685.487	581.41
685.894	622.06
686.302	656.64
686.709	687.48
687.116	724.63
687.524	758.44
687.931	789.16
688.338	816.13
688.745	840.23
689.152	868.84
689.559	905.38
689.966	940.69
690.373	963.16
690.78	1001.65
691.187	1053.94
691.593	1094.92
692	1131.79
692.407	1182.96
692.813	1244.55
693.22	1295.26
693.626	1348.97
694.032	1394.27
694.439	1457.15
694.845	1509.82
695.251	1570.9
695.657	1627.24
696.063	1707.48
696.469	1770.48
696.875	1829.4
697.281	1867.46
697.687	1911.84
698.093	1949.17
698.498	2012.87
698.904	2065.64
699.31	2141.39
699.715	2197.61
700.12	2275.38
700.526	2298.38
700.931	2360.57
701.337	2410.47
701.742	2442.36
702.147	2516.38
702.552	2546.44
702.957	2598.79
703.362	2620.14
703.767	2647.91
704.172	2685.42
704.577	2653.3
704.981	2696.2
705.386	2714.98
705.791	2712.84
706.195	2777.98
706.6	2789.04
707.004	2858.21
707.408	2839.77
707.813	2866.27
708.217	2861.35
708.621	2867.2
709.025	2950.81
709.43	2957.01
709.834	3008.53
710.237	3067.74
710.641	3060.22
711.045	3083.07
711.449	3080.64
711.853	3106.92
712.256	3145.61
712.66	3178.56
713.064	3244.88
713.467	3282.49
713.87	3374.72
714.274	3416.39
714.677	3510.44
715.08	3648.67
715.484	3790
715.887	3961.45
716.29	4131.47
716.693	4307.56
717.096	4510.88
717.499	4620.42
717.901	4645.38
718.304	4672.23
718.707	4694.06
719.109	4614.41
719.512	4585.49
719.915	4474.84
720.317	4432.67
720.719	4472.26
721.122	4448.99
721.524	4407.92
721.926	4377.3
722.328	4462
722.731	4454.69
723.133	4481.37
723.535	4642.87
723.937	4662.42
724.338	4708.69
724.74	4743.93
725.142	4689.46
725.544	4692.14
725.945	4715.99
726.347	4712.59
726.748	4709.08
727.15	4721.64
727.551	4690.04
727.952	4667.61
728.354	4644.39
728.755	4644.84
729.156	4610.62
729.557	4603.11
729.958	4499.01
730.359	4453.39
730.76	4440.48
731.161	4390.56
731.562	4371.57
731.962	4376.32
732.363	4323.48
732.763	4272.9
733.164	4303.09
733.564	4247.05
733.965	4166.65
734.365	4138.3
734.766	4163.13
735.166	4128.13
735.566	4080.59
735.966	4059.09
736.366	4055.65
736.766	4003.84
737.166	4028.8
737.566	3994.03
737.966	3972.64
738.365	4005.87
738.765	4001.55
739.165	3936.75
739.564	3915.35
739.964	3955.23
740.363	3917.39
740.763	3913.24
741.162	3904.69
741.561	3878.57
741.96	3841.4
742.36	3857.06
742.759	3860.94
743.158	3893.12
743.557	3909.06
743.955	3944.19
744.354	3905.36
744.753	3953.44
745.152	3920.53
745.55	3966.5
745.949	3961.81
746.348	3962.22
746.746	3975.84
747.144	3942.7
747.543	3925.23
747.941	3962.4
748.339	3902.79
748.737	3896.98
749.136	3889.09
749.534	3941.87
749.932	3919.67
750.33	3937.91
750.727	3986.2
751.125	3968.06
751.523	3953.51
751.921	3987.81
752.318	3959.95
752.716	4010.3
753.113	4021.09
753.511	4044.92
753.908	4046.11
754.305	4031.67
754.703	4083.33
755.1	4131.77
755.497	4179.97
755.894	4340.41
756.291	4490.16
756.688	4768.04
757.085	5133.33
757.482	5650.23
757.878	6208.95
758.275	6718.57
758.672	7415.52
759.068	7986.69
759.465	8801.48
759.861	9854.88
760.258	11072.21
760.654	11700.22
761.05	11611.08
761.447	11079.97
761.843	10318.04
762.239	9528.82
762.635	9167.2
763.031	8827.04
763.427	8335.1
763.822	7818.03
764.218	7305.01
764.614	6636.32
765.01	6190.17
765.405	5899.7
765.801	5683.6
766.196	5403.81
766.592	5250.04
766.987	4989.08
767.382	4808.96
767.778	4732.18
768.173	4623.57
768.568	4562.39
768.963	4461.41
769.358	4477.35
769.753	4438.34
770.148	4367.21
770.542	4364.81
770.937	4335.4
771.332	4411.44
771.726	4429.67
772.121	4378.62
772.515	4427.03
772.91	4413.77
773.304	4468.09
773.699	4410.96
774.093	4456
774.487	4503.2
774.881	4539.62
775.275	4537.74
775.669	4501.57
776.063	4538.34
776.457	4566.14
776.851	4498.88
777.245	4496.74
777.638	4528.19
778.032	4627.72
778.425	4596.31
778.819	4632.02
779.212	4594.36
779.606	4563.16
779.999	4582.22
780.392	4569.73
780.786	4642.33
781.179	4662.13
781.572	4697.43
781.965	4708.67
782.358	4659.24
782.751	4704.76
783.143	4663.42
783.536	4726.77
783.929	4761.47
784.322	4855.12
784.714	4878.73
785.107	4871.96
785.499	4929.03
785.891	4905.77
786.284	4887.37
786.676	5003.92
787.068	4988.74
787.46	5029.79
787.852	5045.65
788.245	5114.39
788.636	5138.22
789.028	5193.05
789.42	5227.96
789.812	5235.85
790.204	5316.87
790.595	5396.67
790.987	5235.17
791.378	5253.4
791.77	5362.99
792.161	5477.66
792.553	5525.7
792.944	5437.01
793.335	5379.18
793.726	5434.65
794.117	5512.63
794.508	5625.45
794.899	5604.32
795.29	5722.61
795.681	5769.51
796.072	5651.06
796.463	5497.75
796.853	5504.86
797.244	5628.78
797.634	5659.46
798.025	5661.3
798.415	5667.4
798.806	5741.98
799.196	5812.74
799.586	5853.01
799.976	5825.13
800.366	6017.34
800.756	6213.79
801.146	6178.38
801.536	6207.13
801.926	6265.68
802.316	6287.96
802.706	6347.9
803.095	6247.82
803.485	6330.79
803.874	6366.14
804.264	6581.09
804.653	6556.93
805.043	6675.76
805.432	6765.12
805.821	6762.57
806.21	6781.69
806.599	6879.07
806.988	6917.08
807.377	7000.87
807.766	7106.09
808.155	7336.65
808.544	7114.1
808.933	7126.13
809.321	7108.68
809.71	7355.26
810.098	7487.69
810.487	7869.82
810.875	8265.6
811.264	8282.61
811.652	8525.8
812.04	8644.25
812.428	8775.75
812.816	9406.53
813.204	9748.09
813.592	10202.39
813.98	10477.66
814.368	10400.06
814.756	10787.55
815.144	10717.59
815.531	11099.84
815.919	11038.7
816.306	11290.75
816.694	11038.8
817.081	11079.6
817.469	11365.33
817.856	11363.61
818.243	11585.66
818.63	11908.24
819.017	11567.2
819.404	11618.45
819.791	11929.72
820.178	12427.31
820.565	12633.7
820.952	13401.68
821.339	12996.23
821.725	13145.96
822.112	12536.77
822.498	12500.6
822.885	12607.52
823.271	12523.79
823.657	12869.1
824.044	12875.67
824.43	12936.11
824.816	12912.35
825.202	12551.88
825.588	13388.75
825.974	13399.51
826.36	13817.97
826.746	13848.89
827.132	14141.73
827.517	14127.73
827.903	13478.61
828.289	13515.37
828.674	12872.44
829.06	12790.28
829.445	13120.27
829.83	13415.76
830.216	13818.89
830.601	14125.79
830.986	13793.17
831.371	13682.42
831.756	14146.84
832.141	13799.42
832.526	13794.8
832.911	14038.97
833.295	13949.17
833.68	14345.22
834.065	13834.15
834.449	13076.41
834.834	13021.09
835.218	13018.07
835.603	13307.09
835.987	13129.46
836.371	13820.16
836.755	13729.87
837.139	14067.76
837.524	14270.67
837.908	14118.47
838.291	14181.03
838.675	14243.06
839.059	14421.41
839.443	14415.33
839.827	14223.69
840.21	14626.61
840.594	14510.41
840.977	14696.28
841.361	14685.43
841.744	14991.39
842.127	14864.79
842.511	15066.61
842.894	15561.79
843.277	15873.89
843.66	16325.65
844.043	16398.68
844.426	15729.58
844.809	15467.41
845.191	15486.26
845.574	15102.86
845.957	14807.06
846.339	14718.38
846.722	14283.48
847.104	14336.33
847.487	14192.18
847.869	14198.09
848.252	14427.98
848.634	14707.1
849.016	14924.81
849.398	15030.08
849.78	15730.25
850.162	15733
850.544	16080.09
850.926	16603.71
851.307	16543.48
851.689	16776.25
852.071	17156.87
852.452	17419.19
852.834	17393.62
853.215	17728.06
853.597	17855.14
853.978	18095.37
854.359	18475.41
854.741	17645.03
855.122	17560.58
855.503	17311.01
855.884	17420.05
856.265	17371
856.646	17471.2
857.026	17149.74
857.407	17091.55
857.788	17223.87
858.169	17463.73
858.549	16753.2
858.93	17270.08
859.31	17311.02
859.69	17486.56
860.071	17141.25
860.451	16958.96
860.831	16343.6
861.211	17299.86
861.591	17754.84
861.971	17731.93
862.351	17901.83
862.731	18220.71
863.111	18443.4
863.491	18714.79
863.87	19435.27
864.25	19723.52
864.629	19386.8
865.009	19814.01
865.388	20520.2
865.768	21992.31
866.147	21903.85
866.526	20684.28
866.905	20931.38
867.284	22095.98
867.663	20991.45
868.042	20120.78
868.421	20069.93
868.8	20407.73
869.179	20598.11
869.558	19395.29
869.936	17876.83
870.315	18189.54
870.693	18634.46
871.072	20092.03
871.45	19144.36
871.828	19381.51
872.207	20363.17
872.585	20051.01
872.963	20589.75
873.341	19887.04
873.719	19651.49
874.097	19411.14
874.475	19793.56
874.853	20236.56
875.23	19390.2
875.608	20193.1
875.986	21836.82
876.363	20896.19
876.741	21541.34
877.118	21012.12
877.495	22043.27
877.873	22414.49
878.25	23591.98
878.627	22622.29
879.004	22936.5
879.381	22833.22
879.758	22232.6
880.135	20694.12
880.512	21879.04
880.889	21298.31
881.265	21066.85
881.642	20892.62
882.019	21243.03
882.395	20806.15
882.772	21627.71
883.148	20692.01
883.524	20623.01
883.901	20517.25
884.277	20835.83
884.653	20707.25
885.029	21302.59
885.405	23605.98
885.781	23427.04
886.157	22463.67
886.532	22734.16
886.908	22723.78
887.284	25261.04
887.659	26074.33
888.035	26878.08
888.411	27565.34
888.786	27914.24
889.161	28883.05
889.537	28350.63
889.912	29256.41
890.287	29236.75
890.662	29999.51
891.037	29463.2
891.412	27485.03
891.787	27214.36
892.162	26262.53
892.536	26885.51
892.911	25887.2
893.286	25336.29
893.66	24308.57
894.035	24923.91
894.409	27143.53
894.784	26063.89
895.158	26489.95
895.532	28057.3
895.906	28814.75
896.281	29492.25
896.655	29003.86
897.029	33149.28
897.402	34519.59
897.776	38435.93
898.15	38329.07
898.524	37898.49
898.898	38377.34
899.271	42977.51
899.645	37203.96
900.018	35752.28
900.392	37079.28
900.765	37386
901.138	34608.85
901.511	34083.95
901.884	31275.74
902.258	28829.6
902.631	29789.73
903.003	34280.68
903.376	30928.45
903.749	34703.23
904.122	37135.23
904.495	40894.42
904.867	41396.76
905.24	35909.87
905.612	33424.51
905.985	34203.56
906.357	35758.27
906.729	34126.68
907.102	29165.95
907.474	28041.48
907.846	28204.82
908.218	27822.23
908.59	24582.23
908.962	23773.25
909.334	25596.56
909.705	26898.07
910.077	26088.98
910.449	27149.29
910.82	27905.73
911.192	30685.39
911.563	31888.59
911.935	34145.64
912.306	34197.93
912.677	35308.45
913.048	34972.04
913.419	37949.79
913.79	38136.64
914.161	40918.81
914.532	39115.42
914.903	35921.23
915.274	34099.59
915.645	33602.73
916.015	29559.56
916.386	28176.24
916.756	29986.54
917.127	30928.09
917.497	27632
917.868	30093.92
918.238	28586.95
918.608	29409.93
918.978	30044.62
919.348	31839.32
919.718	32889.91
920.088	31684.44
920.458	32936.77
920.828	34666.38
921.198	32854.36
921.567	35110.08
921.937	27171.59
922.306	27420.98
922.676	29578.1
923.045	24675.17
923.415	23438.6
923.784	21342.92
924.153	21957.36
924.522	21934.15
924.891	20610.7
925.26	22070.74
925.629	21538.05
925.998	24763.57
926.367	24195.21
926.736	23032.34
927.104	27442.31
927.473	29503.77
927.842	35653.95
928.21	35307.38
928.578	37092.63
928.947	35080.92
929.315	35292.86
929.683	41386.53
930.051	41739.08
930.42	48455.29
930.788	41420.66
931.156	41071.89
931.523	38496.26
931.891	35552.79
932.259	34134.12
932.627	39557.91
932.994	56020.07
933.362	46293.64
933.729	40227.71
934.097	38511.66
934.464	32593.54
934.831	37586.81
935.199	37067.49
935.566	35951.5
935.933	36402.82
936.3	44099.59
936.667	34345.57
937.034	30965.8
937.401	30662.72
937.767	26456.57
938.134	23532.83
938.501	33179.88
938.867	35409.98
939.234	59866.5
939.6	51045.81
939.967	56318.02
940.333	37725.72
940.699	32148.07
941.065	25800.42
941.431	33808.64
941.798	32626.76
942.163	42890.52
942.529	26790.18
942.895	24661.19
943.261	15954.06
943.627	20959.75
943.992	18352.79
944.358	18361.55
944.723	18423.56
945.089	17946.26
945.454	16571.1
945.82	17684.69
946.185	16973.25
946.55	19672.4
946.915	17649.77
947.28	20734.36
947.645	18264.68
948.01	16861.92
948.375	17564.05
948.74	21023.7
949.104	24539.99
949.469	35478.05
949.834	62641.18
950.198	59397.84
950.562	35605.64
950.927	29643.73
951.291	35640.73
951.655	30323.84
952.02	28499.6
952.384	21601.27
952.748	18841.77
953.112	18374.67
953.476	15979.03
953.839	14782.01
954.203	14655.15
954.567	18335.74
954.931	28849.98
955.294	24699.82
955.658	24817.98
956.021	42169.82
956.385	71360.8
956.748	105169.26
957.111	163015
957.474	182866.46
957.837	206114.22
958.2	155815.62
958.563	56029.63
958.926	37958.76
959.289	57506.81
959.652	64321.45
960.015	48252.73
960.377	69268.34
960.74	79171.14
961.102	136758.53
961.465	146806.59
961.827	78648.27
962.189	150833.66
962.552	104617.82
962.914	83706.7
963.276	54336.04
963.638	44868.59
964	44458.1
964.362	30055.79
964.724	29038.09
965.085	20699.2
965.447	16988.79
965.809	19329.89
966.17	19376.88
966.532	20967.89
966.893	19254.84
967.255	17525.59
967.616	20711.53
967.977	16582.96
968.338	18121.77
968.699	14874.74
969.061	14864.4
969.421	14963.08
969.782	16784.45
970.143	14151.92
970.504	14667
970.865	16681.26
971.225	17048.3
971.586	16655.22
971.946	23729.46
972.307	20583.65
972.667	26873.75
973.027	27682.09
973.388	33534.95
973.748	22827.44
974.108	24895.12
974.468	33610.69
974.828	25882.84
975.188	19933.64
975.548	18316.44
975.907	15354.02
976.267	17219.02
976.627	14509.21
976.986	15055.99
977.346	14357.91
977.705	13809.72
978.064	12582.49
978.424	10484
978.783	10852.96
979.142	12372.13
979.501	11861.09
979.86	12560.83
980.219	12110.53
980.578	15597.51
980.937	17441.82
981.296	15576.8
981.654	16038.35
982.013	24924.79
982.371	32289.47
982.73	30150.47
983.088	34168.72
983.447	36474.18
983.805	52104.52
984.163	108804.04
984.521	120740.38
984.879	177133.39
985.237	-287619.11
985.595	277189.16
985.953	68902.86
986.311	39809.96
986.669	23099.96
987.026	19936.71
987.384	26775.38
987.741	27669.3
988.099	19782.25
988.456	15762.44
988.814	14765.84
989.171	12829.8
989.528	12651.48
989.885	13359.43
990.242	10605.51
990.599	13222.15
990.956	10816.62
991.313	7562.23
991.67	6214.65
992.027	6587.23
992.383	5854.47
992.74	5131.7
993.096	5392.13
993.453	5597.18
993.809	5802.86
994.165	7717.34
994.522	7071.32
994.878	7779.55
995.234	9754.57
995.59	9617.03
995.946	9101.31
996.302	10383.95
996.658	12015.56
997.013	13246.14
997.369	15676.6
997.725	20037.6
998.08	12995.13
998.436	20026.21
998.791	27627.51
999.147	27654.06
999.502	30196.77
999.857	21968.61
1000.212	35834.49
1000.567	50913.28
1000.922	29278.72
1001.277	18685.46
1001.632	13873.95
1001.987	17837.76
1002.342	12805.37
1002.696	10250.1
1003.051	8151.38
1003.406	9864.26
1003.76	9810.02
1004.114	9660.52
1004.469	8128.81
1004.823	6730.83
1005.177	7235.53
1005.531	5743.48
1005.885	5096
1006.239	5746.98
1006.593	7217.51
1006.947	9683.74
1007.301	7261.11
1007.655	7929.53
1008.008	5813.97
1008.362	6538.07
1008.715	9350.38
1009.069	8471.07
1009.422	12710.86
1009.776	25419.82
1010.129	16865.07
1010.482	14117.19
1010.835	11932.99
1011.188	24849.74
1011.541	23334.24
1011.894	-142444.35
1012.247	419561.06
1012.6	28579.37
1012.952	18065.41
1013.305	9330.01
1013.657	6765.05
1014.01	6390.14
1014.362	5255.88
1014.715	4682.37
1015.067	4065.68
1015.419	3976.66
1015.771	3545.36
1016.123	3166.31
1016.475	3245.35
1016.827	3475.12
1017.179	3729.99
1017.531	3745.08
1017.883	3836.88
1018.234	3723.81
1018.586	4701.46
1018.938	5018.63
1019.289	6938.05
1019.64	7963.3
1019.992	7366.5
1020.343	6721.73
1020.694	5305.4
1021.045	4696.86
1021.396	5383.58
1021.747	5772.98
1022.098	6884.44
1022.449	4981.78
1022.8	4636.11
1023.151	3226.92
1023.501	2840.88
1023.852	3093.4
1024.202	3233.71
1024.553	3549.72
1024.903	3475.31
1025.253	2969.56
1025.604	2690.71
1025.954	3351.06
1026.304	4090.81
1026.654	4735.57
1027.004	6937.32
1027.354	11222.22
1027.703	10542.97
1028.053	13817.13
1028.403	20211.35
1028.753	29200.27
1029.102	39597.61
1029.452	201532.65
1029.801	8660.35
1030.15	5583.92
1030.499	4725.55
897.758	2155.84
901.051	2093.95
904.343	2126.5
907.636	2133.14
910.928	2194.52
914.22	2114.24
917.511	2120.83
920.803	2169.51
924.094	2165.85
927.384	2169.46
930.675	2136.27
933.965	2099.84
937.255	2125.26
940.544	2094.63
943.834	2092.43
947.123	2032.8
950.411	2121.07
953.7	2100.64
956.988	2083.75
960.276	2021.79
963.563	2070.21
966.851	2076.57
970.138	2118.96
973.424	2123.04
976.711	2076.14
979.997	2125.72
983.283	2167.24
986.568	2099.5
989.853	2091.11
993.138	2119.84
996.423	2204.44
999.708	2161.2
1002.992	2192.14
1006.275	2114.44
1009.559	2120.28
1012.842	2217.04
1016.125	2168.32
1019.408	2150.22
1022.69	2203.05
1025.972	2238.4
1029.254	2211.66
1032.536	2174.33
1035.817	2184.36
1039.098	2155.59
1042.379	2195.5
1045.659	2221.52
1048.939	2174.32
1052.219	2181.79
1055.498	2175.36
1058.778	2173.11
1062.057	2147.63
1065.335	2171.28
1068.614	2180.68
1071.892	2177.25
1075.17	2229.5
1078.447	2234.44
1081.724	2228.93
1085.001	2250.53
1088.278	2229.94
1091.554	2235.48
1094.83	2230.29
1098.106	2265.2
1101.382	2293.45
1104.657	2297.01
1107.932	2294.84
1111.206	2271.17
1114.481	2226.46
1117.755	2226.91
1121.029	2220.61
1124.302	2278.23
1127.575	2245.14
1130.848	2242.68
1134.121	2213.98
1137.393	2178.25
1140.665	2232.73
1143.937	2212.47
1147.208	2162.84
1150.48	2218.77
1153.75	2204.43
1157.021	2209.17
1160.291	2185.33
1163.561	2237.73
1166.831	2205.89
1170.101	2232.18
1173.37	2192.57
1176.639	2149.69
1179.907	2194.99
1183.176	2217
1186.444	2218.32
1189.711	2244.08
1192.979	2264.95
1196.246	2224.08
1199.513	2234.69
1202.78	2239.53
1206.046	2247.43
1209.312	2274.36
1212.578	2292.38
1215.843	2259.07
1219.108	2226.61
1222.373	2249.47
1225.638	2223.19
1228.902	2215.28
1232.166	2171.85
1235.43	2162.85
1238.693	2188.51
1241.956	2178.63
1245.219	2226.87
1248.482	2211.68
1251.744	2209.43
1255.006	2327.76
1258.268	2277.3
1261.529	2233.82
1264.79	2236.74
1268.051	2331.11
1271.312	2339.32
1274.572	2309.36
1277.832	2300.35
1281.092	2279.92
1284.351	2269.38
1287.61	2253.8
1290.869	2193.82
1294.128	2189.64
1297.386	2238.17
1300.644	2230.12
1303.902	2240.06
1307.159	2110.86
1310.416	2160.97
1313.673	2187.41
1316.93	2185.69
1320.186	2216.42
1323.442	2250.15
1326.697	2250.1
1329.953	2225.34
1333.208	2259.07
1336.463	2231.96
1339.717	2196.36
1342.972	2301.61
1346.226	2275.18
1349.479	2226.38
1352.733	2206.79
1355.986	2213.78
1359.238	2193.48
1362.491	2199.59
1365.743	2197.13
1368.995	2190.27
1372.247	2204.1
1375.498	2223.14
1378.749	2264.04
1382	2215.52
1385.251	2249.65
1388.501	2203.01
1391.751	2202.31
1395	2170.26
1398.25	2195.21
1401.499	2219.43
1404.748	2169.56
1407.996	2148.1
1411.244	2137.01
1414.492	2122.96
1417.74	2106.13
1420.987	2111.92
1424.234	2169.84
1427.481	2134.72
1430.728	2190.87
1433.974	2165.4
1437.22	2163.37
1440.465	2159.86
1443.711	2157.41
1446.956	2180.8
1450.201	2153.1
1453.445	2194.74
1456.689	2183.4
1459.933	2193.63
1463.177	2232.31
1466.42	2206.3
1469.663	2190.33
1472.906	2205.58
1476.148	2252.14
1479.391	2226.05
1482.633	2201.98
1485.874	2224.7
1489.115	2231.06
1492.356	2215.38
1495.597	2196.76
1498.838	2186.88
1502.078	2172.33
1505.318	2143.7
1508.557	2177.04
1511.797	2174.1
1515.036	2217.83
1518.274	2190.17
1521.513	2142.99
1524.751	2155.92
1527.989	2178.11
1531.227	2195.88
1534.464	2209.74
1537.701	2204.78
1540.938	2217.2
1544.174	2165.4
1547.41	2155.32
1550.646	2191.56
1553.882	2241.11
1557.117	2296.64
1560.352	2302.64
1563.587	2266.15
1566.821	2234.09
1570.055	2250.74
1573.289	2230.04
1576.523	2287.36
1579.756	2303.59
1582.989	2325.11
1586.222	2284.51
1589.454	2313.44
1592.686	2299.93
1595.918	2328.11
1599.15	2325.68
1602.381	2369.83
1605.612	2350.54
1608.843	2443.47
1612.073	2364.97
1615.303	2352.14
1618.533	2349.99
1621.762	2348.44
1624.992	2321.95
1628.221	2324.21
1631.449	2311.98
1634.678	2338.14
1637.906	2305.31
1641.134	2329.86
1644.361	2295.14
1647.588	2288.23
1650.815	2308.39
1654.042	2274.93
1657.269	2301.28
1660.495	2280.83
1663.72	2267.91
1666.946	2238.97
1670.171	2213.66
1673.396	2186.05
1676.621	2171.5
1679.845	2167.39
1683.069	2174.17
1686.293	2204.26
1689.517	2193
1692.74	2147.65
1695.963	2168.76
1699.185	2207.82
1702.408	2180.76
1705.63	2208.62
1708.852	2230.29
1712.073	2200.94
1715.294	2213.45
1718.515	2254.78
1721.736	2213.63
1724.956	2196.55
1728.176	2218.01
1731.396	2239.68
1734.616	2224.95
1737.835	2260.3
1741.054	2234.38
1744.272	2224.21
1747.491	2262.61
1750.709	2284.45
1753.927	2234.23
1757.144	2260.15
1760.361	2314.84
1763.578	2290.72
1766.795	2240.26
1770.011	2229.43
1773.227	2254.98
1776.443	2293.53
1779.658	2336.11
1782.874	2277.24
1786.089	2270.81
1789.303	2272.94
1792.518	2269.85
1795.732	2255.53
1798.945	2271.09
1802.159	2312.23
1805.372	2257.02
1808.585	2250.05
1811.797	2251.1
1815.01	2272.38
1818.222	2295.81
1821.434	2257.26
1824.645	2298.47
1827.856	2307.47
1831.067	2337.36
1834.278	2277.92
1837.488	2261.47
1840.698	2381
1843.908	2324.52
1847.117	2293.22
1850.326	2219.99
1853.535	2280.28
1856.744	2313.87
1859.952	2239.63
1863.16	2239.77
1866.368	2253.28
1869.575	2362.99
1872.782	2248.95
1875.989	2181.24
1879.196	2231.46
1882.402	2222.73
1885.608	2254.96
1888.814	2197.16
1892.019	2107.77
1895.224	2155.82
1898.429	2124.25
1901.634	2110.12
1904.838	2085.32
1908.042	2140.01
1911.246	2156.53
1914.449	2118.46
1917.652	2101.88
1920.855	2082.43
1924.058	2105.19
1927.26	2149.27
1930.462	2171.75
1933.664	2210.39
1936.865	2153.24
1940.066	2167.46
1943.267	2115.08
1946.467	2123.8
1949.668	2142.46
1952.868	2209.12
1956.067	2201.11
1959.267	2143.54
1962.466	2166.06
1965.665	2149.28
1968.863	2143.6
1972.061	2147.97
1975.259	2139.09
1978.457	2214.64
1981.654	2175.23
1984.852	2176.34
1988.048	2131.29
1991.245	2120.42
1994.441	2208.17
1997.637	2167.48
2000.833	2149.75
2004.028	2183.74
2007.223	2243.77
2010.418	2234.92
2013.613	2185.28
2016.807	2180.12
2020.001	2174
2023.194	2195.67
2026.388	2181.74
2029.581	2124.61
2032.774	2187.5
2035.966	2198.04
2039.158	2144.93
2042.35	2162.5
2045.542	2092.17
2048.733	2171.63
2051.924	2163.57
2055.115	2181.43
2058.306	2146.99
2061.496	2201.43
2064.686	2248.41
2067.875	2154.42
2071.065	2158.75
2074.254	2177.52
2077.442	2134.06
2080.631	2214.46
2083.819	2147.45
2087.007	2141.33
2090.195	2125.76
2093.382	2143.5
2096.569	2125.06
2099.756	2091.57
2102.942	2139.46
2106.128	2150.89
2109.314	2139.56
2112.5	2125.85
2115.685	2094.31
2118.87	2101.64
2122.055	2159.95
2125.239	2140.74
2128.424	2128
2131.608	2187.01
2134.791	2169.61
2137.974	2205.71
2141.157	2195.74
2144.34	2167.96
2147.523	2158.64
2150.705	2183.82
2153.887	2152.14
2157.068	2125.37
2160.25	2105.82
2163.431	2128.81
2166.611	2099.16
2169.792	2120.72
2172.972	2036.51
2176.152	2083.21
2179.331	2111.58
2182.511	2114.33
2185.69	2135.04
2188.868	2140.63
2192.047	2174.87
2195.225	2192.56
2198.403	2139.06
2201.58	2127.48
2204.758	2112.55
2207.935	2185.8
2211.111	2105.96
2214.288	2092.31
2217.464	2126.99
2220.64	2083.38
2223.815	2131.94
2226.991	2066.45
2230.166	2081.02
2233.34	2124.41
2236.515	2136.49
2239.689	2202.15
2242.863	2150.47
2246.036	2202.34
2249.209	2186.51
2252.382	2204.38
2255.555	2214.14
2258.727	2164.95
2261.9	2192.97
2265.071	2185.18
2268.243	2182.05
2271.414	2130.94
2274.585	2114.27
2277.756	2176.35
2280.926	2134.08
2284.096	2165.22
2287.266	2094.12
2290.436	2141.17
2293.605	2160.11
2296.774	2197.34
2299.942	2200.3
2303.111	2215.75
2306.279	2268.73
2309.447	2253.27
2312.614	2224.97
2315.781	2249.88
2318.948	2225.37
2322.115	2263.5
2325.281	2164.33
2328.447	2171.08
2331.613	2141.31
2334.779	2135.82
2337.944	2131.54
2341.109	2132.76
2344.274	2122.09
2347.438	2089.23
2350.602	2107.84
2353.766	2116.89
2356.929	2106.38
2360.092	2142.46
2363.255	2115.07
2366.418	2082.38
2369.58	2146.17
2372.742	2027.4
2375.904	2018.76
2379.066	2003.81
2382.227	2030.31
2385.388	1995.37
2388.548	1945.93
2391.709	1986.02
2394.869	1976.23
2398.029	2030.15
2401.188	2023.7
2404.347	1990.98
2407.506	2064.31
2410.665	2104.43
2413.823	2091.48
2416.981	2070.05
2420.139	2084.3
2423.296	2124.86
2426.453	2099.63
2429.61	2119.91
2432.767	2091.27
2435.923	2133.52
2439.079	2077.64
2442.235	2111.57
2445.391	2052.58
2448.546	2094.11
2451.701	2125.66
2454.855	2123.94
2458.009	2152.51
2461.163	2138.73
2464.317	2112.9
2467.471	2139.15
2470.624	2165.01
2473.777	2157.21
2476.929	2173.14
2480.082	2197.65
2483.234	2171.72
2486.385	2114.31
2489.537	2107.22
2492.688	2095.46
2495.839	2114.7
2498.989	2128.83
2502.14	2112.45
2505.29	2108.42
2508.439	2129.44
2511.589	2072.26
2514.738	2070.25
2517.887	2092.87
2521.035	2168.15
2524.183	2128.72
2527.331	2117.75
2530.479	2111.19
2533.627	2111.84
