Data from C_1_DEC_VA_2N_Splice17_11-57-47-396.txt Node
Date: Sat Mar 14 11:57:47 EDT 2020
User: sa697716
Spectrometer: FLMS03696
Trigger mode: 0
Integration Time (sec): 3.180400E-1
Scans to average: 20
Electric dark correction enabled: true
Nonlinearity correction enabled: true
Boxcar width: 5
XAxis mode: Wavelengths
Number of Pixels in Spectrum: 2048
>>>>>Begin Spectral Data<<<<<
187.83	-312436.96
188.298	2316.55
188.766	1202.54
189.233	1089.18
189.701	1560.02
190.169	2106.09
190.636	853.99
191.104	673.52
191.571	118.73
192.039	-17.76
192.506	-76.25
192.974	475.16
193.441	-599.94
193.908	-181.75
194.375	-27.06
194.842	19.99
195.31	91.56
195.777	206.38
196.244	393.7
196.711	459.64
197.177	573.11
197.644	813.32
198.111	1412.34
198.578	1992.07
199.045	1590.74
199.511	2600.74
199.978	3077.59
200.445	2592.74
200.911	2862.75
201.378	3222.48
201.844	2939.13
202.31	5009.02
202.777	5219.09
203.243	2921.44
203.709	2779.83
204.176	3317.43
204.642	2743.92
205.108	2547.78
205.574	2086.4
206.04	1895.05
206.506	1769.57
206.972	1678.93
207.438	1627.92
207.903	1854.29
208.369	1625.1
208.835	1612.54
209.301	1684.4
209.766	1716.89
210.232	1690.18
210.697	2105.23
211.163	2607.96
211.628	3955.7
212.094	3304.12
212.559	4049.03
213.024	2518.56
213.49	3072.79
213.955	3010.13
214.42	2975.58
214.885	2787.27
215.35	2696.48
215.815	2581.35
216.28	2738.12
216.745	2216.98
217.21	2392.62
217.675	2205.13
218.14	2464.74
218.604	2742.22
219.069	3119.27
219.534	3248.91
219.998	3757.3
220.463	4551.99
220.927	5609.24
221.392	5264.08
221.856	5350.75
222.32	6752.98
222.785	8358.84
223.249	10523.25
223.713	11732.58
224.177	11742.09
224.642	15086.55
225.106	18613.63
225.57	20375.85
226.034	15160.13
226.497	23122.5
226.961	20891.52
227.425	24330.25
227.889	26972.13
228.353	26997.32
228.816	55820.13
229.28	53416.51
229.744	45070.66
230.207	27409.69
230.671	26929.33
231.134	44427.23
231.597	51252.47
232.061	51218.73
232.524	49926.17
232.987	34388.59
233.45	30937.98
233.914	27754.23
234.377	28466.01
234.84	26071.27
235.303	30732.29
235.766	34325.95
236.229	35521.15
236.691	22395.1
237.154	25174.51
237.617	18970.06
238.08	19446.16
238.542	22804.99
239.005	16306.11
239.468	16187.9
239.93	15249.57
240.393	13863.96
240.855	12178.69
241.317	12482
241.78	15173.57
242.242	15697.49
242.704	16953.15
243.166	14761.97
243.629	13403.88
244.091	15450.33
244.553	16924.45
245.015	18198.63
245.477	23526.68
245.939	34469.78
246.4	36609.96
246.862	35590.51
247.324	33562.85
247.786	37542.02
248.247	49165.74
248.709	50779.02
249.17	38000.65
249.632	35848.07
250.093	41616.05
250.555	36002.52
251.016	21974.96
251.477	20862.08
251.939	22537.62
252.4	23653
252.861	28160.29
253.322	26236.7
253.783	31237.73
254.244	40527.46
254.705	31987.36
255.166	28468.95
255.627	28022.83
256.088	39561.07
256.549	42035.39
257.009	36201.2
257.47	43971.2
257.931	35795.31
258.391	26822.58
258.852	27678.97
259.312	29054.17
259.773	35863.55
260.233	30311.49
260.694	25593.56
261.154	29041.47
261.614	23310.13
262.074	20875.06
262.534	21690.06
262.994	20465.05
263.455	27280.74
263.915	22963.37
264.374	21628.15
264.834	23635.61
265.294	26181.59
265.754	27130.85
266.214	25681.96
266.673	24091.76
267.133	30414.19
267.593	30178.6
268.052	36937.33
268.512	32137.3
268.971	38784.29
269.431	42539.17
269.89	38097.42
270.349	57132.11
270.809	63669.09
271.268	57241.51
271.727	128379.98
272.186	83068.66
272.645	62260.35
273.104	44894.31
273.563	64962.05
274.022	51102.28
274.481	43464.79
274.94	33461.27
275.399	24871
275.857	28963.47
276.316	39192.38
276.775	34860.34
277.233	34366.66
277.692	32185.51
278.15	36401.43
278.609	37471.18
279.067	34692.25
279.525	32217.64
279.984	41654.15
280.442	50056.21
280.9	49333.47
281.358	32446.76
281.816	30247.24
282.274	29586.54
282.732	30574.32
283.19	30724.05
283.648	26517.95
284.106	28204.08
284.564	28718.94
285.021	26623.05
285.479	19858
285.937	18074.83
286.394	15863.63
286.852	16323.44
287.309	17174.46
287.767	16598.99
288.224	15805.35
288.682	17356.49
289.139	19077.23
289.596	17449.34
290.053	18163.4
290.511	22890.97
290.968	27755.79
291.425	37651.78
291.882	31342.81
292.339	27282.32
292.796	27079.68
293.252	25524.69
293.709	20276.45
294.166	18169.03
294.623	20083.08
295.079	19263.71
295.536	19360.23
295.992	17578.92
296.449	17385.86
296.905	18056.8
297.362	17307.93
297.818	18189.35
298.274	18881.22
298.731	19237.7
299.187	19041.98
299.643	20458.91
300.099	24719.34
300.555	27147.61
301.011	22694.28
301.467	21869.52
301.923	25606.01
302.379	25006.41
302.835	24581.7
303.291	24611.41
303.746	28016.1
304.202	35405.13
304.658	35521.6
305.113	23921.79
305.569	23453.43
306.024	25040
306.479	23885.12
306.935	20159.65
307.39	22041.26
307.845	20375.19
308.301	20488
308.756	19983.86
309.211	19267.06
309.666	19746.43
310.121	24506.93
310.576	24864.34
311.031	24660.26
311.486	28226.5
311.94	28239.1
312.395	37734.84
312.85	70890.39
313.305	348635.64
313.759	1803127.94
314.214	130655.22
314.668	103646.09
315.123	87160.76
315.577	31281.24
316.032	27863.85
316.486	34958.87
316.94	27547.46
317.394	19210.94
317.849	14938.91
318.303	14135.85
318.757	13343.04
319.211	14759.53
319.665	12917.85
320.119	13069.36
320.572	18702.46
321.026	17442.85
321.48	14501.98
321.934	15824.44
322.387	15846.7
322.841	17113.26
323.295	15389.71
323.748	17726.08
324.202	17969.77
324.655	21604.84
325.108	30175.1
325.562	21354.02
326.015	25388.08
326.468	19220.85
326.921	21501.51
327.374	20057.29
327.827	20883.44
328.28	23648.74
328.733	15852.49
329.186	13942.21
329.639	13285.48
330.092	11197.31
330.545	10660.9
330.997	10751.24
331.45	11725.35
331.903	13741.47
332.355	23662.13
332.808	23005.57
333.26	18991.47
333.713	20636.3
334.165	20796.33
334.617	27786.8
335.069	22498.29
335.522	40723.05
335.974	45123.68
336.426	41291.38
336.878	28584.71
337.33	14500.44
337.782	14149.6
338.234	17684.77
338.686	21129.59
339.137	25049.92
339.589	23514.23
340.041	18432.58
340.493	15842.99
340.944	16208.87
341.396	17458.48
341.847	14685.92
342.299	17299.37
342.75	21137.53
343.201	18526.65
343.653	21325.97
344.104	26181.01
344.555	20634.56
345.006	32074.26
345.457	24554.42
345.908	19511.55
346.359	18391.02
346.81	14984.35
347.261	15805.84
347.712	15539.7
348.163	16603.99
348.613	16766.58
349.064	15663.44
349.515	13724.03
349.965	14097.71
350.416	16967.92
350.866	18621.91
351.317	21015.54
351.767	34852.28
352.217	44037.25
352.668	36594.72
353.118	33630.96
353.568	32488.45
354.018	25723.97
354.468	27117.04
354.918	19424.64
355.368	16995.08
355.818	24026.98
356.268	69097.85
356.718	288803.98
357.168	71865.85
357.617	36051.68
358.067	40042.32
358.517	37563.19
358.966	44049.83
359.416	49370.79
359.865	53420.35
360.315	63593.73
360.764	29668.93
361.213	16608.53
361.663	15710.71
362.112	19377.75
362.561	31255.91
363.01	23587.17
363.459	19863.79
363.908	21476.96
364.357	18234.97
364.806	30749.48
365.255	21170.14
365.703	19414.57
366.152	19467.8
366.601	15818.05
367.05	12860.16
367.498	11691.41
367.947	12220.16
368.395	12678.39
368.844	11223.52
369.292	13534.67
369.74	9361.36
370.189	14315.11
370.637	16779.19
371.085	14471.58
371.533	17609.97
371.981	16972.53
372.429	16197.78
372.877	16852.3
373.325	14109.17
373.773	14382.78
374.221	12811.53
374.669	15903.52
375.116	13754.31
375.564	13859.13
376.012	15502.41
376.459	12777.58
376.907	15261.05
377.354	18473.41
377.801	17241.56
378.249	19819.45
378.696	25289.1
379.143	30653.66
379.591	32702.47
380.038	55395.49
380.485	40032.75
380.932	43335.71
381.379	39638.35
381.826	29167.16
382.273	20752.65
382.72	18163.96
383.166	17720.75
383.613	11522.6
384.06	10388.62
384.506	12016.74
384.953	8826.36
385.4	8898.06
385.846	7775.75
386.292	7587.84
386.739	7433.96
387.185	7354.89
387.631	7366.21
388.078	7159.32
388.524	7653.11
388.97	7072.76
389.416	5901.7
389.862	6282.14
390.308	5963.03
390.754	6079.63
391.2	6604.89
391.645	6779.44
392.091	6492.36
392.537	6278.09
392.983	6292.85
393.428	6206.24
393.874	6663.76
394.319	6705.72
394.765	6367.65
395.21	6557.79
395.655	6147.6
396.101	5767.71
396.546	5198.29
396.991	5250.1
397.436	4880.04
397.881	4727.64
398.326	4485.15
398.771	4249.32
399.216	3716.63
399.661	3348.52
400.106	3336.27
400.551	3423.14
400.995	3075.77
401.44	3050.53
401.885	2864.47
402.329	2894.75
402.774	2771.56
403.218	2682.21
403.663	2582.58
404.107	2652.08
404.551	2672.44
404.995	2452.75
405.44	2359.67
405.884	2391.21
406.328	2311.27
406.772	2304.83
407.216	2100.43
407.66	2032.17
408.104	1927.73
408.547	1805.45
408.991	1746.91
409.435	1679.31
409.879	1652.52
410.322	1630.24
410.766	1575.4
411.209	1497.63
411.653	1436.49
412.096	1404.66
412.54	1403.45
412.983	1391.5
413.426	1394.32
413.869	1391.04
414.312	1364.79
414.756	1315.4
415.199	1253.37
415.642	1215.88
416.085	1218.25
416.527	1208.18
416.97	1226.77
417.413	1163.43
417.856	1151.08
418.298	1136.08
418.741	1126.37
419.184	1121.38
419.626	1165.43
420.069	1164.39
420.511	1167.41
420.953	1139.71
421.396	1129.93
421.838	1099.55
422.28	1122.71
422.722	1130.89
423.164	1145.99
423.606	1129.2
424.048	1130.16
424.49	1072.36
424.932	1064.32
425.374	1050.47
425.816	1069.34
426.258	1087.54
426.699	1097.79
427.141	1081.46
427.582	1093.54
428.024	1087.11
428.465	1078.14
428.907	1049.8
429.348	1036.04
429.789	1037.54
430.231	1017.61
430.672	1028.37
431.113	1003.38
431.554	990.23
431.995	963.58
432.436	928.83
432.877	907.1
433.318	891.29
433.759	884.39
434.2	886
434.64	875.68
435.081	874.45
435.522	828.88
435.962	798.66
436.403	781.38
436.843	794
437.284	778.17
437.724	758.1
438.164	757.86
438.604	742.53
439.045	715.18
439.485	685.77
439.925	671.31
440.365	653.56
440.805	645.64
441.245	637.55
441.685	614.02
442.125	607.95
442.564	612.42
443.004	600.61
443.444	597.77
443.883	598.33
444.323	593.35
444.762	593.21
445.202	601.02
445.641	611.79
446.081	608.72
446.52	612.72
446.959	607.88
447.398	592
447.837	586.43
448.276	576.8
448.716	582.32
449.154	589.44
449.593	578.82
450.032	578.81
450.471	568.22
450.91	567.66
451.349	567.05
451.787	564.21
452.226	572.51
452.664	571.2
453.103	572.27
453.541	569.88
453.98	567.74
454.418	569.76
454.856	560.04
455.295	558.69
455.733	563.12
456.171	565.78
456.609	566.91
457.047	567.1
457.485	575.45
457.923	576.12
458.361	568.54
458.798	570.49
459.236	569.46
459.674	573.45
460.111	577.74
460.549	572.11
460.987	568.36
461.424	567.74
461.862	565.57
462.299	558.74
462.736	559.16
463.173	561.91
463.611	556.92
464.048	556.71
464.485	561.45
464.922	555.04
465.359	551.69
465.796	549.07
466.233	543.59
466.67	539.61
467.106	536.92
467.543	531.77
467.98	524.85
468.416	510.34
468.853	504.76
469.29	490.4
469.726	485.05
470.162	472.86
470.599	464.27
471.035	460.14
471.471	448.74
471.907	445.7
472.344	442.97
472.78	444.1
473.216	449.43
473.652	444.63
474.088	443.26
474.523	441.98
474.959	446.63
475.395	442.62
475.831	441.6
476.266	442.79
476.702	441.37
477.138	435.47
477.573	433.84
478.008	432.43
478.444	434.07
478.879	438.06
479.314	440.06
479.75	439.19
480.185	440.47
480.62	442.49
481.055	444.99
481.49	448
481.925	454.26
482.36	461.81
482.795	474.09
483.229	487.2
483.664	497.08
484.099	498.83
484.534	505.9
484.968	510.73
485.403	512.19
485.837	511.97
486.271	511.03
486.706	512.22
487.14	506.78
487.574	498.99
488.009	494.81
488.443	490.19
488.877	495.8
489.311	498.06
489.745	505.1
490.179	510.58
490.613	521.09
491.046	526.27
491.48	530.52
491.914	532.28
492.348	536.69
492.781	540.22
493.215	542.71
493.648	544.01
494.082	549.16
494.515	550.78
494.948	558.69
495.382	562.39
495.815	567.79
496.248	574.22
496.681	585.58
497.114	597.2
497.547	606.71
497.98	619.01
498.413	626.4
498.846	636.45
499.279	645.33
499.711	650.91
500.144	655.77
500.577	667.17
501.009	678.96
501.442	689.7
501.874	693.35
502.306	699.39
502.739	709.45
503.171	725.12
503.603	730.72
504.036	742.42
504.468	750.24
504.9	764.14
505.332	773.09
505.764	780.99
506.196	791.39
506.627	808.38
507.059	824.44
507.491	836.39
507.923	838.9
508.354	856.75
508.786	869.59
509.217	890.51
509.649	907.95
510.08	930.06
510.512	948.79
510.943	966.59
511.374	982.53
511.805	1004.98
512.237	1026.89
512.668	1061.38
513.099	1092.16
513.53	1122.44
513.961	1146.25
514.391	1180.67
514.822	1217.43
515.253	1257.2
515.684	1287.03
516.114	1319.08
516.545	1344.54
516.975	1374.49
517.406	1396.85
517.836	1403.79
518.267	1415.59
518.697	1437.92
519.127	1446.77
519.558	1456.36
519.988	1462.8
520.418	1477.58
520.848	1498
521.278	1510.41
521.708	1529.15
522.138	1544.83
522.567	1579.18
522.997	1607.99
523.427	1627.1
523.857	1647.07
524.286	1661.17
524.716	1679.86
525.145	1701.83
525.575	1715.47
526.004	1731.41
526.433	1729.41
526.863	1731.68
527.292	1723.37
527.721	1729.67
528.15	1736.02
528.579	1739.19
529.008	1751.78
529.437	1777.12
529.866	1790.84
530.295	1810.26
530.724	1824.86
531.152	1854.4
531.581	1869.84
532.01	1889
532.438	1899.56
532.867	1915.79
533.295	1934.24
533.723	1941.28
534.152	1939.55
534.58	1940.56
535.008	1923.97
535.436	1926.62
535.865	1935.52
536.293	1951.73
536.721	1968.64
537.149	1997.11
537.576	2002.12
538.004	2017.26
538.432	2026.58
538.86	2025.44
539.287	2033.51
539.715	2049.43
540.143	2053.66
540.57	2051.34
540.998	2048.52
541.425	2024.71
541.852	2001.09
542.28	1999.01
542.707	1981.11
543.134	1966.3
543.561	1962.48
543.988	1955.63
544.415	1954.78
544.842	1949.08
545.269	1940.27
545.696	1941.29
546.123	1954.46
546.549	1943.57
546.976	1928.51
547.403	1928.04
547.829	1929.91
548.256	1930.52
548.682	1925.76
549.108	1916.56
549.535	1914.73
549.961	1915.82
550.387	1901.57
550.813	1896.08
551.24	1901.7
551.666	1903.95
552.092	1892.91
552.518	1884.8
552.943	1878.53
553.369	1884.8
553.795	1890.68
554.221	1890.57
554.646	1886.83
555.072	1897.47
555.498	1901.56
555.923	1910.96
556.349	1925.28
556.774	1932.88
557.199	1933.25
557.625	1939.25
558.05	1932.02
558.475	1942.48
558.9	1941.19
559.325	1932.07
559.75	1924.63
560.175	1916.14
560.6	1908.95
561.025	1905.61
561.449	1906.22
561.874	1911.7
562.299	1913.98
562.723	1920.75
563.148	1909.22
563.572	1911.69
563.997	1920.97
564.421	1925.24
564.846	1924.93
565.27	1927.3
565.694	1923.1
566.118	1935.18
566.542	1941.88
566.966	1933.88
567.39	1927.67
567.814	1914.86
568.238	1913.26
568.662	1918.05
569.086	1919.51
569.509	1926.23
569.933	1908.78
570.357	1900.3
570.78	1877.24
571.204	1862.43
571.627	1849.86
572.05	1847.8
572.474	1846.48
572.897	1833.41
573.32	1823.11
573.743	1811.3
574.166	1791.07
574.589	1789.14
575.012	1779.64
575.435	1775.74
575.858	1763.99
576.281	1752.47
576.704	1734.16
577.126	1720.9
577.549	1706.86
577.972	1695.52
578.394	1684.51
578.817	1675.06
579.239	1654.45
579.661	1639.41
580.084	1622.77
580.506	1608.11
580.928	1602.55
581.35	1590.17
581.772	1584.15
582.194	1570.28
582.616	1556.28
583.038	1539.62
583.46	1528.86
583.882	1525.06
584.303	1528.1
584.725	1522.19
585.147	1522.57
585.568	1532.4
585.99	1543.23
586.411	1548.45
586.833	1562.08
587.254	1562.51
587.675	1576.27
588.096	1587.76
588.518	1581.35
588.939	1563.49
589.36	1560.83
589.781	1550.25
590.202	1519.23
590.623	1509.5
591.043	1505.21
591.464	1490.54
591.885	1486.47
592.305	1479.92
592.726	1464.78
593.147	1465.05
593.567	1459.67
593.987	1450.91
594.408	1444.51
594.828	1442.67
595.248	1436.21
595.669	1417.19
596.089	1410.94
596.509	1404.72
596.929	1391.78
597.349	1392.14
597.769	1382.54
598.189	1375.88
598.608	1377.12
599.028	1379.32
599.448	1379.4
599.867	1367.61
600.287	1363.94
600.706	1358.42
601.126	1347.1
601.545	1344.6
601.965	1342.68
602.384	1336.76
602.803	1338.74
603.222	1333.89
603.641	1326.16
604.061	1321.22
604.48	1315.33
604.898	1322.29
605.317	1326.75
605.736	1328.32
606.155	1324.1
606.574	1314.53
606.992	1318.03
607.411	1312.56
607.829	1303.49
608.248	1299.58
608.666	1295.52
609.085	1293.42
609.503	1283.47
609.921	1275.64
610.339	1275.93
610.758	1273.85
611.176	1267.36
611.594	1257.01
612.012	1251.69
612.43	1253.58
612.847	1258.21
613.265	1258.51
613.683	1261.58
614.101	1261.43
614.518	1256.27
614.936	1245.03
615.353	1229.82
615.771	1225.51
616.188	1225.66
616.606	1221.8
617.023	1212.91
617.44	1198.65
617.857	1191.15
618.274	1182.41
618.691	1175.94
619.108	1166.4
619.525	1159.58
619.942	1164.4
620.359	1165.26
620.776	1159.25
621.192	1154.47
621.609	1151.29
622.026	1156.45
622.442	1161.17
622.859	1163.02
623.275	1155.2
623.691	1159.45
624.108	1170.4
624.524	1183.15
624.94	1183.84
625.356	1192.25
625.772	1203.41
626.188	1214.17
626.604	1214.96
627.02	1209.84
627.436	1208.21
627.852	1215.25
628.268	1226.17
628.683	1217.21
629.099	1209.24
629.514	1204.52
629.93	1206.51
630.345	1210.17
630.761	1207.33
631.176	1209.39
631.591	1205.2
632.007	1198.9
632.422	1196.12
632.837	1185.23
633.252	1181.92
633.667	1171.88
634.082	1162.17
634.497	1150.68
634.911	1131.85
635.326	1125.69
635.741	1109.37
636.155	1097.75
636.57	1097.26
636.984	1094
637.399	1093.37
637.813	1090.64
638.228	1087.26
638.642	1088.43
639.056	1075.28
639.47	1072.85
639.884	1063.9
640.298	1056.04
640.712	1052.01
641.126	1038.18
641.54	1027.8
641.954	1021.47
642.368	1008.73
642.781	999.06
643.195	982.04
643.609	980.97
644.022	972.11
644.436	964.81
644.849	951.16
645.262	939.14
645.676	937.96
646.089	932
646.502	916.44
646.915	909.21
647.328	893.06
647.741	888.76
648.154	876.52
648.567	873.85
648.98	861.73
649.393	860.23
649.805	854.3
650.218	846.15
650.631	831.72
651.043	826.15
651.456	820.36
651.868	819.32
652.28	832.19
652.693	841.67
653.105	845.46
653.517	851.3
653.929	850.68
654.341	855.05
654.753	842.65
655.165	846.15
655.577	840.48
655.989	834.46
656.401	824.51
656.813	793.61
657.224	775.35
657.636	748.89
658.047	733.3
658.459	715.34
658.87	705.36
659.282	694.97
659.693	677.14
660.104	663.78
660.515	649.96
660.926	646.49
661.338	641.65
661.749	634.01
662.159	626.21
662.57	620.25
662.981	614.44
663.392	606.89
663.803	607.34
664.213	602.53
664.624	596.94
665.035	597.55
665.445	585.91
665.855	578.94
666.266	571.55
666.676	567.66
667.086	560.01
667.497	558.24
667.907	552.43
668.317	544.66
668.727	542.59
669.137	542.69
669.547	540.72
669.956	543.05
670.366	545.3
670.776	546.85
671.186	549.25
671.595	551.54
672.005	554.01
672.414	553.95
672.824	553.58
673.233	555.78
673.642	556.72
674.052	559.64
674.461	561.9
674.87	563.82
675.279	562.58
675.688	565.04
676.097	567.01
676.506	565.29
676.915	576.86
677.323	579.82
677.732	578.83
678.141	580.92
678.549	573.63
678.958	573.32
679.366	574.01
679.775	579.01
680.183	587.99
680.592	592.89
681	599.27
681.408	596.25
681.816	603.95
682.224	614.16
682.632	623.63
683.04	649.43
683.448	672.16
683.856	700
684.264	730.8
684.671	759.99
685.079	796.67
685.487	836.71
685.894	889.68
686.302	934.94
686.709	974.02
687.116	1021.65
687.524	1061.27
687.931	1096.55
688.338	1128.94
688.745	1157.87
689.152	1190.75
689.559	1233.66
689.966	1276.48
690.373	1302.76
690.78	1346.13
691.187	1409.17
691.593	1458.65
692	1503.03
692.407	1568.08
692.813	1646.22
693.22	1708.89
693.626	1775.42
694.032	1829.25
694.439	1909.02
694.845	1972.79
695.251	2052.86
695.657	2123.54
696.063	2226.78
696.469	2307.27
696.875	2379.51
697.281	2422.84
697.687	2476.76
698.093	2522.91
698.498	2604.32
698.904	2669
699.31	2763.97
699.715	2830.66
700.12	2930
700.526	2955.32
700.931	3031.88
701.337	3092.58
701.742	3132.66
702.147	3224.85
702.552	3262.25
702.957	3331.01
703.362	3358.91
703.767	3393.48
704.172	3442.41
704.577	3399.58
704.981	3453.41
705.386	3474.04
705.791	3468.96
706.195	3551.19
706.6	3564.11
707.004	3650.89
707.408	3623.63
707.813	3654.48
708.217	3648.09
708.621	3655.56
709.025	3759.55
709.43	3764.23
709.834	3833.5
710.237	3912.11
710.641	3901.2
711.045	3928.43
711.449	3927.85
711.853	3959.68
712.256	4006.73
712.66	4047.88
713.064	4127.82
713.467	4176.32
713.87	4298.04
714.274	4346.95
714.677	4465.83
715.08	4638.41
715.484	4819.6
715.887	5034.75
716.29	5254.16
716.693	5476.42
717.096	5733.72
717.499	5875.95
717.901	5903.76
718.304	5935.75
718.707	5966.02
719.109	5859.84
719.512	5828.41
719.915	5686.2
720.317	5628.28
720.719	5675.06
721.122	5646.28
721.524	5596.08
721.926	5555.6
722.328	5663.89
722.731	5655.71
723.133	5689.62
723.535	5896.63
723.937	5920.92
724.338	5979.69
724.74	6022.96
725.142	5942.3
725.544	5942.34
725.945	5968.33
726.347	5965.76
726.748	5957.87
727.15	5973.97
727.551	5933.18
727.952	5902.72
728.354	5872.44
728.755	5874.24
729.156	5830.87
729.557	5828.78
729.958	5704.03
730.359	5649.06
730.76	5628.89
731.161	5566.93
731.562	5540.15
731.962	5542.29
732.363	5474.6
732.763	5407.84
733.164	5447.09
733.564	5376.22
733.965	5278.15
734.365	5240.8
734.766	5268.89
735.166	5228.18
735.566	5170.52
735.966	5141.75
736.366	5139.22
736.766	5075.45
737.166	5110.59
737.566	5065.19
737.966	5037.96
738.365	5077
738.765	5068.77
739.165	4990.28
739.564	4962.41
739.964	5013.51
740.363	4966.39
740.763	4962.58
741.162	4951.98
741.561	4916.54
741.96	4868.35
742.36	4890.51
742.759	4895.01
743.158	4936.36
743.557	4953.15
743.955	4995.41
744.354	4946.68
744.753	5005.23
745.152	4960.39
745.55	5018.79
745.949	5011.86
746.348	5012.78
746.746	5028.84
747.144	4987.09
747.543	4962.55
747.941	5012.19
748.339	4938.07
748.737	4926.83
749.136	4918.98
749.534	4987.47
749.932	4954.31
750.33	4979.2
750.727	5037.96
751.125	5013.9
751.523	4998.31
751.921	5042.56
752.318	5007.62
752.716	5067.22
753.113	5081.57
753.511	5106.65
753.908	5107.5
754.305	5088.52
754.703	5152.48
755.1	5217.07
755.497	5282.23
755.894	5482.51
756.291	5672.59
756.688	6019.86
757.085	6485.21
757.482	7137
757.878	7851.33
758.275	8496.82
758.672	9387.18
759.068	10112.33
759.465	11141.96
759.861	12466.28
760.258	14010.4
760.654	14806.37
761.05	14692.4
761.447	14022.24
761.843	13057.56
762.239	12057.83
762.635	11598.71
763.031	11164.02
763.427	10540.88
763.822	9889.3
764.218	9240.25
764.614	8396.93
765.01	7833.01
765.405	7464.41
765.801	7190.36
766.196	6838.62
766.592	6641.06
766.987	6311.46
767.382	6086.15
767.778	5990
768.173	5849.77
768.568	5771.26
768.963	5639.74
769.358	5660.29
769.753	5612.26
770.148	5521.44
770.542	5518.01
770.937	5484.84
771.332	5580.33
771.726	5601.23
772.121	5534.79
772.515	5594.74
772.91	5583.28
773.304	5657.68
773.699	5588.39
774.093	5647.59
774.487	5708.14
774.881	5756.77
775.275	5752.11
775.669	5709.19
776.063	5756.49
776.457	5797.83
776.851	5715.8
777.245	5707.65
777.638	5742.37
778.032	5863.03
778.425	5822.96
778.819	5863.34
779.212	5816.61
779.606	5772.69
779.999	5792.84
780.392	5775.7
780.786	5857.55
781.179	5879.72
781.572	5923.37
781.965	5935.71
782.358	5874.09
782.751	5935.73
783.143	5884.72
783.536	5961.34
783.929	6007.55
784.322	6128.14
784.714	6159.11
785.107	6154.68
785.499	6229.79
785.891	6201.54
786.284	6180.07
786.676	6329.66
787.068	6303.11
787.46	6357.88
787.852	6375.47
788.245	6466.74
788.636	6495.72
789.028	6565.17
789.42	6605.27
789.812	6613.4
790.204	6719.74
790.595	6826.84
790.987	6620.45
791.378	6646.81
791.77	6784.53
792.161	6928.15
792.553	6984.38
792.944	6868.39
793.335	6797.86
793.726	6874.99
794.117	6968.54
794.508	7109.92
794.899	7075.58
795.29	7223.19
795.681	7283.56
796.072	7129.83
796.463	6932.85
796.853	6940.6
797.244	7103.38
797.634	7134.16
798.025	7134.87
798.415	7147.67
798.806	7240.17
799.196	7328.49
799.586	7380.42
799.976	7338.84
800.366	7580.63
800.756	7836.24
801.146	7796.3
801.536	7827.16
801.926	7906.96
802.316	7929.08
802.706	8004.6
803.095	7873.97
803.485	7980.59
803.874	8019.14
804.264	8290.95
804.653	8268.02
805.043	8415.08
805.432	8526.64
805.821	8526.66
806.21	8550.13
806.599	8675.45
806.988	8722.12
807.377	8835.55
807.766	8969.77
808.155	9272.22
808.544	8999.29
808.933	9014.84
809.321	9000.95
809.71	9314.33
810.098	9485.39
810.487	9969.7
810.875	10476.92
811.264	10502.57
811.652	10804.83
812.04	10960.2
812.428	11128.31
812.816	11927.64
813.204	12361.01
813.592	12927.72
813.98	13275.21
814.368	13171.88
814.756	13667.96
815.144	13580.72
815.531	14053.06
815.919	13972.16
816.306	14287.38
816.694	13965.53
817.081	14014.62
817.469	14373.32
817.856	14377.67
818.243	14657.4
818.63	15058.39
819.017	14624.63
819.404	14685.52
819.791	15088.21
820.178	15735.31
820.565	15997.42
820.952	16965.52
821.339	16446.94
821.725	16640.83
822.112	15861.47
822.498	15819.91
822.885	15955.43
823.271	15855.17
823.657	16290.49
824.044	16291.98
824.43	16366.07
824.816	16326.14
825.202	15870.54
825.588	16939.64
825.974	16955.28
826.36	17499.46
826.746	17536.16
827.132	17914.25
827.517	17884.77
827.903	17080.91
828.289	17133.45
828.674	16320.02
829.06	16222.17
829.445	16640.82
829.83	17010.94
830.216	17502.36
830.601	17874.83
830.986	17446.67
831.371	17311.47
831.756	17888.91
832.141	17435.86
832.526	17432.78
832.911	17729.16
833.295	17608.11
833.68	18097.11
834.065	17449.82
834.449	16510.75
834.834	16446.6
835.218	16445.99
835.603	16800.06
835.987	16591.19
836.371	17463.02
836.755	17355.98
837.139	17777.3
837.524	18034.85
837.908	17852.73
838.291	17919.05
838.675	17990.25
839.059	18211.19
839.443	18202.92
839.827	17965.01
840.21	18463.09
840.594	18312.13
840.977	18529.44
841.361	18510.67
841.744	18901
842.127	18738.53
842.511	19004.74
842.894	19637.65
843.277	20035.81
843.66	20606.81
844.043	20693.95
844.426	19852.85
844.809	19523.96
845.191	19550.73
845.574	19077.24
845.957	18702.52
846.339	18591
846.722	18040
847.104	18104.27
847.487	17916.98
847.869	17927.88
848.252	18228
848.634	18578.73
849.016	18856.23
849.398	18996.52
849.78	19876.35
850.162	19872.8
850.544	20307.38
850.926	20961.13
851.307	20867.5
851.689	21176.07
852.071	21652.44
852.452	21980.74
852.834	21955.2
853.215	22369.89
853.597	22523.19
853.978	22831.8
854.359	23314.12
854.741	22277.87
855.122	22174.07
855.503	21868.66
855.884	21992.08
856.265	21923.65
856.646	22042.04
857.026	21629.84
857.407	21562.96
857.788	21728.03
858.169	22034.91
858.549	21141.66
858.93	21792.52
859.31	21838.77
859.69	22071.34
860.071	21652.71
860.451	21425.33
860.831	20653.27
861.211	21860.92
861.591	22424.62
861.971	22390.66
862.351	22595.88
862.731	23004.38
863.111	23270.57
863.491	23621.76
863.87	24528.35
864.25	24892.62
864.629	24481.54
865.009	25013.85
865.388	25897.9
865.768	27769.68
866.147	27670.77
866.526	26131.8
866.905	26440.75
867.284	27926.88
867.663	26514.98
868.042	25407.02
868.421	25313.31
868.8	25723.23
869.179	25974.84
869.558	24465.59
869.936	22543.01
870.315	22933.85
870.693	23490.2
871.072	25326.68
871.45	24126.66
871.828	24431.72
872.207	25689.62
872.585	25299.22
872.963	25991.09
873.341	25098.6
873.719	24810.62
874.097	24513.24
874.475	24984.13
874.853	25552.48
875.23	24488.64
875.608	25513.42
875.986	27601.27
876.363	26394.85
876.741	27205.89
877.118	26522.94
877.495	27836.54
877.873	28294.86
878.25	29782.18
878.627	28570.93
879.004	28991.95
879.381	28854.71
879.758	28097.17
880.135	26166.2
880.512	27672.5
880.889	26959.06
881.265	26674.15
881.642	26453.27
882.019	26907.77
882.395	26352.22
882.772	27405.98
883.148	26205.85
883.524	26103.03
883.901	25956.36
884.277	26349.36
884.653	26183.56
885.029	26919.54
885.405	29831.08
885.781	29592.42
886.157	28380.36
886.532	28727.57
886.908	28698.39
887.284	31904.19
887.659	32944.38
888.035	33964.21
888.411	34844.03
888.786	35308.18
889.161	36561.37
889.537	35890.78
889.912	37047.74
890.287	37013.49
890.662	37974.99
891.037	37299.01
891.412	34790.67
891.787	34448.1
892.162	33270.29
892.536	34033.49
892.911	32750.01
893.286	32036.42
893.66	30729.43
894.035	31509.64
894.409	34309.3
894.784	32926.84
895.158	33483.24
895.532	35456.63
895.906	36426.12
896.281	37244.91
896.655	36646.78
897.029	41881.82
897.402	43611.73
897.776	48548.31
898.15	48367.56
898.524	47854.29
898.898	48508
899.271	54293.76
899.645	47032.48
900.018	45181.94
900.392	46887.25
900.765	47288.48
901.138	43756.95
901.511	43109.55
901.884	39594.58
902.258	36509.88
902.631	37698.92
903.003	43376.19
903.376	39132.65
903.749	43885.7
904.122	46979.56
904.495	51732.77
904.867	52383.47
905.24	45467.21
905.612	42327.32
905.985	43284.86
906.357	45272.51
906.729	43227.48
907.102	36911.81
907.474	35507.67
907.846	35716.67
908.218	35231.02
908.59	31113.58
908.962	30064.45
909.334	32378.62
909.705	34005.17
910.077	33002.96
910.449	34334.81
910.82	35265.18
911.192	38800.32
911.563	40292.47
911.935	43119.64
912.306	43153.72
912.677	44554.21
913.048	44115.07
913.419	47848.62
913.79	48123.17
914.161	51588.59
914.532	49332.37
914.903	45368.02
915.274	43078.53
915.645	42463.26
916.015	37390.41
916.386	35669.09
916.756	37974.74
917.127	39171.95
917.497	35003.5
917.868	38092.53
918.238	36203.34
918.608	37246.54
918.978	37999.9
919.348	40247.76
919.718	41585.57
920.088	40037.33
920.458	41585.41
920.828	43768.86
921.198	41486.04
921.567	44329.04
921.937	34337.64
922.306	34678.78
922.676	37408.57
923.045	31209.47
923.415	29642.99
923.784	26995.2
924.153	27759.99
924.522	27734.84
924.891	26052
925.26	27920.27
925.629	27239.16
925.998	31308.57
926.367	30545.8
926.736	29082.06
927.104	34637.59
927.473	37251.02
927.842	44997.35
928.21	44577.93
928.578	46862.58
928.947	44363.3
929.315	44609.52
929.683	52359.4
930.051	52787.74
930.42	61318.88
930.788	52403.53
931.156	52008.14
931.523	48728.63
931.891	45010.61
932.259	43210.26
932.627	50062.53
932.994	70767.9
933.362	58517.18
933.729	50806.6
934.097	48597.96
934.464	41115.91
934.831	47471.71
935.199	46823.43
935.566	45428.98
935.933	45977.47
936.3	55714.24
936.667	43359.54
937.034	39072.09
937.401	38646.53
937.767	33356.98
938.134	29727.08
938.501	41954.03
938.867	44705.68
939.234	75501.23
939.6	64437.2
939.967	71162.13
940.333	47638.54
940.699	40641.62
941.065	32693.68
941.431	42839.65
941.798	41263.43
942.163	54153.56
942.529	33831.52
942.895	31126.03
943.261	20151.02
943.627	26433.96
943.992	23147.22
944.358	23190.74
944.723	23270.47
945.089	22680.23
945.454	20975.19
945.82	22419.15
946.185	21550.36
946.55	24945.64
946.915	22395.55
947.28	26274.63
947.645	23124.68
948.01	21346.07
948.375	22239.24
948.74	26635.44
949.104	31049.98
949.469	44855.73
949.834	79237.03
950.198	75019.42
950.562	44975.46
950.927	37419.31
951.291	45011.09
951.655	38350.74
952.02	36013.88
952.384	27236.27
952.748	23721.37
953.112	23141
953.476	20112.76
953.839	18615.08
954.203	18441.33
954.567	23057.08
954.931	36348.52
955.294	31108.71
955.658	31301.9
956.021	53143.18
956.385	90162.48
956.748	133016.97
957.111	206344.83
957.474	231817.32
957.837	260939.44
958.2	197342.65
958.563	70980.56
958.926	47944.94
959.289	72819.3
959.652	81305.7
960.015	61128.72
960.377	87706.46
960.74	100096.12
961.102	172814.52
961.465	185533.26
961.827	99345.34
962.189	190867.4
962.552	132333.1
962.914	106295.4
963.276	68889.33
963.638	56938.37
964	56382.55
964.362	38124.06
964.724	36855.07
965.085	26277.17
965.447	21555.01
965.809	24596.17
966.17	24629.52
966.532	26677.63
966.893	24448.83
967.255	22256.87
967.616	26279.49
967.977	21023.3
968.338	22930.68
968.699	18851.54
969.061	18867.5
969.421	18961.59
969.782	21279.98
970.143	17960.04
970.504	18597
970.865	21134.67
971.225	21624.86
971.586	21172.02
971.946	30196.72
972.307	26256.24
972.667	34298.65
973.027	35305.1
973.388	42884.89
973.748	29136.38
974.108	31731.25
974.468	42942.61
974.828	33078.48
975.188	25424.73
975.548	23348.3
975.907	19600.66
976.267	21975.92
976.627	18468.19
976.986	19158.85
977.346	18257.59
977.705	17580.44
978.064	16004.58
978.424	13321.03
978.783	13801
979.142	15769.93
979.501	15076.26
979.86	15939.63
980.219	15344.77
980.578	19778.97
980.937	22153.48
981.296	19732.76
981.654	20274.58
982.013	31563.42
982.371	40930.7
982.73	38190.52
983.088	43258.13
983.447	46227.11
983.805	66134.7
984.163	138331.2
984.521	153617.41
984.879	225069.56
985.237	-366019.76
985.595	352642.68
985.953	87601.35
986.311	50669.78
986.669	29470.68
987.026	25419.01
987.384	34186.6
987.741	35281.67
988.099	25190.55
988.456	20058.24
988.814	18763.78
989.171	16302.31
989.528	16095.88
989.885	16978.13
990.242	13407.82
990.599	16666.73
990.956	13624.15
991.313	9516.35
991.67	7805.2
992.027	8246.73
992.383	7337.46
992.74	6433.1
993.096	6749.68
993.453	6995.72
993.809	7264.48
994.165	9682.62
994.522	8861.46
994.878	9768.36
995.234	12255.36
995.59	12122.09
995.946	11514.78
996.302	13132.57
996.658	15167.93
997.013	16679.72
997.369	19769.69
997.725	25273.01
998.08	16376.08
998.436	25339.39
998.791	34953.79
999.147	34945.27
999.502	38060.05
999.857	27683.11
1000.212	45081.32
1000.567	64231.71
1000.922	37191.12
1001.277	23651.62
1001.632	17549.09
1001.987	22622.15
1002.342	16196.15
1002.696	12964.95
1003.051	10349.03
1003.406	12534.62
1003.76	12477.38
1004.114	12296.76
1004.469	10329.63
1004.823	8525.7
1005.177	9209.47
1005.531	7303.93
1005.885	6496.16
1006.239	7325.46
1006.593	9158.6
1006.947	12233.28
1007.301	9182.11
1007.655	10002.24
1008.008	7356.56
1008.362	8270.59
1008.715	11859.58
1009.069	10783.79
1009.422	16231.27
1009.776	32391.73
1010.129	21538.76
1010.482	18042.72
1010.835	15305.38
1011.188	31831.67
1011.541	30008.1
1011.894	-183318.9
1012.247	539580.07
1012.6	36663.31
1012.952	23057.96
1013.305	11889.25
1013.657	8575.99
1014.01	8097.19
1014.362	6686.11
1014.715	5915.95
1015.067	5149.51
1015.419	5025.75
1015.771	4448.22
1016.123	3963.27
1016.475	4082.29
1016.827	4357.04
1017.179	4694.47
1017.531	4732.58
1017.883	4859.5
1018.234	4676.07
1018.586	5907.79
1018.938	6232.05
1019.289	8605.37
1019.64	9855.38
1019.992	9144.81
1020.343	8354.59
1020.694	6586.71
1021.045	5806.66
1021.396	6627.44
1021.747	7077.5
1022.098	8537.09
1022.449	6190.56
1022.8	5772.95
1023.151	4025.84
1023.501	3575.82
1023.852	3885.97
1024.202	4019.67
1024.553	4411.6
1024.903	4292.07
1025.253	3677.01
1025.604	3315.54
1025.954	4098.36
1026.304	4994.33
1026.654	5803.33
1027.004	8474.56
1027.354	13690.6
1027.703	12885.65
1028.053	16864.28
1028.403	24494.09
1028.753	35511.61
1029.102	48214.33
1029.452	247259.1
1029.801	10661.82
1030.15	6882.55
1030.499	5843.88
897.758	2209.7
901.051	2143.62
904.343	2178.41
907.636	2185.42
910.928	2248.47
914.22	2168.27
917.511	2175.4
920.803	2224.54
924.094	2223.25
927.384	2223.56
930.675	2188.37
933.965	2150.78
937.255	2179
940.544	2146.16
943.834	2147.3
947.123	2085.21
950.411	2176.58
953.7	2156.06
956.988	2139.39
960.276	2076.95
963.563	2127.2
966.851	2136.25
970.138	2178.84
973.424	2181.32
976.711	2133.99
979.997	2182.91
983.283	2227.26
986.568	2154.21
989.853	2146.27
993.138	2174.5
996.423	2259.83
999.708	2215.67
1002.992	2246.28
1006.275	2161.3
1009.559	2168.8
1012.842	2269.31
1016.125	2218.61
1019.408	2201.18
1022.69	2257.88
1025.972	2292.08
1029.254	2267.14
1032.536	2225.63
1035.817	2241.49
1039.098	2210.75
1042.379	2263.79
1045.659	2288.4
1048.939	2237.31
1052.219	2246.36
1055.498	2239.84
1058.778	2237.76
1062.057	2213.25
1065.335	2237.04
1068.614	2249.22
1071.892	2240.97
1075.17	2298.28
1078.447	2299.16
1081.724	2295.35
1085.001	2319.86
1088.278	2301.03
1091.554	2306.98
1094.83	2301.2
1098.106	2337.67
1101.382	2367.11
1104.657	2368.39
1107.932	2371.55
1111.206	2345.06
1114.481	2300.35
1117.755	2300.64
1121.029	2293.27
1124.302	2350.68
1127.575	2315.97
1130.848	2312.78
1134.121	2281.54
1137.393	2247.67
1140.665	2301.72
1143.937	2277.75
1147.208	2228.98
1150.48	2284.43
1153.75	2274.62
1157.021	2279.66
1160.291	2255.1
1163.561	2310.46
1166.831	2277.73
1170.101	2305.92
1173.37	2263.14
1176.639	2223.83
1179.907	2268.82
1183.176	2291.86
1186.444	2295.33
1189.711	2318.08
1192.979	2339.31
1196.246	2297.49
1199.513	2307.3
1202.78	2314.23
1206.046	2324.48
1209.312	2352.07
1212.578	2369.56
1215.843	2336.67
1219.108	2303.07
1222.373	2324.96
1225.638	2299.86
1228.902	2291.47
1232.166	2245
1235.43	2234.37
1238.693	2261.78
1241.956	2251.67
1245.219	2300.57
1248.482	2285.89
1251.744	2282.36
1255.006	2409.95
1258.268	2355.41
1261.529	2309.58
1264.79	2312.17
1268.051	2411.71
1271.312	2422.24
1274.572	2390.58
1277.832	2379.15
1281.092	2361.38
1284.351	2349.41
1287.61	2333.9
1290.869	2265.42
1294.128	2263.47
1297.386	2316.39
1300.644	2307.71
1303.902	2318.24
1307.159	2186.67
1310.416	2236.59
1313.673	2266.25
1316.93	2262.4
1320.186	2293.81
1323.442	2327.34
1326.697	2328.51
1329.953	2302.6
1333.208	2335.54
1336.463	2310.44
1339.717	2271.43
1342.972	2376.28
1346.226	2348.28
1349.479	2296.05
1352.733	2275.74
1355.986	2280.39
1359.238	2263.17
1362.491	2268.76
1365.743	2268.63
1368.995	2261.76
1372.247	2273.73
1375.498	2292.65
1378.749	2334.36
1382	2285.7
1385.251	2322.53
1388.501	2274.4
1391.751	2277.32
1395	2242.14
1398.25	2266.73
1401.499	2290.15
1404.748	2236.7
1407.996	2213.33
1411.244	2203.24
1414.492	2188.92
1417.74	2172.74
1420.987	2176.6
1424.234	2238.09
1427.481	2200.68
1430.728	2257.3
1433.974	2233.56
1437.22	2230.32
1440.465	2228.54
1443.711	2228.1
1446.956	2253.43
1450.201	2225.01
1453.445	2266.94
1456.689	2257.26
1459.933	2267.52
1463.177	2309.08
1466.42	2281.61
1469.663	2264.39
1472.906	2279.53
1476.148	2329.69
1479.391	2305.06
1482.633	2279.73
1485.874	2304.67
1489.115	2312.8
1492.356	2295.16
1495.597	2275.38
1498.838	2268.62
1502.078	2252.93
1505.318	2223.74
1508.557	2260.93
1511.797	2255.63
1515.036	2298.19
1518.274	2274.13
1521.513	2226.83
1524.751	2239.43
1527.989	2263.95
1531.227	2281.9
1534.464	2293.43
1537.701	2290.5
1540.938	2304
1544.174	2251.34
1547.41	2241.51
1550.646	2280.79
1553.882	2329.21
1557.117	2387.9
1560.352	2394.05
1563.587	2357.31
1566.821	2322.51
1570.055	2343.5
1573.289	2322.5
1576.523	2381.84
1579.756	2395.55
1582.989	2417.57
1586.222	2379.4
1589.454	2405.61
1592.686	2389.48
1595.918	2418.93
1599.15	2416.71
1602.381	2463.14
1605.612	2439.7
1608.843	2535.89
1612.073	2455.17
1615.303	2445.52
1618.533	2442.82
1621.762	2442.11
1624.992	2417.44
1628.221	2417.86
1631.449	2408.2
1634.678	2437.89
1637.906	2404.37
1641.134	2433.2
1644.361	2397.04
1647.588	2387.34
1650.815	2407.74
1654.042	2372.13
1657.269	2397.18
1660.495	2375.94
1663.72	2363.41
1666.946	2331.05
1670.171	2300.4
1673.396	2275.6
1676.621	2258.64
1679.845	2254.95
1683.069	2263.95
1686.293	2293.67
1689.517	2284.85
1692.74	2235.17
1695.963	2257.32
1699.185	2297.94
1702.408	2269.07
1705.63	2299.17
1708.852	2317.06
1712.073	2287.12
1715.294	2298.13
1718.515	2342.35
1721.736	2300.49
1724.956	2279.63
1728.176	2302.1
1731.396	2324.79
1734.616	2309.59
1737.835	2346.81
1741.054	2317.33
1744.272	2308.92
1747.491	2349
1750.709	2373.67
1753.927	2318.54
1757.144	2345.74
1760.361	2403.51
1763.578	2377.45
1766.795	2325.84
1770.011	2317.21
1773.227	2343.28
1776.443	2385.81
1779.658	2427.81
1782.874	2366.1
1786.089	2358.27
1789.303	2361.31
1792.518	2358.81
1795.732	2344.26
1798.945	2359.66
1802.159	2403.08
1805.372	2340.46
1808.585	2333.32
1811.797	2334.92
1815.01	2357.85
1818.222	2378.53
1821.434	2339.97
1824.645	2383.02
1827.856	2389.82
1831.067	2419.04
1834.278	2359.54
1837.488	2340.92
1840.698	2465.85
1843.908	2405.72
1847.117	2372.21
1850.326	2294.96
1853.535	2359.83
1856.744	2388.91
1859.952	2311.88
1863.16	2312.89
1866.368	2328.5
1869.575	2439.59
1872.782	2321.59
1875.989	2253.29
1879.196	2307.48
1882.402	2296.6
1885.608	2329.68
1888.814	2265.32
1892.019	2175.14
1895.224	2224.08
1898.429	2190.03
1901.634	2172.93
1904.838	2146.5
1908.042	2202.82
1911.246	2215.35
1914.449	2172.46
1917.652	2156.31
1920.855	2137.73
1924.058	2164.31
1927.26	2207.22
1930.462	2231.29
1933.664	2269.89
1936.865	2210.75
1940.066	2228.49
1943.267	2171.37
1946.467	2183.37
1949.668	2201.18
1952.868	2271.19
1956.067	2259.81
1959.267	2201.19
1962.466	2226.04
1965.665	2208.59
1968.863	2200.95
1972.061	2207.73
1975.259	2197.71
1978.457	2276.32
1981.654	2236.42
1984.852	2241.26
1988.048	2191.49
1991.245	2183.78
1994.441	2269.59
1997.637	2229.48
2000.833	2210.86
2004.028	2247.03
2007.223	2308.35
2010.418	2299.41
2013.613	2248.18
2016.807	2239.86
2020.001	2236.29
2023.194	2260.78
2026.388	2241.25
2029.581	2189.96
2032.774	2250.78
2035.966	2261.28
2039.158	2207.59
2042.35	2223.88
2045.542	2152.24
2048.733	2236.55
2051.924	2231.02
2055.115	2247.38
2058.306	2211.88
2061.496	2268.39
2064.686	2314.54
2067.875	2222.28
2071.065	2227.04
2074.254	2246.62
2077.442	2202.13
2080.631	2283.05
2083.819	2212.33
2087.007	2203.5
2090.195	2187.19
2093.382	2204.63
2096.569	2188.44
2099.756	2150.25
2102.942	2198.37
2106.128	2210.02
2109.314	2196.75
2112.5	2183.34
2115.685	2150.84
2118.87	2158.7
2122.055	2219.25
2125.239	2197.38
2128.424	2184.04
2131.608	2246.72
2134.791	2229.68
2137.974	2267.35
2141.157	2256.43
2144.34	2226.88
2147.523	2218.4
2150.705	2243.69
2153.887	2212.27
2157.068	2184.11
2160.25	2168.17
2163.431	2191.39
2166.611	2158.91
2169.792	2180.94
2172.972	2091.99
2176.152	2143.59
2179.331	2172.72
2182.511	2174.68
2185.69	2195.06
2188.868	2199.7
2192.047	2234.96
2195.225	2248.42
2198.403	2196.98
2201.58	2183.97
2204.758	2171.52
2207.935	2245.85
2211.111	2161.38
2214.288	2148.84
2217.464	2182.35
2220.64	2142.3
2223.815	2191.62
2226.991	2123
2230.166	2138.8
2233.34	2181.27
2236.515	2195.28
2239.689	2258.93
2242.863	2209.16
2246.036	2262.07
2249.209	2245
2252.382	2265.03
2255.555	2271.79
2258.727	2220.34
2261.9	2251.71
2265.071	2241.98
2268.243	2239.31
2271.414	2188.15
2274.585	2170.23
2277.756	2230.09
2280.926	2186.51
2284.096	2217.55
2287.266	2148.38
2290.436	2193.68
2293.605	2215.16
2296.774	2249.27
2299.942	2255.76
2303.111	2272.17
2306.279	2321.98
2309.447	2306.24
2312.614	2276.96
2315.781	2303.6
2318.948	2281.18
2322.115	2314.68
2325.281	2217.06
2328.447	2223.29
2331.613	2195.36
2334.779	2187.05
2337.944	2180.62
2341.109	2180.31
2344.274	2171.7
2347.438	2140.07
2350.602	2158.34
2353.766	2167.23
2356.929	2156.25
2360.092	2193.52
2363.255	2164.09
2366.418	2128.06
2369.58	2196.6
2372.742	2069.29
2375.904	2066.12
2379.066	2049.53
2382.227	2075.29
2385.388	2037.17
2388.548	1988.32
2391.709	2030.5
2394.869	2020.26
2398.029	2074.76
2401.188	2072.74
2404.347	2033.7
2407.506	2114.05
2410.665	2152.06
2413.823	2139.75
2416.981	2117.92
2420.139	2136.49
2423.296	2175.89
2426.453	2148.94
2429.61	2169.17
2432.767	2140.71
2435.923	2180.86
2439.079	2128.55
2442.235	2166.2
2445.391	2104.23
2448.546	2145.4
2451.701	2180.32
2454.855	2174.82
2458.009	2203.85
2461.163	2193.65
2464.317	2164.01
2467.471	2190.27
2470.624	2219.41
2473.777	2206.04
2476.929	2221.12
2480.082	2247.16
2483.234	2219.68
2486.385	2161.68
2489.537	2154.92
2492.688	2142.56
2495.839	2159.48
2498.989	2175.66
2502.14	2161.66
2505.29	2152.88
2508.439	2177.55
2511.589	2116.66
2514.738	2116.88
2517.887	2139.63
2521.035	2215.52
2524.183	2176.69
2527.331	2165.16
2530.479	2158.02
2533.627	2158.69
