Data from C_1_DIV_WI_4N_Splice17_11-48-33-098.txt Node
Date: Sat Mar 14 11:48:33 EDT 2020
User: sa697716
Spectrometer: FLMS03696
Trigger mode: 0
Integration Time (sec): 3.180400E-1
Scans to average: 20
Electric dark correction enabled: true
Nonlinearity correction enabled: true
Boxcar width: 5
XAxis mode: Wavelengths
Number of Pixels in Spectrum: 2048
>>>>>Begin Spectral Data<<<<<
187.83	-229507.88
188.298	1690.86
188.766	996.71
189.233	866.29
189.701	1206.44
190.169	1631.09
190.636	526.64
191.104	351.62
191.571	5.66
192.039	-111.31
192.506	-177.66
192.974	184.2
193.441	-564.15
193.908	9.31
194.375	-19.59
194.842	28.53
195.31	125.58
195.777	137.26
196.244	347.86
196.711	491.56
197.177	615.89
197.644	868.99
198.111	1488.46
198.578	2138.4
199.045	1713.29
199.511	2856.14
199.978	3347.41
200.445	2824.91
200.911	3118.89
201.378	3475.19
201.844	3154.25
202.31	5403.84
202.777	5633.78
203.243	3159.29
203.709	3011.05
204.176	3590.73
204.642	2946.81
205.108	2737.79
205.574	2247.72
206.04	2078.18
206.506	1951.83
206.972	1843.6
207.438	1791.87
207.903	2046.05
208.369	1802.96
208.835	1807.8
209.301	1911.24
209.766	1963.98
210.232	1962.17
210.697	2430.19
211.163	3019.37
211.628	4587.29
212.094	3861.03
212.559	4699.56
213.024	2945.87
213.49	3577.14
213.955	3517.09
214.42	3466.34
214.885	3243.93
215.35	3135.43
215.815	3021.12
216.28	3226.6
216.745	2672.62
217.21	2923.38
217.675	2771.48
218.14	3199.91
218.604	3691.36
219.069	4307.42
219.534	4616.98
219.998	5492.24
220.463	6808.05
220.927	8602.9
221.392	8242.67
221.856	8454.24
222.32	10802.27
222.785	13450.15
223.249	17097.81
223.713	19207.79
224.177	19341.36
224.642	24979.81
225.106	30929.66
225.57	33939.42
226.034	25267.65
226.497	38589.58
226.961	34899.56
227.425	40723.36
227.889	45361.17
228.353	45423.23
228.816	94051.18
229.28	90105.92
229.744	76072.61
230.207	46255.62
230.671	45572.22
231.134	75623.64
231.597	87014.84
232.061	87194.95
232.524	85235.37
232.987	58772.56
233.45	52894.33
233.914	47463.04
234.377	48735.92
234.84	44651.15
235.303	52712.32
235.766	58848.58
236.229	60853.49
236.691	38399.21
237.154	43177.84
237.617	32480.65
238.08	33287.01
238.542	39004.24
239.005	27888.76
239.468	27667.19
239.93	26067.02
240.393	23680.25
240.855	20781.85
241.317	21280.31
241.78	25915.58
242.242	26767.01
242.704	28866.43
243.166	25108.07
243.629	22759.21
244.091	26212.48
244.553	28714.85
245.015	30864.78
245.477	39950.36
245.939	58613.41
246.4	62204.27
246.862	60427.83
247.324	57014.08
247.786	63841.52
248.247	83749.86
248.709	86638.15
249.17	64792.59
249.632	60987.82
250.093	70584.84
250.555	60939.93
251.016	37095.51
251.477	35161.62
251.939	37936.78
252.4	39792.89
252.861	47328.51
253.322	43980.87
253.783	52323.97
254.244	67853.63
254.705	53545.99
255.166	47659.36
255.627	46924.76
256.088	66145.3
256.549	70278.18
257.009	60543.58
257.47	73384.07
257.931	59768.04
258.391	44763.24
258.852	46156.2
259.312	48451.66
259.773	59888.41
260.233	50591.16
260.694	42666.15
261.154	48448.92
261.614	38842.06
262.074	34767.73
262.534	36152.26
262.994	34062.32
263.455	45388.81
263.915	38233.64
264.374	36010.7
264.834	39302.6
265.294	43557.34
265.754	45098.35
266.214	42688.39
266.673	40016.65
267.133	50464.79
267.593	50035.93
268.052	61161.11
268.512	53210.69
268.971	64012.97
269.431	70120.75
269.89	62724.65
270.349	93961.08
270.809	104653.85
271.268	94020.56
271.727	210821.11
272.186	136487.36
272.645	102344.49
273.104	73865.8
273.563	106862.89
274.022	84132.89
274.481	71460.74
274.94	55009.44
275.399	40932.79
275.857	47661.7
276.316	64435.89
276.775	57287.48
277.233	56335.02
277.692	52659.11
278.15	59486.84
278.609	61103.37
279.067	56528.99
279.525	52466.46
279.984	67722.19
280.442	81174.26
280.9	79894.75
281.358	52494.83
281.816	48857.73
282.274	47812.79
282.732	49380.66
283.19	49602.89
283.648	42787.97
284.106	45532.91
284.564	46275.11
285.021	42870.29
285.479	31938.59
285.937	29055.86
286.394	25451.6
286.852	26186.34
287.309	27517.12
287.767	26523.02
288.224	25200.97
288.682	27634.78
289.139	30271.55
289.596	27671.79
290.053	28737.85
290.511	36232.27
290.968	43853.59
291.425	59521.67
291.882	49428.41
292.339	42988.95
292.796	42709.17
293.252	40219.28
293.709	31901.57
294.166	28575.52
294.623	31567.57
295.079	30255.48
295.536	30373.95
295.992	27591.8
296.449	27271.22
296.905	28337.06
297.362	27127.04
297.818	28500.38
298.274	29554.58
298.731	30126.88
299.187	29808.28
299.643	32006.24
300.099	38730.8
300.555	42482.97
301.011	35496.56
301.467	34129.31
301.923	39976.36
302.379	39047
302.835	38354.39
303.291	38354.76
303.746	43628.69
304.202	55110.96
304.658	55267.12
305.113	37141.2
305.569	36371.27
306.024	38716.93
306.479	36930.89
306.935	31102.09
307.39	33930.65
307.845	31294.61
308.301	31462.83
308.756	30626.01
309.211	29469.4
309.666	30174.45
310.121	37400.92
310.576	37964.09
311.031	37649.6
311.486	43091.49
311.94	43052.65
312.395	57596.79
312.85	108229.69
313.305	532104.02
313.759	2749664.46
314.214	199038.41
314.668	157682.19
315.123	132395.96
315.577	47382.9
316.032	42089.34
316.486	52708.54
316.94	41518.25
317.394	28843.37
317.849	22389.37
318.303	21182.66
318.757	19986.4
319.211	22072.2
319.665	19300.39
320.119	19550.15
320.572	28014.04
321.026	26169.86
321.48	21760.97
321.934	23722.61
322.387	23762.13
322.841	25634.79
323.295	22992.72
323.748	26490.91
324.202	26873.12
324.655	32227.21
325.108	44941.93
325.562	31699.88
326.015	37668.47
326.468	28454.3
326.921	31794.45
327.374	29635.41
327.827	30817.79
328.28	34846.29
328.733	23323.72
329.186	20501.22
329.639	19544.77
330.092	16470.04
330.545	15689.28
330.997	15782.72
331.45	17213.38
331.903	20109.26
332.355	34536.71
332.808	33557.48
333.26	27693.27
333.713	30024.47
334.165	30209.77
334.617	40339.53
335.069	32582.03
335.522	58869.7
335.974	65138.69
336.426	59492.88
336.878	41299.61
337.33	20951.38
337.782	20458.75
338.234	25567.12
338.686	30609.08
339.137	36235.56
339.589	34065.02
340.041	26668.06
340.493	22914.56
340.944	23471.92
341.396	25301.1
341.847	21248.75
342.299	25000.77
342.75	30422.05
343.201	26641.78
343.653	30595.47
344.104	37627.6
344.555	29616.11
345.006	46154.31
345.457	35287.3
345.908	28039.34
346.359	26336.54
346.81	21437.84
347.261	22621.42
347.712	22297.02
348.163	23878.66
348.613	24100.54
349.064	22469.19
349.515	19670.86
349.965	20133.57
350.416	24223.04
350.866	26581.47
351.317	30056.29
351.767	49759.06
352.217	62832.88
352.668	52133.55
353.118	47680.81
353.568	46067.02
354.018	36386.47
354.468	38323.39
354.918	27493.38
355.368	24064.15
355.818	33990.08
356.268	97641.73
356.718	407835.76
357.168	101467.66
357.617	50869.23
358.067	56606.03
358.517	52999.67
358.966	62120.5
359.416	69579.16
359.865	75181.72
360.315	89414.44
360.764	41663.65
361.213	23346.98
361.663	22141.2
362.112	27312.65
362.561	44149.09
363.01	33248.22
363.459	27981.02
363.908	30276.44
364.357	25672.69
364.806	43395.74
365.255	29860.85
365.703	27329.93
366.152	27348.31
366.601	22184.04
367.05	17999.78
367.498	16355.8
367.947	17108.22
368.395	17807.2
368.844	15757.89
369.292	19052.62
369.74	13144.08
370.189	20180.42
370.637	23705.37
371.085	20488.14
371.533	24942.25
371.981	24093.59
372.429	22971.28
372.877	23963.15
373.325	20073.5
373.773	20499.27
374.221	18288.6
374.669	22726.46
375.116	19668.81
375.564	19848.52
376.012	22234.3
376.459	18380.36
376.907	22020.25
377.354	26709.73
377.801	24945.04
378.249	28751.24
378.696	36854.37
379.143	44726.77
379.591	47912.65
380.038	81038.49
380.485	58739.23
380.932	63641.75
381.379	58278.31
381.826	42959.23
382.273	30609.42
382.72	26856.56
383.166	26232.47
383.613	17076.4
384.06	15436.87
384.506	17901.24
384.953	13230.28
385.4	13351.04
385.846	11723.98
386.292	11474.67
386.739	11264.26
387.185	11178.76
387.631	11209.23
388.078	10892.17
388.524	11659.62
388.97	10773.39
389.416	8986.4
389.862	9539.95
390.308	9044.95
390.754	9179.26
391.2	9967.64
391.645	10201.74
392.091	9728.15
392.537	9391.28
392.983	9407.49
393.428	9238.18
393.874	9905.5
394.319	9924.98
394.765	9393.76
395.21	9657.81
395.655	9052.01
396.101	8465.06
396.546	7626.61
396.991	7691.52
397.436	7133.68
397.881	6881.2
398.326	6511.45
398.771	6136.22
399.216	5361.51
399.661	4826.03
400.106	4803.6
400.551	4899.22
400.995	4385.83
401.44	4332.6
401.885	4062.53
402.329	4102.27
402.774	3918.27
403.218	3771.57
403.663	3629.79
404.107	3719.84
404.551	3731.62
404.995	3406.96
405.44	3279.5
405.884	3320.89
406.328	3205.25
406.772	3186.93
407.216	2892.22
407.66	2792.2
408.104	2652.49
408.547	2476.78
408.991	2391.64
409.435	2300.23
409.879	2259.5
410.322	2225.72
410.766	2143.46
411.209	2033.14
411.653	1949.57
412.096	1902.83
412.54	1901.29
412.983	1885.13
413.426	1883.95
413.869	1879.23
414.312	1838.01
414.756	1770.88
415.199	1685.15
415.642	1632.82
416.085	1633.45
416.527	1618.26
416.97	1638.26
417.413	1550.3
417.856	1533.39
418.298	1516.55
418.741	1503.49
419.184	1498.57
419.626	1558.05
420.069	1557.23
420.511	1563.04
420.953	1525
421.396	1510.11
421.838	1472.51
422.28	1503.96
422.722	1507.28
423.164	1529.84
423.606	1499.9
424.048	1496.14
424.49	1419.61
424.932	1410.21
425.374	1389.07
425.816	1412.77
426.258	1435.82
426.699	1452.96
427.141	1428.25
427.582	1450.74
428.024	1440.12
428.465	1433.93
428.907	1397.01
429.348	1380.55
429.789	1376.97
430.231	1346.86
430.672	1364.78
431.113	1331.79
431.554	1308.69
431.995	1277.52
432.436	1229.78
432.877	1202.28
433.318	1179.62
433.759	1174.26
434.2	1173.82
434.64	1162.21
435.081	1164.88
435.522	1100.89
435.962	1063.22
436.403	1038.74
436.843	1054.09
437.284	1032.04
437.724	1004.26
438.164	1006.61
438.604	987.01
439.045	946.46
439.485	905.91
439.925	885.47
440.365	864.17
440.805	850.47
441.245	838.29
441.685	806.6
442.125	800.94
442.564	806.42
443.004	788.1
443.444	783.21
443.883	786.53
444.323	780.37
444.762	781.73
445.202	791.17
445.641	804.12
446.081	800.09
446.52	804.38
446.959	793.89
447.398	772.87
447.837	760.96
448.276	746.66
448.716	751.86
449.154	756.45
449.593	738.71
450.032	735.8
450.471	720.88
450.91	722.55
451.349	719.55
451.787	716.29
452.226	726.95
452.664	727.22
453.103	727.65
453.541	725.75
453.98	725.03
454.418	729.79
454.856	716.01
455.295	715.11
455.733	718.59
456.171	723.2
456.609	723.04
457.047	721.14
457.485	730.75
457.923	732.82
458.361	722.2
458.798	723.86
459.236	721.79
459.674	728.48
460.111	730.94
460.549	723.33
460.987	720.95
461.424	718.6
461.862	715.72
462.299	705.33
462.736	702.7
463.173	705.78
463.611	698.12
464.048	694.89
464.485	699.04
464.922	692.98
465.359	690.24
465.796	678.73
466.233	673.4
466.67	666.61
467.106	664.52
467.543	658.48
467.98	649.8
468.416	632.56
468.853	627.3
469.29	608.97
469.726	601.83
470.162	585.61
470.599	578.25
471.035	572.82
471.471	559.14
471.907	555.43
472.344	551.53
472.78	552.06
473.216	557.93
473.652	551.09
474.088	549.1
474.523	546.09
474.959	550.24
475.395	545.11
475.831	540.97
476.266	542.28
476.702	539.49
477.138	532.75
477.573	529.62
478.008	527.17
478.444	529.3
478.879	532.74
479.314	534.24
479.75	532.25
480.185	534.47
480.62	538.74
481.055	540.15
481.49	543.39
481.925	550.91
482.36	560.49
482.795	575.32
483.229	589.64
483.664	600.58
484.099	602.67
484.534	612.3
484.968	617.13
485.403	617.82
485.837	617.07
486.271	614.64
486.706	614.12
487.14	605.77
487.574	595.69
488.009	589.55
488.443	584.27
488.877	589.17
489.311	590.24
489.745	596.68
490.179	601.59
490.613	611.19
491.046	615.19
491.48	618.41
491.914	618.66
492.348	622.34
492.781	625.02
493.215	625.21
493.648	625.48
494.082	628.61
494.515	627.36
494.948	632.88
495.382	635.68
495.815	638.75
496.248	641.58
496.681	650.69
497.114	658.53
497.547	665.4
497.98	675.55
498.413	679.28
498.846	686.05
499.279	690.82
499.711	692.08
500.144	692.48
500.577	699.85
501.009	707.73
501.442	714.42
501.874	713.79
502.306	713.43
502.739	718.16
503.171	728.86
503.603	729.94
504.036	736.98
504.468	740.78
504.9	748.94
505.332	753.4
505.764	756.28
506.196	761.08
506.627	772.35
507.059	783.08
507.491	788.72
507.923	785.46
508.354	797.15
508.786	805.21
509.217	819.32
509.649	831.38
510.08	846.88
510.512	859.75
510.943	871.23
511.374	879.69
511.805	895.71
512.237	911.45
512.668	938.25
513.099	960.68
513.53	982.63
513.961	1000.54
514.391	1026.39
514.822	1052.98
515.253	1082.89
515.684	1105.23
516.114	1131.94
516.545	1149.52
516.975	1172.22
517.406	1188.09
517.836	1191.98
518.267	1198.73
518.697	1214.47
519.127	1219.71
519.558	1227.5
519.988	1232.74
520.418	1243.05
520.848	1258.99
521.278	1269.11
521.708	1276.13
522.138	1288.07
522.567	1315.07
522.997	1339.05
523.427	1354.41
523.857	1370.48
524.286	1380.34
524.716	1394.79
525.145	1412.99
525.575	1424.07
526.004	1437.76
526.433	1444.22
526.863	1446.78
527.292	1441.38
527.721	1447.01
528.15	1452.85
528.579	1454.84
529.008	1466.09
529.437	1487.43
529.866	1499.53
530.295	1515.09
530.724	1527.72
531.152	1551.52
531.581	1564.94
532.01	1579.61
532.438	1588.53
532.867	1601.46
533.295	1619.68
533.723	1626
534.152	1623.81
534.58	1624.25
535.008	1610.63
535.436	1612.55
535.865	1619.94
536.293	1634.34
536.721	1649.2
537.149	1672.17
537.576	1676.34
538.004	1687.28
538.432	1694.79
538.86	1695.4
539.287	1702.77
539.715	1716.47
540.143	1719.82
540.57	1718.05
540.998	1714.58
541.425	1695.12
541.852	1676.46
542.28	1673.98
542.707	1659.49
543.134	1647.69
543.561	1643.76
543.988	1637.13
544.415	1636.04
544.842	1630.18
545.269	1623.42
545.696	1624.43
546.123	1634.54
546.549	1624.54
546.976	1612.7
547.403	1611.73
547.829	1612.18
548.256	1613.11
548.682	1609.72
549.108	1601.79
549.535	1601.15
549.961	1601.69
550.387	1588.32
550.813	1583.27
551.24	1587.93
551.666	1588.52
552.092	1579.14
552.518	1573.05
552.943	1566.56
553.369	1571.55
553.795	1575.94
554.221	1575.96
554.646	1571.84
555.072	1581.31
555.498	1584.26
555.923	1591.9
556.349	1603.69
556.774	1610.37
557.199	1609.97
557.625	1612.46
558.05	1606.07
558.475	1612.53
558.9	1609.7
559.325	1600.56
559.75	1592.19
560.175	1584.51
560.6	1576.78
561.025	1573.15
561.449	1571.7
561.874	1575.04
562.299	1578.36
562.723	1582.31
563.148	1573.07
563.572	1573.87
563.997	1580.64
564.421	1583.41
564.846	1581.09
565.27	1582.65
565.694	1577.57
566.118	1585.14
566.542	1589.78
566.966	1581.84
567.39	1575.6
567.814	1563.37
568.238	1561.17
568.662	1563.89
569.086	1564.13
569.509	1569.31
569.933	1553.42
570.357	1545.62
570.78	1525.72
571.204	1511.92
571.627	1501.04
572.05	1497.61
572.474	1496.28
572.897	1485.12
573.32	1476.37
573.743	1466.39
574.166	1448.77
574.589	1447.43
575.012	1439.09
575.435	1437.08
575.858	1426.78
576.281	1415.6
576.704	1400.8
577.126	1387.95
577.549	1376.66
577.972	1367.14
578.394	1357.22
578.817	1349.83
579.239	1331.68
579.661	1320.06
580.084	1305.74
580.506	1294.27
580.928	1289.23
581.35	1278.66
581.772	1273.96
582.194	1261.63
582.616	1249.88
583.038	1236.12
583.46	1225.37
583.882	1223.07
584.303	1224.81
584.725	1218.48
585.147	1218.6
585.568	1225.64
585.99	1233.92
586.411	1238.53
586.833	1249.82
587.254	1249.2
587.675	1260.59
588.096	1270.6
588.518	1264.96
588.939	1250.04
589.36	1247.59
589.781	1237.98
590.202	1214.37
590.623	1207.01
591.043	1203.39
591.464	1190.97
591.885	1187.6
592.305	1181.25
592.726	1169.14
593.147	1168.83
593.567	1164.26
593.987	1159.25
594.408	1154.74
594.828	1153.57
595.248	1148.13
595.669	1134.15
596.089	1128.34
596.509	1122.33
596.929	1110.6
597.349	1110.51
597.769	1102.17
598.189	1096.99
598.608	1096.8
599.028	1098.06
599.448	1097.12
599.867	1086.19
600.287	1082.56
600.706	1078.28
601.126	1071.14
601.545	1070.41
601.965	1069.74
602.384	1064.81
602.803	1066.3
603.222	1061.83
603.641	1054.93
604.061	1051.4
604.48	1047.65
604.898	1053.1
605.317	1056.92
605.736	1057.46
606.155	1055.31
606.574	1047.45
606.992	1050.91
607.411	1046.38
607.829	1039.01
608.248	1036.42
608.666	1034.22
609.085	1034.23
609.503	1026.1
609.921	1021.09
610.339	1021.99
610.758	1020.09
611.176	1015.61
611.594	1008.51
612.012	1005.92
612.43	1009.04
612.847	1014.2
613.265	1014.85
613.683	1016.55
614.101	1017.13
614.518	1013.12
614.936	1004.6
615.353	994.27
615.771	991.81
616.188	992.38
616.606	988.57
617.023	982.64
617.44	971.1
617.857	964.99
618.274	959.06
618.691	954.85
619.108	947.15
619.525	942.54
619.942	946.23
620.359	948.05
620.776	943.31
621.192	941.35
621.609	939.16
622.026	944.3
622.442	948.79
622.859	950.57
623.275	944.85
623.691	949.58
624.108	958.93
624.524	970.03
624.94	969.54
625.356	977.13
625.772	985.59
626.188	994.28
626.604	996.29
627.02	992.95
627.436	992.63
627.852	997.89
628.268	1006.93
628.683	999.89
629.099	992.76
629.514	989.7
629.93	991.82
630.345	994.92
630.761	991.91
631.176	992.13
631.591	987.63
632.007	981.31
632.422	978.34
632.837	968.43
633.252	964.85
633.667	957.42
634.082	949.28
634.497	937.87
634.911	922.85
635.326	919.79
635.741	907.44
636.155	899.31
636.57	899.62
636.984	898.7
637.399	898.99
637.813	897.68
638.228	894.73
638.642	896.47
639.056	888.14
639.47	886.83
639.884	879.11
640.298	873.01
640.712	870.67
641.126	860.3
641.54	852.91
641.954	848.38
642.368	839
642.781	833.53
643.195	821.23
643.609	822.49
644.022	818.85
644.436	815.51
644.849	806.58
645.262	798.3
645.676	799.26
646.089	796.46
646.502	786.8
646.915	784.01
647.328	771.62
647.741	770.16
648.154	760.81
648.567	758.35
648.98	749.82
649.393	750.99
649.805	748.22
650.218	743.94
650.631	733.76
651.043	728.77
651.456	724.33
651.868	725.59
652.28	738.95
652.693	748.85
653.105	755.82
653.517	762.77
653.929	763.88
654.341	770.3
654.753	762.26
655.165	767.6
655.577	767.76
655.989	765.04
656.401	759.27
656.813	733.21
657.224	719.96
657.636	699.16
658.047	687.1
658.459	673.66
658.87	666.97
659.282	660.13
659.693	646.68
660.104	636.27
660.515	628.87
660.926	628.99
661.338	628.33
661.749	624.76
662.159	620.21
662.57	619.14
662.981	617.8
663.392	614.77
663.803	619.48
664.213	619.35
664.624	619.44
665.035	623.54
665.445	616.67
665.855	613.78
666.266	610.44
666.676	609.7
667.086	603.71
667.497	604.91
667.907	602.14
668.317	596.84
668.727	595.86
669.137	597.56
669.547	596.43
669.956	599.49
670.366	602.5
670.776	606.62
671.186	612.69
671.595	617.52
672.005	621.35
672.414	622.46
672.824	621.64
673.233	625.5
673.642	627.97
674.052	631.26
674.461	634.36
674.87	638.54
675.279	635.11
675.688	634.9
676.097	636.69
676.506	635.05
676.915	646.75
677.323	649.98
677.732	650.53
678.141	650.62
678.549	643.38
678.958	641.59
679.366	640.67
679.775	645.96
680.183	655.7
680.592	659.55
681	663.71
681.408	657.61
681.816	663.19
682.224	668.75
682.632	676.44
683.04	699
683.448	717.65
683.856	740.52
684.264	765.45
684.671	786.97
685.079	816.1
685.487	846.87
685.894	891.75
686.302	926.61
686.709	953.44
687.116	985.39
687.524	1011.75
687.931	1033.01
688.338	1049.93
688.745	1063.18
689.152	1080.9
689.559	1106.65
689.966	1134.15
690.373	1143.75
690.78	1169.72
691.187	1213.14
691.593	1246.93
692	1275.26
692.407	1319.89
692.813	1376.46
693.22	1422.82
693.626	1471.72
694.032	1512.15
694.439	1573.81
694.845	1622.58
695.251	1686.91
695.657	1744.57
696.063	1827.33
696.469	1893.33
696.875	1956.86
697.281	1998.56
697.687	2048.14
698.093	2091.08
698.498	2165.34
698.904	2223.93
699.31	2310.7
699.715	2372.84
700.12	2462.78
700.526	2493.59
700.931	2566.19
701.337	2624.22
701.742	2666.74
702.147	2752.53
702.552	2793.85
702.957	2859.81
703.362	2893.01
703.767	2931.69
704.172	2983.41
704.577	2956.72
704.981	3013.46
705.386	3042.19
705.791	3049.63
706.195	3132.31
706.6	3154.87
707.004	3241.97
707.408	3227.47
707.813	3265.51
708.217	3269.71
708.621	3286.41
709.025	3391.31
709.43	3403.41
709.834	3474.43
710.237	3554.28
710.641	3552.7
711.045	3588.75
711.449	3597.19
711.853	3638.82
712.256	3691.41
712.66	3743.3
713.064	3829.58
713.467	3883.65
713.87	4010.25
714.274	4071.37
714.677	4193.63
715.08	4367.12
715.484	4546.8
715.887	4762.39
716.29	4978.06
716.693	5204.12
717.096	5457.94
717.499	5605.26
717.901	5649.24
718.304	5689.94
718.707	5729.29
719.109	5640.84
719.512	5620.95
719.915	5497.59
720.317	5453.65
720.719	5509.16
721.122	5491.87
721.524	5452.96
721.926	5421.78
722.328	5533.2
722.731	5534.08
723.133	5574.19
723.535	5783.88
723.937	5817.23
724.338	5882.1
724.74	5932.7
725.142	5858.14
725.544	5865.18
725.945	5901.06
726.347	5908.04
726.748	5909.34
727.15	5931.59
727.551	5895.18
727.952	5874.7
728.354	5852.48
728.755	5858.13
729.156	5820.6
729.557	5833.25
729.958	5707.98
730.359	5654.69
730.76	5638.92
731.161	5582.46
731.562	5563.08
731.962	5574.58
732.363	5511.05
732.763	5448.08
733.164	5493.23
733.564	5427.78
733.965	5327.33
734.365	5296.15
734.766	5330.77
735.166	5292.9
735.566	5235.77
735.966	5211.07
736.366	5208.33
736.766	5146.97
737.166	5184.23
737.566	5142.09
737.966	5115.64
738.365	5160.6
738.765	5157.3
739.165	5079.98
739.564	5054.78
739.964	5107.39
740.363	5058.14
740.763	5056.3
741.162	5043.6
741.561	5012.08
741.96	4965.84
742.36	4990.49
742.759	4999.94
743.158	5043.46
743.557	5060.51
743.955	5105.7
744.354	5058.02
744.753	5123.06
745.152	5079.76
745.55	5143.35
745.949	5135.51
746.348	5134.69
746.746	5153.4
747.144	5111.1
747.543	5089.07
747.941	5144.57
748.339	5067.92
748.737	5058.34
749.136	5048.7
749.534	5121.27
749.932	5089.16
750.33	5120.13
750.727	5184
751.125	5159.88
751.523	5142.25
751.921	5189.11
752.318	5152.05
752.716	5217.29
753.113	5234.27
753.511	5260.76
753.908	5261
754.305	5240.33
754.703	5305.02
755.1	5367.87
755.497	5431.16
755.894	5640.27
756.291	5833.83
756.688	6194.26
757.085	6671.59
757.482	7343.55
757.878	8077.38
758.275	8742.57
758.672	9662.35
759.068	10405.77
759.465	11476.42
759.861	12844.25
760.258	14430.52
760.654	15254.37
761.05	15128.7
761.447	14440.62
761.843	13444.3
762.239	12417.62
762.635	11946.24
763.031	11501.07
763.427	10855.24
763.822	10177.17
764.218	9514.96
764.614	8645.54
765.01	8065.83
765.405	7685.43
765.801	7397.88
766.196	7034.51
766.592	6832.82
766.987	6493.42
767.382	6259.83
767.778	6160.62
768.173	6020.33
768.568	5940.67
768.963	5803.72
769.358	5820.74
769.753	5771.74
770.148	5678.84
770.542	5675.44
770.937	5640.93
771.332	5736.49
771.726	5757.61
772.121	5691.87
772.515	5746.59
772.91	5729.27
773.304	5807.55
773.699	5736.08
774.093	5793.43
774.487	5856.41
774.881	5903.53
775.275	5899
775.669	5855.98
776.063	5903.24
776.457	5944.22
776.851	5866.82
777.245	5859.14
777.638	5894.66
778.032	6018.14
778.425	5980.45
778.819	6023.66
779.212	5977.87
779.606	5932.24
779.999	5955.12
780.392	5933.9
780.786	6021.5
781.179	6042.97
781.572	6089.98
781.965	6104.05
782.358	6043.25
782.751	6105.49
783.143	6052.66
783.536	6132.48
783.929	6181.08
784.322	6302.14
784.714	6340.9
785.107	6331.03
785.499	6409.9
785.891	6383.15
786.284	6364.13
786.676	6520.6
787.068	6498.42
787.46	6557.34
787.852	6577.02
788.245	6671.25
788.636	6706.11
789.028	6776.2
789.42	6823.45
789.812	6830.28
790.204	6935.62
790.595	7043.51
790.987	6827.97
791.378	6847.8
791.77	6987.34
792.161	7135
792.553	7191.24
792.944	7068.69
793.335	6997.38
793.726	7075.93
794.117	7169.58
794.508	7317.71
794.899	7281.83
795.29	7433.09
795.681	7497.23
796.072	7341.19
796.463	7137.02
796.853	7143.39
797.244	7309.98
797.634	7342.26
798.025	7338.25
798.415	7354.39
798.806	7448.63
799.196	7537.44
799.586	7591.95
799.976	7549.72
800.366	7798.54
800.756	8059.15
801.146	8025.95
801.536	8059.94
801.926	8142.99
802.316	8170.92
802.706	8247.41
803.095	8115.02
803.485	8221.64
803.874	8263.63
804.264	8543.69
804.653	8514.67
805.043	8668.84
805.432	8781.54
805.821	8776.53
806.21	8793.73
806.599	8920.81
806.988	8966.19
807.377	9081.91
807.766	9229.11
808.155	9535.45
808.544	9253.51
808.933	9268.08
809.321	9245.37
809.71	9559.67
810.098	9733.74
810.487	10231.57
810.875	10749.36
811.264	10770.27
811.652	11072.72
812.04	11227.49
812.428	11400.38
812.816	12221.73
813.204	12664.01
813.592	13255.9
813.98	13617.57
814.368	13506.16
814.756	14018.63
815.144	13928.34
815.531	14428.5
815.919	14355.35
816.306	14677.67
816.694	14336.23
817.081	14382.35
817.469	14755.19
817.856	14753.7
818.243	15045.83
818.63	15477.33
819.017	15022.26
819.404	15089.39
819.791	15496.71
820.178	16163.47
820.565	16437.96
820.952	17438.74
821.339	16904.93
821.725	17101.58
822.112	16297.66
822.498	16254.97
822.885	16392.08
823.271	16297.92
823.657	16745.51
824.044	16760.14
824.43	16833.11
824.816	16788.23
825.202	16327.74
825.588	17431.61
825.974	17446.02
826.36	18006.82
826.746	18042.12
827.132	18429.89
827.517	18399.79
827.903	17556.84
828.289	17593.04
828.674	16754.56
829.06	16644.36
829.445	17070.86
829.83	17443.39
830.216	17962.81
830.601	18357.11
830.986	17923.04
831.371	17774.18
831.756	18367.93
832.141	17909.33
832.526	17906.67
832.911	18212.52
833.295	18095.29
833.68	18609.87
834.065	17956.83
834.449	16980.02
834.834	16901.18
835.218	16887.32
835.603	17256.25
835.987	17039.28
836.371	17933.09
836.755	17826.86
837.139	18260.99
837.524	18520.21
837.908	18324.17
838.291	18387.28
838.675	18460.87
839.059	18683.86
839.443	18683.83
839.827	18433.03
840.21	18949.04
840.594	18794.01
840.977	19015.9
841.361	18998.28
841.744	19405.56
842.127	19238.15
842.511	19500.75
842.894	20145.04
843.277	20558.8
843.66	21145.78
844.043	21234.91
844.426	20374.91
844.809	20048.75
845.191	20086.06
845.574	19594.66
845.957	19204.48
846.339	19091.11
846.722	18534.45
847.104	18604.08
847.487	18422.9
847.869	18430.06
848.252	18739.09
848.634	19087.26
849.016	19366.57
849.398	19494.03
849.78	20405.14
850.162	20414.57
850.544	20859.84
850.926	21536.07
851.307	21441.53
851.689	21744.4
852.071	22237.36
852.452	22580.45
852.834	22568.6
853.215	22997.26
853.597	23165
853.978	23480.72
854.359	23960.57
854.741	22892.5
855.122	22778.59
855.503	22462.09
855.884	22598.51
856.265	22518.66
856.646	22643.34
857.026	22206.7
857.407	22134.82
857.788	22306.56
858.169	22622.12
858.549	21712.39
858.93	22376.28
859.31	22424.1
859.69	22650.83
860.071	22207.83
860.451	21976.26
860.831	21178.84
861.211	22425.61
861.591	23003.99
861.971	22975.04
862.351	23179.22
862.731	23594.54
863.111	23872.7
863.491	24237.83
863.87	25176.29
864.25	25567.21
864.629	25136.33
865.009	25681.55
865.388	26590.55
865.768	28508.73
866.147	28395.16
866.526	26815.92
866.905	27135.84
867.284	28668.92
867.663	27218.6
868.042	26097.3
868.421	26005.75
868.8	26444.73
869.179	26710.01
869.558	25158.63
869.936	23195.26
870.315	23625.13
870.693	24197.18
871.072	26088.62
871.45	24852.73
871.828	25167.37
872.207	26461.12
872.585	26061.37
872.963	26763.83
873.341	25830.44
873.719	25521.21
874.097	25202.12
874.475	25664.06
874.853	26258.28
875.23	25173.56
875.608	26221.71
875.986	28350.38
876.363	27100.66
876.741	27927.77
877.118	27227.62
877.495	28578.8
877.873	29064.73
878.25	30591.52
878.627	29342.84
879.004	29756.49
879.381	29614.74
879.758	28839.12
880.135	26867.14
880.512	28408.31
880.889	27667.85
881.265	27400.3
881.642	27173.96
882.019	27634.92
882.395	27071.88
882.772	28142.92
883.148	26911.98
883.524	26800.03
883.901	26640.16
884.277	27029.95
884.653	26848.92
885.029	27605.41
885.405	30555.45
885.781	30319.25
886.157	29052.87
886.532	29402.51
886.908	29381.7
887.284	32672.44
887.659	33744.49
888.035	34804.44
888.411	35708.8
888.786	36200.22
889.161	37461.95
889.537	36779.24
889.912	37962.86
890.287	37937.61
890.662	38916.77
891.037	38233.85
891.412	35663.7
891.787	35319.34
892.162	34080.72
892.536	34877.3
892.911	33569.99
893.286	32865.67
893.66	31531.58
894.035	32339.36
894.409	35233.1
894.784	33820.86
895.158	34367.02
895.532	36404.38
895.906	37378.95
896.281	38263.14
896.655	37661.89
897.029	43036.13
897.402	44825.93
897.776	49904.88
898.15	49727.96
898.524	49175.59
898.898	49827.54
899.271	55786.94
899.645	48299.9
900.018	46419.35
900.392	48124.21
900.765	48492.9
901.138	44886.73
901.511	44201.84
901.884	40590.2
902.258	37430.09
902.631	38664.89
903.003	44505.06
903.376	40177.02
903.749	45046.5
904.122	48200.34
904.495	53090.25
904.867	53771.06
905.24	46639.4
905.612	43401.81
905.985	44383.68
906.357	46413.05
906.729	44302.01
907.102	37829.37
907.474	36377.93
907.846	36611.33
908.218	36112.78
908.59	31897.71
908.962	30837.2
909.334	33235.64
909.705	34909.39
910.077	33889.58
910.449	35261.09
910.82	36246.32
911.192	39897.95
911.563	41427.95
911.935	44341.74
912.306	44406.83
912.677	45863.65
913.048	45412.61
913.419	49235.25
913.79	49521.89
914.161	53085.35
914.532	50728.96
914.903	46594.18
915.274	44224.6
915.645	43586.3
916.015	38345.77
916.386	36562.57
916.756	38919.36
917.127	40155.8
917.497	35891.31
917.868	39061.86
918.238	37120.79
918.608	38212.05
918.978	39018.46
919.348	41325.45
919.718	42674.16
920.088	41129.87
920.458	42717.39
920.828	44914.44
921.198	42554.56
921.567	45444.39
921.937	35173.87
922.306	35529.6
922.676	38294.65
923.045	31938.63
923.415	30331.02
923.784	27639.06
924.153	28398.11
924.522	28378.97
924.891	26682.53
925.26	28581.43
925.629	27899.21
925.998	32073.84
926.367	31293.76
926.736	29801.89
927.104	35494.03
927.473	38178.12
927.842	46077.77
928.21	45638.19
928.578	47932.61
928.947	45329.38
929.315	45609.78
929.683	53498.26
930.051	53958.57
930.42	62633.72
930.788	53575.95
931.156	53195.94
931.523	49826.74
931.891	46056.89
932.259	44220.65
932.627	51253.69
932.994	72540.89
933.362	59980.65
933.729	52060.2
934.097	49812.52
934.464	42155.1
934.831	48593.31
935.199	47899.65
935.566	46476.88
935.933	47136.65
936.3	57131.76
936.667	44487.91
937.034	40097.56
937.401	39617.79
937.767	34213.24
938.134	30454.78
938.501	42954.91
938.867	45780.01
939.234	77367.43
939.6	66023.54
939.967	72618.02
940.333	48590.81
940.699	41397.66
941.065	33262.75
941.431	43628.35
941.798	42053.23
942.163	55243.45
942.529	34537.66
942.895	31796.95
943.261	20578.34
943.627	27005.2
943.992	23684.19
944.358	23725.28
944.723	23795.68
945.089	23181.13
945.454	21412.11
945.82	22879.61
946.185	21998.37
946.55	25478.41
946.915	22870.84
947.28	26814.12
947.645	23580.01
948.01	21748.42
948.375	22685.33
948.74	27231.53
949.104	31750.15
949.469	45900.47
949.834	81107.67
950.198	76773.92
950.562	46008.04
950.927	38283.01
951.291	46100.45
951.655	39314.89
952.02	36931.92
952.384	27931.5
952.748	24280.15
953.112	23662.69
953.476	20587.67
953.839	19029.36
954.203	18827.08
954.567	23562.22
954.931	37162.98
955.294	31785.84
955.658	31959.58
956.021	54335.44
956.385	92086.12
956.748	136021.77
957.111	211271.66
957.474	237023.45
957.837	267030.87
958.2	202262.46
958.563	72778.62
958.926	49195.17
959.289	74652.8
959.652	83439.78
960.015	62638.43
960.377	89927.98
960.74	102517.05
961.102	176949.53
961.465	189909.42
961.827	101508.49
962.189	194879.4
962.552	135068.55
962.914	108305.46
963.276	70253.29
963.638	58022.22
964	57424.23
964.362	38781.25
964.724	37513.52
965.085	26739.86
965.447	21933.47
965.809	25051.34
966.17	25104.43
966.532	27154.84
966.893	24910.13
967.255	22678.14
967.616	26770.06
967.977	21428.56
968.338	23421.96
968.699	19227.16
969.061	19248.02
969.421	19363.27
969.782	21727.53
970.143	18320
970.504	18947.42
970.865	21532.61
971.225	21998.42
971.586	21527.06
971.946	30724.02
972.307	26662.17
972.667	34896
973.027	35906.94
973.388	43612.8
973.748	29652.3
974.108	32271.17
974.468	43744.91
974.828	33716.71
975.188	25991.54
975.548	23876.86
975.907	20047.77
976.267	22504.06
976.627	18897.31
976.986	19600.54
977.346	18672.08
977.705	17960.75
978.064	16379.33
978.424	13614.6
978.783	14076.11
979.142	16050.1
979.501	15352.19
979.86	16216.15
980.219	15594.36
980.578	20126.73
980.937	22541.91
981.296	20089.48
981.654	20678.29
982.013	32195.97
982.371	41854.87
982.73	39094.87
983.088	44277.41
983.447	47271.47
983.805	67610.96
984.163	141480.3
984.521	156883.87
984.879	229862.42
985.237	-373953.68
985.595	360401.07
985.953	89571.4
986.311	51699.46
986.669	30015.46
987.026	25896.21
987.384	34862.57
987.741	36023.98
988.099	25712.48
988.456	20491.69
988.814	19186.69
989.171	16681.1
989.528	16470.17
989.885	17390.61
990.242	13755.19
990.599	17142.81
990.956	14009.76
991.313	9807.31
991.67	8046.35
992.027	8523.29
992.383	7583.4
992.74	6645.47
993.096	6961.26
993.453	7218.51
993.809	7478.93
994.165	9974.48
994.522	9139.62
994.878	10092.95
995.234	12643.31
995.59	12469.97
995.946	11825.2
996.302	13475.73
996.658	15606.76
997.013	17187.77
997.369	20343.86
997.725	25984.28
998.08	16820.24
998.436	25945.12
998.791	35775.98
999.147	35746.71
999.502	39027.41
999.857	28427.8
1000.212	46285.87
1000.567	65835.57
1000.922	38003.25
1001.277	24144.91
1001.632	17943.95
1001.987	23119.76
1002.342	16577.66
1002.696	13268.23
1003.051	10565.06
1003.406	12786.14
1003.76	12713.07
1004.114	12560.49
1004.469	10564.58
1004.823	8739.89
1005.177	9453.61
1005.531	7489.32
1005.885	6640.2
1006.239	7499.94
1006.593	9384.1
1006.947	12568.29
1007.301	9451.44
1007.655	10293.59
1008.008	7556.57
1008.362	8487.85
1008.715	12157.56
1009.069	11024.42
1009.422	16547.99
1009.776	33173.47
1010.129	22002.17
1010.482	18416.99
1010.835	15613.13
1011.188	32442.78
1011.541	30523.11
1011.894	-186250.75
1012.247	547912.4
1012.6	37151.6
1012.952	23429.65
1013.305	12137.2
1013.657	8728.02
1014.01	8246.03
1014.362	6802.31
1014.715	6024.64
1015.067	5248.01
1015.419	5138.79
1015.771	4562.13
1016.123	4057.98
1016.475	4178.83
1016.827	4458.2
1017.179	4787.02
1017.531	4849.91
1017.883	4971.12
1018.234	4785.97
1018.586	6042.21
1018.938	6365.23
1019.289	8766.79
1019.64	10063.81
1019.992	9401.25
1020.343	8592.15
1020.694	6779.17
1021.045	5968.49
1021.396	6801.81
1021.747	7286.99
1022.098	8772.23
1022.449	6368.79
1022.8	5953.5
1023.151	4154.6
1023.501	3660.63
1023.852	3973.24
1024.202	4123.01
1024.553	4542.08
1024.903	4439.56
1025.253	3799.87
1025.604	3415.54
1025.954	4237.12
1026.304	5169.33
1026.654	6009.36
1027.004	8845.49
1027.354	14359.89
1027.703	13493.84
1028.053	17767.03
1028.403	25853.81
1028.753	37692.04
1029.102	51416.88
1029.452	265667.51
1029.801	11474.03
1030.15	7427.91
1030.499	6317.11
897.758	2001.26
901.051	1929.96
904.343	1963.75
907.636	1974.01
910.928	2035.05
914.22	1958.76
917.511	1962.67
920.803	2007.49
924.094	1996.46
927.384	2007.03
930.675	1970.76
933.965	1939.43
937.255	1976.32
940.544	1949.97
943.834	1934.03
947.123	1879.59
950.411	1964.27
953.7	1947.53
956.988	1936.93
960.276	1874.12
963.563	1912.86
966.851	1927.06
970.138	1964.74
973.424	1965.62
976.711	1918.26
979.997	1973.7
983.283	2011.48
986.568	1952.06
989.853	1935.67
993.138	1959.04
996.423	2047.21
999.708	2014.34
1002.992	2044.85
1006.275	1954.91
1009.559	1957.35
1012.842	2051.29
1016.125	2009.35
1019.408	1991.43
1022.69	2038.76
1025.972	2075.35
1029.254	2055.47
1032.536	2025.71
1035.817	2028.01
1039.098	1997.83
1042.379	2047.43
1045.659	2074.71
1048.939	2026.78
1052.219	2029.72
1055.498	2016.66
1058.778	2015.8
1062.057	1990.45
1065.335	2013.99
1068.614	2023.36
1071.892	2025.34
1075.17	2071.55
1078.447	2077.73
1081.724	2074.74
1085.001	2098.92
1088.278	2078.45
1091.554	2083.52
1094.83	2078.31
1098.106	2116.95
1101.382	2142.2
1104.657	2141.15
1107.932	2142.15
1111.206	2124.02
1114.481	2074.68
1117.755	2073.64
1121.029	2070.22
1124.302	2131.69
1127.575	2102.29
1130.848	2101.83
1134.121	2072.69
1137.393	2041.32
1140.665	2094.21
1143.937	2075.38
1147.208	2020.47
1150.48	2085.77
1153.75	2078.56
1157.021	2067.38
1160.291	2046.92
1163.561	2101.29
1166.831	2062.63
1170.101	2089.25
1173.37	2042.56
1176.639	2006.37
1179.907	2043.97
1183.176	2072.42
1186.444	2074.82
1189.711	2094.54
1192.979	2125.01
1196.246	2083.5
1199.513	2093.55
1202.78	2102.23
1206.046	2110.9
1209.312	2139.79
1212.578	2154.93
1215.843	2127.82
1219.108	2093.33
1222.373	2113.5
1225.638	2091.04
1228.902	2085.82
1232.166	2036.82
1235.43	2029.04
1238.693	2054.78
1241.956	2045.46
1245.219	2097.8
1248.482	2075.31
1251.744	2073.69
1255.006	2185.99
1258.268	2132.07
1261.529	2092.51
1264.79	2089.96
1268.051	2185.42
1271.312	2192.78
1274.572	2164.26
1277.832	2150.72
1281.092	2128.34
1284.351	2126.36
1287.61	2113.29
1290.869	2054.87
1294.128	2060.08
1297.386	2091.96
1300.644	2087.15
1303.902	2099.62
1307.159	1970.98
1310.416	2020.48
1313.673	2052.01
1316.93	2050.6
1320.186	2078.57
1323.442	2106.78
1326.697	2112.87
1329.953	2078.56
1333.208	2120.67
1336.463	2090.26
1339.717	2056.16
1342.972	2154.57
1346.226	2125.07
1349.479	2078.8
1352.733	2065.47
1355.986	2061.49
1359.238	2044.96
1362.491	2050.19
1365.743	2050.07
1368.995	2038.51
1372.247	2053.7
1375.498	2071.52
1378.749	2120.55
1382	2067.59
1385.251	2098.04
1388.501	2046.92
1391.751	2055.5
1395	2020.41
1398.25	2043.44
1401.499	2070.3
1404.748	2027.94
1407.996	2002.81
1411.244	1993.53
1414.492	1980.5
1417.74	1968.47
1420.987	1969.49
1424.234	2030.55
1427.481	1986.61
1430.728	2041.97
1433.974	2017.28
1437.22	2011.89
1440.465	2006.32
1443.711	2014.84
1446.956	2034.12
1450.201	2000.54
1453.445	2042.64
1456.689	2037.25
1459.933	2045
1463.177	2088.68
1466.42	2063.13
1469.663	2048.83
1472.906	2070.72
1476.148	2118.35
1479.391	2074.59
1482.633	2053.93
1485.874	2084.31
1489.115	2094.44
1492.356	2072.48
1495.597	2054.89
1498.838	2044.25
1502.078	2034.5
1505.318	2012.83
1508.557	2042.09
1511.797	2039.53
1515.036	2096.43
1518.274	2060.25
1521.513	2007.28
1524.751	2017.59
1527.989	2042.76
1531.227	2064.26
1534.464	2085.48
1537.701	2073.74
1540.938	2083.6
1544.174	2032.33
1547.41	2019.87
1550.646	2056.92
1553.882	2111.14
1557.117	2171.07
1560.352	2176.89
1563.587	2144.38
1566.821	2111.99
1570.055	2120.9
1573.289	2105.5
1576.523	2155.64
1579.756	2175.24
1582.989	2195.87
1586.222	2158.41
1589.454	2182.02
1592.686	2167.64
1595.918	2197.23
1599.15	2197.47
1602.381	2232.43
1605.612	2222.81
1608.843	2312.39
1612.073	2240.19
1615.303	2228.65
1618.533	2230.43
1621.762	2226.08
1624.992	2200.41
1628.221	2209.02
1631.449	2197.45
1634.678	2211.46
1637.906	2183.75
1641.134	2206.6
1644.361	2175.29
1647.588	2165.32
1650.815	2187.84
1654.042	2147.37
1657.269	2173.86
1660.495	2161.37
1663.72	2134.67
1666.946	2104.96
1670.171	2090.74
1673.396	2064.94
1676.621	2046.28
1679.845	2035.22
1683.069	2037.3
1686.293	2064.01
1689.517	2058.5
1692.74	2017
1695.963	2036.21
1699.185	2085.51
1702.408	2058.08
1705.63	2083.4
1708.852	2101.9
1712.073	2071.48
1715.294	2090.63
1718.515	2128.36
1721.736	2091.39
1724.956	2066.98
1728.176	2087.25
1731.396	2106.93
1734.616	2092.19
1737.835	2129.91
1741.054	2098.81
1744.272	2091.34
1747.491	2133.45
1750.709	2148.67
1753.927	2112.59
1757.144	2127.14
1760.361	2192.05
1763.578	2161.21
1766.795	2114.56
1770.011	2099.36
1773.227	2120.24
1776.443	2160.93
1779.658	2202.81
1782.874	2141.37
1786.089	2136.9
1789.303	2139.05
1792.518	2135.57
1795.732	2121.95
1798.945	2138.41
1802.159	2176.98
1805.372	2131.15
1808.585	2127.9
1811.797	2129.78
1815.01	2141.08
1818.222	2170.95
1821.434	2121.98
1824.645	2158.7
1827.856	2174.22
1831.067	2201
1834.278	2135.43
1837.488	2119.65
1840.698	2230.14
1843.908	2178.16
1847.117	2147.8
1850.326	2088.57
1853.535	2132.27
1856.744	2173.98
1859.952	2101.07
1863.16	2102.77
1866.368	2115.02
1869.575	2225.91
1872.782	2108.89
1875.989	2044.17
1879.196	2079.11
1882.402	2071.52
1885.608	2097.9
1888.814	2053.01
1892.019	1966.43
1895.224	2015.01
1898.429	1975.8
1901.634	1959.23
1904.838	1935.38
1908.042	1993.22
1911.246	2004.09
1914.449	1977.41
1917.652	1954.72
1920.855	1936.72
1924.058	1951.93
1927.26	1998.27
1930.462	2015.72
1933.664	2059.41
1936.865	2006.6
1940.066	2023.53
1943.267	1968.47
1946.467	1976.41
1949.668	1992.16
1952.868	2060.83
1956.067	2055.35
1959.267	2002.56
1962.466	2023.29
1965.665	2006.95
1968.863	1998.67
1972.061	1998.85
1975.259	1992.18
1978.457	2062.49
1981.654	2026.67
1984.852	2031.38
1988.048	1990.87
1991.245	1974.91
1994.441	2062.13
1997.637	2011.57
2000.833	1997.13
2004.028	2030.71
2007.223	2089.56
2010.418	2083.69
2013.613	2030.97
2016.807	2030.05
2020.001	2020.72
2023.194	2038.68
2026.388	2026.29
2029.581	1969.95
2032.774	2038.4
2035.966	2048.87
2039.158	2001.97
2042.35	2021.44
2045.542	1947.2
2048.733	2024.38
2051.924	2008.28
2055.115	2020.56
2058.306	1990.78
2061.496	2044.41
2064.686	2088.91
2067.875	1993.27
2071.065	1990.77
2074.254	2006.84
2077.442	1963.89
2080.631	2041.82
2083.819	1989.13
2087.007	1984.28
2090.195	1972.58
2093.382	1981.88
2096.569	1967.05
2099.756	1935.35
2102.942	1990.57
2106.128	2008.31
2109.314	1995.25
2112.5	1987.54
2115.685	1952.41
2118.87	1959.97
2122.055	2015.49
2125.239	2002.5
2128.424	1995.79
2131.608	2039.06
2134.791	2021.63
2137.974	2051.26
2141.157	2042.41
2144.34	2019.79
2147.523	2003.21
2150.705	2033.91
2153.887	1996.05
2157.068	1980.04
2160.25	1950.87
2163.431	1969.46
2166.611	1947.81
2169.792	1972.35
2172.972	1891.2
2176.152	1930.69
2179.331	1956.1
2182.511	1964.37
2185.69	1983.49
2188.868	1991.57
2192.047	2018.04
2195.225	2045.16
2198.403	1991.32
2201.58	1975.84
2204.758	1958.37
2207.935	2029.68
2211.111	1957.92
2214.288	1946.24
2217.464	1977.94
2220.64	1927.3
2223.815	1973.74
2226.991	1912.33
2230.166	1926.57
2233.34	1973.18
2236.515	1984.72
2239.689	2044.84
2242.863	1995.96
2246.036	2044.2
2249.209	2024.45
2252.382	2039.2
2255.555	2054.79
2258.727	2011.16
2261.9	2034.31
2265.071	2026.85
2268.243	2023.13
2271.414	1975.94
2274.585	1967.86
2277.756	2026.24
2280.926	1985.67
2284.096	2009.7
2287.266	1946.53
2290.436	1994.01
2293.605	2008.56
2296.774	2049.26
2299.942	2050.31
2303.111	2063.53
2306.279	2116.63
2309.447	2098.7
2312.614	2069.2
2315.781	2093.14
2318.948	2072.71
2322.115	2110.74
2325.281	2008.9
2328.447	2012.07
2331.613	1982.54
2334.779	1978.53
2337.944	1971.71
2341.109	1974.93
2344.274	1966.34
2347.438	1934.94
2350.602	1954.31
2353.766	1958.8
2356.929	1948.93
2360.092	1984.49
2363.255	1963.91
2366.418	1938.67
2369.58	1986.39
2372.742	1897.8
2375.904	1882.47
2379.066	1870.57
2382.227	1894.87
2385.388	1858.35
2388.548	1817.92
2391.709	1854.65
2394.869	1847.34
2398.029	1884.59
2401.188	1876.28
2404.347	1852.38
2407.506	1905.72
2410.665	1950.04
2413.823	1929.73
2416.981	1914.91
2420.139	1925.66
2423.296	1964.19
2426.453	1936.73
2429.61	1954.62
2432.767	1939.92
2435.923	1981.09
2439.079	1919.44
2442.235	1945.79
2445.391	1894.53
2448.546	1938.97
2451.701	1968.29
2454.855	1971.01
2458.009	1992.77
2461.163	1976.55
2464.317	1956.74
2467.471	1978.94
2470.624	2002.67
2473.777	2001.14
2476.929	2021.46
2480.082	2042.92
2483.234	2021.36
2486.385	1958.5
2489.537	1952.53
2492.688	1951.58
2495.839	1966.83
2498.989	1981.03
2502.14	1970.23
2505.29	1967.05
2508.439	1986.95
2511.589	1934.02
2514.738	1929.74
2517.887	1948.61
2521.035	2028.83
2524.183	1981.59
2527.331	1969.65
2530.479	1972.06
2533.627	1971.24
