Data from C_1_DEC_OH_4N_Splice17_11-55-58-320.txt Node
Date: Sat Mar 14 11:55:58 EDT 2020
User: sa697716
Spectrometer: FLMS03696
Trigger mode: 0
Integration Time (sec): 3.180400E-1
Scans to average: 20
Electric dark correction enabled: true
Nonlinearity correction enabled: true
Boxcar width: 5
XAxis mode: Wavelengths
Number of Pixels in Spectrum: 2048
>>>>>Begin Spectral Data<<<<<
187.83	-249491.76
188.298	1847.51
188.766	1011.61
189.233	903.05
189.701	1319.8
190.169	1820.42
190.636	704.5
191.104	587.76
191.571	102.97
192.039	-32.66
192.506	55.94
192.974	481.62
193.441	-579.98
193.908	-45.55
194.375	-20.9
194.842	84.82
195.31	190.76
195.777	164.69
196.244	353.04
196.711	403.49
197.177	532.34
197.644	771.4
198.111	1313.33
198.578	1799.95
199.045	1436.34
199.511	2360.16
199.978	2740.31
200.445	2352.05
200.911	2633.54
201.378	2938.59
201.844	2681.39
202.31	4549.99
202.777	4689.84
203.243	2600.58
203.709	2497.11
204.176	2980.06
204.642	2452.14
205.108	2294.26
205.574	1861.15
206.04	1693.88
206.506	1596.22
206.972	1508.84
207.438	1468.92
207.903	1682.12
208.369	1496.03
208.835	1487.57
209.301	1573.21
209.766	1608.53
210.232	1588.99
210.697	1960.61
211.163	2409.17
211.628	3647.95
212.094	3055.64
212.559	3738.12
213.024	2337.18
213.49	2834.14
213.955	2763.21
214.42	2675.6
214.885	2497.89
215.35	2405.13
215.815	2317.23
216.28	2466.24
216.745	2004.27
217.21	2177.34
217.675	2002.56
218.14	2252.14
218.604	2518.39
219.069	2898.79
219.534	3059.4
219.998	3593.05
220.463	4378.09
220.927	5418.12
221.392	5122.51
221.856	5199.27
222.32	6560.56
222.785	8149.85
223.249	10269.51
223.713	11498.3
224.177	11509.84
224.642	14749.31
225.106	18130.17
225.57	19821.44
226.034	14725.69
226.497	22385.89
226.961	20224.55
227.425	23585.41
227.889	26097.39
228.353	26109.66
228.816	53801.67
229.28	51488.73
229.744	43500.67
230.207	26410.19
230.671	25949.71
231.134	42983
231.597	49610.75
232.061	49631.33
232.524	48298.99
232.987	33329.4
233.45	30030.8
233.914	26968.33
234.377	27627.26
234.84	25259.43
235.303	29800.23
235.766	33274.95
236.229	34323.85
236.691	21608.5
237.154	24269.27
237.617	18264.92
238.08	18671.85
238.542	21850.35
239.005	15603.81
239.468	15487.21
239.93	14596.89
240.393	13270.25
240.855	11633.36
241.317	11914.35
241.78	14501.62
242.242	14976.41
242.704	16180.1
243.166	14097.03
243.629	12769.15
244.091	14717.6
244.553	16135.75
245.015	17375.57
245.477	22454.55
245.939	32947.34
246.4	34943.65
246.862	33942.23
247.324	32018.75
247.786	35857
248.247	46997.32
248.709	48623.57
249.17	36375.04
249.632	34272.17
250.093	39677.29
250.555	34273.09
251.016	20917.7
251.477	19868.9
251.939	21470.2
252.4	22524.44
252.861	26794.86
253.322	24927.26
253.783	29677.99
254.244	38508.96
254.705	30359.46
255.166	27009.57
255.627	26606.96
256.088	37508.43
256.549	39850.96
257.009	34268.96
257.47	41570.81
257.931	33851.23
258.391	25385.36
258.852	26157.96
259.312	27437.94
259.773	33901.33
260.233	28639.51
260.694	24152.82
261.154	27429.31
261.614	22040.11
262.074	19753.29
262.534	20564.75
262.994	19396.68
263.455	25849.66
263.915	21811.85
264.374	20551.64
264.834	22441.88
265.294	24909.23
265.754	25846.23
266.214	24467.59
266.673	22938.84
267.133	28947.56
267.593	28710.44
268.052	35111.7
268.512	30543.64
268.971	36825.84
269.431	40392.35
269.89	36235.37
270.349	54354.71
270.809	60619.06
271.268	54570.2
271.727	122393.84
272.186	79335.93
272.645	59533.06
273.104	42986.47
273.563	62287.82
274.022	49015.17
274.481	41732.67
274.94	32137.22
275.399	23886.74
275.857	27845.6
276.316	37626.58
276.775	33496.52
277.233	33012.67
277.692	30893.63
278.15	34955.27
278.609	35976.35
279.067	33323.2
279.525	30951.91
279.984	39968.53
280.442	48052.64
280.9	47375.74
281.358	31187.66
281.816	29091.17
282.274	28468.27
282.732	29438.78
283.19	29605.29
283.648	25565.1
284.106	27237.4
284.564	27711.31
285.021	25712.4
285.479	19169.48
285.937	17412.77
286.394	15290.63
286.852	15716.1
287.309	16517.04
287.767	15953.98
288.224	15171.17
288.682	16632.48
289.139	18243.51
289.596	16684.17
290.053	17330.42
290.511	21857.72
290.968	26520.75
291.425	36002.77
291.882	29985.93
292.339	26124.86
292.796	25945.35
293.252	24465.66
293.709	19451.09
294.166	17428.1
294.623	19266.94
295.079	18478.16
295.536	18554.84
295.992	16836.46
296.449	16643.59
296.905	17303.95
297.362	16574.61
297.818	17438.52
298.274	18074.99
298.731	18404.44
299.187	18223
299.643	19561.89
300.099	23672.51
300.555	25980.87
301.011	21749.42
301.467	20964.84
301.923	24532.68
302.379	23993.77
302.835	23565.98
303.291	23621.17
303.746	26916.32
304.202	33985.54
304.658	34166.02
305.113	23001.73
305.569	22535.19
306.024	24002.71
306.479	22833.24
306.935	19251.62
307.39	21002.23
307.845	19399.04
308.301	19514.77
308.756	19012.42
309.211	18329.85
309.666	18748.21
310.121	23260.25
310.576	23605.32
311.031	23419.82
311.486	26856.23
311.94	26812.08
312.395	35832.73
312.85	67283.02
313.305	330246.39
313.759	1708023.59
314.214	123671.79
314.668	98151.37
315.123	82458
315.577	29579.95
316.032	26305.75
316.486	32920.6
316.94	25992.12
317.394	18114.12
317.849	14067.53
318.303	13321.71
318.757	12579.56
319.211	13907.87
319.665	12170.52
320.119	12338.11
320.572	17674.41
321.026	16502.82
321.48	13753.13
321.934	14995.5
322.387	15008.91
322.841	16218.71
323.295	14555.05
323.748	16762.36
324.202	17003.99
324.655	20405.57
325.108	28432.3
325.562	20100.16
326.015	23922.17
326.468	18078.47
326.921	20197.21
327.374	18824.52
327.827	19603.1
328.28	22204.86
328.733	14874.83
329.186	13074.9
329.639	12459.02
330.092	10519.97
330.545	10012.94
330.997	10079.01
331.45	11003.5
331.903	12905.39
332.355	22212.34
332.808	21563.63
333.26	17803.76
333.713	19320.41
334.165	19454.94
334.617	25987.41
335.069	20970.25
335.522	37918.14
335.974	42004.03
336.426	38315.39
336.878	26506.02
337.33	13457.63
337.782	13158.58
338.234	16476.95
338.686	19698.97
339.137	23313.57
339.589	21921.39
340.041	17203.53
340.493	14782.17
340.944	15139.69
341.396	16323
341.847	13728.62
342.299	16192.01
342.75	19762.19
343.201	17249.22
343.653	19850.66
344.104	24424.83
344.555	19250.45
345.006	29932.65
345.457	22984.8
345.908	18268.75
346.359	17210.75
346.81	14034.79
347.261	14784.78
347.712	14546.49
348.163	15602
348.613	15767.41
349.064	14732.27
349.515	12892.9
349.965	13238.12
350.416	15904.94
350.866	17456.47
351.317	19730.21
351.767	32641.64
352.217	41191.25
352.668	34236.59
353.118	31391.2
353.568	30255.97
354.018	23933.33
354.468	25241.81
354.918	18084.71
355.368	15787.01
355.818	22265.62
356.268	63965.87
356.718	267998.05
357.168	66696.53
357.617	33447.74
358.067	37143.87
358.517	34858.63
358.966	40795.56
359.416	45819.74
359.865	49614.77
360.315	59144.15
360.764	27652.94
361.213	15515.38
361.663	14670.05
362.112	18130.26
362.561	29215.49
363.01	22051.08
363.459	18551.27
363.908	20082.43
364.357	17020.93
364.806	28654.56
365.255	19713.08
365.703	18024.66
366.152	18054.65
366.601	14659.03
367.05	11898.57
367.498	10834.3
367.947	11335.13
368.395	11771.78
368.844	10431.85
369.292	12572.21
369.74	8703.1
370.189	13325.38
370.637	15628.52
371.085	13452.97
371.533	16347.05
371.981	15730.72
372.429	15002.72
372.877	15593.06
373.325	13058.66
373.773	13322.32
374.221	11880.99
374.669	14727.42
375.116	12715.79
375.564	12810.55
376.012	14329.74
376.459	11819.88
376.907	14135.93
377.354	17066.65
377.801	15911.17
378.249	18296.3
378.696	23268.92
379.143	28125.69
379.591	29942.42
380.038	50802.98
380.485	36682.8
380.932	39574.56
381.379	36250.65
381.826	26686.82
382.273	18945.96
382.72	16574.97
383.166	16158.08
383.613	10521.44
384.06	9490.67
384.506	10989.34
384.953	8039.14
385.4	8101.92
385.846	7106.54
386.292	6917.47
386.739	6764.07
387.185	6695.91
387.631	6692.87
388.078	6491.28
388.524	6940.63
388.97	6391.85
389.416	5333.42
389.862	5672.22
390.308	5373.39
390.754	5450.62
391.2	5911.42
391.645	6051.04
392.091	5787.99
392.537	5586.35
392.983	5587.86
393.428	5478.19
393.874	5873.13
394.319	5884.49
394.765	5588.62
395.21	5725.16
395.655	5345.2
396.101	4993.06
396.546	4489.58
396.991	4509.87
397.436	4184.52
397.881	4037.65
398.326	3823.26
398.771	3618.62
399.216	3160.75
399.661	2835.66
400.106	2826.16
400.551	2892.57
400.995	2595.39
401.44	2566.2
401.885	2411.98
402.329	2436.67
402.774	2332.61
403.218	2256.15
403.663	2165.55
404.107	2218
404.551	2231.81
404.995	2046.37
405.44	1968.44
405.884	1994.29
406.328	1925.27
406.772	1914.56
407.216	1736.64
407.66	1673.36
408.104	1584
408.547	1478.42
408.991	1428.9
409.435	1371.25
409.879	1347.45
410.322	1329.65
410.766	1279.57
411.209	1217.9
411.653	1166.08
412.096	1143.49
412.54	1142.5
412.983	1133.54
413.426	1136.91
413.869	1134.23
414.312	1111.64
414.756	1068.78
415.199	1017.48
415.642	990.43
416.085	988.76
416.527	979.68
416.97	994.69
417.413	945.18
417.856	932.8
418.298	920.75
418.741	911.65
419.184	907.48
419.626	945.1
420.069	944.81
420.511	949.23
420.953	929.45
421.396	922.73
421.838	896.95
422.28	916.32
422.722	921.97
423.164	935.98
423.606	922.81
424.048	922.2
424.49	877.66
424.932	873.93
425.374	858.26
425.816	872.79
426.258	889.93
426.699	899.35
427.141	885.42
427.582	898.13
428.024	891.95
428.465	886.17
428.907	864.49
429.348	851.23
429.789	850.04
430.231	832.08
430.672	842.43
431.113	820.63
431.554	806.85
431.995	786.96
432.436	758.72
432.877	742.05
433.318	730.75
433.759	726.59
434.2	728.03
434.64	719.71
435.081	722.35
435.522	686.4
435.962	661.78
436.403	648.9
436.843	656.19
437.284	640.91
437.724	622.05
438.164	619.78
438.604	605.02
439.045	581.31
439.485	559.95
439.925	547.51
440.365	531.59
440.805	523.48
441.245	517.53
441.685	499.33
442.125	495.23
442.564	498.42
443.004	488.23
443.444	487.28
443.883	487.75
444.323	481.89
444.762	480.62
445.202	485.38
445.641	495.2
446.081	491.2
446.52	494.82
446.959	490.33
447.398	479.62
447.837	473.17
448.276	464.33
448.716	469.29
449.154	471.16
449.593	461.39
450.032	461.39
450.471	450.67
450.91	449.12
451.349	447.25
451.787	444.75
452.226	450.1
452.664	449.79
453.103	449.31
453.541	446.81
453.98	445.78
454.418	448.9
454.856	441.29
455.295	439.92
455.733	443.56
456.171	445.21
456.609	445.26
457.047	444.57
457.485	450.28
457.923	452.14
458.361	444.8
458.798	444.9
459.236	442.42
459.674	444.81
460.111	447.98
460.549	443.82
460.987	441.49
461.424	439.88
461.862	437.6
462.299	431.17
462.736	430.17
463.173	432.52
463.611	431.4
464.048	431.5
464.485	434.83
464.922	431.29
465.359	427.93
465.796	425.26
466.233	423.44
466.67	421.64
467.106	422.05
467.543	418.53
467.98	413.1
468.416	400.91
468.853	397.51
469.29	385.63
469.726	380.6
470.162	371.52
470.599	364.63
471.035	360.42
471.471	350.75
471.907	347
472.344	344.15
472.78	345.67
473.216	348.88
473.652	344.88
474.088	343.48
474.523	342.31
474.959	343.92
475.395	341.06
475.831	338.32
476.266	339.38
476.702	337.16
477.138	332.61
477.573	329.83
478.008	328.57
478.444	328.94
478.879	332.12
479.314	333.08
479.75	332.52
480.185	332.02
480.62	333.73
481.055	334.86
481.49	338.06
481.925	343.07
482.36	349.29
482.795	357.97
483.229	367.15
483.664	373.51
484.099	374.23
484.534	379.63
484.968	384.3
485.403	386.22
485.837	385.57
486.271	384.25
486.706	383.7
487.14	378.99
487.574	372.77
488.009	369.04
488.443	365.94
488.877	369.55
489.311	371.29
489.745	375.26
490.179	378.44
490.613	385.62
491.046	388.28
491.48	391.48
491.914	392.15
492.348	395.07
492.781	398.36
493.215	399.49
493.648	400.2
494.082	402.9
494.515	403.76
494.948	408.88
495.382	411.45
495.815	415.21
496.248	419.09
496.681	426.77
497.114	434.28
497.547	440.47
497.98	449.14
498.413	454.06
498.846	460.52
499.279	465.56
499.711	468.73
500.144	470.9
500.577	478.6
501.009	486.25
501.442	494.39
501.874	497.46
502.306	500.36
502.739	507.97
503.171	518.67
503.603	523.96
504.036	532.69
504.468	539.03
504.9	548.79
505.332	555.86
505.764	562.31
506.196	569.82
506.627	581.64
507.059	594.23
507.491	602.51
507.923	605.47
508.354	618.97
508.786	630.12
509.217	645.71
509.649	659.79
510.08	675.83
510.512	691.12
510.943	706.06
511.374	719.16
511.805	736.65
512.237	754.94
512.668	781.75
513.099	805.06
513.53	829.19
513.961	849.73
514.391	878.16
514.822	907.77
515.253	939.9
515.684	963.46
516.114	990.62
516.545	1012.22
516.975	1036.28
517.406	1055.59
517.836	1063.13
518.267	1073.81
518.697	1092.77
519.127	1102.17
519.558	1113.76
519.988	1120.3
520.418	1132.83
520.848	1150.91
521.278	1162.71
521.708	1188.9
522.138	1203.61
522.567	1233.07
522.997	1258.14
523.427	1274.2
523.857	1291.53
524.286	1302.79
524.716	1319.47
525.145	1339.87
525.575	1352.85
526.004	1367.51
526.433	1359.41
526.863	1362.51
527.292	1357.51
527.721	1364.32
528.15	1371.82
528.579	1374.24
529.008	1386.34
529.437	1407.41
529.866	1419.47
530.295	1435.67
530.724	1447.75
531.152	1472.18
531.581	1485.52
532.01	1501.92
532.438	1510.89
532.867	1525.35
533.295	1544.03
533.723	1550.21
534.152	1549.58
534.58	1550.68
535.008	1538.1
535.436	1542.66
535.865	1550.08
536.293	1563.54
536.721	1577.31
537.149	1599.51
537.576	1601.26
538.004	1611.94
538.432	1619.74
538.86	1619.22
539.287	1626.05
539.715	1639.45
540.143	1642.09
540.57	1640.69
540.998	1639.39
541.425	1621.15
541.852	1603.26
542.28	1603.28
542.707	1589.74
543.134	1577.69
543.561	1574.26
543.988	1568.53
544.415	1567.76
544.842	1561.99
545.269	1555.54
545.696	1556.51
546.123	1567.4
546.549	1558.5
546.976	1547.5
547.403	1547.27
547.829	1548.64
548.256	1550.77
548.682	1547.14
549.108	1540.89
549.535	1540.2
549.961	1540.95
550.387	1529.28
550.813	1523.02
551.24	1528.79
551.666	1529.31
552.092	1520.03
552.518	1514.38
552.943	1508.62
553.369	1514.27
553.795	1518.56
554.221	1519.2
554.646	1516.08
555.072	1524.01
555.498	1527.34
555.923	1532.64
556.349	1543.62
556.774	1549.35
557.199	1549.14
557.625	1552.92
558.05	1546.48
558.475	1551.57
558.9	1548.27
559.325	1539.1
559.75	1530.98
560.175	1523.43
560.6	1516.35
561.025	1511.84
561.449	1509.53
561.874	1511.73
562.299	1512.16
562.723	1515.2
563.148	1505.15
563.572	1504.7
563.997	1509.98
564.421	1511.5
564.846	1509.39
565.27	1508.97
565.694	1504.66
566.118	1510.65
566.542	1513.02
566.966	1504.18
567.39	1496.46
567.814	1484.17
568.238	1481.22
568.662	1481.01
569.086	1479.48
569.509	1481.63
569.933	1465.58
570.357	1455.79
570.78	1436.38
571.204	1422.68
571.627	1411.14
572.05	1407.68
572.474	1404.73
572.897	1391.93
573.32	1383.7
573.743	1373.15
574.166	1354.99
574.589	1351.44
575.012	1341.26
575.435	1337.26
575.858	1327.18
576.281	1315.22
576.704	1298.76
577.126	1285.31
577.549	1273.53
577.972	1261.36
578.394	1250.31
578.817	1243.21
579.239	1226.16
579.661	1214.16
580.084	1199.76
580.506	1187.05
580.928	1181.51
581.35	1169.95
581.772	1164.27
582.194	1151.81
582.616	1141.37
583.038	1128.48
583.46	1117.56
583.882	1113.94
584.303	1114.57
584.725	1109.79
585.147	1111.38
585.568	1117.41
585.99	1125.8
586.411	1129.48
586.833	1139.44
587.254	1139.53
587.675	1148.93
588.096	1156.72
588.518	1150.99
588.939	1137.63
589.36	1134.04
589.781	1122.51
590.202	1101.49
590.623	1093.76
591.043	1089.79
591.464	1080
591.885	1076.11
592.305	1069.95
592.726	1059.53
593.147	1061.51
593.567	1057.41
593.987	1051.81
594.408	1047.22
594.828	1044.48
595.248	1039.72
595.669	1026.52
596.089	1019.63
596.509	1013.27
596.929	1002.91
597.349	1002.21
597.769	992.94
598.189	986.95
598.608	986.95
599.028	987.43
599.448	985.74
599.867	975.49
600.287	972.04
600.706	968.71
601.126	960.87
601.545	959.45
601.965	957.8
602.384	952.66
602.803	954.24
603.222	949.04
603.641	943.45
604.061	940.76
604.48	937
604.898	939.92
605.317	941.64
605.736	941.48
606.155	938.46
606.574	930.2
606.992	931.98
607.411	926.2
607.829	918.65
608.248	914.41
608.666	910.37
609.085	908.23
609.503	901.56
609.921	895.52
610.339	895.6
610.758	892.16
611.176	888.12
611.594	880.59
612.012	877.11
612.43	877.95
612.847	880.42
613.265	879.5
613.683	880.31
614.101	878.16
614.518	873.17
614.936	863.95
615.353	852.9
615.771	848.53
616.188	846.67
616.606	842.37
617.023	836.27
617.44	826.03
617.857	819.24
618.274	812.36
618.691	808.16
619.108	801.97
619.525	797.06
619.942	800.29
620.359	800.45
620.776	796.42
621.192	793.09
621.609	790.77
622.026	794.07
622.442	797.19
622.859	797.29
623.275	791.36
623.691	793.35
624.108	801.05
624.524	809.4
624.94	809.08
625.356	814.2
625.772	822.5
626.188	830.23
626.604	831.3
627.02	829.26
627.436	829.46
627.852	835.01
628.268	843.17
628.683	836.73
629.099	831.62
629.514	828.8
629.93	831.72
630.345	833.69
630.761	830.23
631.176	831.33
631.591	826.95
632.007	823.27
632.422	820.77
632.837	812.1
633.252	810.57
633.667	803.15
634.082	796.3
634.497	787.96
634.911	775.95
635.326	772.87
635.741	760
636.155	752.39
636.57	751.45
636.984	749.37
637.399	750.34
637.813	747.46
638.228	745.32
638.642	745.75
639.056	737.27
639.47	734.8
639.884	726.93
640.298	722.15
640.712	719.07
641.126	708.84
641.54	700.98
641.954	693.46
642.368	684.56
642.781	677.87
643.195	664.91
643.609	663.07
644.022	656.37
644.436	652.26
644.849	642.53
645.262	632.65
645.676	630.83
646.089	625.96
646.502	615.76
646.915	609.85
647.328	597.5
647.741	595.52
648.154	585.97
648.567	583.92
648.98	575.43
649.393	574.42
649.805	571.16
650.218	566.11
650.631	557.21
651.043	554.22
651.456	550.01
651.868	549.5
652.28	556.87
652.693	563.69
653.105	565.59
653.517	569.43
653.929	569.17
654.341	572.28
654.753	565.07
655.165	566.29
655.577	562.95
655.989	559.99
656.401	555.06
656.813	535.85
657.224	524.06
657.636	508.02
658.047	498.11
658.459	487.28
658.87	480.63
659.282	473.15
659.693	462.06
660.104	454.58
660.515	446.62
660.926	443.89
661.338	441.58
661.749	437.15
662.159	432.83
662.57	429.15
662.981	426.37
663.392	422.88
663.803	425.13
664.213	424.12
664.624	421.19
665.035	422.52
665.445	416.47
665.855	414.12
666.266	411.76
666.676	410.98
667.086	407.37
667.497	407.83
667.907	405.6
668.317	401.1
668.727	402.07
669.137	402.95
669.547	402.94
669.956	405.46
670.366	407.03
670.776	409.64
671.186	412.04
671.595	415.38
672.005	416.86
672.414	417.61
672.824	418.19
673.233	419.46
673.642	422.27
674.052	425.34
674.461	428.51
674.87	431.04
675.279	429.34
675.688	429.64
676.097	431.14
676.506	430.56
676.915	439.2
677.323	441.8
677.732	442.36
678.141	443.05
678.549	437.25
678.958	435.82
679.366	436.49
679.775	439.11
680.183	447.62
680.592	451.13
681	455.18
681.408	452.48
681.816	456.63
682.224	460.81
682.632	466.51
683.04	483.44
683.448	498.62
683.856	516.03
684.264	537.09
684.671	554.37
685.079	577.09
685.487	602.77
685.894	637.84
686.302	668.35
686.709	693.83
687.116	725.01
687.524	751.96
687.931	775.41
688.338	796.46
688.745	814.88
689.152	838.62
689.559	869.69
689.966	903.46
690.373	924.61
690.78	958.82
691.187	1007.2
691.593	1046.44
692	1084.29
692.407	1135.78
692.813	1200.21
693.22	1253.58
693.626	1310.09
694.032	1359.83
694.439	1426.89
694.845	1484.45
695.251	1553.75
695.657	1619.84
696.063	1709.76
696.469	1781.03
696.875	1849.83
697.281	1895.98
697.687	1951.71
698.093	1998.67
698.498	2073.92
698.904	2137.47
699.31	2223.7
699.715	2290.87
700.12	2380.09
700.526	2411.97
700.931	2484.09
701.337	2543.48
701.742	2587.84
702.147	2674.33
702.552	2716.54
702.957	2782.6
703.362	2813.7
703.767	2852.87
704.172	2900.67
704.577	2872.58
704.981	2926.58
705.386	2955.44
705.791	2961.84
706.195	3039.25
706.6	3058.27
707.004	3141.45
707.408	3124.59
707.813	3160.93
708.217	3162.36
708.621	3175.91
709.025	3275.33
709.43	3285.67
709.834	3349.57
710.237	3423.72
710.641	3419.59
711.045	3450.97
711.449	3456.44
711.853	3494.79
712.256	3543.32
712.66	3587.84
713.064	3668.76
713.467	3718.4
713.87	3836.31
714.274	3891.58
714.677	4005.07
715.08	4169.33
715.484	4337.06
715.887	4536.33
716.29	4735.7
716.693	4942.15
717.096	5178.66
717.499	5312.03
717.901	5346.51
718.304	5380.27
718.707	5410.75
719.109	5320.46
719.512	5298.08
719.915	5175.76
720.317	5129.65
720.719	5177.46
721.122	5156.87
721.524	5118.16
721.926	5083.84
722.328	5186.34
722.731	5183.08
723.133	5216.89
723.535	5410.86
723.937	5437.24
724.338	5495.73
724.74	5544.44
725.142	5482.73
725.544	5486.86
725.945	5518.66
726.347	5522.58
726.748	5521.63
727.15	5541.78
727.551	5509.04
727.952	5486.57
728.354	5462.82
728.755	5466.94
729.156	5426.47
729.557	5424.71
729.958	5307.37
730.359	5252.94
730.76	5235.38
731.161	5180.61
731.562	5158.62
731.962	5163.9
732.363	5102.25
732.763	5041.58
733.164	5079.97
733.564	5017.71
733.965	4926.6
734.365	4894.17
734.766	4924.87
735.166	4888.6
735.566	4834.43
735.966	4809.39
736.366	4806.22
736.766	4745.09
737.166	4778.76
737.566	4737.94
737.966	4714.87
738.365	4753.53
738.765	4750.11
739.165	4677.68
739.564	4652.14
739.964	4698.74
740.363	4654.26
740.763	4654.8
741.162	4646.59
741.561	4613.72
741.96	4568.41
742.36	4589.16
742.759	4598.2
743.158	4637.76
743.557	4654.49
743.955	4697.2
744.354	4651.75
744.753	4709.17
745.152	4667.72
745.55	4721.55
745.949	4718.09
746.348	4721.59
746.746	4736.82
747.144	4695.9
747.543	4673.51
747.941	4722.5
748.339	4652.71
748.737	4645.83
749.136	4639.36
749.534	4705.4
749.932	4678.97
750.33	4699.85
750.727	4755.09
751.125	4730.03
751.523	4713.06
751.921	4756.23
752.318	4720.97
752.716	4780.29
753.113	4793
753.511	4818.44
753.908	4818.21
754.305	4802.29
754.703	4863.38
755.1	4925.16
755.497	4984.37
755.894	5176.39
756.291	5357.46
756.688	5684.28
757.085	6123.59
757.482	6740.8
757.878	7406.77
758.275	8011.78
758.672	8849.24
759.068	9533.63
759.465	10503.96
759.861	11759.63
760.258	13211.32
760.654	13952.38
761.05	13844.66
761.447	13204.37
761.843	12294.63
762.239	11353.36
762.635	10930.7
763.031	10520.32
763.427	9930.57
763.822	9313.03
764.218	8702.93
764.614	7908.45
765.01	7377.95
765.405	7036.73
765.801	6774.85
766.196	6441.19
766.592	6256.48
766.987	5944.44
767.382	5732.37
767.778	5645.88
768.173	5516.84
768.568	5445.17
768.963	5318.49
769.358	5336.62
769.753	5290.87
770.148	5208.53
770.542	5209.29
770.937	5181.33
771.332	5270.66
771.726	5287.4
772.121	5220.6
772.515	5273.34
772.91	5260.02
773.304	5332.98
773.699	5268.03
774.093	5322.71
774.487	5377.31
774.881	5421.36
775.275	5416.03
775.669	5375.13
776.063	5420.16
776.457	5456.28
776.851	5382.19
777.245	5372.8
777.638	5404.9
778.032	5520.16
778.425	5481.74
778.819	5522.07
779.212	5474.72
779.606	5430.58
779.999	5450.81
780.392	5433.49
780.786	5516
781.179	5536.58
781.572	5578.87
781.965	5592.46
782.358	5534.46
782.751	5587.15
783.143	5540.23
783.536	5614.91
783.929	5657.58
784.322	5770.37
784.714	5805.51
785.107	5802.66
785.499	5874.48
785.891	5850.73
786.284	5828.16
786.676	5966.74
787.068	5947.33
787.46	6002.47
787.852	6021.93
788.245	6109.55
788.636	6134.54
789.028	6197.41
789.42	6233.31
789.812	6241.6
790.204	6337.33
790.595	6438.69
790.987	6245.26
791.378	6271.96
791.77	6397.21
792.161	6530.32
792.553	6583.37
792.944	6477.37
793.335	6407.63
793.726	6479.7
794.117	6568.76
794.508	6703.01
794.899	6670.9
795.29	6810.18
795.681	6861.12
796.072	6721.49
796.463	6535.84
796.853	6546.8
797.244	6699.97
797.634	6736.79
798.025	6735.2
798.415	6749.25
798.806	6839.61
799.196	6924.85
799.586	6973.77
799.976	6939.58
800.366	7163.04
800.756	7400.85
801.146	7360.67
801.536	7391.82
801.926	7462.65
802.316	7484.64
802.706	7545.29
803.095	7423.16
803.485	7522.7
803.874	7566.15
804.264	7821.39
804.653	7796
805.043	7942.61
805.432	8053.37
805.821	8047.75
806.21	8065.3
806.599	8184.91
806.988	8232.38
807.377	8336.68
807.766	8463.85
808.155	8736.65
808.544	8473.25
808.933	8488.42
809.321	8466.46
809.71	8752.28
810.098	8912.55
810.487	9368.19
810.875	9841.3
811.264	9864.76
811.652	10147.73
812.04	10289.69
812.428	10450.09
812.816	11204.13
813.204	11613.14
813.592	12147.7
813.98	12479.57
814.368	12374.84
814.756	12841.23
815.144	12759.32
815.531	13217.99
815.919	13143.5
816.306	13445.24
816.694	13134.29
817.081	13186.26
817.469	13523.08
817.856	13519.17
818.243	13775.69
818.63	14165.64
819.017	13756.44
819.404	13815.79
819.791	14181.77
820.178	14782.46
820.565	15021.23
820.952	15940.31
821.339	15447.5
821.725	15627.2
822.112	14908.16
822.498	14872.56
822.885	15003.21
823.271	14905.65
823.657	15319.1
824.044	15327.62
824.43	15400.19
824.816	15374.55
825.202	14951.53
825.588	15961.31
825.974	15980.78
826.36	16486.17
826.746	16518.74
827.132	16874.53
827.517	16853.7
827.903	16083.86
828.289	16126.09
828.674	15362
829.06	15257.77
829.445	15648.56
829.83	15988.93
830.216	16452.68
830.601	16814.08
830.986	16416.82
831.371	16285.98
831.756	16833.14
832.141	16415.63
832.526	16410.78
832.911	16698.28
833.295	16588.1
833.68	17049.86
834.065	16449.36
834.449	15562.63
834.834	15489.85
835.218	15494.11
835.603	15833.2
835.987	15626.73
836.371	16449.8
836.755	16349.4
837.139	16732.48
837.524	16975.87
837.908	16799.84
838.291	16863.31
838.675	16932.02
839.059	17142.47
839.443	17129.25
839.827	16899.29
840.21	17375.11
840.594	17229.41
840.977	17432.56
841.361	17422.82
841.744	17789.46
842.127	17642.07
842.511	17893.77
842.894	18484.49
843.277	18858.55
843.66	19395.24
844.043	19477.03
844.426	18693.63
844.809	18383.92
845.191	18420.41
845.574	17968
845.957	17612.37
846.339	17505.98
846.722	16980.7
847.104	17040.91
847.487	16865.11
847.869	16873.19
848.252	17145.75
848.634	17461.29
849.016	17725.39
849.398	17845.74
849.78	18680.38
850.162	18682.54
850.544	19087.07
850.926	19701.69
851.307	19619.82
851.689	19897.27
852.071	20341.73
852.452	20660.35
852.834	20646.33
853.215	21036.47
853.597	21182.51
853.978	21469.13
854.359	21920.01
854.741	20940.26
855.122	20840.21
855.503	20543.97
855.884	20674.03
856.265	20612.56
856.646	20726.29
857.026	20330.67
857.407	20263.21
857.788	20410.8
858.169	20697.49
858.549	19855.65
858.93	20463.36
859.31	20506.94
859.69	20719.85
860.071	20327.74
860.451	20118.59
860.831	19388.77
861.211	20526.98
861.591	21055.89
861.971	21042.47
862.351	21228.91
862.731	21610.23
863.111	21866.88
863.491	22196.01
863.87	23058.93
864.25	23397.66
864.629	22999.58
865.009	23502.49
865.388	24351.9
865.768	26099.74
866.147	25980.13
866.526	24531.1
866.905	24828.02
867.284	26232.78
867.663	24907.56
868.042	23869.93
868.421	23794.14
868.8	24184.31
869.179	24428.68
869.558	23003.66
869.936	21217.37
870.315	21606.88
870.693	22140.76
871.072	23868.9
871.45	22743.22
871.828	23039.36
872.207	24225.86
872.585	23856.38
872.963	24516.03
873.341	23658.43
873.719	23366.82
874.097	23076.34
874.475	23526.47
874.853	24071.25
875.23	23087.48
875.608	24040.71
875.986	25995.86
876.363	24866.65
876.741	25634.28
877.118	24993.48
877.495	26228.72
877.873	26667.25
878.25	28069.34
878.627	26904.15
879.004	27269.16
879.381	27124.78
879.758	26420.16
880.135	24599.73
880.512	25995.46
880.889	25306.3
881.265	25043.15
881.642	24836.1
882.019	25244.42
882.395	24723.57
882.772	25702.25
883.148	24598.43
883.524	24502.72
883.901	24356.8
884.277	24724.61
884.653	24568.58
885.029	25265.18
885.405	27969.65
885.781	27760.81
886.157	26631.66
886.532	26960.76
886.908	26945.43
887.284	29949.77
887.659	30917.07
888.035	31878.17
888.411	32699.67
888.786	33126.69
889.161	34275.52
889.537	33654.08
889.912	34711.43
890.287	34675.36
890.662	35568.43
891.037	34927.82
891.412	32579.4
891.787	32263.72
892.162	31150.46
892.536	31875.14
892.911	30688.85
893.286	30049.06
893.66	28830.23
894.035	29577.71
894.409	32207.98
894.784	30915.91
895.158	31444.78
895.532	33295.84
895.906	34201.92
896.281	34992.53
896.655	34451.68
897.029	39364.3
897.402	40985.88
897.776	45618.79
898.15	45453.84
898.524	44969.19
898.898	45544.51
899.271	50971.53
899.645	44149.6
900.018	42403.08
900.392	43990.57
900.765	44315.32
901.138	41000.37
901.511	40387.32
901.884	37091.39
902.258	34200.94
902.631	35325.59
903.003	40659.57
903.376	36687.97
903.749	41140.6
904.122	44040.46
904.495	48476.15
904.867	49092.69
905.24	42609.28
905.612	39659.65
905.985	40557.7
906.357	42408.69
906.729	40480.98
907.102	34577.01
907.474	33251.26
907.846	33481.51
908.218	33037.97
908.59	29179.55
908.962	28204.77
909.334	30380.46
909.705	31900.94
910.077	30951.97
910.449	32240.1
910.82	33158.2
911.192	36470.84
911.563	37890.24
911.935	40505.7
912.306	40560.34
912.677	41899.87
913.048	41498.61
913.419	45025.09
913.79	45294.27
914.161	48579.48
914.532	46401.35
914.903	42608.84
915.274	40467.06
915.645	39876.42
916.015	35110.04
916.386	33466.85
916.756	35618.05
917.127	36745.78
917.497	32820.84
917.868	35724.68
918.238	33940.94
918.608	34928.69
918.978	35661.4
919.348	37792.42
919.718	39036.58
920.088	37595.2
920.458	39047.26
920.828	41097.51
921.198	38962.65
921.567	41630.01
921.937	32237.51
922.306	32556.67
922.676	35117.11
923.045	29290.96
923.415	27810.17
923.784	25334.18
924.153	26054.4
924.522	26023.78
924.891	24468.14
925.26	26201.46
925.629	25589.3
925.998	29423.15
926.367	28718.35
926.736	27329.29
927.104	32563.01
927.473	35018.22
927.842	42281.67
928.21	41858.31
928.578	44016.06
928.947	41601.26
929.315	41844.1
929.683	49044.79
930.051	49383.39
930.42	57350.15
930.788	49034.78
931.156	48658.71
931.523	45582.97
931.891	42111.61
932.259	40449.08
932.627	46859.83
932.994	66305.9
933.362	54790.89
933.729	47567.85
934.097	45557.72
934.464	38567.82
934.831	44484.38
935.199	43806.67
935.566	42498.56
935.933	43014.89
936.3	52094.58
936.667	40584.71
937.034	36562.16
937.401	36153.83
937.767	31225.04
938.134	27807.78
938.501	39195.16
938.867	41787.76
939.234	70677.71
939.6	60282.05
939.967	66530.34
940.333	44535.1
940.699	37900
941.065	30421.76
941.431	39909.05
941.798	38465.88
942.163	50492.14
942.529	31526.51
942.895	29033.28
943.261	18781.47
943.627	24632.9
943.992	21549.76
944.358	21591.35
944.723	21653.26
945.089	21135.55
945.454	19535.61
945.82	20844.35
946.185	20028.15
946.55	23209.45
946.915	20798.7
947.28	24400.81
947.645	21496.19
948.01	19859.57
948.375	20704.16
948.74	24840.8
949.104	28949.95
949.469	41816.94
949.834	73855.59
950.198	69913.03
950.562	41875.85
950.927	34877.05
951.291	42023.37
951.655	35773.33
952.02	33579.62
952.384	25406.9
952.748	22103.53
953.112	21557.49
953.476	18741.66
953.839	17342.32
954.203	17185.37
954.567	21491.61
954.931	33862.4
955.294	28938.14
955.658	29087.71
956.021	49425
956.385	83875.89
956.748	123768.48
957.111	192051.99
957.474	215714.87
957.837	243086.49
958.2	183887.42
958.563	66239.22
958.926	44756.16
959.289	67971.14
959.652	75937.94
960.015	57056.3
960.377	81762.21
960.74	93297.59
961.102	160973.03
961.465	172713.18
961.827	92372.32
962.189	177265.04
962.552	122855.58
962.914	98541.31
963.276	63888.02
963.638	52831.67
964	52298.92
964.362	35373.24
964.724	34213.49
965.085	24422.74
965.447	20033.29
965.809	22834.97
966.17	22880.85
966.532	24756.18
966.893	22721.49
967.255	20660.97
967.616	24415.11
967.977	19546.26
968.338	21352.27
968.699	17528.45
969.061	17507.32
969.421	17618.62
969.782	19782.71
970.143	16699.65
970.504	17282.41
970.865	19651.86
971.225	20109.61
971.586	19643.67
971.946	28009.42
972.307	24283.39
972.667	31765.49
973.027	32732
973.388	39660.08
973.748	26976.16
974.108	29349.06
974.468	39703.04
974.828	30546.35
975.188	23510.66
975.548	21610.58
975.907	18125.7
976.267	20341.82
976.627	17085.59
976.986	17728.63
977.346	16899.31
977.705	16270.74
978.064	14813.16
978.424	12337.98
978.783	12777.11
979.142	14561.7
979.501	13937.56
979.86	14739.78
980.219	14187.43
980.578	18298.25
980.937	20435.25
981.296	18220.76
981.654	18747.97
982.013	29257.3
982.371	37918.49
982.73	35396.26
983.088	40089.95
983.447	42823
983.805	61158.07
984.163	128018.99
984.521	142146.59
984.879	208550.21
985.237	-339251.56
985.595	326490.6
985.953	81027.67
986.311	46829.55
986.669	27184.33
987.026	23478.42
987.384	31575.84
987.741	32682.65
988.099	23326.82
988.456	18572.83
988.814	17384.73
989.171	15101.89
989.528	14895.16
989.885	15712.13
990.242	12427.73
990.599	15479.17
990.956	12675.04
991.313	8856.54
991.67	7262.77
992.027	7701.48
992.383	6853.65
992.74	6011.04
993.096	6293.13
993.453	6522.28
993.809	6756.24
994.165	9011.59
994.522	8253.69
994.878	9087.6
995.234	11389.19
995.59	11242.95
995.946	10632.69
996.302	12119.54
996.658	14006.79
997.013	15464.04
997.369	18331.97
997.725	23467.04
998.08	15186.35
998.436	23432.39
998.791	32313.27
999.147	32331.11
999.502	35296.18
999.857	25697.41
1000.212	41831.19
1000.567	59582
1000.922	34412.99
1001.277	21932.08
1001.632	16288.08
1001.987	20995.82
1002.342	15079.64
1002.696	12061.06
1003.051	9602.63
1003.406	11648.53
1003.76	11565.55
1004.114	11414.62
1004.469	9595.45
1004.823	7938.55
1005.177	8546.68
1005.531	6774.11
1005.885	6022.56
1006.239	6783.07
1006.593	8516.24
1006.947	11404.97
1007.301	8525.39
1007.655	9311.29
1008.008	6832.39
1008.362	7685.07
1008.715	10980.08
1009.069	9976.2
1009.422	14998.62
1009.776	30003.2
1010.129	19947.58
1010.482	16642.17
1010.835	14101.78
1011.188	29390.18
1011.541	27606.97
1011.894	-168731.72
1012.247	496984.19
1012.6	33757.26
1012.952	21327.46
1013.305	11029.47
1013.657	7957.96
1014.01	7520.87
1014.362	6214.58
1014.715	5509.98
1015.067	4800.98
1015.419	4691.04
1015.771	4155.97
1016.123	3693.82
1016.475	3799.01
1016.827	4047.2
1017.179	4342.73
1017.531	4377.77
1017.883	4487.64
1018.234	4311.57
1018.586	5449.21
1018.938	5751.62
1019.289	7956.91
1019.64	9117.18
1019.992	8467.11
1020.343	7751.09
1020.694	6115.31
1021.045	5397.22
1021.396	6159.16
1021.747	6575.17
1022.098	7892.26
1022.449	5713.44
1022.8	5313.72
1023.151	3700.28
1023.501	3260.33
1023.852	3554.52
1024.202	3688.79
1024.553	4057.79
1024.903	3956.27
1025.253	3380.08
1025.604	3057.17
1025.954	3826.37
1026.304	4668.23
1026.654	5451.31
1027.004	8009.5
1027.354	13020.97
1027.703	12246.04
1028.053	16079
1028.403	23237.18
1028.753	33849.71
1029.102	46009
1029.452	235373.82
1029.801	10086.93
1030.15	6512.93
1030.499	5501.77
897.758	2185.07
901.051	2120
904.343	2153.18
907.636	2159.18
910.928	2221.52
914.22	2143.96
917.511	2148.24
920.803	2193.9
924.094	2192.94
927.384	2194.48
930.675	2159.21
933.965	2122.91
937.255	2151.92
940.544	2120.47
943.834	2119.04
947.123	2058.2
950.411	2145.52
953.7	2128.42
956.988	2112.73
960.276	2048.82
963.563	2098.25
966.851	2108.08
970.138	2148.35
973.424	2149.47
976.711	2103.27
979.997	2151.6
983.283	2194.78
986.568	2123.9
989.853	2115.4
993.138	2143.44
996.423	2226.35
999.708	2183.85
1002.992	2213.3
1006.275	2134.98
1009.559	2140.01
1012.842	2237.21
1016.125	2191.84
1019.408	2172.19
1022.69	2225.83
1025.972	2260.03
1029.254	2236.23
1032.536	2198.98
1035.817	2208.24
1039.098	2177.98
1042.379	2224.47
1045.659	2251.55
1048.939	2200.99
1052.219	2208.06
1055.498	2201.16
1058.778	2200.4
1062.057	2173.74
1065.335	2196.31
1068.614	2207.63
1071.892	2203.77
1075.17	2257.49
1078.447	2257.67
1081.724	2253.47
1085.001	2279.22
1088.278	2254.72
1091.554	2262.52
1094.83	2255.54
1098.106	2291.02
1101.382	2319.95
1104.657	2322.26
1107.932	2322.01
1111.206	2297.73
1114.481	2253.95
1117.755	2252
1121.029	2243.52
1124.302	2302.66
1127.575	2268.07
1130.848	2266.1
1134.121	2234.51
1137.393	2198.5
1140.665	2252.66
1143.937	2230.66
1147.208	2181.09
1150.48	2235.56
1153.75	2223.31
1157.021	2227.87
1160.291	2205.57
1163.561	2257.95
1166.831	2226.19
1170.101	2254.77
1173.37	2213.18
1176.639	2171.85
1179.907	2215.75
1183.176	2238.07
1186.444	2239.33
1189.711	2263.72
1192.979	2286.36
1196.246	2244.82
1199.513	2255
1202.78	2259.71
1206.046	2268.84
1209.312	2296.46
1212.578	2314.09
1215.843	2280.68
1219.108	2249.44
1222.373	2273.53
1225.638	2248.56
1228.902	2239.87
1232.166	2195.15
1235.43	2184.59
1238.693	2211.58
1241.956	2201.03
1245.219	2250.48
1248.482	2233.29
1251.744	2231.74
1255.006	2353.22
1258.268	2301.58
1261.529	2258.38
1264.79	2259.1
1268.051	2355.06
1271.312	2365.2
1274.572	2334.55
1277.832	2325.13
1281.092	2307.26
1284.351	2297.14
1287.61	2283.01
1290.869	2216.33
1294.128	2212.13
1297.386	2259.46
1300.644	2252.29
1303.902	2264.41
1307.159	2133.7
1310.416	2183.81
1313.673	2211.11
1316.93	2204.74
1320.186	2236.18
1323.442	2267.21
1326.697	2271.02
1329.953	2247.27
1333.208	2279.51
1336.463	2253.56
1339.717	2213.94
1342.972	2319.64
1346.226	2292.5
1349.479	2242.2
1352.733	2224.63
1355.986	2228.95
1359.238	2211.06
1362.491	2214.77
1365.743	2212.97
1368.995	2210.21
1372.247	2222.21
1375.498	2241.87
1378.749	2282.6
1382	2233.42
1385.251	2269.8
1388.501	2224.04
1391.751	2225.04
1395	2193.31
1398.25	2219.3
1401.499	2240.95
1404.748	2189.21
1407.996	2168.58
1411.244	2157.65
1414.492	2144.82
1417.74	2129.72
1420.987	2132.63
1424.234	2191.86
1427.481	2157.2
1430.728	2211.82
1433.974	2187.53
1437.22	2186.11
1440.465	2184.59
1443.711	2183.28
1446.956	2206.05
1450.201	2176.87
1453.445	2216.55
1456.689	2207.51
1459.933	2216.53
1463.177	2255.19
1466.42	2226.57
1469.663	2209.97
1472.906	2225.01
1476.148	2271.16
1479.391	2245.21
1482.633	2220.44
1485.874	2243.95
1489.115	2250.87
1492.356	2234.2
1495.597	2215.54
1498.838	2206.81
1502.078	2194.22
1505.318	2163.75
1508.557	2197.27
1511.797	2191.2
1515.036	2233.88
1518.274	2208.37
1521.513	2160.61
1524.751	2173.71
1527.989	2197.69
1531.227	2211.51
1534.464	2224.66
1537.701	2220.72
1540.938	2233.14
1544.174	2181.04
1547.41	2172.52
1550.646	2209.48
1553.882	2257.22
1557.117	2314.22
1560.352	2320.5
1563.587	2282.26
1566.821	2251.38
1570.055	2268.85
1573.289	2247.14
1576.523	2303.38
1579.756	2320.73
1582.989	2341.78
1586.222	2299.97
1589.454	2328.82
1592.686	2311.51
1595.918	2339.48
1599.15	2336.79
1602.381	2382.36
1605.612	2362.02
1608.843	2453.7
1612.073	2379.55
1615.303	2363.34
1618.533	2361.86
1621.762	2363.4
1624.992	2336.62
1628.221	2339.42
1631.449	2327.19
1634.678	2356.76
1637.906	2324.55
1641.134	2350.29
1644.361	2314.43
1647.588	2304.71
1650.815	2327.63
1654.042	2293.78
1657.269	2318.92
1660.495	2299.91
1663.72	2286.31
1666.946	2255.67
1670.171	2227.7
1673.396	2199.2
1676.621	2184.14
1679.845	2184.33
1683.069	2191.07
1686.293	2220.07
1689.517	2211.36
1692.74	2164.9
1695.963	2184.76
1699.185	2225.46
1702.408	2199.22
1705.63	2228.22
1708.852	2248.23
1712.073	2219.06
1715.294	2229.34
1718.515	2271.85
1721.736	2231.54
1724.956	2209.32
1728.176	2231.1
1731.396	2253.8
1734.616	2239.75
1737.835	2276.07
1741.054	2248.4
1744.272	2238.82
1747.491	2278.16
1750.709	2302.43
1753.927	2251.35
1757.144	2277.86
1760.361	2333.39
1763.578	2309.73
1766.795	2260.23
1770.011	2250.25
1773.227	2274.76
1776.443	2313.38
1779.658	2358.46
1782.874	2298.35
1786.089	2288.62
1789.303	2290.78
1792.518	2289.11
1795.732	2275.72
1798.945	2289.53
1802.159	2330.48
1805.372	2272.05
1808.585	2267.62
1811.797	2268.18
1815.01	2289.53
1818.222	2311.38
1821.434	2273
1824.645	2315.36
1827.856	2322.96
1831.067	2354.15
1834.278	2295.15
1837.488	2278.76
1840.698	2399.03
1843.908	2340.81
1847.117	2310.53
1850.326	2235.09
1853.535	2300.06
1856.744	2333.58
1859.952	2256.68
1863.16	2258.38
1866.368	2272.86
1869.575	2381.64
1872.782	2270.46
1875.989	2206.35
1879.196	2255.87
1882.402	2248.43
1885.608	2283.76
1888.814	2221.36
1892.019	2132.78
1895.224	2184.25
1898.429	2153.56
1901.634	2137.9
1904.838	2113.77
1908.042	2169.44
1911.246	2182.87
1914.449	2145.89
1917.652	2128.85
1920.855	2109.23
1924.058	2134.84
1927.26	2180.54
1930.462	2202
1933.664	2239.1
1936.865	2182.44
1940.066	2199.04
1943.267	2141.88
1946.467	2152.66
1949.668	2171.96
1952.868	2239.09
1956.067	2228.78
1959.267	2169.06
1962.466	2192.55
1965.665	2176.06
1968.863	2169.55
1972.061	2172.2
1975.259	2167.43
1978.457	2241.25
1981.654	2202.11
1984.852	2203.62
1988.048	2157.88
1991.245	2147.71
1994.441	2235.84
1997.637	2194.63
2000.833	2176.33
2004.028	2211.25
2007.223	2273.95
2010.418	2260.44
2013.613	2211.7
2016.807	2203.83
2020.001	2200.91
2023.194	2222.29
2026.388	2205.57
2029.581	2150.4
2032.774	2212.06
2035.966	2223.22
2039.158	2170.62
2042.35	2188.62
2045.542	2117.43
2048.733	2199
2051.924	2193.8
2055.115	2209.91
2058.306	2175.9
2061.496	2230.31
2064.686	2276.93
2067.875	2184.01
2071.065	2186.99
2074.254	2204.49
2077.442	2160.92
2080.631	2240.85
2083.819	2173.71
2087.007	2164.73
2090.195	2149.27
2093.382	2164.09
2096.569	2148.26
2099.756	2112.29
2102.942	2159.99
2106.128	2173.37
2109.314	2160.92
2112.5	2144.89
2115.685	2116.16
2118.87	2122.65
2122.055	2180.18
2125.239	2159.63
2128.424	2150.59
2131.608	2211.37
2134.791	2194.79
2137.974	2231.47
2141.157	2220.87
2144.34	2191.9
2147.523	2184.18
2150.705	2207.84
2153.887	2177.63
2157.068	2152.39
2160.25	2133.59
2163.431	2154.95
2166.611	2124.55
2169.792	2145.02
2172.972	2057.88
2176.152	2108.54
2179.331	2135.97
2182.511	2135.95
2185.69	2157.99
2188.868	2163.35
2192.047	2195.67
2195.225	2209.65
2198.403	2160.38
2201.58	2146.91
2204.758	2135.32
2207.935	2207.99
2211.111	2124.98
2214.288	2114.46
2217.464	2150.27
2220.64	2106.43
2223.815	2154.4
2226.991	2089.85
2230.166	2105.99
2233.34	2147.2
2236.515	2160.15
2239.689	2224.67
2242.863	2176.44
2246.036	2227.22
2249.209	2210.63
2252.382	2229.51
2255.555	2239.09
2258.727	2189.22
2261.9	2218.44
2265.071	2210.27
2268.243	2208.34
2271.414	2156.61
2274.585	2140.58
2277.756	2199.16
2280.926	2156.19
2284.096	2187.92
2287.266	2118.1
2290.436	2163.56
2293.605	2184.41
2296.774	2221.62
2299.942	2226.89
2303.111	2241.28
2306.279	2293.88
2309.447	2275.5
2312.614	2247.98
2315.781	2274.74
2318.948	2250.1
2322.115	2286.45
2325.281	2188.4
2328.447	2194.9
2331.613	2166.48
2334.779	2158.35
2337.944	2153.7
2341.109	2156.73
2344.274	2145.92
2347.438	2115.22
2350.602	2133.28
2353.766	2142.94
2356.929	2132.06
2360.092	2166.86
2363.255	2139.75
2366.418	2105.05
2369.58	2170.52
2372.742	2048.08
2375.904	2040.36
2379.066	2027.16
2382.227	2052.3
2385.388	2017.82
2388.548	1968.24
2391.709	2007.61
2394.869	2002.16
2398.029	2054.81
2401.188	2050.13
2404.347	2012.77
2407.506	2091.06
2410.665	2129.09
2413.823	2116.14
2416.981	2095.91
2420.139	2109.85
2423.296	2150.41
2426.453	2124.43
2429.61	2144.7
2432.767	2114.95
2435.923	2154.25
2439.079	2104.56
2442.235	2136.4
2445.391	2077.69
2448.546	2118.95
2451.701	2151.08
2454.855	2148.83
2458.009	2179.39
2461.163	2169.47
2464.317	2137.64
2467.471	2166.64
2470.624	2194.93
2473.777	2183.02
2476.929	2201.26
2480.082	2224.76
2483.234	2198.25
2486.385	2141.37
2489.537	2133.32
2492.688	2122.94
2495.839	2136.3
2498.989	2153.72
2502.14	2138.71
2505.29	2131.63
2508.439	2156.75
2511.589	2098.01
2514.738	2097.81
2517.887	2121.12
2521.035	2196.2
2524.183	2156.35
2527.331	2142.03
2530.479	2139.64
2533.627	2139.92
