Data from C_1_DEC_CT_2N_Splice17_11-46-33-179.txt Node
Date: Sat Mar 14 11:46:33 EDT 2020
User: sa697716
Spectrometer: FLMS03696
Trigger mode: 0
Integration Time (sec): 3.180400E-1
Scans to average: 20
Electric dark correction enabled: true
Nonlinearity correction enabled: true
Boxcar width: 5
XAxis mode: Wavelengths
Number of Pixels in Spectrum: 2048
>>>>>Begin Spectral Data<<<<<
187.83	-132736.24
188.298	1151.27
188.766	692.04
189.233	623.07
189.701	933.5
190.169	1282.21
190.636	532.03
191.104	535.7
191.571	131.63
192.039	-17.05
192.506	-32.98
192.974	478.53
193.441	-566.41
193.908	-82.08
194.375	-19.04
194.842	83.11
195.31	71.75
195.777	148.43
196.244	276.61
196.711	143.36
197.177	116.76
197.644	84.69
198.111	116.51
198.578	153.64
199.045	101.11
199.511	157.54
199.978	110.21
200.445	144.19
200.911	112.75
201.378	70.77
201.844	136.63
202.31	162.8
202.777	214.51
203.243	157.44
203.709	108.86
204.176	123.95
204.642	82.06
205.108	81.34
205.574	52.13
206.04	21.49
206.506	9.64
206.972	-27.32
207.438	-16.18
207.903	-18.6
208.369	2.99
208.835	23.56
209.301	39.98
209.766	27.22
210.232	31.45
210.697	28.35
211.163	25.8
211.628	-15.03
212.094	17.89
212.559	127.47
213.024	77.58
213.49	84.27
213.955	75.66
214.42	36.12
214.885	56.73
215.35	72.19
215.815	168.03
216.28	189.63
216.745	158.57
217.21	195.72
217.675	138.52
218.14	155.17
218.604	146.14
219.069	148.72
219.534	180.87
219.998	181.03
220.463	185.39
220.927	79.8
221.392	69.92
221.856	87
222.32	24.27
222.785	30.43
223.249	-7.01
223.713	-8.15
224.177	5.01
224.642	-67.15
225.106	-131.75
225.57	-196.02
226.034	-41.19
226.497	-67.06
226.961	-22.3
227.425	35.51
227.889	-28.82
228.353	-13.6
228.816	-92.33
229.28	8.57
229.744	-40.24
230.207	73.67
230.671	119.1
231.134	12.07
231.597	34.63
232.061	-77.26
232.524	-119.47
232.987	-34.37
233.45	10.36
233.914	16.75
234.377	-56.25
234.84	-27.38
235.303	-76.52
235.766	-94.82
236.229	-98.93
236.691	-94.31
237.154	-98.79
237.617	-55.64
238.08	-70.86
238.542	-111.64
239.005	-74.15
239.468	-43.5
239.93	-37.78
240.393	-27.7
240.855	-13.36
241.317	-27.67
241.78	-50.73
242.242	-43.54
242.704	-23.47
243.166	-8.1
243.629	30.99
244.091	52.54
244.553	41.76
245.015	56.55
245.477	70.78
245.939	64.66
246.4	129.06
246.862	121.37
247.324	112.42
247.786	89.34
248.247	57.05
248.709	-75.66
249.17	-77.75
249.632	25.94
250.093	110.34
250.555	65.85
251.016	86.83
251.477	77.93
251.939	121.21
252.4	110.04
252.861	106.69
253.322	142.58
253.783	131.88
254.244	126.75
254.705	29.49
255.166	-42.24
255.627	-26.08
256.088	-60.77
256.549	-54.36
257.009	-60.59
257.47	-88.82
257.931	-82.52
258.391	-71.87
258.852	-59.24
259.312	-80.76
259.773	-109.3
260.233	-25.92
260.694	-2.16
261.154	-12.05
261.614	54.14
262.074	42.58
262.534	84.99
262.994	97.63
263.455	103.89
263.915	114.24
264.374	125.17
264.834	138.29
265.294	103.19
265.754	124.43
266.214	111.96
266.673	73.06
267.133	72.29
267.593	15.44
268.052	5.78
268.512	1.18
268.971	67.95
269.431	92.97
269.89	66.84
270.349	140.25
270.809	130.1
271.268	132.81
271.727	150.03
272.186	129.2
272.645	161.86
273.104	84.15
273.563	115.66
274.022	-39.01
274.481	-7.51
274.94	15.91
275.399	-5.22
275.857	-24.36
276.316	-60.42
276.775	-49.67
277.233	-45.56
277.692	-41.9
278.15	-19.81
278.609	34.47
279.067	47.49
279.525	62.1
279.984	72.01
280.442	82.93
280.9	168
281.358	117.23
281.816	118.63
282.274	103.1
282.732	61.71
283.19	51.78
283.648	18.65
284.106	19.3
284.564	-23.74
285.021	-9.75
285.479	-10.99
285.937	-60.71
286.394	-34.74
286.852	-48.8
287.309	-45.38
287.767	0.27
288.224	14.16
288.682	0.72
289.139	13.36
289.596	17.9
290.053	-7.6
290.511	-25.2
290.968	-6
291.425	-32.03
291.882	36
292.339	52.84
292.796	11.13
293.252	17.6
293.709	62.19
294.166	49.45
294.623	50.85
295.079	51.13
295.536	86.38
295.992	86.29
296.449	71.91
296.905	85.76
297.362	97.32
297.818	91.22
298.274	100.64
298.731	78.41
299.187	72.92
299.643	77.44
300.099	123.74
300.555	118.93
301.011	106.75
301.467	173.5
301.923	129.81
302.379	120.16
302.835	131.8
303.291	123.63
303.746	120.96
304.202	138.95
304.658	143.93
305.113	64.77
305.569	63.83
306.024	54.02
306.479	-10.52
306.935	31.16
307.39	12.04
307.845	5.53
308.301	17.23
308.756	16.45
309.211	43.82
309.666	13.96
310.121	57.75
310.576	9.4
311.031	-16.01
311.486	-71.14
311.94	-123.63
312.395	-224.87
312.85	-419.59
313.305	-3153.64
313.759	-10944.96
314.214	-809.77
314.668	-428.6
315.123	-273.23
315.577	0.42
316.032	47.58
316.486	84.27
316.94	122.8
317.394	119.94
317.849	100.55
318.303	112.22
318.757	108.97
319.211	116.71
319.665	93.43
320.119	89.74
320.572	92.81
321.026	80.04
321.48	62.04
321.934	41.63
322.387	36.81
322.841	54.9
323.295	85.1
323.748	33.05
324.202	16.49
324.655	29.5
325.108	120.87
325.562	102.3
326.015	85.74
326.468	81.11
326.921	97.32
327.374	115.44
327.827	110.65
328.28	108.63
328.733	107.65
329.186	107.44
329.639	97.02
330.092	52.69
330.545	64.55
330.997	74.68
331.45	103.31
331.903	154.49
332.355	229.38
332.808	201.45
333.26	148.53
333.713	157.57
334.165	137.28
334.617	165.84
335.069	76.42
335.522	14.02
335.974	73.35
336.426	-14.34
336.878	-110.57
337.33	-52.61
337.782	-50.49
338.234	-24.47
338.686	-62.96
339.137	-67.46
339.589	-59.19
340.041	-8.54
340.493	-1.48
340.944	-5.43
341.396	-2.83
341.847	34.2
342.299	75.3
342.75	147.03
343.201	84.33
343.653	87.6
344.104	71.28
344.555	70.51
345.006	42.54
345.457	117.82
345.908	60.34
346.359	76.88
346.81	52.1
347.261	32.3
347.712	-11.33
348.163	-24.87
348.613	36.88
349.064	44.13
349.515	17.02
349.965	23.59
350.416	-12.36
350.866	-17.91
351.317	-37.24
351.767	-42.26
352.217	-77.52
352.668	-58.36
353.118	-19.32
353.568	-111.42
354.018	-28.98
354.468	4.95
354.918	26.42
355.368	28.95
355.818	36.78
356.268	-50.69
356.718	-212.93
357.168	46.27
357.617	79.51
358.067	-14.15
358.517	-77.73
358.966	-93.22
359.416	36.32
359.865	-26.13
360.315	-100
360.764	-30.48
361.213	11.38
361.663	-27.73
362.112	-85.09
362.561	-166.5
363.01	-39.94
363.459	-31.85
363.908	-86.33
364.357	-69.01
364.806	-139.63
365.255	-123.72
365.703	-74.03
366.152	-73.33
366.601	-47.64
367.05	-7
367.498	9.36
367.947	-24.53
368.395	-27.23
368.844	-1.62
369.292	-54.3
369.74	-14.89
370.189	-44.93
370.637	-88.63
371.085	-79.94
371.533	-116.14
371.981	-132.07
372.429	-103.39
372.877	-113.45
373.325	-57.35
373.773	-69.94
374.221	-65.27
374.669	-102.2
375.116	-47.49
375.564	-31.31
376.012	-27.73
376.459	-10.87
376.907	-20.43
377.354	-53.15
377.801	-14.15
378.249	-28.51
378.696	-61.79
379.143	-6.88
379.591	-61.33
380.038	-205.42
380.485	-99.48
380.932	-158.37
381.379	-0.68
381.826	56.24
382.273	47.5
382.72	-8.49
383.166	24.91
383.613	30.25
384.06	17.87
384.506	44.2
384.953	35.11
385.4	16.51
385.846	24.26
386.292	-10.56
386.739	-21.94
387.185	-44.91
387.631	-36.22
388.078	-17.4
388.524	-29.78
388.97	-34.87
389.416	-30.79
389.862	-15.79
390.308	-21.6
390.754	-20.71
391.2	-21.59
391.645	-30.14
392.091	11.35
392.537	15.71
392.983	-12.75
393.428	21.94
393.874	14.34
394.319	32.36
394.765	50.66
395.21	48.55
395.655	50.44
396.101	52.91
396.546	50.87
396.991	22.21
397.436	22.98
397.881	24.16
398.326	6.98
398.771	22.32
399.216	10.93
399.661	2
400.106	12.69
400.551	13.76
400.995	12.55
401.44	13.7
401.885	17.34
402.329	14.02
402.774	14.77
403.218	27.75
403.663	24.08
404.107	26.48
404.551	28.75
404.995	24.27
405.44	17.89
405.884	15.9
406.328	10.38
406.772	4.14
407.216	5.7
407.66	2.88
408.104	-10.16
408.547	-10.1
408.991	-11.14
409.435	-13.86
409.879	-11.84
410.322	-9.42
410.766	-6.45
411.209	-2.47
411.653	1.24
412.096	5.74
412.54	4.98
412.983	8.27
413.426	11.8
413.869	11.77
414.312	16.31
414.756	13.22
415.199	11.47
415.642	14.5
416.085	15.81
416.527	13.62
416.97	10.4
417.413	11.12
417.856	8.41
418.298	5.67
418.741	3.21
419.184	-3.87
419.626	-8.24
420.069	-8.77
420.511	-9.72
420.953	-8.59
421.396	-6.8
421.838	-9.11
422.28	-8.79
422.722	-6.4
423.164	-8.49
423.606	-8.13
424.048	-7.93
424.49	-3.06
424.932	-4.03
425.374	-8.58
425.816	-10.93
426.258	-12.04
426.699	-8.96
427.141	-3.97
427.582	-5.43
428.024	-5.69
428.465	-5.15
428.907	-3.52
429.348	-5.08
429.789	-1.08
430.231	4.4
430.672	6.27
431.113	7.36
431.554	6.56
431.995	1.91
432.436	4.2
432.877	5.06
433.318	7.86
433.759	7.51
434.2	8.41
434.64	6.58
435.081	4.87
435.522	3.47
435.962	1.29
436.403	4.68
436.843	3.4
437.284	1.33
437.724	-1.16
438.164	-5.89
438.604	-6.39
439.045	-4.38
439.485	-0.97
439.925	-1.44
440.365	-1.39
440.805	-1.31
441.245	-1.91
441.685	-0.93
442.125	-1.62
442.564	-1.28
443.004	0.15
443.444	0.48
443.883	0.43
444.323	-3.64
444.762	-8.59
445.202	-10.57
445.641	-8.86
446.081	-11.85
446.52	-11.77
446.959	-10.87
447.398	-8.06
447.837	-7.13
448.276	-7.38
448.716	-7.19
449.154	-7.3
449.593	-3.9
450.032	-2.71
450.471	-5.36
450.91	-6.18
451.349	-4.32
451.787	-5.4
452.226	-6.18
452.664	-7.54
453.103	-7.85
453.541	-9.55
453.98	-5.76
454.418	-4.55
454.856	-2
455.295	-0.42
455.733	1.66
456.171	0.53
456.609	3.15
457.047	3.53
457.485	6.55
457.923	9.47
458.361	9.84
458.798	7.99
459.236	7.62
459.674	6.16
460.111	6.8
460.549	6.81
460.987	5.82
461.424	3.69
461.862	4.45
462.299	3.63
462.736	3.87
463.173	3.88
463.611	7.55
464.048	8.89
464.485	8.81
464.922	8.21
465.359	7.51
465.796	16.63
466.233	18.88
466.67	20.6
467.106	22.43
467.543	19.62
467.98	19.75
468.416	15.69
468.853	13.23
469.29	12.21
469.726	11.55
470.162	10.79
470.599	3.08
471.035	1.09
471.471	-0.74
471.907	-3.34
472.344	-3.35
472.78	-3.1
473.216	-3.42
473.652	-2.05
474.088	-2.86
474.523	-2.24
474.959	-2.08
475.395	-1.28
475.831	-0.59
476.266	-0.47
476.702	-0.56
477.138	-0.37
477.573	-0.81
478.008	0.23
478.444	0.24
478.879	2.57
479.314	3.28
479.75	3.13
480.185	2.28
480.62	1.61
481.055	0.98
481.49	1.67
481.925	1.67
482.36	3.42
482.795	2.02
483.229	1.28
483.664	0.2
484.099	-0.41
484.534	0.85
484.968	1.65
485.403	1.49
485.837	0.91
486.271	0.24
486.706	0.33
487.14	-1.38
487.574	-0.64
488.009	-0.87
488.443	-0.95
488.877	0.05
489.311	-1.14
489.745	-1.48
490.179	-0.58
490.613	1.67
491.046	1.47
491.48	1.59
491.914	1.83
492.348	1.28
492.781	1.83
493.215	1.84
493.648	0.56
494.082	0.52
494.515	1.01
494.948	1.32
495.382	-0.45
495.815	-0.06
496.248	0.2
496.681	-0.38
497.114	-0.58
497.547	-0.31
497.98	0.7
498.413	2.56
498.846	2.89
499.279	1.89
499.711	0.85
500.144	1.23
500.577	2.22
501.009	2.08
501.442	3.4
501.874	4.26
502.306	3.57
502.739	5.97
503.171	5.09
503.603	5.38
504.036	5.61
504.468	5.52
504.9	4.94
505.332	4.05
505.764	4.67
506.196	4.35
506.627	4.27
507.059	4.77
507.491	1.48
507.923	1.44
508.354	1.52
508.786	1.57
509.217	1.78
509.649	1.97
510.08	1.66
510.512	2.1
510.943	2.05
511.374	2.17
511.805	1.91
512.237	1.72
512.668	0.6
513.099	-0.51
513.53	-0.56
513.961	-0.21
514.391	-0.58
514.822	1.2
515.253	0.63
515.684	0.38
516.114	0.32
516.545	1.14
516.975	1.28
517.406	1.22
517.836	1.76
518.267	2.12
518.697	2.77
519.127	3.68
519.558	1.98
519.988	1.23
520.418	0.71
520.848	-0.2
521.278	-1.58
521.708	22.18
522.138	23.57
522.567	22.44
522.997	22.2
523.427	21.68
523.857	21.62
524.286	21.7
524.716	22.84
525.145	23.2
525.575	24.04
526.004	24.03
526.433	1.07
526.863	-0.31
527.292	1.68
527.721	2.49
528.15	1.94
528.579	1.81
529.008	2.05
529.437	0.35
529.866	0.14
530.295	-0.27
530.724	0.88
531.152	0.84
531.581	2.13
532.01	1.52
532.438	0.56
532.867	0.5
533.295	1.01
533.723	0.94
534.152	2.02
534.58	2.51
535.008	2.64
535.436	3.68
535.865	2.92
536.293	1.71
536.721	0.9
537.149	1.36
537.576	2.83
538.004	2.69
538.432	2.13
538.86	2.41
539.287	1.64
539.715	1.49
540.143	0.17
540.57	0.6
540.998	1.02
541.425	2.62
541.852	2.1
542.28	0.97
542.707	0.79
543.134	1.37
543.561	1.21
543.988	1.82
544.415	1.74
544.842	0.73
545.269	0.83
545.696	1.16
546.123	0.82
546.549	1.13
546.976	1.51
547.403	1.13
547.829	0.17
548.256	-0.59
548.682	-0.61
549.108	0.24
549.535	0.62
549.961	0.11
550.387	-0.35
550.813	0.91
551.24	0.48
551.666	-0.28
552.092	-0.24
552.518	0.3
552.943	1.39
553.369	1.12
553.795	1.13
554.221	1.95
554.646	2.28
555.072	3.56
555.498	1.17
555.923	1.08
556.349	1.72
556.774	1.91
557.199	1.81
557.625	0.57
558.05	1.33
558.475	0.6
558.9	0.23
559.325	2.05
559.75	2.47
560.175	2.86
560.6	2.71
561.025	1.78
561.449	1.6
561.874	1.1
562.299	2.07
562.723	1.25
563.148	1.29
563.572	1.05
563.997	-0.73
564.421	-2.82
564.846	-3
565.27	-2.77
565.694	-2.65
566.118	-3.02
566.542	-1.53
566.966	-1.56
567.39	-1.53
567.814	-1.12
568.238	-0.78
568.662	-1.14
569.086	-0.64
569.509	-0.92
569.933	0.48
570.357	0.77
570.78	0.75
571.204	1.69
571.627	1.25
572.05	1.48
572.474	2.2
572.897	2.25
573.32	3.73
573.743	3.73
574.166	4.5
574.589	2.98
575.012	2.84
575.435	2.6
575.858	1.73
576.281	2.06
576.704	1.56
577.126	-0.24
577.549	-0.8
577.972	-2.14
578.394	-2
578.817	-0.08
579.239	-0.08
579.661	0.82
580.084	2.18
580.506	1.88
580.928	1.25
581.35	1.69
581.772	2.91
582.194	3.46
582.616	2.78
583.038	2.3
583.46	0.5
583.882	0.85
584.303	-0.52
584.725	-1.28
585.147	3.01
585.568	3.59
585.99	4.16
586.411	4.38
586.833	4.97
587.254	5.9
587.675	6.06
588.096	6.2
588.518	6.58
588.939	6.81
589.36	6.84
589.781	1.53
590.202	4.51
590.623	4.26
591.043	2.68
591.464	2.05
591.885	2.4
592.305	1.59
592.726	0.49
593.147	0.6
593.567	1.03
593.987	1.12
594.408	1.29
594.828	-1.88
595.248	-1.66
595.669	0.21
596.089	0.15
596.509	-0.23
596.929	0.36
597.349	1.28
597.769	1.1
598.189	1.52
598.608	1.39
599.028	0.9
599.448	0.3
599.867	0.04
600.287	-1.11
600.706	-0.67
601.126	-0.12
601.545	0.69
601.965	0.46
602.384	0.04
602.803	-0.5
603.222	-0.18
603.641	0.2
604.061	1.31
604.48	1.12
604.898	1.17
605.317	0.71
605.736	0.25
606.155	0.6
606.574	0.57
606.992	0.78
607.411	1.01
607.829	-0.02
608.248	-0.04
608.666	-1.38
609.085	-0.91
609.503	-1.25
609.921	-0.9
610.339	-0.99
610.758	-1.79
611.176	-1.99
611.594	-1.27
612.012	-1.28
612.43	-0.07
612.847	-0.66
613.265	0.93
613.683	0.13
614.101	0.58
614.518	-0.17
614.936	-0.12
615.353	0.39
615.771	0.81
616.188	0.66
616.606	0.82
617.023	1.02
617.44	1.83
617.857	0.82
618.274	0.35
618.691	0.89
619.108	1.17
619.525	1.21
619.942	1.72
620.359	1.67
620.776	1.26
621.192	1.79
621.609	2.06
622.026	2.3
622.442	2.21
622.859	2.39
623.275	1.7
623.691	1.32
624.108	1.29
624.524	0.49
624.94	1.15
625.356	1.51
625.772	0.25
626.188	-1.01
626.604	-1.16
627.02	-1.1
627.436	-0.81
627.852	0.96
628.268	1.86
628.683	1.69
629.099	1.49
629.514	0.43
629.93	-0.27
630.345	-0.03
630.761	-0.6
631.176	-0.8
631.591	1.01
632.007	2.75
632.422	1.42
632.837	0.54
633.252	1.61
633.667	1.68
634.082	2.81
634.497	3.41
634.911	5.27
635.326	6.15
635.741	6.7
636.155	5.59
636.57	5.15
636.984	4.41
637.399	5.74
637.813	4.79
638.228	4.61
638.642	3.53
639.056	3.33
639.47	2
639.884	2.04
640.298	1.38
640.712	2.08
641.126	1.37
641.54	1.63
641.954	-0.4
642.368	-0.18
642.781	2.72
643.195	3.25
643.609	3.72
644.022	3.75
644.436	3
644.849	2.51
645.262	1.63
645.676	1.18
646.089	1.31
646.502	3.01
646.915	2.47
647.328	1.23
647.741	1.37
648.154	0.9
648.567	2.95
648.98	4.13
649.393	4.43
649.805	4.17
650.218	3.85
650.631	4.44
651.043	3.61
651.456	4.08
651.868	3.22
652.28	2.06
652.693	0.77
653.105	-1.3
653.517	-1.65
653.929	-1.66
654.341	-0.84
654.753	0.52
655.165	0.2
655.577	0.93
655.989	1.25
656.401	-0.39
656.813	1.38
657.224	1.99
657.636	1.48
658.047	3.16
658.459	3.24
658.87	2.3
659.282	1.5
659.693	2.59
660.104	3.13
660.515	2.22
660.926	2.34
661.338	1.42
661.749	1.46
662.159	2.51
662.57	0.29
662.981	0.16
663.392	0.06
663.803	0.55
664.213	-0.5
664.624	-1.17
665.035	-1.23
665.445	-1.22
665.855	0.24
666.266	1.71
666.676	1.06
667.086	0.59
667.497	1.39
667.907	1.61
668.317	0.49
668.727	3.71
669.137	2.8
669.547	2.9
669.956	2.14
670.366	1.11
670.776	0.88
671.186	0.83
671.595	1.41
672.005	0.25
672.414	0.79
672.824	2
673.233	-1.77
673.642	-0.91
674.052	0.06
674.461	1.84
674.87	1.82
675.279	2.31
675.688	1.15
676.097	3.12
676.506	3.88
676.915	3.15
677.323	3.11
677.732	3.81
678.141	3.03
678.549	2.2
678.958	0.7
679.366	-0.14
679.775	-0.86
680.183	1.99
680.592	0.9
681	0.52
681.408	0.99
681.816	0.2
682.224	-0.98
682.632	0.61
683.04	0.8
683.448	1.34
683.856	3.09
684.264	3.57
684.671	0.54
685.079	-0.92
685.487	-1.01
685.894	-1.95
686.302	-3.08
686.709	-2.04
687.116	-2.48
687.524	-1.8
687.931	-0.63
688.338	-2.08
688.745	-3.82
689.152	-2.55
689.559	-1.88
689.966	-0.48
690.373	-0.1
690.78	1.6
691.187	1.7
691.593	1.51
692	1.08
692.407	1.51
692.813	4.12
693.22	5.06
693.626	3.89
694.032	5.22
694.439	5
694.845	5.73
695.251	4.67
695.657	4.86
696.063	3.04
696.469	2.12
696.875	1.37
697.281	-0.94
697.687	-1.64
698.093	-1.32
698.498	-1.13
698.904	-2.6
699.31	-3.51
699.715	0.35
700.12	-0.05
700.526	1.76
700.931	1.89
701.337	2.77
701.742	4.93
702.147	4.59
702.552	4.69
702.957	3.04
703.362	3.46
703.767	3.47
704.172	-0.66
704.577	-1.84
704.981	-3.73
705.386	-2.6
705.791	-3.26
706.195	-5.96
706.6	-5.2
707.004	-5.87
707.408	-5.97
707.813	-4.35
708.217	-3.09
708.621	-2.1
709.025	-1.39
709.43	1.55
709.834	1.52
710.237	1.44
710.641	2.2
711.045	2.73
711.449	4.76
711.853	9.52
712.256	7.64
712.66	6.49
713.064	6.86
713.467	7.44
713.87	7.08
714.274	7.27
714.677	8.85
715.08	10.14
715.484	10.08
715.887	11.34
716.29	6.71
716.693	8.85
717.096	10.05
717.499	10.54
717.901	9.76
718.304	9
718.707	7.65
719.109	5.35
719.512	2.84
719.915	5.51
720.317	3.99
720.719	2.1
721.122	0.28
721.524	0.16
721.926	5.35
722.328	6.47
722.731	5.5
723.133	5.94
723.535	6.75
723.937	7.6
724.338	7.41
724.74	7.92
725.142	61.68
725.544	66.5
725.945	80.11
726.347	75.16
726.748	73.72
727.15	75.3
727.551	78.53
727.952	76.37
728.354	75
728.755	73.93
729.156	72.31
729.557	20.75
729.958	16.46
730.359	3.1
730.76	2.46
731.161	3.51
731.562	1.67
731.962	-1.86
732.363	-0.08
732.763	-0.87
733.164	-3.47
733.564	-2.18
733.965	-1.27
734.365	-0.71
734.766	-0.31
735.166	-0.92
735.566	0.47
735.966	1.08
736.366	2.34
736.766	1.06
737.166	0.92
737.566	1.55
737.966	0.86
738.365	1.09
738.765	2.52
739.165	1.77
739.564	1.96
739.964	-0.06
740.363	-0.24
740.763	-2.34
741.162	-0.56
741.561	0.16
741.96	1.26
742.36	0.29
742.759	0.35
743.158	-1.27
743.557	-1.24
743.955	-1.01
744.354	-0.95
744.753	-1.72
745.152	0.7
745.55	-0.68
745.949	0.08
746.348	-0.39
746.746	-1.36
747.144	1.07
747.543	0.38
747.941	0.11
748.339	0.07
748.737	0.68
749.136	2.51
749.534	0.9
749.932	3.85
750.33	3.07
750.727	1.59
751.125	4
751.523	2.8
751.921	6.23
752.318	6.88
752.716	8.7
753.113	8.81
753.511	7.86
753.908	7.91
754.305	9.9
754.703	10.85
755.1	12.61
755.497	12.1
755.894	11.02
756.291	8.33
756.688	9.29
757.085	6.63
757.482	7.61
757.878	9.92
758.275	12.09
758.672	5.14
759.068	3.22
759.465	1.31
759.861	-2.07
760.258	-5.97
760.654	-7.92
761.05	-7.73
761.447	-3.93
761.843	-5.18
762.239	-4.13
762.635	-7.68
763.031	-8.67
763.427	-8.49
763.822	-6.27
764.218	-4.09
764.614	-2.25
765.01	-2.86
765.405	-4.36
765.801	-4
766.196	-2.77
766.592	-5.19
766.987	-3.33
767.382	-3.03
767.778	-2.72
768.173	-3.32
768.568	-3.29
768.963	-2.42
769.358	-2.26
769.753	-0.71
770.148	-0.79
770.542	-1.76
770.937	-2.49
771.332	-2
771.726	-2.29
772.121	1.99
772.515	2.69
772.91	2.06
773.304	1.09
773.699	0.7
774.093	-0.36
774.487	-0.35
774.881	-0.85
775.275	0.12
775.669	-0.49
776.063	-1.04
776.457	-3.05
776.851	-3.88
777.245	-2.54
777.638	-2.41
778.032	-1.3
778.425	0.32
778.819	3.33
779.212	6.71
779.606	10.63
779.999	8.91
780.392	10.21
780.786	8.06
781.179	8.63
781.572	9.64
781.965	11
782.358	10.66
782.751	8.23
783.143	5.76
783.536	3.44
783.929	0.31
784.322	2.14
784.714	1.56
785.107	4.02
785.499	6.11
785.891	6.79
786.284	5.45
786.676	5.5
787.068	8.91
787.46	9.49
787.852	8.57
788.245	7.76
788.636	5.2
789.028	7.74
789.42	6.8
789.812	5.64
790.204	3.47
790.595	6.38
790.987	6.75
791.378	6.49
791.77	4.79
792.161	4
792.553	3.9
792.944	5.69
793.335	1.63
793.726	2.36
794.117	4.67
794.508	4.53
794.899	1.79
795.29	1.96
795.681	-0.9
796.072	0.61
796.463	23.17
796.853	28.01
797.244	28.87
797.634	31.96
798.025	30.6
798.415	25.15
798.806	27.77
799.196	29.52
799.586	32.73
799.976	36.15
800.366	33.83
800.756	10.12
801.146	6.98
801.536	4.65
801.926	4.47
802.316	5.67
802.706	7.32
803.095	5.75
803.485	4.43
803.874	0.31
804.264	-1.6
804.653	1.93
805.043	6.57
805.432	8.41
805.821	13.51
806.21	13.46
806.599	10.63
806.988	12.54
807.377	7.89
807.766	6.19
808.155	5.54
808.544	4.71
808.933	2.43
809.321	3.78
809.71	-1.28
810.098	-1.93
810.487	-4.37
810.875	-2.46
811.264	-4.05
811.652	12.08
812.04	14.86
812.428	18.58
812.816	15.95
813.204	19.11
813.592	11.74
813.98	13.05
814.368	14.87
814.756	15.72
815.144	14.82
815.531	19.89
815.919	6.39
816.306	6.7
816.694	6.59
817.081	12.38
817.469	13
817.856	9.03
818.243	6.3
818.63	-1.9
819.017	3.12
819.404	4.58
819.791	0.14
820.178	-3.04
820.565	2.44
820.952	12.28
821.339	13.48
821.725	10.59
822.112	17.01
822.498	21.03
822.885	22.73
823.271	17.8
823.657	15.93
824.044	18.94
824.43	19.35
824.816	22.96
825.202	18.64
825.588	17.67
825.974	21.22
826.36	22.17
826.746	22.65
827.132	23.59
827.517	28.92
827.903	28.65
828.289	31.32
828.674	32.89
829.06	26.98
829.445	19.63
829.83	15.84
830.216	13.46
830.601	16.4
830.986	26.84
831.371	26.96
831.756	26.86
832.141	37
832.526	35.81
832.911	35.92
833.295	34.86
833.68	35.21
834.065	40.14
834.449	40.3
834.834	39.6
835.218	33.37
835.603	36.94
835.987	34.58
836.371	26.95
836.755	24.76
837.139	20.83
837.524	17.3
837.908	13.54
838.291	14.18
838.675	8.61
839.059	8.53
839.443	4.94
839.827	-2.51
840.21	-8.19
840.594	-7.17
840.977	-7.28
841.361	-4.17
841.744	-3.7
842.127	0.61
842.511	-3.85
842.894	-5.05
843.277	-9.78
843.66	-9.82
844.043	-1.78
844.426	5.29
844.809	2.47
845.191	7.5
845.574	7.89
845.957	8.88
846.339	11.57
846.722	13.39
847.104	13.53
847.487	11.9
847.869	12.14
848.252	10.16
848.634	9.02
849.016	8.01
849.398	1.96
849.78	-2.96
850.162	-0.78
850.544	-1.24
850.926	-3.65
851.307	-1.94
851.689	0.91
852.071	-4.87
852.452	-2.57
852.834	-1.22
853.215	2.98
853.597	6.17
853.978	16.44
854.359	15.95
854.741	19.76
855.122	17.03
855.503	17.71
855.884	18.6
856.265	24.5
856.646	16.37
857.026	17.22
857.407	19.44
857.788	16.7
858.169	8.09
858.549	16.87
858.93	12.71
859.31	16.89
859.69	24.43
860.071	23.34
860.451	24.84
860.831	28.54
861.211	22.45
861.591	17.16
861.971	14.94
862.351	16.02
862.731	7.35
863.111	9.27
863.491	12.33
863.87	3.8
864.25	2.6
864.629	4.59
865.009	3.72
865.388	7.22
865.768	4.76
866.147	12.61
866.526	15.24
866.905	15.96
867.284	3.05
867.663	-3.58
868.042	2.78
868.421	1.06
868.8	-7.67
869.179	-3.23
869.558	-1.33
869.936	2.97
870.315	-2.6
870.693	0.15
871.072	-5.71
871.45	2.15
871.828	7.32
872.207	3.84
872.585	10.52
872.963	12.7
873.341	20.94
873.719	31.68
874.097	30.32
874.475	28.52
874.853	24.27
875.23	27.62
875.608	27.05
875.986	26.35
876.363	23.34
876.741	32.86
877.118	45.71
877.495	40.81
877.873	25.99
878.25	29
878.627	35.25
879.004	34.57
879.381	31.52
879.758	40.12
880.135	37.44
880.512	41.13
880.889	26.03
881.265	14.9
881.642	10.43
882.019	14.14
882.395	22.15
882.772	29.94
883.148	33.6
883.524	34.6
883.901	28.33
884.277	27.94
884.653	23.67
885.029	33.44
885.405	42.74
885.781	43.05
886.157	40.44
886.532	31.28
886.908	19.4
887.284	17.06
887.659	19.99
888.035	17.29
888.411	13.84
888.786	16.87
889.161	11.31
889.537	-0.58
889.912	-2.08
890.287	7.13
890.662	6.65
891.037	-1.15
891.412	-0.66
891.787	-8.53
892.162	-2.98
892.536	-0.41
892.911	5.37
893.286	0.96
893.66	5.18
894.035	8.84
894.409	-3.21
894.784	2.18
895.158	12.11
895.532	15.18
895.906	24.98
896.281	26.35
896.655	32.72
897.029	34.1
897.402	38.48
897.776	36.68
898.15	29.98
898.524	29.4
898.898	21.65
899.271	33.12
899.645	35.84
900.018	23.4
900.392	22.47
900.765	16.01
901.138	13.51
901.511	5.84
901.884	20.82
902.258	28.35
902.631	35.31
903.003	41.71
903.376	25.41
903.749	21.22
904.122	19.53
904.495	-1.58
904.867	-13.6
905.24	-12.35
905.612	-15.54
905.985	-33.56
906.357	-45.44
906.729	-40.67
907.102	-27.31
907.474	-18.54
907.846	-12.86
908.218	-6.37
908.59	20.92
908.962	26.98
909.334	26.59
909.705	36.23
910.077	41.39
910.449	42.66
910.82	46.99
911.192	40.86
911.563	42.28
911.935	30.37
912.306	20.96
912.677	2.41
913.048	14.71
913.419	11.65
913.79	9.12
914.161	-2.04
914.532	9.6
914.903	-1.36
915.274	-2.11
915.645	-6.34
916.015	-17.34
916.386	-6.88
916.756	-13.33
917.127	-28.65
917.497	-18.99
917.868	-22.75
918.238	-16.33
918.608	-30.34
918.978	-21.46
919.348	-23.38
919.718	-24.84
920.088	-10.24
920.458	-0.03
920.828	-3.83
921.198	1.31
921.567	1.85
921.937	10.56
922.306	3.87
922.676	4.51
923.045	17.96
923.415	26.27
923.784	26.74
924.153	35.36
924.522	38.38
924.891	39.43
925.26	47.48
925.629	40.14
925.998	32.51
926.367	34.3
926.736	56.71
927.104	37.25
927.473	22.18
927.842	11.93
928.21	-10.53
928.578	-37.44
928.947	-28.64
929.315	-30.76
929.683	-10.36
930.051	3.17
930.42	-4.19
930.788	-25.2
931.156	-12.19
931.523	41.28
931.891	71.59
932.259	91.16
932.627	123.63
932.994	167.49
933.362	156.68
933.729	125
934.097	112.04
934.464	113.62
934.831	115.82
935.199	114.94
935.566	82.32
935.933	123.34
936.3	153.07
936.667	116.32
937.034	202.66
937.401	178.22
937.767	166.32
938.134	154.5
938.501	191.38
938.867	234.38
939.234	406.13
939.6	328.78
939.967	223.7
940.333	173.25
940.699	104
941.065	-23.15
941.431	7.07
941.798	58.36
942.163	100.75
942.529	75.6
942.895	40.75
943.261	30.44
943.627	47.13
943.992	47.87
944.358	23.9
944.723	81.3
945.089	86.63
945.454	75.13
945.82	47.19
946.185	28.41
946.55	33.48
946.915	43.38
947.28	50.56
947.645	47.9
948.01	68.48
948.375	93.62
948.74	65.17
949.104	70.61
949.469	32.89
949.834	41.86
950.198	219.23
950.562	178.41
950.927	148.82
951.291	174.19
951.655	141.94
952.02	81.53
952.384	64.75
952.748	93.25
953.112	138.06
953.476	134.6
953.839	117.83
954.203	116.25
954.567	124.29
954.931	132.95
955.294	140.71
955.658	111.18
956.021	172.37
956.385	180.24
956.748	126.93
957.111	-287.53
957.474	-413.01
957.837	-481.86
958.2	-584.38
958.563	-206.75
958.926	-79.68
959.289	-178.41
959.652	-83.52
960.015	-29.2
960.377	32.29
960.74	97.55
961.102	132.56
961.465	391.46
961.827	688.48
962.189	1197.49
962.552	913.33
962.914	729.95
963.276	440.55
963.638	319.8
964	301.34
964.362	221.29
964.724	188.48
965.085	159.23
965.447	116.36
965.809	27.97
966.17	21.43
966.532	20.06
966.893	16.89
967.255	26.36
967.616	30.97
967.977	38.38
968.338	9.96
968.699	31.17
969.061	16.85
969.421	19.49
969.782	18.91
970.143	37.07
970.504	67.43
970.865	89.68
971.225	118.98
971.586	131.48
971.946	142.68
972.307	132.41
972.667	117.09
973.027	133.97
973.388	142.48
973.748	113.88
974.108	128.79
974.468	42.36
974.828	95.67
975.188	32
975.548	31.95
975.907	56.04
976.267	62.74
976.627	93.45
976.986	88.53
977.346	62.05
977.705	45.79
978.064	38.57
978.424	47.43
978.783	2.37
979.142	4.54
979.501	-3.76
979.86	-7.98
980.219	-13.19
980.578	-52.16
980.937	-68.78
981.296	-18.5
981.654	-20.6
982.013	-66.37
982.371	-73.06
982.73	-39.98
983.088	-35.39
983.447	-24.86
983.805	7.29
984.163	17.04
984.521	-136.92
984.879	-191.86
985.237	592.39
985.595	153.98
985.953	35.36
986.311	-36.97
986.669	-1.66
987.026	-12.34
987.384	-60.55
987.741	-141.62
988.099	-26.53
988.456	4.91
988.814	14.01
989.171	5.89
989.528	-43.91
989.885	-51.73
990.242	-19.48
990.599	-64.5
990.956	-56.64
991.313	-22.93
991.67	-4.65
992.027	26.65
992.383	29.46
992.74	33.79
993.096	50.53
993.453	53.94
993.809	41.96
994.165	59.96
994.522	127.56
994.878	143.32
995.234	162
995.59	151.02
995.946	63.47
996.302	69.55
996.658	67.27
997.013	50.37
997.369	130.1
997.725	213.94
998.08	121.58
998.436	-30.71
998.791	-27.09
999.147	24.2
999.502	64.23
999.857	56.77
1000.212	65.07
1000.567	49.66
1000.922	12.1
1001.277	-40.8
1001.632	-15.01
1001.987	-47.57
1002.342	-11.54
1002.696	-11.62
1003.051	8.12
1003.406	17.28
1003.76	3.49
1004.114	4.33
1004.469	30.14
1004.823	47.68
1005.177	47.29
1005.531	38.8
1005.885	66.76
1006.239	107.72
1006.593	132.95
1006.947	164.8
1007.301	92.64
1007.655	87.9
1008.008	74.43
1008.362	91.89
1008.715	86.49
1009.069	87.43
1009.422	202.13
1009.776	275.55
1010.129	72.59
1010.482	49.05
1010.835	-31.47
1011.188	20.76
1011.541	22.55
1011.894	195.08
1012.247	-2117.7
1012.6	-167.82
1012.952	-80.55
1013.305	-105.29
1013.657	-37.75
1014.01	-37.76
1014.362	-23.9
1014.715	55.46
1015.067	51.86
1015.419	67.82
1015.771	83.26
1016.123	93.18
1016.475	106.17
1016.827	100.03
1017.179	123.37
1017.531	87.54
1017.883	83.26
1018.234	150.81
1018.586	152.94
1018.938	218.95
1019.289	307
1019.64	275.44
1019.992	207.72
1020.343	186.31
1020.694	193.59
1021.045	162.75
1021.396	184.46
1021.747	241.03
1022.098	147.3
1022.449	123.05
1022.8	82.72
1023.151	72.47
1023.501	84.03
1023.852	106.25
1024.202	122.66
1024.553	104.83
1024.903	149.73
1025.253	177.41
1025.604	169.69
1025.954	207.07
1026.304	203.63
1026.654	213.47
1027.004	267.87
1027.354	291.35
1027.703	267.19
1028.053	235.2
1028.403	422.69
1028.753	48.68
1029.102	-899
1029.452	-8752.28
1029.801	-452.87
1030.15	-289.11
1030.499	-296.14
897.758	1942.67
901.051	1865.54
904.343	1898.71
907.636	1908.05
910.928	1964.72
914.22	1890.79
917.511	1894.88
920.803	1936.42
924.094	1923.11
927.384	1934.95
930.675	1898.4
933.965	1865.82
937.255	1903.97
940.544	1878.22
943.834	1861.55
947.123	1809.51
950.411	1891.63
953.7	1875.8
956.988	1865.13
960.276	1801.42
963.563	1836.26
966.851	1849.54
970.138	1883.43
973.424	1883.91
976.711	1836.8
979.997	1886
983.283	1921.97
986.568	1862.88
989.853	1843.28
993.138	1864.38
996.423	1950.06
999.708	1914.54
1002.992	1939.86
1006.275	1852.93
1009.559	1855.35
1012.842	1943.15
1016.125	1902.86
1019.408	1884.13
1022.69	1925.03
1025.972	1961.94
1029.254	1938.95
1032.536	1910.16
1035.817	1912.78
1039.098	1883.89
1042.379	1926.85
1045.659	1949.23
1048.939	1902.81
1052.219	1905.38
1055.498	1892.01
1058.778	1891.37
1062.057	1861.9
1065.335	1884.58
1068.614	1891
1071.892	1892.08
1075.17	1931.06
1078.447	1940.2
1081.724	1935.46
1085.001	1951.35
1088.278	1931.15
1091.554	1931.67
1094.83	1925.94
1098.106	1963.36
1101.382	1985.11
1104.657	1981.19
1107.932	1978.46
1111.206	1964.31
1114.481	1916.37
1117.755	1915.95
1121.029	1914.05
1124.302	1968.31
1127.575	1942.46
1130.848	1942.26
1134.121	1913.93
1137.393	1882.26
1140.665	1932.42
1143.937	1916.37
1147.208	1862.83
1150.48	1921.5
1153.75	1909.79
1157.021	1902.09
1160.291	1884.44
1163.561	1932.88
1166.831	1897.64
1170.101	1919.84
1173.37	1876.15
1176.639	1842.29
1179.907	1878.23
1183.176	1905.28
1186.444	1904.42
1189.711	1923.9
1192.979	1950.75
1196.246	1910.36
1199.513	1920.17
1202.78	1925.39
1206.046	1933.34
1209.312	1964.71
1212.578	1976.21
1215.843	1949.52
1219.108	1919.83
1222.373	1940.47
1225.638	1922.25
1228.902	1918.49
1232.166	1877.77
1235.43	1869.84
1238.693	1897.45
1241.956	1889.52
1245.219	1935.2
1248.482	1917.8
1251.744	1917.51
1255.006	2018.49
1258.268	1969.37
1261.529	1933.94
1264.79	1929.7
1268.051	2013.95
1271.312	2021.92
1274.572	1994.38
1277.832	1980.92
1281.092	1960.39
1284.351	1958.15
1287.61	1945
1290.869	1893.44
1294.128	1896.34
1297.386	1924.44
1300.644	1918.25
1303.902	1930.63
1307.159	1812.72
1310.416	1856.83
1313.673	1885.38
1316.93	1888.51
1320.186	1910.03
1323.442	1938.48
1326.697	1943.48
1329.953	1917.48
1333.208	1955.17
1336.463	1932.2
1339.717	1902.27
1342.972	1996.67
1346.226	1972.74
1349.479	1932.87
1352.733	1918.06
1355.986	1919.71
1359.238	1904.82
1362.491	1911.3
1365.743	1910
1368.995	1906.93
1372.247	1923.22
1375.498	1939.75
1378.749	1986.5
1382	1942.25
1385.251	1972.5
1388.501	1928.41
1391.751	1938.8
1395	1908.54
1398.25	1933.13
1401.499	1964.03
1404.748	1923.72
1407.996	1901.64
1411.244	1895.42
1414.492	1884.53
1417.74	1873.59
1420.987	1875.79
1424.234	1933.87
1427.481	1894.21
1430.728	1945.75
1433.974	1922.65
1437.22	1914.56
1440.465	1908.46
1443.711	1917.88
1446.956	1935.08
1450.201	1903.1
1453.445	1941.51
1456.689	1932.93
1459.933	1941.14
1463.177	1977.61
1466.42	1953.03
1469.663	1936.52
1472.906	1957.21
1476.148	1996.03
1479.391	1952.63
1482.633	1932.76
1485.874	1957.49
1489.115	1966.66
1492.356	1943.97
1495.597	1923.56
1498.838	1912.44
1502.078	1902.32
1505.318	1881.37
1508.557	1905.23
1511.797	1904.43
1515.036	1953.24
1518.274	1918.13
1521.513	1865.76
1524.751	1871.78
1527.989	1894.1
1531.227	1910.64
1534.464	1927.59
1537.701	1914.5
1540.938	1921.66
1544.174	1872.63
1547.41	1857.66
1550.646	1891.46
1553.882	1936.96
1557.117	1989.25
1560.352	1991.58
1563.587	1959.37
1566.821	1931.01
1570.055	1935.47
1573.289	1918.4
1576.523	1963.63
1579.756	1979.21
1582.989	1997.8
1586.222	1959.8
1589.454	1981.58
1592.686	1970.5
1595.918	1993.96
1599.15	1992.53
1602.381	2026.23
1605.612	2017.49
1608.843	2099.71
1612.073	2031.25
1615.303	2021.42
1618.533	2020.96
1621.762	2017.64
1624.992	1992.29
1628.221	1996.51
1631.449	1987.82
1634.678	1999.64
1637.906	1971.61
1641.134	1994.62
1644.361	1962.75
1647.588	1954.99
1650.815	1975.12
1654.042	1936.36
1657.269	1963.3
1660.495	1952.04
1663.72	1930.73
1666.946	1903.87
1670.171	1893.47
1673.396	1867.89
1676.621	1849.93
1679.845	1842.29
1683.069	1844.42
1686.293	1867.82
1689.517	1867.97
1692.74	1828.79
1695.963	1846.18
1699.185	1888.67
1702.408	1866.97
1705.63	1889.02
1708.852	1910.3
1712.073	1880.84
1715.294	1899.97
1718.515	1937.55
1721.736	1903.44
1724.956	1881.27
1728.176	1900.59
1731.396	1919.94
1734.616	1908.15
1737.835	1943.91
1741.054	1915.56
1744.272	1908.36
1747.491	1950.73
1750.709	1963.79
1753.927	1930.72
1757.144	1949.3
1760.361	2006.79
1763.578	1978.77
1766.795	1937.17
1770.011	1924.96
1773.227	1943.01
1776.443	1983.55
1779.658	2022.28
1782.874	1966.29
1786.089	1963.95
1789.303	1966.35
1792.518	1962.46
1795.732	1951.7
1798.945	1969.75
1802.159	2006.33
1805.372	1965.25
1808.585	1962.89
1811.797	1964
1815.01	1976.53
1818.222	2007.94
1821.434	1964.58
1824.645	1999.24
1827.856	2014.1
1831.067	2039.62
1834.278	1980.94
1837.488	1967.46
1840.698	2070.07
1843.908	2026.17
1847.117	2000.78
1850.326	1947.02
1853.535	1989.21
1856.744	2030.74
1859.952	1965.19
1863.16	1971.54
1866.368	1986.12
1869.575	2096.83
1872.782	1990.21
1875.989	1932.27
1879.196	1970.61
1882.402	1968.29
1885.608	1996.73
1888.814	1959.87
1892.019	1883
1895.224	1933.39
1898.429	1896.27
1901.634	1885.48
1904.838	1862.46
1908.042	1921.74
1911.246	1938.52
1914.449	1912.94
1917.652	1888.85
1920.855	1873.38
1924.058	1888.56
1927.26	1934.71
1930.462	1951.52
1933.664	1995.61
1936.865	1944.63
1940.066	1962.46
1943.267	1908.65
1946.467	1913.97
1949.668	1927.78
1952.868	1996.79
1956.067	1992.01
1959.267	1936.37
1962.466	1956.34
1965.665	1938.63
1968.863	1934.3
1972.061	1930.53
1975.259	1921.88
1978.457	1990.32
1981.654	1953.05
1984.852	1957.52
1988.048	1918.98
1991.245	1902.44
1994.441	1988.68
1997.637	1938.88
2000.833	1925.1
2004.028	1952.32
2007.223	2014.28
2010.418	2006.94
2013.613	1956.03
2016.807	1959.85
2020.001	1952.35
2023.194	1965.39
2026.388	1951.68
2029.581	1897.82
2032.774	1963.12
2035.966	1973.2
2039.158	1929.37
2042.35	1945.15
2045.542	1874.8
2048.733	1946.79
2051.924	1927.73
2055.115	1936.81
2058.306	1911.55
2061.496	1963.3
2064.686	2003.51
2067.875	1912.84
2071.065	1908.83
2074.254	1924.54
2077.442	1881.36
2080.631	1956.37
2083.819	1906.84
2087.007	1901.79
2090.195	1891.79
2093.382	1899.3
2096.569	1886.65
2099.756	1854.06
2102.942	1906.85
2106.128	1925.94
2109.314	1910.56
2112.5	1905.27
2115.685	1871.63
2118.87	1877.4
2122.055	1934.39
2125.239	1919.63
2128.424	1913.65
2131.608	1954.25
2134.791	1939.42
2137.974	1966.18
2141.157	1957.07
2144.34	1939.87
2147.523	1919.57
2150.705	1949.68
2153.887	1914.49
2157.068	1897.42
2160.25	1869.9
2163.431	1888.13
2166.611	1865.49
2169.792	1890.95
2172.972	1814.32
2176.152	1852.02
2179.331	1874.36
2182.511	1887.4
2185.69	1904.49
2188.868	1914.53
2192.047	1938.73
2195.225	1966.34
2198.403	1914.39
2201.58	1901.19
2204.758	1885.21
2207.935	1951.84
2211.111	1882.94
2214.288	1872.41
2217.464	1903.1
2220.64	1855.94
2223.815	1899.69
2226.991	1839.95
2230.166	1853.93
2233.34	1900.49
2236.515	1911.91
2239.689	1965.9
2242.863	1923.22
2246.036	1970.59
2249.209	1950.91
2252.382	1963.19
2255.555	1980.41
2258.727	1938.28
2261.9	1961.43
2265.071	1954.89
2268.243	1951.42
2271.414	1907.97
2274.585	1901.66
2277.756	1957.33
2280.926	1917.1
2284.096	1940.69
2287.266	1883.84
2290.436	1925.02
2293.605	1940.67
2296.774	1983.42
2299.942	1982.52
2303.111	1996.25
2306.279	2048.2
2309.447	2032.71
2312.614	2003.19
2315.781	2030.6
2318.948	2010.66
2322.115	2044.53
2325.281	1949.56
2328.447	1952.03
2331.613	1923.89
2334.779	1921.53
2337.944	1913.69
2341.109	1916.55
2344.274	1908.64
2347.438	1879.7
2350.602	1896.29
2353.766	1905.39
2356.929	1896.14
2360.092	1929.65
2363.255	1909.21
2366.418	1886.64
2369.58	1931.2
2372.742	1853.29
2375.904	1836.4
2379.066	1826.56
2382.227	1847.46
2385.388	1813.56
2388.548	1772.64
2391.709	1807.43
2394.869	1803.3
2398.029	1836.92
2401.188	1826.35
2404.347	1803.81
2407.506	1849.1
2410.665	1896.56
2413.823	1873.49
2416.981	1861.72
2420.139	1870.19
2423.296	1907.25
2426.453	1881.84
2429.61	1897.91
2432.767	1885.42
2435.923	1925.07
2439.079	1866.46
2442.235	1893.79
2445.391	1840.05
2448.546	1887.15
2451.701	1913.55
2454.855	1918.83
2458.009	1934.35
2461.163	1920.32
2464.317	1899.79
2467.471	1921.11
2470.624	1944.89
2473.777	1945.07
2476.929	1962
2480.082	1984.24
2483.234	1962.6
2486.385	1900.63
2489.537	1894.91
2492.688	1899.98
2495.839	1912.33
2498.989	1927.16
2502.14	1916.95
2505.29	1915.13
2508.439	1933.36
2511.589	1883.81
2514.738	1877.01
2517.887	1895.9
2521.035	1975.72
2524.183	1926.78
2527.331	1916.24
2530.479	1919.2
2533.627	1918.72
