Data from C_1_HIR_IL_4N_Splice17_11-51-51-959.txt Node
Date: Sat Mar 14 11:51:51 EDT 2020
User: sa697716
Spectrometer: FLMS03696
Trigger mode: 0
Integration Time (sec): 3.180400E-1
Scans to average: 20
Electric dark correction enabled: true
Nonlinearity correction enabled: true
Boxcar width: 5
XAxis mode: Wavelengths
Number of Pixels in Spectrum: 2048
>>>>>Begin Spectral Data<<<<<
187.83	-295731.06
188.298	2208.34
188.766	1156.06
189.233	1046.76
189.701	1467.86
190.169	2060.87
190.636	778.35
191.104	628.33
191.571	65.36
192.039	-60.28
192.506	-74.2
192.974	408.45
193.441	-606.51
193.908	-220.24
194.375	-49.51
194.842	36.46
195.31	86.63
195.777	162.3
196.244	389.99
196.711	475.3
197.177	615.84
197.644	885.32
198.111	1535.07
198.578	2171.01
199.045	1741.54
199.511	2848.47
199.978	3309.84
200.445	2839.44
200.911	3174.51
201.378	3576.7
201.844	3253.17
202.31	5558.45
202.777	5775.58
203.243	3234.76
203.709	3087.9
204.176	3702.33
204.642	3064.19
205.108	2879.05
205.574	2343.9
206.04	2128.23
206.506	1965.57
206.972	1860.73
207.438	1784.74
207.903	2034.13
208.369	1785.76
208.835	1781.83
209.301	1858.36
209.766	1905.55
210.232	1883.76
210.697	2337.43
211.163	2858.53
211.628	4343.48
212.094	3646.81
212.559	4498.79
213.024	2820.43
213.49	3426.71
213.955	3348.15
214.42	3303.71
214.885	3053.01
215.35	2914.57
215.815	2782.83
216.28	2955.7
216.745	2408.53
217.21	2587.02
217.675	2383.02
218.14	2652.29
218.604	2950.17
219.069	3374.1
219.534	3514.89
219.998	4088.37
220.463	4951.13
220.927	6112.31
221.392	5765.67
221.856	5842.92
222.32	7364.76
222.785	9069.86
223.249	11454.35
223.713	12795.11
224.177	12771.83
224.642	16413.32
225.106	20217.65
225.57	22104.28
226.034	16445.32
226.497	25044.27
226.961	22595.96
227.425	26359.58
227.889	29296.85
228.353	29310.56
228.816	60581.09
229.28	58011.19
229.744	48926.48
230.207	29768.77
230.671	29275.71
231.134	48438.98
231.597	55876.56
232.061	55931.24
232.524	54526.29
232.987	37567.23
233.45	33793.22
233.914	30269.67
234.377	31012.41
234.84	28383.24
235.303	33458.88
235.766	37394.4
236.229	38618.4
236.691	24311.14
237.154	27310.55
237.617	20559.76
238.08	21037.77
238.542	24603.13
239.005	17611.02
239.468	17487.27
239.93	16479.06
240.393	14972.54
240.855	13155.49
241.317	13490.55
241.78	16424.06
242.242	17005.29
242.704	18345.91
243.166	15977.26
243.629	14496.91
244.091	16687.77
244.553	18280.4
245.015	19657.04
245.477	25434.8
245.939	37226.31
246.4	39490.01
246.862	38395.43
247.324	36135.24
247.786	40420.68
248.247	52972.14
248.709	54818.01
249.17	41030.87
249.632	38657.67
250.093	44818.39
250.555	38726.58
251.016	23631.77
251.477	22405.11
251.939	24161.93
252.4	25358.28
252.861	30173.52
253.322	28095.11
253.783	33418.73
254.244	43359.4
254.705	34184.29
255.166	30361.14
255.627	29889.85
256.088	42153.79
256.549	44788.26
257.009	38590.93
257.47	46862.41
257.931	38193.28
258.391	28612.7
258.852	29510.24
259.312	30940.55
259.773	38230.28
260.233	32373.49
260.694	27326.14
261.154	31014.32
261.614	24906.24
262.074	22285.78
262.534	23155.88
262.994	21836.97
263.455	29120.48
263.915	24522.73
264.374	23134.13
264.834	25286.73
265.294	28035.79
265.754	29034.5
266.214	27505.55
266.673	25796.23
267.133	32577.33
267.593	32332.42
268.052	39579.19
268.512	34439.42
268.971	41559.21
269.431	45550.31
269.89	40794.68
270.349	61168.53
270.809	68222.2
271.268	61348.74
271.727	137575.72
272.186	89083.83
272.645	66821.94
273.104	48203.75
273.563	69817.12
274.022	54951.01
274.481	46772.54
274.94	36055.46
275.399	26816.6
275.857	31223.56
276.316	42254.44
276.775	37641.78
277.233	37082.31
277.692	34728.38
278.15	39286.32
278.609	40421.89
279.067	37412.3
279.525	34748.77
279.984	44849.51
280.442	53899.41
280.9	53149.21
281.358	34935.62
281.816	32561.02
282.274	31926.87
282.732	33011.42
283.19	33198.12
283.648	28660.72
284.106	30532.95
284.564	31066.87
285.021	28820.63
285.479	21479.3
285.937	19551.61
286.394	17153.63
286.852	17645.27
287.309	18552.68
287.767	17901.87
288.224	17014.71
288.682	18671.5
289.139	20494.9
289.596	18740.08
290.053	19470.04
290.511	24545.29
290.968	29756.14
291.425	40413.71
291.882	33608.44
292.339	29197.72
292.796	29008.97
293.252	27332.1
293.709	21681.08
294.166	19442.31
294.623	21503.09
295.079	20641.77
295.536	20742.41
295.992	18836.32
296.449	18605.96
296.905	19319.37
297.362	18518.01
297.818	19473.5
298.274	20194.28
298.731	20605.26
299.187	20364.09
299.643	21847.42
300.099	26422.68
300.555	28997.11
301.011	24245.4
301.467	23371.28
301.923	27384.94
302.379	26740.81
302.835	26245.56
303.291	26265.32
303.746	29857.4
304.202	37722.21
304.658	37862.06
305.113	25490.81
305.569	24954.82
306.024	26595.02
306.479	25336.4
306.935	21353.39
307.39	23339.01
307.845	21566.02
308.301	21716.27
308.756	21170.48
309.211	20400.27
309.666	20918.32
310.121	25922.37
310.576	26341
311.031	26110.08
311.486	29903.16
311.94	29892.88
312.395	39982.81
312.85	75092.38
313.305	369548.27
313.759	1913752.04
314.214	138709.8
314.668	109942.06
315.123	92521.97
315.577	33122.76
316.032	29526.49
316.486	36999.69
316.94	29171.56
317.394	20313.64
317.849	15788.14
318.303	14928.89
318.757	14085.98
319.211	15579.64
319.665	13622.08
320.119	13782.28
320.572	19782
321.026	18450.7
321.48	15379.56
321.934	16793.6
322.387	16817.61
322.841	18186.83
323.295	16346.48
323.748	18806.86
324.202	19089.21
324.655	22956.85
325.108	32097.16
325.562	22705.29
326.015	26991.68
326.468	20376.59
326.921	22793.02
327.374	21246.45
327.827	22103.6
328.28	25018.08
328.733	16786.24
329.186	14754.99
329.639	14039.86
330.092	11832.92
330.545	11264.99
330.997	11366.64
331.45	12429.77
331.903	14569.94
332.355	25121.11
332.808	24446.79
333.26	20200.55
333.713	21948.1
334.165	22135.92
334.617	29581.74
335.069	23899.48
335.522	43180.49
335.974	47858.88
336.426	43728.63
336.878	30297.07
337.33	15358.43
337.782	14958.98
338.234	18705.15
338.686	22376.11
339.137	26471.77
339.589	24976.58
340.041	19572.65
340.493	16839.04
340.944	17206.48
341.396	18503.87
341.847	15545.93
342.299	18348.76
342.75	22403.03
343.201	19598.79
343.653	22497.18
344.104	27694.6
344.555	21760.98
345.006	33902.14
345.457	25927.2
345.908	20655.34
346.359	19483.93
346.81	15875.12
347.261	16722.78
347.712	16486.58
348.163	17673.54
348.613	17890.76
349.064	16674.94
349.515	14606.05
349.965	14982.02
350.416	18038.73
350.866	19752.15
351.317	22325.05
351.767	36971.87
352.217	46737.75
352.668	38828.88
353.118	35554.61
353.568	34342.73
354.018	27197.76
354.468	28668.15
354.918	20555.99
355.368	18007.7
355.818	25446.85
356.268	73154.29
356.718	305984
357.168	76100.15
357.617	38211.87
358.067	42497.52
358.517	39800.36
358.966	46651.75
359.416	52356.66
359.865	56657.76
360.315	67462.13
360.764	31502.4
361.213	17666.94
361.663	16750.01
362.112	20694.32
362.561	33358.69
363.01	25174.96
363.459	21209.77
363.908	22935
364.357	19502.72
364.806	32939.14
365.255	22655.97
365.703	20754.26
366.152	20770.76
366.601	16863.61
367.05	13691.17
367.498	12482.75
367.947	13055.58
368.395	13593.37
368.844	12047.48
369.292	14523.72
369.74	10041.74
370.189	15406.64
370.637	18129.32
371.085	15697.35
371.533	19155.52
371.981	18486.65
372.429	17613.6
372.877	18384.62
373.325	15417.75
373.773	15772.34
374.221	14088.42
374.669	17535.52
375.116	15213.37
375.564	15348.58
376.012	17182.06
376.459	14213.15
376.907	17047.76
377.354	20710.53
377.801	19384.94
378.249	22340.67
378.696	28655.83
379.143	34855.09
379.591	37261.09
380.038	63279
380.485	45988.87
380.932	49923.31
381.379	45751.55
381.826	33792.19
382.273	24100.3
382.72	21145.46
383.166	20662.42
383.613	13445.84
384.06	12169.48
384.506	14122.24
384.953	10389.95
385.4	10488.06
385.846	9223.28
386.292	9029.33
386.739	8873.73
387.185	8794.37
387.631	8820.91
388.078	8574.2
388.524	9192.39
388.97	8493.39
389.416	7095.07
389.862	7556.15
390.308	7176.27
390.754	7278.07
391.2	7901.68
391.645	8082.61
392.091	7728.27
392.537	7467.02
392.983	7496.98
393.428	7359.09
393.874	7874.25
394.319	7899.59
394.765	7491.78
395.21	7686.59
395.655	7202.91
396.101	6743.61
396.546	6077.15
396.991	6126.88
397.436	5683.01
397.881	5488.62
398.326	5196.23
398.771	4913.66
399.216	4294.41
399.661	3852.55
400.106	3828.85
400.551	3905.88
400.995	3491.6
401.44	3445.05
401.885	3233.34
402.329	3259.47
402.774	3110.95
403.218	2998.33
403.663	2878.19
404.107	2941.63
404.551	2954.96
404.995	2701.19
405.44	2599.96
405.884	2631.27
406.328	2538.6
406.772	2517.31
407.216	2282.35
407.66	2200.12
408.104	2087.18
408.547	1952.39
408.991	1884.3
409.435	1808.45
409.879	1778.41
410.322	1747.95
410.766	1683.57
411.209	1596.19
411.653	1530.78
412.096	1497.64
412.54	1495.99
412.983	1482.08
413.426	1481.41
413.869	1478.69
414.312	1447.46
414.756	1391.66
415.199	1325.88
415.642	1284.48
416.085	1287
416.527	1275.06
416.97	1292.79
417.413	1223.44
417.856	1207.77
418.298	1193.07
418.741	1183.85
419.184	1179.16
419.626	1226.33
420.069	1223.29
420.511	1227.32
420.953	1198.04
421.396	1185.98
421.838	1155.06
422.28	1179.23
422.722	1184.31
423.164	1199.75
423.606	1176.73
424.048	1174.22
424.49	1116.36
424.932	1112.09
425.374	1098.15
425.816	1115.39
426.258	1133.08
426.699	1143.06
427.141	1124.87
427.582	1139.22
428.024	1132.15
428.465	1124.61
428.907	1095.62
429.348	1080.94
429.789	1077.35
430.231	1051.57
430.672	1063.64
431.113	1041.37
431.554	1023.49
431.995	997.08
432.436	962.17
432.877	938.15
433.318	923.7
433.759	920.12
434.2	920.26
434.64	910.95
435.081	915.06
435.522	868.5
435.962	835.39
436.403	819.11
436.843	832.1
437.284	813.97
437.724	793.77
438.164	793.52
438.604	776.61
439.045	745.73
439.485	715.02
439.925	697.85
440.365	677.16
440.805	667.39
441.245	658.94
441.685	634.99
442.125	629.15
442.564	633.17
443.004	617.62
443.444	614.74
443.883	616.24
444.323	610.98
444.762	611.12
445.202	620.27
445.641	630.28
446.081	624.76
446.52	627.91
446.959	621.14
447.398	604.86
447.837	596.88
448.276	585.74
448.716	591.03
449.154	595.51
449.593	582.59
450.032	580.17
450.471	568.89
450.91	567.74
451.349	565.45
451.787	563.35
452.226	570.32
452.664	570.96
453.103	570.41
453.541	566.04
453.98	563.49
454.418	565.87
454.856	557.42
455.295	556.37
455.733	561.76
456.171	564.37
456.609	564.73
457.047	564.58
457.485	572.87
457.923	574.74
458.361	567.35
458.798	569.96
459.236	568.69
459.674	570.98
460.111	573.69
460.549	567.7
460.987	564.69
461.424	562.62
461.862	559.8
462.299	551.91
462.736	552.16
463.173	554.8
463.611	549.88
464.048	547.99
464.485	553.78
464.922	548.82
465.359	546.83
465.796	541.69
466.233	538.31
466.67	533.62
467.106	532.06
467.543	525.02
467.98	518.74
468.416	504.91
468.853	502.74
469.29	487.4
469.726	482.19
470.162	468.52
470.599	461.67
471.035	457.02
471.471	446.22
471.907	442.63
472.344	440.1
472.78	439.87
473.216	444.27
473.652	436.85
474.088	433.99
474.523	431.53
474.959	436.12
475.395	431.14
475.831	428.55
476.266	429.97
476.702	427.26
477.138	421.62
477.573	420.55
478.008	418.18
478.444	419.75
478.879	424.3
479.314	425.35
479.75	423.49
480.185	424.52
480.62	426.38
481.055	427.59
481.49	430.43
481.925	436.28
482.36	443.8
482.795	455.62
483.229	467.72
483.664	476.71
484.099	479.38
484.534	486.38
484.968	491.26
485.403	492.65
485.837	491.45
486.271	490.84
486.706	490.71
487.14	484.46
487.574	476.42
488.009	471.51
488.443	466.39
488.877	470.55
489.311	471.74
489.745	477.13
490.179	481.19
490.613	490.49
491.046	493.32
491.48	497.19
491.914	497.13
492.348	501.01
492.781	504.28
493.215	506.8
493.648	506.95
494.082	510.48
494.515	510.45
494.948	516.21
495.382	519.48
495.815	523.12
496.248	527.39
496.681	537.48
497.114	546.22
497.547	553.69
497.98	563.26
498.413	568.42
498.846	577.12
499.279	583.61
499.711	587.76
500.144	589.89
500.577	599.55
501.009	607.64
501.442	615.19
501.874	616.63
502.306	618.77
502.739	626.18
503.171	638.21
503.603	642.15
504.036	651.4
504.468	657.67
504.9	668.6
505.332	674.59
505.764	680.48
506.196	687.86
506.627	702
507.059	714.94
507.491	723.06
507.923	724.94
508.354	738.91
508.786	749.86
509.217	766.07
509.649	780.27
510.08	798.88
510.512	815.78
510.943	832.33
511.374	845.14
511.805	864.78
512.237	885.01
512.668	913.88
513.099	939.42
513.53	966.17
513.961	988.03
514.391	1018.98
514.822	1051.4
515.253	1086.28
515.684	1111.44
516.114	1140.17
516.545	1163.37
516.975	1190.25
517.406	1211.22
517.836	1218.68
518.267	1228.98
518.697	1249.9
519.127	1259.15
519.558	1269.5
519.988	1277.16
520.418	1291.37
520.848	1312.02
521.278	1324.77
521.708	1345.69
522.138	1362.3
522.567	1394.73
522.997	1421.81
523.427	1439.61
523.857	1458.47
524.286	1473.7
524.716	1491.07
525.145	1511.8
525.575	1525.68
526.004	1542.21
526.433	1539.27
526.863	1542.35
527.292	1536.04
527.721	1545.03
528.15	1553.17
528.579	1556.36
529.008	1568.03
529.437	1591.55
529.866	1606.6
530.295	1624.13
530.724	1637.27
531.152	1665.75
531.581	1680.98
532.01	1699.24
532.438	1708.38
532.867	1724.14
533.295	1742.67
533.723	1749.91
534.152	1750.25
534.58	1751.57
535.008	1739.13
535.436	1743.14
535.865	1751.24
536.293	1765.9
536.721	1782.56
537.149	1807.39
537.576	1810.39
538.004	1824.74
538.432	1832.91
538.86	1832.32
539.287	1840.04
539.715	1852.82
540.143	1856.13
540.57	1852.6
540.998	1850.27
541.425	1828.75
541.852	1809.45
542.28	1808.02
542.707	1792.73
543.134	1780.27
543.561	1774.69
543.988	1766.65
544.415	1767.01
544.842	1761.01
545.269	1754.53
545.696	1755.53
546.123	1768.31
546.549	1758.34
546.976	1746.65
547.403	1744.86
547.829	1746.22
548.256	1748.19
548.682	1744.62
549.108	1736.14
549.535	1736.16
549.961	1738.11
550.387	1725.24
550.813	1718.94
551.24	1724.71
551.666	1724.51
552.092	1714.73
552.518	1708.42
552.943	1702.34
553.369	1708.74
553.795	1713.28
554.221	1712.49
554.646	1707.83
555.072	1716.65
555.498	1720
555.923	1725.88
556.349	1738.65
556.774	1745.81
557.199	1743.44
557.625	1747.46
558.05	1740.63
558.475	1748.75
558.9	1745.83
559.325	1736.03
559.75	1727.56
560.175	1719.06
560.6	1711.52
561.025	1707.47
561.449	1705.81
561.874	1709.21
562.299	1711.36
562.723	1715.11
563.148	1702.99
563.572	1704.65
563.997	1711.21
564.421	1713.39
564.846	1709.78
565.27	1710.11
565.694	1704.81
566.118	1712.92
566.542	1716.77
566.966	1706.44
567.39	1698.82
567.814	1685
568.238	1681.24
568.662	1682.23
569.086	1680.46
569.509	1684.99
569.933	1668.3
570.357	1657.59
570.78	1633.77
571.204	1618.81
571.627	1605.99
572.05	1600.9
572.474	1597.47
572.897	1581.38
573.32	1570.81
573.743	1558.99
574.166	1538.73
574.589	1534.81
575.012	1525.73
575.435	1522.4
575.858	1510.7
576.281	1498.12
576.704	1481.56
577.126	1468.24
577.549	1456.67
577.972	1445.49
578.394	1434.3
578.817	1426.39
579.239	1407.08
579.661	1391.58
580.084	1375.33
580.506	1361.79
580.928	1355.45
581.35	1343.55
581.772	1337.34
582.194	1323.05
582.616	1309.75
583.038	1293.91
583.46	1282.26
583.882	1277.41
584.303	1279.2
584.725	1273.47
585.147	1272.53
585.568	1280.12
585.99	1288.13
586.411	1290.89
586.833	1302.13
587.254	1301.56
587.675	1313.26
588.096	1322.19
588.518	1316.07
588.939	1300.39
589.36	1297.97
589.781	1286.39
590.202	1260.84
590.623	1251.67
591.043	1248.27
591.464	1236.24
591.885	1232.11
592.305	1225.44
592.726	1213.01
593.147	1212.84
593.567	1208.01
593.987	1200.72
594.408	1196.56
594.828	1194.61
595.248	1189.43
595.669	1174.95
596.089	1168.47
596.509	1163.1
596.929	1151.27
597.349	1151.23
597.769	1142.65
598.189	1137.27
598.608	1136.98
599.028	1139.87
599.448	1139.16
599.867	1127.93
600.287	1123.73
600.706	1120.21
601.126	1111.18
601.545	1110.31
601.965	1107.7
602.384	1103.1
602.803	1104
603.222	1099.35
603.641	1091.85
604.061	1087.29
604.48	1082.25
604.898	1087.13
605.317	1089.34
605.736	1090.01
606.155	1086.49
606.574	1078.13
606.992	1080.72
607.411	1074.83
607.829	1066.88
608.248	1062.13
608.666	1058.92
609.085	1058.28
609.503	1050.12
609.921	1043.36
610.339	1042.41
610.758	1039.47
611.176	1033.5
611.594	1024.66
612.012	1020.37
612.43	1020.48
612.847	1023.28
613.265	1021.79
613.683	1022.66
614.101	1020.96
614.518	1016.85
614.936	1008.51
615.353	996.39
615.771	993.53
616.188	992.33
616.606	988.34
617.023	982.85
617.44	971.17
617.857	964.27
618.274	956.81
618.691	951.03
619.108	942.58
619.525	935.63
619.942	938.85
620.359	938.3
620.776	933.43
621.192	930.21
621.609	927.2
622.026	931.77
622.442	936.17
622.859	937.78
623.275	931.89
623.691	934.9
624.108	943.76
624.524	953.36
624.94	954.4
625.356	960.94
625.772	969.05
626.188	978.18
626.604	979.06
627.02	975.94
627.436	973.91
627.852	979.1
628.268	988.67
628.683	981.88
629.099	975.37
629.514	970.84
629.93	974.44
630.345	978.11
630.761	973.48
631.176	975.39
631.591	971.15
632.007	965.97
632.422	963.05
632.837	952.44
633.252	949.34
633.667	941.38
634.082	933.7
634.497	921.93
634.911	906.45
635.326	902.95
635.741	888.95
636.155	879.74
636.57	878.77
636.984	876.95
637.399	878.26
637.813	876.07
638.228	873.06
638.642	873.52
639.056	863.92
639.47	862.18
639.884	854.16
640.298	846.43
640.712	843.68
641.126	833.21
641.54	825.73
641.954	818.49
642.368	807.72
642.781	800.68
643.195	787.73
643.609	786.93
644.022	781
644.436	775.72
644.849	766.54
645.262	756.33
645.676	755.6
646.089	751.05
646.502	740.13
646.915	736.38
647.328	725.16
647.741	723.65
648.154	714.1
648.567	711.49
648.98	701.95
649.393	701.66
649.805	698.06
650.218	692.42
650.631	681.46
651.043	675.39
651.456	670.98
651.868	669.29
652.28	679.1
652.693	686.54
653.105	690.55
653.517	696.68
653.929	697.02
654.341	700.96
654.753	692.95
655.165	695.63
655.577	695.57
655.989	690.84
656.401	685.31
656.813	661.39
657.224	647.64
657.636	627.22
658.047	615.64
658.459	601.73
658.87	594.1
659.282	585.26
659.693	572.53
660.104	562.63
660.515	553.89
660.926	552.03
661.338	549.52
661.749	546.12
662.159	541.73
662.57	538.06
662.981	535.52
663.392	531.62
663.803	535.79
664.213	534.2
664.624	531
665.035	533.31
665.445	525.33
665.855	522.8
666.266	518.44
666.676	517.01
667.086	512.75
667.497	513.94
667.907	512.14
668.317	506.37
668.727	505.95
669.137	508.12
669.547	507.98
669.956	511.03
670.366	511.7
670.776	514.01
671.186	516.88
671.595	520.72
672.005	523.64
672.414	524.26
672.824	525.96
673.233	529.04
673.642	531.06
674.052	534.22
674.461	536.66
674.87	541.34
675.279	540.23
675.688	542.71
676.097	543.93
676.506	543.09
676.915	554.12
677.323	555.8
677.732	555.62
678.141	556.63
678.549	549.78
678.958	549.76
679.366	549.05
679.775	551.93
680.183	559.7
680.592	563.75
681	567.47
681.408	562.97
681.816	568.49
682.224	574.48
682.632	579.75
683.04	600.34
683.448	616.01
683.856	636.34
684.264	660.72
684.671	682.56
685.079	708.42
685.487	737.01
685.894	776.57
686.302	808.65
686.709	835.8
687.116	868.87
687.524	895.69
687.931	919.45
688.338	941.04
688.745	957.63
689.152	977.31
689.559	1008.63
689.966	1040.83
690.373	1060.2
690.78	1092.6
691.187	1140.86
691.593	1180.75
692	1217.28
692.407	1270.1
692.813	1334.67
693.22	1390.57
693.626	1447.57
694.032	1495.57
694.439	1564.96
694.845	1621.55
695.251	1693.11
695.657	1761.7
696.063	1857.7
696.469	1934.11
696.875	2007.21
697.281	2057.22
697.687	2114.54
698.093	2167.28
698.498	2250.18
698.904	2319.27
699.31	2415.13
699.715	2490.87
700.12	2589.42
700.526	2625.25
700.931	2707.9
701.337	2775.78
701.742	2824.51
702.147	2921.55
702.552	2969.11
702.957	3045.89
703.362	3086.31
703.767	3133.16
704.172	3191.9
704.577	3166.71
704.981	3232.47
705.386	3263.59
705.791	3274.86
706.195	3364.58
706.6	3390.03
707.004	3487.75
707.408	3473.82
707.813	3515.7
708.217	3520.25
708.621	3536.32
709.025	3653.35
709.43	3668.76
709.834	3748.93
710.237	3835.73
710.641	3841.16
711.045	3881.67
711.449	3891.55
711.853	3936.56
712.256	3997.47
712.66	4053.2
713.064	4149.35
713.467	4205.09
713.87	4340.13
714.274	4403.44
714.677	4535.88
715.08	4720.91
715.484	4916.67
715.887	5151.71
716.29	5385.46
716.693	5628.24
717.096	5904.79
717.499	6067.33
717.901	6114.28
718.304	6159.34
718.707	6204.11
719.109	6106.55
719.512	6087.79
719.915	5953.18
720.317	5905.82
720.719	5970.13
721.122	5952.64
721.524	5912.96
721.926	5878.47
722.328	6005.38
722.731	6008.83
723.133	6051.85
723.535	6281.92
723.937	6319.4
724.338	6391.52
724.74	6445.99
725.142	6359.63
725.544	6364.16
725.945	6398.53
726.347	6405.57
726.748	6406.08
727.15	6433.07
727.551	6398.36
727.952	6374.2
728.354	6346.2
728.755	6353.05
729.156	6313.9
729.557	6331.05
729.958	6198.32
730.359	6147.68
730.76	6132.56
731.161	6067.76
731.562	6044.23
731.962	6056.76
732.363	5990.13
732.763	5924.07
733.164	5971.44
733.564	5897.71
733.965	5791.99
734.365	5754.65
734.766	5791.22
735.166	5747.94
735.566	5687.78
735.966	5659.91
736.366	5653.91
736.766	5585.15
737.166	5623.65
737.566	5577.22
737.966	5549.48
738.365	5599.08
738.765	5597.85
739.165	5511.86
739.564	5484.2
739.964	5542.89
740.363	5490.17
740.763	5490.98
741.162	5479.32
741.561	5446.5
741.96	5398.69
742.36	5425.36
742.759	5430.88
743.158	5480.12
743.557	5499.17
743.955	5550.1
744.354	5496.75
744.753	5569.09
745.152	5522.04
745.55	5591.67
745.949	5583.41
746.348	5584.07
746.746	5607.98
747.144	5561.41
747.543	5535.76
747.941	5594.29
748.339	5510.29
748.737	5502.89
749.136	5490.63
749.534	5569.05
749.932	5533.1
750.33	5561.91
750.727	5627.32
751.125	5597.42
751.523	5580
751.921	5629.08
752.318	5591.16
752.716	5660.27
753.113	5677.56
753.511	5707.99
753.908	5710.34
754.305	5689.97
754.703	5761.23
755.1	5832.82
755.497	5901.28
755.894	6127.77
756.291	6340.46
756.688	6730.82
757.085	7251.62
757.482	7977.97
757.878	8775.86
758.275	9493.87
758.672	10486.58
759.068	11296.15
759.465	12451.36
759.861	13946.58
760.258	15673.71
760.654	16571.13
761.05	16433.2
761.447	15682.75
761.843	14603.96
762.239	13488.3
762.635	12987.72
763.031	12502.59
763.427	11809.96
763.822	11076.25
764.218	10348.39
764.614	9402.96
765.01	8767.83
765.405	8361.45
765.801	8051.45
766.196	7658.33
766.592	7437.46
766.987	7061.33
767.382	6810.4
767.778	6699.62
768.173	6549.41
768.568	6464.28
768.963	6316.29
769.358	6338.14
769.753	6281.85
770.148	6182.02
770.542	6180.98
770.937	6143.05
771.332	6251.86
771.726	6275.01
772.121	6200.94
772.515	6264.32
772.91	6245.37
773.304	6329.38
773.699	6251.35
774.093	6315.83
774.487	6383.32
774.881	6431.76
775.275	6425.91
775.669	6377.77
776.063	6432.17
776.457	6476.81
776.851	6386.17
777.245	6376.15
777.638	6416.29
778.032	6553.86
778.425	6511.02
778.819	6554.74
779.212	6505.14
779.606	6458.67
779.999	6482.02
780.392	6459.62
780.786	6558.61
781.179	6584.42
781.572	6637.65
781.965	6652.59
782.358	6586.42
782.751	6651
783.143	6599.86
783.536	6684.74
783.929	6734.56
784.322	6869.26
784.714	6908.37
785.107	6903.78
785.499	6989.49
785.891	6963.14
786.284	6942.54
786.676	7108.02
787.068	7087.58
787.46	7148.76
787.852	7175.79
788.245	7279.8
788.636	7310.02
789.028	7385.59
789.42	7432.22
789.812	7443.1
790.204	7557.69
790.595	7669.85
790.987	7436.37
791.378	7464.69
791.77	7616.92
792.161	7778.01
792.553	7843.63
792.944	7716.42
793.335	7637.43
793.726	7719.3
794.117	7821.3
794.508	7980.84
794.899	7948.27
795.29	8112.08
795.681	8178.25
796.072	8010.66
796.463	7777.91
796.853	7782.12
797.244	7966.3
797.634	8004.6
798.025	8005.12
798.415	8021.78
798.806	8125.37
799.196	8224.02
799.586	8283.97
799.976	8234.8
800.366	8502.32
800.756	8795.74
801.146	8752.15
801.536	8781.84
801.926	8869.62
802.316	8895.87
802.706	8973.98
803.095	8830.39
803.485	8945.4
803.874	8991.19
804.264	9297.16
804.653	9260.82
805.043	9431.72
805.432	9558.79
805.821	9561.73
806.21	9583.31
806.599	9721.43
806.988	9773.84
807.377	9896.95
807.766	10052.17
808.155	10383.02
808.544	10071.09
808.933	10091.95
809.321	10069.44
809.71	10417.2
810.098	10603.51
810.487	11143.23
810.875	11703.82
811.264	11728.98
811.652	12063.68
812.04	12234.78
812.428	12422.07
812.816	13318.98
813.204	13810.57
813.592	14451.33
813.98	14843.03
814.368	14731.47
814.756	15291.29
815.144	15199.27
815.531	15741.35
815.919	15656.82
816.306	16015.07
816.694	15654.94
817.081	15716.51
817.469	16116.54
817.856	16116.03
818.243	16427.53
818.63	16887.12
819.017	16394.64
819.404	16464.4
819.791	16912.94
820.178	17628.12
820.565	17908.61
820.952	18992.06
821.339	18404.57
821.725	18621.85
822.112	17746.03
822.498	17696.38
822.885	17840.86
823.271	17732.01
823.657	18222.92
824.044	18222.66
824.43	18310.32
824.816	18268.52
825.202	17761.98
825.588	18945.06
825.974	18949.35
826.36	19556.49
826.746	19601
827.132	20023.73
827.517	19988.34
827.903	19079.46
828.289	19132.2
828.674	18220.61
829.06	18110.9
829.445	18582.28
829.83	19009.34
830.216	19578.13
830.601	19995.43
830.986	19507.7
831.371	19340.51
831.756	19986.43
832.141	19480.98
832.526	19477.19
832.911	19808.45
833.295	19672.51
833.68	20212.03
834.065	19489.89
834.449	18434.62
834.834	18357.64
835.218	18368.51
835.603	18772.11
835.987	18538.78
836.371	19511.54
836.755	19388.86
837.139	19864.51
837.524	20147.58
837.908	19957.44
838.291	20030.28
838.675	20111.13
839.059	20359.28
839.443	20349.34
839.827	20086.36
840.21	20652.68
840.594	20485.7
840.977	20736.73
841.361	20716.51
841.744	21168.57
842.127	20984.19
842.511	21276.41
842.894	21974.61
843.277	22423.77
843.66	23052.9
844.043	23159.75
844.426	22212.65
844.809	21854.88
845.191	21887.04
845.574	21351.28
845.957	20924.44
846.339	20789.32
846.722	20181.9
847.104	20263.5
847.487	20059.47
847.869	20076.36
848.252	20393.64
848.634	20783.1
849.016	21090.07
849.398	21239.46
849.78	22231.87
850.162	22234.51
850.544	22724.09
850.926	23460.23
851.307	23355.72
851.689	23679.53
852.071	24217.05
852.452	24593.52
852.834	24561.81
853.215	25024.08
853.597	25191.52
853.978	25534.48
854.359	26056.3
854.741	24891.38
855.122	24765.27
855.503	24430.73
855.884	24584.5
856.265	24500.58
856.646	24643.68
857.026	24186.57
857.407	24114.37
857.788	24314.82
858.169	24646.89
858.549	23660.06
858.93	24390.29
859.31	24447.02
859.69	24691.83
860.071	24217.39
860.451	23958.6
860.831	23084.86
861.211	24442.96
861.591	25076.57
861.971	25041.93
862.351	25266.91
862.731	25717.56
863.111	26016.26
863.491	26398.82
863.87	27424.53
864.25	27835.28
864.629	27374.21
865.009	27969.9
865.388	28964.75
865.768	31035.38
866.147	30898.87
866.526	29187.73
866.905	29539.77
867.284	31205.21
867.663	29624.73
868.042	28388.1
868.421	28291.91
868.8	28767.67
869.179	29049.8
869.558	27350.52
869.936	25219.85
870.315	25674.92
870.693	26307.35
871.072	28362.32
871.45	27021.87
871.828	27371.82
872.207	28764.99
872.585	28337.62
872.963	29106.11
873.341	28100.86
873.719	27772.05
874.097	27437.58
874.475	27957.32
874.853	28593.69
875.23	27404.57
875.608	28556.71
875.986	30898.47
876.363	29557.64
876.741	30451.05
877.118	29692.7
877.495	31162.07
877.873	31689.48
878.25	33342.36
878.627	31989.6
879.004	32439.93
879.381	32289.69
879.758	31437.41
880.135	29262.29
880.512	30941.51
880.889	30130.38
881.265	29813.77
881.642	29560.84
882.019	30058.02
882.395	29447.83
882.772	30620.53
883.148	29290.18
883.524	29173.72
883.901	28998.39
884.277	29443.33
884.653	29258.15
885.029	30106.8
885.405	33339.02
885.781	33085.52
886.157	31735.1
886.532	32119.05
886.908	32090.21
887.284	35684.66
887.659	36852.17
888.035	38011.62
888.411	38990.81
888.786	39495.34
889.161	40862.97
889.537	40111.82
889.912	41394.09
890.287	41352.8
890.662	42433.31
891.037	41668.53
891.412	38865.08
891.787	38473.53
892.162	37126.02
892.536	37980.79
892.911	36568.67
893.286	35781.04
893.66	34331.81
894.035	35205.33
894.409	38330.75
894.784	36779.94
895.158	37395.63
895.532	39595.97
895.906	40660.65
896.281	41618.11
896.655	40964.73
897.029	46807.05
897.402	48759.85
897.776	54283.01
898.15	54122.13
898.524	53523.56
898.898	54234.91
899.271	60702.47
899.645	52586.74
900.018	50534.47
900.392	52399.65
900.765	52821.68
901.138	48865.84
901.511	48110
901.884	44162.36
902.258	40715.55
902.631	42066.48
903.003	48407.35
903.376	43689.79
903.749	48971.85
904.122	52407.78
904.495	57713.08
904.867	58437.96
905.24	50730.36
905.612	47243.09
905.985	48329.96
906.357	50519.47
906.729	48221.96
907.102	41179.2
907.474	39601.58
907.846	39872.73
908.218	39355.12
908.59	34754.41
908.962	33605.73
909.334	36200.65
909.705	38013.09
910.077	36904.72
910.449	38426.14
910.82	39491.47
911.192	43454.07
911.563	45140.52
911.935	48281.53
912.306	48333.62
912.677	49926.08
913.048	49433.46
913.419	53636.14
913.79	53952.73
914.161	57851.82
914.532	55288.11
914.903	50814.84
915.274	48261.9
915.645	47566.52
916.015	41887.27
916.386	39920.63
916.756	42483.01
917.127	43813.02
917.497	39129.24
917.868	42579
918.238	40454.73
918.608	41595.79
918.978	42447.35
919.348	44941.8
919.718	46404.09
920.088	44673
920.458	46435.71
920.828	48891.69
921.198	46324.28
921.567	49485.96
921.937	38329.05
922.306	38683.29
922.676	41735.47
923.045	34813.25
923.415	33055.1
923.784	30109.7
924.153	30938.23
924.522	30892.05
924.891	29030.51
925.26	31106.74
925.629	30376.75
925.998	34913.03
926.367	34083.62
926.736	32451.9
927.104	38662.29
927.473	41593.56
927.842	50216.21
928.21	49764.75
928.578	52311.18
928.947	49472.07
929.315	49770.66
929.683	58328.4
930.051	58761.35
930.42	68251.31
930.788	58302.62
931.156	57849.96
931.523	54203.54
931.891	50117.51
932.259	48135.72
932.627	55820.08
932.994	78992.41
933.362	65257.33
933.729	56682.26
934.097	54283.02
934.464	45878.94
934.831	52974.33
935.199	52227.57
935.566	50647.98
935.933	51369.33
936.3	62199.96
936.667	48406.05
937.034	43581.47
937.401	43140.49
937.767	37238.47
938.134	33132.76
938.501	46753.39
938.867	49833.43
939.234	84193.01
939.6	71885.29
939.967	79082.78
940.333	52960.96
940.699	45085.85
941.065	36252.78
941.431	47509.11
941.798	45770.91
942.163	60175.33
942.529	37649.81
942.895	34618.23
943.261	22395.21
943.627	29358.85
943.992	25700.67
944.358	25748.87
944.723	25830.29
945.089	25173.83
945.454	23263.01
945.82	24862.12
946.185	23888.53
946.55	27663.21
946.915	24850.34
947.28	29154.96
947.645	25704.52
948.01	23729.6
948.375	24729.43
948.74	29668.76
949.104	34600.21
949.469	50020.31
949.834	88373.35
950.198	83764.82
950.562	50196.54
950.927	41790.04
951.291	50296.14
951.655	42789.5
952.02	40168.7
952.384	30352.73
952.748	26398.23
953.112	25715.68
953.476	22363.2
953.839	20681.16
954.203	20456.23
954.567	25599.21
954.931	40348.7
955.294	34555.88
955.658	34771.01
956.021	59098.16
956.385	100277.22
956.748	147890.85
957.111	229742.53
957.474	257562.83
957.837	289975.97
958.2	219551.57
958.563	78916.38
958.926	53273.34
959.289	80806.17
959.652	90237.01
960.015	67758.77
960.377	97217.16
960.74	111114.07
961.102	191775.9
961.465	206054.49
961.827	110198.6
962.189	211573.52
962.552	146617.74
962.914	117699.26
963.276	76379.3
963.638	63170.35
964	62589.73
964.362	42336.2
964.724	40886.12
965.085	29150.84
965.447	23893.57
965.809	27293.8
966.17	27323.29
966.532	29590.33
966.893	27140.89
967.255	24706.23
967.616	29198.6
967.977	23347.93
968.338	25498.83
968.699	20944.8
969.061	20955.11
969.421	21107.67
969.782	23694.94
970.143	19985.68
970.504	20698.47
970.865	23533.26
971.225	24044.18
971.586	23497.38
971.946	33561.93
972.307	29150.86
972.667	38141.09
973.027	39235.18
973.388	47577.3
973.748	32315.62
974.108	35213.26
974.468	47613.56
974.828	36663.04
975.188	28230.49
975.548	25932.06
975.907	21739.52
976.267	24358.47
976.627	20461.34
976.986	21224.64
977.346	20220.74
977.705	19451.03
978.064	17728.57
978.424	14760.46
978.783	15276.26
979.142	17442.05
979.501	16678.55
979.86	17637.58
980.219	17008.71
980.578	21936.14
980.937	24551.92
981.296	21890.33
981.654	22533.48
982.013	35066.09
982.371	45528.33
982.73	42552.54
983.088	48142.93
983.447	51442.59
983.805	73551.94
984.163	153598.4
984.521	170476.35
984.879	249953.58
985.237	-406008.49
985.595	391112.43
985.953	97122.47
986.311	56103.93
986.669	32537.56
987.026	28049.54
987.384	37691.19
987.741	38930.61
988.099	27801.61
988.456	22185.18
988.814	20787.15
989.171	18083.16
989.528	17841.37
989.885	18843.55
990.242	14905.39
990.599	18591.03
990.956	15217.38
991.313	10652.08
991.67	8739.82
992.027	9236.13
992.383	8197.79
992.74	7177.53
993.096	7519.43
993.453	7794.2
993.809	8079.26
994.165	10754.82
994.522	9834.36
994.878	10839.2
995.234	13579
995.59	13396.14
995.946	12717.09
996.302	14502.29
996.658	16790.95
997.013	18541.67
997.369	21969.8
997.725	28113.16
998.08	18206.82
998.436	28115.47
998.791	38803.05
999.147	38787.5
999.502	42372.52
999.857	30853.4
1000.212	50261.9
1000.567	71560.48
1000.922	41243.42
1001.277	26269.05
1001.632	19507.69
1001.987	25105.33
1002.342	18006.68
1002.696	14390.92
1003.051	11458.21
1003.406	13893.61
1003.76	13837.26
1004.114	13657.99
1004.469	11453.31
1004.823	9488.8
1005.177	10240.55
1005.531	8121.32
1005.885	7226.24
1006.239	8155.13
1006.593	10221.41
1006.947	13712.12
1007.301	10271.69
1007.655	11197.05
1008.008	8217.92
1008.362	9225
1008.715	13145.36
1009.069	11926.64
1009.422	17870.4
1009.776	35772.72
1010.129	23722.2
1010.482	19834.32
1010.835	16777.53
1011.188	34943.6
1011.541	32766.99
1011.894	-200249.04
1012.247	590988.25
1012.6	40175.7
1012.952	25355.93
1013.305	13095.81
1013.657	9437.99
1014.01	8931.51
1014.362	7365.22
1014.715	6533.2
1015.067	5661.32
1015.419	5560.24
1015.771	4922.64
1016.123	4380.16
1016.475	4496.21
1016.827	4789.28
1017.179	5152.97
1017.531	5201.06
1017.883	5332.46
1018.234	5133.52
1018.586	6464.36
1018.938	6833.54
1019.289	9418.31
1019.64	10805.63
1019.992	10057.12
1020.343	9250.3
1020.694	7302.25
1021.045	6442.51
1021.396	7366.32
1021.747	7876.76
1022.098	9454.81
1022.449	6877.19
1022.8	6405.63
1023.151	4445.35
1023.501	3936.87
1023.852	4280.3
1024.202	4421.26
1024.553	4861.17
1024.903	4754.23
1025.253	4050.56
1025.604	3646.64
1025.954	4539.37
1026.304	5545.17
1026.654	6472.64
1027.004	9506.39
1027.354	15318.89
1027.703	14395.72
1028.053	18947.81
1028.403	27497.67
1028.753	39832.24
1029.102	54171.58
1029.452	277986.48
1029.801	11988.1
1030.15	7714.06
1030.499	6541.52
897.758	2102.19
901.051	2034.34
904.343	2067.88
907.636	2077.11
910.928	2138.37
914.22	2059.9
917.511	2064.06
920.803	2111.48
924.094	2106.8
927.384	2113.4
930.675	2077.61
933.965	2043.54
937.255	2075.71
940.544	2046.42
943.834	2039.22
947.123	1980.92
950.411	2067.93
953.7	2051.37
956.988	2037.7
960.276	1972.69
963.563	2019.67
966.851	2028.77
970.138	2069.18
973.424	2071.88
976.711	2025.96
979.997	2075.56
983.283	2116.27
986.568	2052.41
989.853	2040.37
993.138	2066.37
996.423	2154.1
999.708	2112.34
1002.992	2144.32
1006.275	2064.52
1009.559	2069.65
1012.842	2165.6
1016.125	2122.98
1019.408	2106.46
1022.69	2156.68
1025.972	2192.79
1029.254	2168.78
1032.536	2136.49
1035.817	2143.66
1039.098	2115.72
1042.379	2159.47
1045.659	2184.21
1048.939	2136.68
1052.219	2142.39
1055.498	2132.46
1058.778	2132.82
1062.057	2107.75
1065.335	2132.11
1068.614	2141.31
1071.892	2141.61
1075.17	2190.87
1078.447	2195.56
1081.724	2193.92
1085.001	2217.44
1088.278	2195.62
1091.554	2203.12
1094.83	2195.19
1098.106	2233.26
1101.382	2261.59
1104.657	2260.97
1107.932	2261.42
1111.206	2240.81
1114.481	2193.93
1117.755	2193.68
1121.029	2188.6
1124.302	2250.56
1127.575	2216.17
1130.848	2216.13
1134.121	2185.32
1137.393	2150.96
1140.665	2208.1
1143.937	2187.15
1147.208	2135.27
1150.48	2196.96
1153.75	2184.92
1157.021	2181.94
1160.291	2158.63
1163.561	2214.83
1166.831	2179.13
1170.101	2208.13
1173.37	2162.89
1176.639	2122.28
1179.907	2164.29
1183.176	2190.53
1186.444	2192.21
1189.711	2214.42
1192.979	2241.76
1196.246	2199.52
1199.513	2210.84
1202.78	2219.12
1206.046	2227.44
1209.312	2255.93
1212.578	2273.08
1215.843	2244.8
1219.108	2207.27
1222.373	2229.51
1225.638	2206.6
1228.902	2198.77
1232.166	2151.68
1235.43	2141.58
1238.693	2165.61
1241.956	2154.95
1245.219	2207.05
1248.482	2186.79
1251.744	2183.58
1255.006	2302.22
1258.268	2248.62
1261.529	2205.74
1264.79	2206.15
1268.051	2303.68
1271.312	2311.12
1274.572	2284.76
1277.832	2272
1281.092	2249.41
1284.351	2243.58
1287.61	2230.08
1290.869	2168.22
1294.128	2168.59
1297.386	2209.53
1300.644	2204.92
1303.902	2214.23
1307.159	2080.99
1310.416	2130.88
1313.673	2161.5
1316.93	2162.24
1320.186	2192.39
1323.442	2222.27
1326.697	2226.66
1329.953	2197.42
1333.208	2235.96
1336.463	2203.8
1339.717	2168.42
1342.972	2273.78
1346.226	2243.69
1349.479	2194.9
1352.733	2176.03
1355.986	2177.31
1359.238	2157.78
1362.491	2163.71
1365.743	2161.54
1368.995	2149.24
1372.247	2162.97
1375.498	2182.13
1378.749	2228.05
1382	2175.98
1385.251	2208.89
1388.501	2159.06
1391.751	2161.92
1395	2128.18
1398.25	2152.3
1401.499	2176.81
1404.748	2132.9
1407.996	2107.15
1411.244	2097.32
1414.492	2081.54
1417.74	2067.89
1420.987	2070.84
1424.234	2130.8
1427.481	2090.7
1430.728	2148.03
1433.974	2121.25
1437.22	2118.93
1440.465	2113.66
1443.711	2118.57
1446.956	2139.47
1450.201	2110.15
1453.445	2150.19
1456.689	2141.09
1459.933	2151.63
1463.177	2191.16
1466.42	2164.56
1469.663	2149.53
1472.906	2166.21
1476.148	2215.87
1479.391	2181.69
1482.633	2158.09
1485.874	2186.53
1489.115	2196.36
1492.356	2178.57
1495.597	2159.33
1498.838	2152.34
1502.078	2139.02
1505.318	2114.23
1508.557	2146.41
1511.797	2142.18
1515.036	2194.58
1518.274	2164.07
1521.513	2112.28
1524.751	2123.69
1527.989	2148.87
1531.227	2169.2
1534.464	2187.29
1537.701	2180.8
1540.938	2191.82
1544.174	2140.29
1547.41	2130.08
1550.646	2166.08
1553.882	2220.08
1557.117	2278.95
1560.352	2286.56
1563.587	2251.06
1566.821	2217.21
1570.055	2231.14
1573.289	2213.47
1576.523	2270.75
1579.756	2287.81
1582.989	2310.35
1586.222	2272.31
1589.454	2298.19
1592.686	2287.37
1595.918	2314.23
1599.15	2314.25
1602.381	2355.89
1605.612	2340.8
1608.843	2431.91
1612.073	2354.35
1615.303	2344.03
1618.533	2343.52
1621.762	2338.56
1624.992	2312.52
1628.221	2314.81
1631.449	2305.05
1634.678	2325.21
1637.906	2295.04
1641.134	2320.05
1644.361	2287.68
1647.588	2276.65
1650.815	2297.61
1654.042	2259.18
1657.269	2291.82
1660.495	2274.21
1663.72	2254.29
1666.946	2224.07
1670.171	2203.97
1673.396	2173.05
1676.621	2156.87
1679.845	2149.48
1683.069	2156.5
1686.293	2184.71
1689.517	2178.38
1692.74	2129.71
1695.963	2150.14
1699.185	2194.06
1702.408	2165.71
1705.63	2193.19
1708.852	2216.79
1712.073	2185.49
1715.294	2199.99
1718.515	2239.34
1721.736	2199.62
1724.956	2176.26
1728.176	2197.22
1731.396	2219.23
1734.616	2204.3
1737.835	2241.12
1741.054	2212
1744.272	2202.56
1747.491	2244.19
1750.709	2261.77
1753.927	2217.1
1757.144	2237.61
1760.361	2299.74
1763.578	2269.43
1766.795	2219.01
1770.011	2207.61
1773.227	2229.9
1776.443	2270.58
1779.658	2312.21
1782.874	2250.05
1786.089	2246.51
1789.303	2247.81
1792.518	2245.39
1795.732	2228.93
1798.945	2248.66
1802.159	2287.05
1805.372	2233.41
1808.585	2229.45
1811.797	2229.35
1815.01	2245.63
1818.222	2270.47
1821.434	2223.76
1824.645	2265.43
1827.856	2276.86
1831.067	2306.69
1834.278	2241.74
1837.488	2228.98
1840.698	2344.28
1843.908	2289.29
1847.117	2257.86
1850.326	2190.99
1853.535	2245.71
1856.744	2286.6
1859.952	2209.39
1863.16	2210.33
1866.368	2222.21
1869.575	2335.31
1872.782	2213.52
1875.989	2149.04
1879.196	2189.76
1882.402	2181.37
1885.608	2208.47
1888.814	2153.3
1892.019	2062.57
1895.224	2110.51
1898.429	2072.79
1901.634	2056.64
1904.838	2029.87
1908.042	2087.22
1911.246	2099.5
1914.449	2067.7
1917.652	2045.95
1920.855	2030.28
1924.058	2048.78
1927.26	2093.9
1930.462	2115.52
1933.664	2158.42
1936.865	2101.2
1940.066	2120.17
1943.267	2065.32
1946.467	2073.8
1949.668	2090.63
1952.868	2160.8
1956.067	2151.88
1959.267	2096.94
1962.466	2118.19
1965.665	2099.99
1968.863	2093.04
1972.061	2097.09
1975.259	2087.12
1978.457	2160.97
1981.654	2122.88
1984.852	2126.59
1988.048	2081.89
1991.245	2069.32
1994.441	2159.16
1997.637	2114.78
2000.833	2097.97
2004.028	2132.71
2007.223	2193.47
2010.418	2185.48
2013.613	2135.45
2016.807	2132.48
2020.001	2125.97
2023.194	2146.69
2026.388	2133.26
2029.581	2075.36
2032.774	2140.16
2035.966	2151.67
2039.158	2100.74
2042.35	2118.63
2045.542	2047.49
2048.733	2123.96
2051.924	2112.32
2055.115	2128.23
2058.306	2095.27
2061.496	2149.31
2064.686	2196.22
2067.875	2104.34
2071.065	2103.94
2074.254	2119.82
2077.442	2076.59
2080.631	2153.87
2083.819	2094.3
2087.007	2087.34
2090.195	2073.98
2093.382	2088.19
2096.569	2071.53
2099.756	2036.48
2102.942	2085.55
2106.128	2101.82
2109.314	2091.34
2112.5	2079.56
2115.685	2046.73
2118.87	2053.31
2122.055	2112.23
2125.239	2094.07
2128.424	2081.64
2131.608	2134.93
2134.791	2119.53
2137.974	2153.75
2141.157	2143.81
2144.34	2116.65
2147.523	2104.61
2150.705	2132.7
2153.887	2100.31
2157.068	2076.81
2160.25	2054.4
2163.431	2077.66
2166.611	2051.08
2169.792	2072.48
2172.972	1987.61
2176.152	2032.31
2179.331	2059.9
2182.511	2063.73
2185.69	2085.14
2188.868	2089.58
2192.047	2121.94
2195.225	2141.89
2198.403	2088.73
2201.58	2075.25
2204.758	2061.06
2207.935	2132.68
2211.111	2056.98
2214.288	2044.3
2217.464	2078.88
2220.64	2032.14
2223.815	2081.57
2226.991	2016.29
2230.166	2029.39
2233.34	2076.28
2236.515	2085.28
2239.689	2149.97
2242.863	2102.44
2246.036	2150.98
2249.209	2132.45
2252.382	2147.72
2255.555	2159.58
2258.727	2112.71
2261.9	2138.95
2265.071	2131.78
2268.243	2126.27
2271.414	2081.19
2274.585	2064.52
2277.756	2123.4
2280.926	2079.99
2284.096	2108.72
2287.266	2044.34
2290.436	2086.7
2293.605	2103.25
2296.774	2142.18
2299.942	2147.54
2303.111	2161.47
2306.279	2211.68
2309.447	2197.27
2312.614	2165.25
2315.781	2192.13
2318.948	2168.34
2322.115	2204.18
2325.281	2108.39
2328.447	2114.87
2331.613	2084.16
2334.779	2075.38
2337.944	2071
2341.109	2072.15
2344.274	2061.21
2347.438	2031.64
2350.602	2051.14
2353.766	2058.86
2356.929	2048.11
2360.092	2084.73
2363.255	2058.66
2366.418	2029.83
2369.58	2088.67
2372.742	1980.49
2375.904	1970.18
2379.066	1957.44
2382.227	1982.26
2385.388	1947.24
2388.548	1902.66
2391.709	1941.14
2394.869	1932.23
2398.029	1978.58
2401.188	1971.82
2404.347	1941.25
2407.506	2008.25
2410.665	2049.58
2413.823	2032.23
2416.981	2014.07
2420.139	2025.54
2423.296	2064.43
2426.453	2038.14
2429.61	2057.08
2432.767	2035.28
2435.923	2075.89
2439.079	2018.52
2442.235	2050.64
2445.391	1993.92
2448.546	2038.61
2451.701	2069.41
2454.855	2069.12
2458.009	2095.33
2461.163	2082.25
2464.317	2057.63
2467.471	2080.17
2470.624	2105.23
2473.777	2100.77
2476.929	2117.76
2480.082	2140.64
2483.234	2115.66
2486.385	2055.86
2489.537	2051.48
2492.688	2042.79
2495.839	2061.44
2498.989	2076.08
2502.14	2064.42
2505.29	2058.43
2508.439	2080.55
2511.589	2023.25
2514.738	2022.86
2517.887	2043.91
2521.035	2120.43
2524.183	2075.04
2527.331	2067.16
2530.479	2062.27
2533.627	2062.44
