Data from C_1_DIV_PA_2N_Splice17_12-01-36-375.txt Node
Date: Sat Mar 14 12:01:36 EDT 2020
User: sa697716
Spectrometer: FLMS03696
Trigger mode: 0
Integration Time (sec): 3.180400E-1
Scans to average: 20
Electric dark correction enabled: true
Nonlinearity correction enabled: true
Boxcar width: 5
XAxis mode: Wavelengths
Number of Pixels in Spectrum: 2048
>>>>>Begin Spectral Data<<<<<
187.83	-277714.71
188.298	1921.41
188.766	1083.64
189.233	956.99
189.701	1303.6
190.169	1740.15
190.636	608.58
191.104	446.84
191.571	22.69
192.039	-116.84
192.506	-159.65
192.974	235.53
193.441	-712.1
193.908	-109.14
194.375	-56.75
194.842	-23.07
195.31	-3.84
195.777	109.35
196.244	327.35
196.711	451.04
197.177	596.49
197.644	873.22
198.111	1526.36
198.578	2210.13
199.045	1759.24
199.511	2896.42
199.978	3404
200.445	2885.47
200.911	3209.54
201.378	3598.37
201.844	3276.3
202.31	5562.11
202.777	5828.23
203.243	3246.15
203.709	3088.49
204.176	3698.83
204.642	3040.22
205.108	2822.53
205.574	2305.89
206.04	2109.48
206.506	1961.2
206.972	1849.85
207.438	1805.06
207.903	2043.9
208.369	1782.44
208.835	1759.52
209.301	1848.32
209.766	1890.21
210.232	1866.81
210.697	2302.04
211.163	2839.83
211.628	4315.12
212.094	3607.56
212.559	4398.47
213.024	2735.96
213.49	3354.81
213.955	3294.06
214.42	3207.79
214.885	2990.3
215.35	2876.87
215.815	2772.47
216.28	2934.82
216.745	2370.5
217.21	2561.59
217.675	2348.43
218.14	2602.72
218.604	2886.97
219.069	3275.29
219.534	3422.89
219.998	3966.02
220.463	4807.44
220.927	5900.35
221.392	5550.58
221.856	5632.39
222.32	7113.54
222.785	8789.98
223.249	11104.78
223.713	12412.17
224.177	12444.95
224.642	16022.59
225.106	19799.95
225.57	21688.45
226.034	16158.9
226.497	24642.04
226.961	22321.95
227.425	25998.34
227.889	28923.31
228.353	29051.44
228.816	60183.07
229.28	57748.24
229.744	48818.74
230.207	29749.13
230.671	29365.49
231.134	48801.12
231.597	56549.54
232.061	56748.21
232.524	55619.78
232.987	38432.83
233.45	34705.05
233.914	31222.58
234.377	32097.68
234.84	29490.01
235.303	34874.81
235.766	39045.66
236.229	40517.12
236.691	25586.89
237.154	28852.45
237.617	21759.68
238.08	22369.6
238.542	26242.34
239.005	18826.35
239.468	18740.24
239.93	17699.94
240.393	16121.24
240.855	14176.96
241.317	14544.06
241.78	17727.08
242.242	18339.6
242.704	19827.31
243.166	17265
243.629	15683.84
244.091	18078.64
244.553	19820.3
245.015	21317.46
245.477	27625.6
245.939	40553.08
246.4	43085.53
246.862	41936.33
247.324	39604.41
247.786	44388.88
248.247	58313.21
248.709	60327.76
249.17	45184.35
249.632	42628.54
250.093	49493.14
250.555	42783.31
251.016	26099.27
251.477	24741.93
251.939	26717.15
252.4	28053.56
252.861	33380.42
253.322	31060.37
253.783	37025.68
254.244	48082.29
254.705	37955.72
255.166	33747.96
255.627	33260.24
256.088	46933.01
256.549	49942.57
257.009	43019.86
257.47	52270.19
257.931	42626.07
258.391	31968.3
258.852	32953.55
259.312	34576.82
259.773	42721.6
260.233	36153.33
260.694	30498.48
261.154	34650.91
261.614	27814.52
262.074	24896.15
262.534	25853.99
262.994	24358.68
263.455	32492.02
263.915	27390.91
264.374	25805.6
264.834	28198.32
265.294	31258.47
265.754	32407.84
266.214	30702.42
266.673	28795.31
267.133	36347.53
267.593	36082.44
268.052	44171.08
268.512	38440
268.971	46337.62
269.431	50801.01
269.89	45537.47
270.349	68374.85
270.809	76254.59
271.268	68550.68
271.727	153858.01
272.186	99714.37
272.645	74850.13
273.104	54062.85
273.563	78250.44
274.022	61588.31
274.481	52362.15
274.94	40326.79
275.399	29988.29
275.857	34942.33
276.316	47304.25
276.775	42120.67
277.233	41501.3
277.692	38857.82
278.15	43974.83
278.609	45251.71
279.067	41932.25
279.525	39055.67
279.984	50514.12
280.442	60661.8
280.9	59781.16
281.358	39333.15
281.816	36661.69
282.274	35950.28
282.732	37181.01
283.19	37396.66
283.648	32324.97
284.106	34479.86
284.564	35079.99
285.021	32536.47
285.479	24289.82
285.937	22148.82
286.394	19449.11
286.852	20031.73
287.309	21065.68
287.767	20350.11
288.224	19372.52
288.682	21275.47
289.139	23364.76
289.596	21399.19
290.053	22281.61
290.511	28142.11
290.968	34144.35
291.425	46410.87
291.882	38697.73
292.339	33739.97
292.796	33567.12
293.252	31666.41
293.709	25180.75
294.166	22588.27
294.623	24979.87
295.079	23989.78
295.536	24128.17
295.992	21932.65
296.449	21720.77
296.905	22579.42
297.362	21643.22
297.818	22787.46
298.274	23668.54
298.731	24184.21
299.187	23975.5
299.643	25774.8
300.099	31220.67
300.555	34298.61
301.011	28722.5
301.467	27670.93
301.923	32453.43
302.379	31784.08
302.835	31244.93
303.291	31293.68
303.746	35608.75
304.202	45035.76
304.658	45321.65
305.113	30532.02
305.569	29967.81
306.024	31967.82
306.479	30520.19
306.935	25790.35
307.39	28196.57
307.845	26106.57
308.301	26303.08
308.756	25655.91
309.211	24713.29
309.666	25323.64
310.121	31402.82
310.576	31888.74
311.031	31673.33
311.486	36341.16
311.94	36328
312.395	48584.34
312.85	91356.74
313.305	449178.77
313.759	2325980.61
314.214	168757.41
314.668	133908.14
315.123	112810.43
315.577	40450.31
316.032	36004.06
316.486	45117.71
316.94	35558.69
317.394	24758.04
317.849	19219.88
318.303	18216.48
318.757	17177.85
319.211	19010.94
319.665	16654.29
320.119	16850.54
320.572	24200.29
321.026	22604.74
321.48	18814.18
321.934	20554.71
322.387	20614.48
322.841	22291.44
323.295	20048.38
323.748	23149.37
324.202	23474.72
324.655	28175.42
325.108	39345.58
325.562	27799.96
326.015	33080.64
326.468	25040.16
326.921	28022.32
327.374	26191.18
327.827	27285.7
328.28	30881.86
328.733	20699.12
329.186	18223.18
329.639	17393.64
330.092	14689.35
330.545	14007.51
330.997	14132.08
331.45	15434.86
331.903	18074.34
332.355	31071.38
332.808	30227.2
333.26	24992.39
333.713	27157.85
334.165	27391.51
334.617	36620.67
335.069	29617.49
335.522	53503.52
335.974	59263.06
336.426	54174.45
336.878	37547.05
337.33	19039.92
337.782	18576.12
338.234	23228.83
338.686	27815.1
339.137	32970.15
339.589	31035.13
340.041	24354.65
340.493	20967.53
340.944	21467.33
341.396	23132.09
341.847	19464.96
342.299	22987.92
342.75	28075.7
343.201	24595
343.653	28257.56
344.104	34743.94
344.555	27359.31
345.006	42572.77
345.457	32544.51
345.908	25944.52
346.359	24392.07
346.81	19889.83
347.261	20959.11
347.712	20654.2
348.163	22144.71
348.613	22433.88
349.064	20975.21
349.515	18371.96
349.965	18866.06
350.416	22742.2
350.866	24914.35
351.317	28229.78
351.767	46750.66
352.217	59129.7
352.668	49134.94
353.118	45060.06
353.568	43496.19
354.018	34375.19
354.468	36243.09
354.918	26013.13
355.368	22802.03
355.818	32241.35
356.268	92831.49
356.718	388877.09
357.168	96892.84
357.617	48595.83
358.067	54058.07
358.517	50682.67
358.966	59394.72
359.416	66635.73
359.865	72079.86
360.315	85902.53
360.764	40135.95
361.213	22472.92
361.663	21292.22
362.112	26297.34
362.561	42551.58
363.01	32165.49
363.459	27158.32
363.908	29492.39
364.357	25084.62
364.806	42422.8
365.255	29202.08
365.703	26766.55
366.152	26874.6
366.601	21814.75
367.05	17728.38
367.498	16153.02
367.947	16920.97
368.395	17615.72
368.844	15619.02
369.292	18900.54
369.74	13077.29
370.189	20085.15
370.637	23606.59
371.085	20401.05
371.533	24918.23
371.981	24118.44
372.429	23035.81
372.877	24015.78
373.325	20118.09
373.773	20584.66
374.221	18389.19
374.669	22906.3
375.116	19846.32
375.564	20074.05
376.012	22529.55
376.459	18627.56
376.907	22297.93
377.354	27050.36
377.801	25321.83
378.249	29238.83
378.696	37450.62
379.143	45420.52
379.591	48546.53
380.038	82268.28
380.485	59559.15
380.932	64544.76
381.379	59186.93
381.826	43678.57
382.273	31123.22
382.72	27270.1
383.166	26616.76
383.613	17298.08
384.06	15657.35
384.506	18150.2
384.953	13389.68
385.4	13537.24
385.846	11881.82
386.292	11610.93
386.739	11385.22
387.185	11294.72
387.631	11314.28
388.078	11004.28
388.524	11794.72
388.97	10912.2
389.416	9100.55
389.862	9691.71
390.308	9185.02
390.754	9349.73
391.2	10180.09
391.645	10442.47
392.091	9974.17
392.537	9645.04
392.983	9681.16
393.428	9517.27
393.874	10211.63
394.319	10268.88
394.765	9728.58
395.21	10016.44
395.655	9387.43
396.101	8792.5
396.546	7933.27
396.991	8022.23
397.436	7477.32
397.881	7222.12
398.326	6859.14
398.771	6488.56
399.216	5681.66
399.661	5127.24
400.106	5119.98
400.551	5245.63
400.995	4716.22
401.44	4677.17
401.885	4405.7
402.329	4452.54
402.774	4281.74
403.218	4141.94
403.663	3999.18
404.107	4122.04
404.551	4162.29
404.995	3824.39
405.44	3698.76
405.884	3762.49
406.328	3655.3
406.772	3653.18
407.216	3337.46
407.66	3232.76
408.104	3085.42
408.547	2898.28
408.991	2808.74
409.435	2711.88
409.879	2681.16
410.322	2649.85
410.766	2561.95
411.209	2440.36
411.653	2346.66
412.096	2299.87
412.54	2306.93
412.983	2295.13
413.426	2303.07
413.869	2308.47
414.312	2264.07
414.756	2183.43
415.199	2089.32
415.642	2029.52
416.085	2033.35
416.527	2020.99
416.97	2058.73
417.413	1954.05
417.856	1939.05
418.298	1922.65
418.741	1913.45
419.184	1914.96
419.626	2000.04
420.069	2001.77
420.511	2016.56
420.953	1975.01
421.396	1961.22
421.838	1913.52
422.28	1958.44
422.722	1966.89
423.164	1999.95
423.606	1965.45
424.048	1967.61
424.49	1869.32
424.932	1862.3
425.374	1838.3
425.816	1870.7
426.258	1908.45
426.699	1932.95
427.141	1907.72
427.582	1943.35
428.024	1934.5
428.465	1927.37
428.907	1876.99
429.348	1858.47
429.789	1860.86
430.231	1823.23
430.672	1853.4
431.113	1812.01
431.554	1785.91
431.995	1744.13
432.436	1676.84
432.877	1637.37
433.318	1608.01
433.759	1601.99
434.2	1602.22
434.64	1583.91
435.081	1590.06
435.522	1504.21
435.962	1449.27
436.403	1415.39
436.843	1435.46
437.284	1409.17
437.724	1374.61
438.164	1379.03
438.604	1351.71
439.045	1297.63
439.485	1242.11
439.925	1214.38
440.365	1183.3
440.805	1165.29
441.245	1148.57
441.685	1103.89
442.125	1094.16
442.564	1100.67
443.004	1074.81
443.444	1069.07
443.883	1070.09
444.323	1061.68
444.762	1063.56
445.202	1074.54
445.641	1090.15
446.081	1083.39
446.52	1089.78
446.959	1075.18
447.398	1042.37
447.837	1026.48
448.276	1005
448.716	1011.35
449.154	1018.09
449.593	991.08
450.032	987.3
450.471	968.69
450.91	967.96
451.349	962.43
451.787	957.03
452.226	971.17
452.664	969.74
453.103	969.26
453.541	965.82
453.98	961.92
454.418	966.96
454.856	949.57
455.295	945.49
455.733	951.01
456.171	955.92
456.609	956.1
457.047	955.92
457.485	968.72
457.923	971.27
458.361	957.7
458.798	960.26
459.236	958.36
459.674	965.08
460.111	970.33
460.549	961.06
460.987	958.31
461.424	956.13
461.862	951.24
462.299	935.81
462.736	933.83
463.173	938.46
463.611	927.25
464.048	923.89
464.485	932.5
464.922	924.2
465.359	920.27
465.796	904.32
466.233	896.27
466.67	887.08
467.106	885.48
467.543	878.49
467.98	867.16
468.416	846.41
468.853	839.08
469.29	812.72
469.726	803.84
470.162	780.83
470.599	773.27
471.035	766
471.471	747.22
471.907	742.9
472.344	737.33
472.78	737.7
473.216	746.44
473.652	736.65
474.088	734.6
474.523	730.91
474.959	737.32
475.395	729.21
475.831	723.5
476.266	725.83
476.702	722.15
477.138	713.31
477.573	709.89
478.008	705.45
478.444	706.56
478.879	710.81
479.314	712.75
479.75	712.21
480.185	714.4
480.62	720.18
481.055	723.12
481.49	727.73
481.925	736.77
482.36	748.4
482.795	767.8
483.229	789.51
483.664	805.18
484.099	807.45
484.534	817.46
484.968	824.3
485.403	825.75
485.837	823.05
486.271	819.06
486.706	817.35
487.14	807.12
487.574	792.7
488.009	782.24
488.443	773.36
488.877	779.25
489.311	779.24
489.745	785.87
490.179	789.17
490.613	800.03
491.046	803.86
491.48	806.45
491.914	802.94
492.348	804.77
492.781	805.98
493.215	803.91
493.648	799.26
494.082	800.89
494.515	795.92
494.948	799.73
495.382	799.73
495.815	798.94
496.248	799.2
496.681	806.43
497.114	812.61
497.547	815.66
497.98	822.53
498.413	822.47
498.846	824.6
499.279	825.22
499.711	821.6
500.144	815.88
500.577	817.78
501.009	819.1
501.442	819.72
501.874	811.03
502.306	803.72
502.739	800.51
503.171	803.71
503.603	797.02
504.036	795.61
504.468	790.28
504.9	790.56
505.332	785.51
505.764	779.19
506.196	775.16
506.627	776.95
507.059	777.44
507.491	772.57
507.923	759.82
508.354	760.94
508.786	758.09
509.217	760.46
509.649	760.03
510.08	763.08
510.512	764.33
510.943	763.73
511.374	760.87
511.805	764.22
512.237	767.17
512.668	778.63
513.099	784.4
513.53	791.78
513.961	795.07
514.391	805.32
514.822	816.72
515.253	828.75
515.684	834.07
516.114	841.7
516.545	844.67
516.975	850.76
517.406	852.45
517.836	845.58
518.267	841.08
518.697	843.81
519.127	837.93
519.558	833.98
519.988	828.96
520.418	828.15
520.848	831.46
521.278	830.81
521.708	850.52
522.138	853.03
522.567	865.24
522.997	874.1
523.427	877.73
523.857	882.84
524.286	884.56
524.716	889.29
525.145	895.83
525.575	899.33
526.004	903.37
526.433	880.71
526.863	877.94
527.292	871.22
527.721	873.22
528.15	873.82
528.579	873.5
529.008	877.64
529.437	888.01
529.866	894.39
530.295	901.78
530.724	908.11
531.152	921.89
531.581	928.75
532.01	936.74
532.438	939.54
532.867	946.59
533.295	955.07
533.723	957.79
534.152	956.23
534.58	955.5
535.008	946.13
535.436	947.39
535.865	950.61
536.293	957.18
536.721	964.83
537.149	978.23
537.576	979.79
538.004	986.44
538.432	990.31
538.86	989.68
539.287	993.54
539.715	1001.64
540.143	1002.19
540.57	1000.15
540.998	998.76
541.425	987.82
541.852	975.86
542.28	974.95
542.707	965.27
543.134	958.35
543.561	955.3
543.988	950.8
544.415	949.26
544.842	946.11
545.269	941.93
545.696	942.36
546.123	947.83
546.549	942.31
546.976	934.81
547.403	934.72
547.829	935.02
548.256	935.55
548.682	933.7
549.108	931.1
549.535	930.62
549.961	930.83
550.387	923.04
550.813	921.26
551.24	924.56
551.666	925.39
552.092	920.61
552.518	916.53
552.943	913.44
553.369	916.25
553.795	917.51
554.221	917.02
554.646	915.83
555.072	921.8
555.498	922.19
555.923	926.26
556.349	933.06
556.774	936.03
557.199	936.04
557.625	938.31
558.05	935.1
558.475	939.67
558.9	939.3
559.325	934.79
559.75	930.78
560.175	927.37
560.6	922.9
561.025	920.64
561.449	921.46
561.874	923.82
562.299	926.2
562.723	930
563.148	924.49
563.572	925.01
563.997	929.17
564.421	930.51
564.846	930.79
565.27	933.18
565.694	932.3
566.118	937.9
566.542	942.24
566.966	938.15
567.39	934.86
567.814	929.93
568.238	930.36
568.662	933.2
569.086	935.91
569.509	939.77
569.933	932.48
570.357	928.51
570.78	919.28
571.204	913.67
571.627	909.42
572.05	909.9
572.474	911.52
572.897	906.6
573.32	904.29
573.743	900.26
574.166	891.92
574.589	893.2
575.012	891.14
575.435	890.49
575.858	887.01
576.281	883.34
576.704	876.09
577.126	870.55
577.549	865.8
577.972	861.54
578.394	857.8
578.817	857.24
579.239	848.51
579.661	843.85
580.084	838.58
580.506	833.8
580.928	832.73
581.35	829.41
581.772	828.07
582.194	822.77
582.616	817.37
583.038	810.77
583.46	804.97
583.882	805.2
584.303	808.18
584.725	806.57
585.147	811.17
585.568	817.64
585.99	824.35
586.411	829.74
586.833	838.9
587.254	840.45
587.675	848.67
588.096	856.3
588.518	853.98
588.939	846.91
589.36	846.76
589.781	838.15
590.202	825.39
590.623	821.49
591.043	820.54
591.464	814.62
591.885	813.83
592.305	810.64
592.726	803.68
593.147	804.86
593.567	801.49
593.987	797.63
594.408	795.46
594.828	793.3
595.248	791.46
595.669	781.71
596.089	777.61
596.509	773.69
596.929	767.37
597.349	768.21
597.769	763.31
598.189	760.24
598.608	761
599.028	762.97
599.448	763.02
599.867	755.7
600.287	754.03
600.706	752.64
601.126	748.66
601.545	749.9
601.965	749.51
602.384	747.18
602.803	749.35
603.222	747.94
603.641	744.4
604.061	744.34
604.48	743.76
604.898	750
605.317	753.95
605.736	756.86
606.155	756.15
606.574	753.27
606.992	758.25
607.411	756.85
607.829	753.25
608.248	754.14
608.666	753.94
609.085	755.83
609.503	752.23
609.921	751.07
610.339	754.27
610.758	755.99
611.176	755.97
611.594	753.32
612.012	754.79
612.43	760.94
612.847	767.02
613.265	771.18
613.683	775.99
614.101	780.17
614.518	780.99
614.936	778
615.353	772.79
615.771	773.8
616.188	776.18
616.606	777.11
617.023	775.01
617.44	768.76
617.857	765.71
618.274	763.33
618.691	761.38
619.108	757.01
619.525	754.84
619.942	760.12
620.359	763.78
620.776	762.68
621.192	761.78
621.609	762.09
622.026	767.06
622.442	773.11
622.859	775.73
623.275	773.31
623.691	778.67
624.108	787.83
624.524	797.73
624.94	797.9
625.356	804.46
625.772	813.17
626.188	820.94
626.604	822.99
627.02	820.58
627.436	819.96
627.852	824.45
628.268	831.83
628.683	826.52
629.099	821.7
629.514	819.59
629.93	822.36
630.345	824.98
630.761	821.73
631.176	824.82
631.591	822.43
632.007	819.5
632.422	818.75
632.837	812.29
633.252	811.72
633.667	806.11
634.082	801.18
634.497	795.25
634.911	785.18
635.326	786.25
635.741	777.61
636.155	774.47
636.57	778.99
636.984	782.43
637.399	788.21
637.813	791.14
638.228	795.09
638.642	803.53
639.056	802.55
639.47	808.75
639.884	808.75
640.298	810.47
640.712	814.73
641.126	812.9
641.54	813.03
641.954	816.05
642.368	815.42
642.781	818.39
643.195	812.64
643.609	819.91
644.022	822.6
644.436	827.41
644.849	826.02
645.262	824.83
645.676	832.64
646.089	836.72
646.502	832.55
646.915	834.56
647.328	827.74
647.741	832.33
648.154	827.54
648.567	831.96
648.98	826.56
649.393	831.81
649.805	833.18
650.218	830.06
650.631	821.19
651.043	819.32
651.456	817.7
651.868	820.66
652.28	837.02
652.693	851.59
653.105	859.65
653.517	870.58
653.929	875.7
654.341	885.99
654.753	881.32
655.165	891.42
655.577	894.7
655.989	896.95
656.401	895.52
656.813	870.35
657.224	858.78
657.636	839.91
658.047	831.09
658.459	819.56
658.87	817.82
659.282	814.27
659.693	802.12
660.104	795.7
660.515	790.27
660.926	795.85
661.338	800.61
661.749	802.51
662.159	801.38
662.57	805.52
662.981	809.2
663.392	808.79
663.803	820.36
664.213	826.61
664.624	828.85
665.035	838.45
665.445	831.35
665.855	831.3
666.266	830.59
666.676	834.72
667.086	830.21
667.497	835.27
667.907	834.48
668.317	829.44
668.727	829.95
669.137	836.83
669.547	838.79
669.956	847.45
670.366	853.35
670.776	858.37
671.186	865.5
671.595	872.47
672.005	878.04
672.414	880.46
672.824	880.93
673.233	887.61
673.642	891.23
674.052	895.12
674.461	897.11
674.87	904.53
675.279	901.29
675.688	904.25
676.097	905.74
676.506	902.3
676.915	916.5
677.323	918.56
677.732	915.67
678.141	913.16
678.549	900.98
678.958	898.34
679.366	894.18
679.775	896.98
680.183	904.53
680.592	908.39
681	911.15
681.408	899.51
681.816	903.31
682.224	906.89
682.632	910.3
683.04	933.43
683.448	949.78
683.856	971.27
684.264	995.41
684.671	1014.06
685.079	1036.19
685.487	1060.06
685.894	1100.06
686.302	1122.25
686.709	1133.81
687.116	1149.23
687.524	1154.29
687.931	1150.86
688.338	1141.09
688.745	1126.9
689.152	1115.08
689.559	1111.71
689.966	1106.82
690.373	1085.85
690.78	1080.68
691.187	1091.57
691.593	1090.62
692	1086.7
692.407	1097.26
692.813	1116.8
693.22	1125.65
693.626	1136.59
694.032	1142.31
694.439	1164.61
694.845	1177.45
695.251	1202.25
695.657	1222.55
696.063	1262.31
696.469	1290.82
696.875	1316.97
697.281	1329.25
697.687	1350.5
698.093	1369.02
698.498	1407.44
698.904	1437.98
699.31	1488.05
699.715	1526.89
700.12	1581.69
700.526	1600.24
700.931	1647.19
701.337	1687.75
701.742	1718.09
702.147	1777.62
702.552	1809.76
702.957	1859.38
703.362	1889.37
703.767	1922.52
704.172	1964.46
704.577	1955.4
704.981	2002.64
705.386	2033.16
705.791	2049.6
706.195	2116.74
706.6	2144.89
707.004	2217.76
707.408	2222
707.813	2262.81
708.217	2280.86
708.621	2306.51
709.025	2396.6
709.43	2424.99
709.834	2491.12
710.237	2565.03
710.641	2582.81
711.045	2627.94
711.449	2654.14
711.853	2705.98
712.256	2766.39
712.66	2822.59
713.064	2908.1
713.467	2972.17
713.87	3088.78
714.274	3157.44
714.677	3274.4
715.08	3434.02
715.484	3599.6
715.887	3794.87
716.29	3988.51
716.693	4195.63
717.096	4431.17
717.499	4581.95
717.901	4642.65
718.304	4706.32
718.707	4767.27
719.109	4723.45
719.512	4736.52
719.915	4660.48
720.317	4649.17
720.719	4728.8
721.122	4740.24
721.524	4735.52
721.926	4734.7
722.328	4864.16
722.731	4892.43
723.133	4956.22
723.535	5173.12
723.937	5233.38
724.338	5318.92
724.74	5398.83
725.142	5370.33
725.544	5401.14
725.945	5459.91
726.347	5490.56
726.748	5517.14
727.15	5564.74
727.551	5558.24
727.952	5562.03
728.354	5561.54
728.755	5591.81
729.156	5576.3
729.557	5596.74
729.958	5500.79
730.359	5470.93
730.76	5477.4
731.161	5438.52
731.562	5435.97
731.962	5464.24
732.363	5416.25
732.763	5370.68
733.164	5431.37
733.564	5377.13
733.965	5296.73
734.365	5280.21
734.766	5330.65
735.166	5305.61
735.566	5262.78
735.966	5249.86
736.366	5258.51
736.766	5208.66
737.166	5258.48
737.566	5227.41
737.966	5217.09
738.365	5272.95
738.765	5279.73
739.165	5208.4
739.564	5192.1
739.964	5255.53
740.363	5216.33
740.763	5224.52
741.162	5222.92
741.561	5196.01
741.96	5154.21
742.36	5183.46
742.759	5200.27
743.158	5250.5
743.557	5276.87
743.955	5330.38
744.354	5286.75
744.753	5360.36
745.152	5321.53
745.55	5390.6
745.949	5390.02
746.348	5398.08
746.746	5423.33
747.144	5381.54
747.543	5363.61
747.941	5424.96
748.339	5349.11
748.737	5344.55
749.136	5337.21
749.534	5417.17
749.932	5389.73
750.33	5422.91
750.727	5492.11
751.125	5469.04
751.523	5455.53
751.921	5508.12
752.318	5473.37
752.716	5543.62
753.113	5564.89
753.511	5599.12
753.908	5600.94
754.305	5581.19
754.703	5653.24
755.1	5726.34
755.497	5798.95
755.894	6023.21
756.291	6235.67
756.688	6618.41
757.085	7135.31
757.482	7855.07
757.878	8638.49
758.275	9355.13
758.672	10340.63
759.068	11141.87
759.465	12279.04
759.861	13746.64
760.258	15446.48
760.654	16329.92
761.05	16210.5
761.447	15469.29
761.843	14401.65
762.239	13305.08
762.635	12807.61
763.031	12330.41
763.427	11644.11
763.822	10921.82
764.218	10211.92
764.614	9286.58
765.01	8664.41
765.405	8261.75
765.801	7961.08
766.196	7575.16
766.592	7358.28
766.987	6991.14
767.382	6744.57
767.778	6641.22
768.173	6490.3
768.568	6406.33
768.963	6261.89
769.358	6283.77
769.753	6230.23
770.148	6131.24
770.542	6131.91
770.937	6097.95
771.332	6205.42
771.726	6230.87
772.121	6158.53
772.515	6224.54
772.91	6205.48
773.304	6287.38
773.699	6210.07
774.093	6272.24
774.487	6336.39
774.881	6386.61
775.275	6381.98
775.669	6332.45
776.063	6381.65
776.457	6421.55
776.851	6333.3
777.245	6325.35
777.638	6364.95
778.032	6499.49
778.425	6456.96
778.819	6505.17
779.212	6452.88
779.606	6402.4
779.999	6424.75
780.392	6408.46
780.786	6508.28
781.179	6531.26
781.572	6580.97
781.965	6596.46
782.358	6525.86
782.751	6591.99
783.143	6538.82
783.536	6625.09
783.929	6681.18
784.322	6814.43
784.714	6848.7
785.107	6843.52
785.499	6929.75
785.891	6902.85
786.284	6879.02
786.676	7051.8
787.068	7028.57
787.46	7089.06
787.852	7112.37
788.245	7209.87
788.636	7246.61
789.028	7326.1
789.42	7371.41
789.812	7380.54
790.204	7495.9
790.595	7615.47
790.987	7381.26
791.378	7412.4
791.77	7562.79
792.161	7723.47
792.553	7784.68
792.944	7656.54
793.335	7574.11
793.726	7657.89
794.117	7766.35
794.508	7925.48
794.899	7886.54
795.29	8053.63
795.681	8120.82
796.072	7958.27
796.463	7732.75
796.853	7747.75
797.244	7930.72
797.634	7977.66
798.025	7973.25
798.415	7985.53
798.806	8090.53
799.196	8189.28
799.586	8245.47
799.976	8196.45
800.366	8461.41
800.756	8750.44
801.146	8701.99
801.536	8737.87
801.926	8821.19
802.316	8853.23
802.706	8934.31
803.095	8791.54
803.485	8914.42
803.874	8967.83
804.264	9274.88
804.653	9242.19
805.043	9409.33
805.432	9540.29
805.821	9540.59
806.21	9564.02
806.599	9706.08
806.988	9761.74
807.377	9887.94
807.766	10038.78
808.155	10366.2
808.544	10052.41
808.933	10074.85
809.321	10045.86
809.71	10390.45
810.098	10575.24
810.487	11110.93
810.875	11669.4
811.264	11692.97
811.652	12023.33
812.04	12189.05
812.428	12377.93
812.816	13275.46
813.204	13761.43
813.592	14413.15
813.98	14794.72
814.368	14680.94
814.756	15243.05
815.144	15143.98
815.531	15686.05
815.919	15604.12
816.306	15959.66
816.694	15603.79
817.081	15660.95
817.469	16061.89
817.856	16054.82
818.243	16377.75
818.63	16831.52
819.017	16334
819.404	16410.35
819.791	16855.9
820.178	17566.13
820.565	17854.8
820.952	18935.62
821.339	18360.52
821.725	18569.29
822.112	17707.99
822.498	17660.53
822.885	17813.2
823.271	17706.01
823.657	18196.09
824.044	18202.25
824.43	18293.04
824.816	18254.52
825.202	17745.06
825.588	18932.49
825.974	18957.45
826.36	19568.65
826.746	19610.87
827.132	20036.35
827.517	20010.37
827.903	19096.2
828.289	19145.35
828.674	18248.22
829.06	18138.73
829.445	18611.16
829.83	19031.25
830.216	19585.7
830.601	20005.88
830.986	19526.01
831.371	19365.36
831.756	20007.77
832.141	19508.95
832.526	19497.58
832.911	19826.02
833.295	19685.64
833.68	20228.09
834.065	19508.49
834.449	18450.54
834.834	18367.94
835.218	18365.33
835.603	18760.69
835.987	18532.88
836.371	19514.21
836.755	19407.96
837.139	19877.19
837.524	20177.4
837.908	19981.38
838.291	20054.35
838.675	20137.58
839.059	20383.2
839.443	20376.85
839.827	20114.98
840.21	20674.66
840.594	20491.34
840.977	20734.08
841.361	20713.38
841.744	21143.87
842.127	20958.54
842.511	21248.36
842.894	21951.9
843.277	22397.38
843.66	23031.01
844.043	23128.81
844.426	22186.04
844.809	21830.01
845.191	21857.69
845.574	21320.37
845.957	20890.11
846.339	20753.81
846.722	20143.06
847.104	20221.27
847.487	20028.81
847.869	20051.79
848.252	20385.66
848.634	20770.36
849.016	21078.95
849.398	21231.67
849.78	22228.15
850.162	22245.12
850.544	22742.33
850.926	23478.02
851.307	23364.14
851.689	23685.7
852.071	24204.09
852.452	24575.7
852.834	24549.88
853.215	25011.99
853.597	25192.15
853.978	25527.57
854.359	26052.7
854.741	24890.52
855.122	24771.65
855.503	24444.87
855.884	24601.9
856.265	24532.92
856.646	24662.61
857.026	24210.83
857.407	24131.85
857.788	24303.83
858.169	24651.45
858.549	23656.21
858.93	24391.71
859.31	24449.84
859.69	24682.88
860.071	24214.8
860.451	23958.49
860.831	23095.17
861.211	24451.25
861.591	25100.29
861.971	25084.01
862.351	25305.87
862.731	25750.78
863.111	26054.05
863.491	26441.49
863.87	27468.82
864.25	27862.02
864.629	27396.98
865.009	27990.04
865.388	28976.09
865.768	31048.07
866.147	30916.76
866.526	29199.63
866.905	29571.25
867.284	31223.3
867.663	29651.55
868.042	28422.01
868.421	28340.82
868.8	28820.35
869.179	29109.6
869.558	27417.67
869.936	25281.16
870.315	25734.32
870.693	26363.07
871.072	28421.12
871.45	27079.02
871.828	27418.51
872.207	28828.53
872.585	28391.24
872.963	29156.69
873.341	28162.33
873.719	27828.43
874.097	27485.27
874.475	28012.65
874.853	28667.23
875.23	27477.99
875.608	28634.05
875.986	30981.71
876.363	29643.75
876.741	30552.42
877.118	29792.01
877.495	31247.02
877.873	31782.54
878.25	33455.1
878.627	32094.1
879.004	32546.17
879.381	32394.87
879.758	31541.48
880.135	29356.54
880.512	31037.48
880.889	30216.79
881.265	29907.9
881.642	29658.7
882.019	30154.96
882.395	29537.16
882.772	30698.16
883.148	29361.29
883.524	29252.23
883.901	29080.8
884.277	29520.93
884.653	29326.09
885.029	30159.14
885.405	33395.09
885.781	33155.25
886.157	31797.49
886.532	32186.05
886.908	32174.19
887.284	35768.47
887.659	36923.57
888.035	38061.63
888.411	39033.37
888.786	39551.88
889.161	40937.1
889.537	40178.79
889.912	41455.43
890.287	41390.73
890.662	42483.95
891.037	41712.68
891.412	38889.41
891.787	38494.6
892.162	37167.76
892.536	38042.15
892.911	36629.08
893.286	35851.74
893.66	34404.7
894.035	35273.61
894.409	38416.09
894.784	36833.11
895.158	37450.29
895.532	39690.94
895.906	40774.7
896.281	41729.37
896.655	41061.69
897.029	46905.89
897.402	48859.31
897.776	54375.86
898.15	54214.82
898.524	53623.15
898.898	54346.93
899.271	60837.93
899.645	52678.08
900.018	50617.4
900.392	52477.46
900.765	52901.28
901.138	48965.8
901.511	48216.24
901.884	44297.25
902.258	40844.91
902.631	42210.75
903.003	48584.42
903.376	43846.22
903.749	49182.02
904.122	52630.24
904.495	57956.47
904.867	58687.34
905.24	50945.09
905.612	47441.31
905.985	48495.97
906.357	50689.75
906.729	48384.6
907.102	41333.23
907.474	39728.33
907.846	39973.58
908.218	39453.7
908.59	34869.14
908.962	33740.54
909.334	36317.02
909.705	38132.54
910.077	37029.34
910.449	38556.4
910.82	39633.75
911.192	43616.66
911.563	45336.54
911.935	48506.99
912.306	48557.85
912.677	50123.98
913.048	49600.8
913.419	53813.16
913.79	54117.03
914.161	58028.92
914.532	55460.79
914.903	50982.22
915.274	48407.02
915.645	47707.3
916.015	41995.24
916.386	40039.04
916.756	42620.89
917.127	43971.31
917.497	39311.22
917.868	42787.97
918.238	40660.41
918.608	41850.09
918.978	42704.89
919.348	45231.62
919.718	46735.32
920.088	45014.17
920.458	46757.4
920.828	49210.18
921.198	46623.32
921.567	49779.18
921.937	38531.81
922.306	38879.03
922.676	41909.44
923.045	34956.61
923.415	33195.05
923.784	30219.09
924.153	31060.76
924.522	31014.15
924.891	29138.81
925.26	31235.17
925.629	30498.83
925.998	35083.65
926.367	34254.92
926.736	32606.48
927.104	38838.79
927.473	41772.59
927.842	50484.41
928.21	49987.11
928.578	52591.51
928.947	49756.65
929.315	50024.47
929.683	58670.03
930.051	59113.95
930.42	68666.11
930.788	58707.75
931.156	58306.92
931.523	54646.45
931.891	50441.98
932.259	48459.59
932.627	56156.62
932.994	79477.96
933.362	65691.09
933.729	57052.02
934.097	54595.23
934.464	46144.87
934.831	53251.9
935.199	52465.02
935.566	50865.8
935.933	51544.23
936.3	62428.17
936.667	48588.08
937.034	43783.13
937.401	43327.58
937.767	37346.6
938.134	33231
938.501	46914.83
938.867	49982.81
939.234	84540.59
939.6	72144.4
939.967	79532
940.333	53216.33
940.699	45302.54
941.065	36372.27
941.431	47659.67
941.798	45991.98
942.163	60508.32
942.529	37839.75
942.895	34830.49
943.261	22511.66
943.627	29552.71
943.992	25874.4
944.358	25930.47
944.723	26026.98
945.089	25371.71
945.454	23443.62
945.82	25041.1
946.185	24033.68
946.55	27824.95
946.915	24969.82
947.28	29263.8
947.645	25766.5
948.01	23776.14
948.375	24770
948.74	29675.34
949.104	34623.56
949.469	50059.57
949.834	88423.94
950.198	83843.4
950.562	50274.32
950.927	41851.65
951.291	50401.96
951.655	42919.8
952.02	40341.43
952.384	30519.05
952.748	26582.32
953.112	25908.81
953.476	22506.31
953.839	20829.35
954.203	20612.16
954.567	25751.84
954.931	40516.87
955.294	34649.48
955.658	34821.28
956.021	59132.12
956.385	100173.49
956.748	147803.04
957.111	229338.96
957.474	257319.04
957.837	289642.39
958.2	219146.29
958.563	78850.26
958.926	53382.43
959.289	81032.54
959.652	90573.92
960.015	68038.58
960.377	97715.8
960.74	111428.09
961.102	192367.11
961.465	206718.31
961.827	110526.95
962.189	212082.44
962.552	146985.23
962.914	117808.87
963.276	76401.98
963.638	63149.35
964	62492.05
964.362	42227.52
964.724	40832.68
965.085	29098.17
965.447	23865.54
965.809	27221.61
966.17	27262.9
966.532	29495.75
966.893	27052.44
967.255	24631.74
967.616	29062.33
967.977	23268.84
968.338	25418.68
968.699	20891.97
969.061	20889.56
969.421	21006.28
969.782	23583.79
970.143	19914.69
970.504	20623.82
970.865	23447.72
971.225	23932.94
971.586	23411.35
971.946	33406.29
972.307	29010.52
972.667	37941.33
973.027	39066.17
973.388	47380.03
973.748	32192.1
974.108	35062.72
974.468	47431.85
974.828	36544.63
975.188	28173.55
975.548	25880.09
975.907	21711.91
976.267	24350.25
976.627	20451.1
976.986	21229.64
977.346	20255.18
977.705	19492.12
978.064	17738.58
978.424	14766.03
978.783	15292.44
979.142	17441.77
979.501	16682.16
979.86	17628.63
980.219	16972.1
980.578	21889.91
980.937	24504.2
981.296	21793.9
981.654	22443.86
982.013	34964.62
982.371	45384.62
982.73	42338.72
983.088	47903.9
983.447	51206.57
983.805	73157.41
984.163	153115.33
984.521	169881.91
984.879	249125.59
985.237	-405812.13
985.595	390864.16
985.953	97075.66
986.311	56062.02
986.669	32524.48
987.026	28110.44
987.384	37811.67
987.741	39124.07
988.099	27905.98
988.456	22232.36
988.814	20797.43
989.171	18079.6
989.528	17836.47
989.885	18845.17
990.242	14923.8
990.599	18600.43
990.956	15191.37
991.313	10615.28
991.67	8716.94
992.027	9231.14
992.383	8199.45
992.74	7192.65
993.096	7536.18
993.453	7825.19
993.809	8109.17
994.165	10793.72
994.522	9882.56
994.878	10877.26
995.234	13652.91
995.59	13458.96
995.946	12758.4
996.302	14580.7
996.658	16834.02
997.013	18549.34
997.369	21979.73
997.725	28140.13
998.08	18226.45
998.436	28143.63
998.791	38908.1
999.147	38852.14
999.502	42430.04
999.857	30862.21
1000.212	50301.26
1000.567	71680.33
1000.922	41344.21
1001.277	26224.98
1001.632	19438.29
1001.987	25030.84
1002.342	17926.66
1002.696	14358.47
1003.051	11453.66
1003.406	13835.87
1003.76	13793.44
1004.114	13568.82
1004.469	11391.98
1004.823	9450.89
1005.177	10212.27
1005.531	8083.18
1005.885	7171.91
1006.239	8108.78
1006.593	10147.82
1006.947	13565.33
1007.301	10197.05
1007.655	11096.39
1008.008	8160.92
1008.362	9182.64
1008.715	13064.9
1009.069	11898.23
1009.422	17864.2
1009.776	35821.01
1010.129	23763.36
1010.482	19864.67
1010.835	16816.64
1011.188	34983.59
1011.541	32907.59
1011.894	-200867.48
1012.247	591992.32
1012.6	40363.53
1012.952	25412.36
1013.305	13179.04
1013.657	9522.47
1014.01	9025.18
1014.362	7453.47
1014.715	6610.55
1015.067	5747.99
1015.419	5623.56
1015.771	4983.68
1016.123	4421.58
1016.475	4525.52
1016.827	4814.39
1017.179	5159.62
1017.531	5198.51
1017.883	5298.15
1018.234	5085.58
1018.586	6412.58
1018.938	6776.35
1019.289	9336.97
1019.64	10736.63
1019.992	10034.5
1020.343	9234.21
1020.694	7287.05
1021.045	6469.57
1021.396	7399.32
1021.747	7964.62
1022.098	9611.42
1022.449	7002.88
1022.8	6517.41
1023.151	4532.32
1023.501	3991.97
1023.852	4335.97
1024.202	4501.51
1024.553	4955.53
1024.903	4814.44
1025.253	4107.9
1025.604	3687.61
1025.954	4575.73
1026.304	5562.11
1026.654	6493.25
1027.004	9558.35
1027.354	15476.51
1027.703	14522.58
1028.053	19039.8
1028.403	27722.62
1028.753	40225.87
1029.102	54739.5
1029.452	281989.24
1029.801	12174.69
1030.15	7865.18
1030.499	6670.14
897.758	2221.88
901.051	2154.13
904.343	2189.53
907.636	2197.59
910.928	2260.99
914.22	2179.2
917.511	2184.62
920.803	2233.62
924.094	2232.82
927.384	2236.68
930.675	2199.03
933.965	2160.5
937.255	2190.16
940.544	2157.14
943.834	2156.76
947.123	2095.46
950.411	2185.44
953.7	2167.34
956.988	2148.92
960.276	2082.55
963.563	2134.79
966.851	2146.64
970.138	2189.94
973.424	2192.22
976.711	2146.07
979.997	2193.73
983.283	2240.41
986.568	2170.27
989.853	2159.14
993.138	2187.77
996.423	2277.15
999.708	2234.31
1002.992	2265.96
1006.275	2177.62
1009.559	2183.5
1012.842	2285.14
1016.125	2238.01
1019.408	2215.24
1022.69	2274.14
1025.972	2312.69
1029.254	2287.88
1032.536	2248.19
1035.817	2256.24
1039.098	2227.58
1042.379	2281.01
1045.659	2309.73
1048.939	2255.91
1052.219	2263.25
1055.498	2258.73
1058.778	2255.12
1062.057	2228.31
1065.335	2253.01
1068.614	2265.41
1071.892	2261.96
1075.17	2312.49
1078.447	2317.2
1081.724	2312.71
1085.001	2339.69
1088.278	2319.62
1091.554	2324.8
1094.83	2319.82
1098.106	2357.42
1101.382	2389.78
1104.657	2390.19
1107.932	2392.18
1111.206	2373.04
1114.481	2322.26
1117.755	2321.77
1121.029	2315.19
1124.302	2376.27
1127.575	2342.6
1130.848	2338.91
1134.121	2306.96
1137.393	2268.84
1140.665	2327.57
1143.937	2304.17
1147.208	2250.24
1150.48	2311.89
1153.75	2300.92
1157.021	2302.53
1160.291	2278.09
1163.561	2333.05
1166.831	2299.18
1170.101	2328.09
1173.37	2285.26
1176.639	2241.97
1179.907	2287.46
1183.176	2312.71
1186.444	2312.9
1189.711	2338.42
1192.979	2361.56
1196.246	2318.01
1199.513	2328.23
1202.78	2334.75
1206.046	2345.16
1209.312	2371.52
1212.578	2390.44
1215.843	2355.85
1219.108	2321.57
1222.373	2345.65
1225.638	2316.99
1228.902	2310.3
1232.166	2262.47
1235.43	2251.37
1238.693	2277.96
1241.956	2267.71
1245.219	2320.67
1248.482	2298.4
1251.744	2297.52
1255.006	2423.67
1258.268	2371.81
1261.529	2326.96
1264.79	2327.09
1268.051	2430.03
1271.312	2438.61
1274.572	2408.78
1277.832	2397.19
1281.092	2375.02
1284.351	2368.87
1287.61	2352.95
1290.869	2284.98
1294.128	2280.78
1297.386	2330.83
1300.644	2323.12
1303.902	2334.74
1307.159	2201.06
1310.416	2252.33
1313.673	2280.31
1316.93	2277.87
1320.186	2309.35
1323.442	2342.89
1326.697	2343.57
1329.953	2317.27
1333.208	2353.97
1336.463	2323.62
1339.717	2281.63
1342.972	2389.26
1346.226	2359.78
1349.479	2307.01
1352.733	2287.27
1355.986	2291.23
1359.238	2271.93
1362.491	2276.23
1365.743	2273.3
1368.995	2263.7
1372.247	2275.54
1375.498	2295.96
1378.749	2336.18
1382	2284.28
1385.251	2321.11
1388.501	2272.47
1391.751	2272.8
1395	2236.67
1398.25	2263.31
1401.499	2284.49
1404.748	2232.56
1407.996	2210.59
1411.244	2197.3
1414.492	2183.81
1417.74	2169.31
1420.987	2173.38
1424.234	2233.89
1427.481	2194.36
1430.728	2252.72
1433.974	2225.98
1437.22	2225.79
1440.465	2221.75
1443.711	2220.96
1446.956	2245.09
1450.201	2216.73
1453.445	2258.13
1456.689	2247.15
1459.933	2255.38
1463.177	2297.49
1466.42	2269.02
1469.663	2251.97
1472.906	2266.99
1476.148	2317.27
1479.391	2289.61
1482.633	2264.81
1485.874	2288.26
1489.115	2294.81
1492.356	2278.35
1495.597	2258.96
1498.838	2250.83
1502.078	2235.95
1505.318	2207.79
1508.557	2241.1
1511.797	2238.59
1515.036	2282.22
1518.274	2256.03
1521.513	2210.66
1524.751	2221.74
1527.989	2248.45
1531.227	2266.01
1534.464	2281.7
1537.701	2275.59
1540.938	2288.87
1544.174	2238.06
1547.41	2226.67
1550.646	2267.04
1553.882	2316.27
1557.117	2374.34
1560.352	2381.67
1563.587	2343.53
1566.821	2311.02
1570.055	2325.85
1573.289	2308.56
1576.523	2367.42
1579.756	2381.14
1582.989	2405.17
1586.222	2365.78
1589.454	2394.75
1592.686	2377.87
1595.918	2408.01
1599.15	2405.08
1602.381	2451.55
1605.612	2433.69
1608.843	2526.58
1612.073	2449.53
1615.303	2438.84
1618.533	2433.09
1621.762	2432.44
1624.992	2409.03
1628.221	2411.2
1631.449	2399.67
1634.678	2427.43
1637.906	2396.65
1641.134	2424.54
1644.361	2390.8
1647.588	2379.99
1650.815	2402.44
1654.042	2368.19
1657.269	2396.96
1660.495	2375.67
1663.72	2361.27
1666.946	2329.79
1670.171	2302.05
1673.396	2274.65
1676.621	2256.51
1679.845	2253.23
1683.069	2259.56
1686.293	2289.08
1689.517	2279.91
1692.74	2229.25
1695.963	2250.68
1699.185	2290.25
1702.408	2263.45
1705.63	2293.82
1708.852	2310.96
1712.073	2283.01
1715.294	2293.34
1718.515	2336.29
1721.736	2294.51
1724.956	2274.35
1728.176	2296.33
1731.396	2321.01
1734.616	2305.08
1737.835	2340.51
1741.054	2311.52
1744.272	2301.79
1747.491	2339.99
1750.709	2364.57
1753.927	2311.98
1757.144	2338.31
1760.361	2394.69
1763.578	2368.86
1766.795	2315.28
1770.011	2305.9
1773.227	2332.55
1776.443	2372.55
1779.658	2416.15
1782.874	2356.45
1786.089	2348.95
1789.303	2352.59
1792.518	2348
1795.732	2335.22
1798.945	2351.22
1802.159	2392.07
1805.372	2334.23
1808.585	2328.68
1811.797	2331.11
1815.01	2353.18
1818.222	2374.91
1821.434	2330.79
1824.645	2375.12
1827.856	2384.92
1831.067	2414.53
1834.278	2353.65
1837.488	2336.5
1840.698	2459.81
1843.908	2398.77
1847.117	2366.27
1850.326	2290.99
1853.535	2350.86
1856.744	2385.65
1859.952	2305.98
1863.16	2309.94
1866.368	2323.26
1869.575	2434.03
1872.782	2317.61
1875.989	2249.1
1879.196	2301.48
1882.402	2289.69
1885.608	2324.8
1888.814	2265.78
1892.019	2173.19
1895.224	2223.66
1898.429	2190.43
1901.634	2173.69
1904.838	2146.46
1908.042	2204.91
1911.246	2216.99
1914.449	2177
1917.652	2160.75
1920.855	2140.54
1924.058	2164.97
1927.26	2211.91
1930.462	2233.31
1933.664	2271.16
1936.865	2214.27
1940.066	2233.65
1943.267	2175.63
1946.467	2185.57
1949.668	2205.29
1952.868	2278.2
1956.067	2265.47
1959.267	2207.12
1962.466	2230.18
1965.665	2213.51
1968.863	2204.48
1972.061	2208.32
1975.259	2201.44
1978.457	2276.42
1981.654	2238.34
1984.852	2241.42
1988.048	2191.43
1991.245	2182.07
1994.441	2270.21
1997.637	2230.95
2000.833	2212.24
2004.028	2248.97
2007.223	2309.89
2010.418	2297.86
2013.613	2249.38
2016.807	2243.13
2020.001	2235.62
2023.194	2258.44
2026.388	2242.29
2029.581	2186.09
2032.774	2246.78
2035.966	2260.47
2039.158	2205.89
2042.35	2224.42
2045.542	2149.7
2048.733	2233.05
2051.924	2227.85
2055.115	2244.57
2058.306	2208.84
2061.496	2264.86
2064.686	2314.94
2067.875	2220.13
2071.065	2222.67
2074.254	2241.6
2077.442	2196.5
2080.631	2280.62
2083.819	2210.63
2087.007	2200.33
2090.195	2185.15
2093.382	2202.04
2096.569	2185.15
2099.756	2145.59
2102.942	2193.75
2106.128	2205.93
2109.314	2195.79
2112.5	2181.31
2115.685	2148.08
2118.87	2155.21
2122.055	2217.24
2125.239	2198.16
2128.424	2184
2131.608	2245.21
2134.791	2231.73
2137.974	2268.12
2141.157	2258.34
2144.34	2227.31
2147.523	2217.59
2150.705	2243.71
2153.887	2213.77
2157.068	2185.04
2160.25	2167.49
2163.431	2191
2166.611	2159.08
2169.792	2179.08
2172.972	2091.43
2176.152	2143.15
2179.331	2171.77
2182.511	2174.52
2185.69	2197.94
2188.868	2201.29
2192.047	2237.09
2195.225	2249.78
2198.403	2198.62
2201.58	2186.68
2204.758	2174.09
2207.935	2250.18
2211.111	2162.82
2214.288	2151.36
2217.464	2186.36
2220.64	2141.73
2223.815	2191.71
2226.991	2122.9
2230.166	2140.21
2233.34	2183.51
2236.515	2198.76
2239.689	2261.62
2242.863	2212.31
2246.036	2265.64
2249.209	2248.11
2252.382	2265.5
2255.555	2276.01
2258.727	2225.28
2261.9	2255.37
2265.071	2246.37
2268.243	2242.43
2271.414	2187.61
2274.585	2172.99
2277.756	2232.36
2280.926	2190.6
2284.096	2219.9
2287.266	2151.22
2290.436	2195.68
2293.605	2214.96
2296.774	2253.62
2299.942	2256.73
2303.111	2274.14
2306.279	2326.37
2309.447	2311.17
2312.614	2281.75
2315.781	2305.14
2318.948	2284.35
2322.115	2320.73
2325.281	2220.64
2328.447	2230.57
2331.613	2199.39
2334.779	2193.25
2337.944	2188.58
2341.109	2191.32
2344.274	2180.44
2347.438	2146.16
2350.602	2169.16
2353.766	2177.37
2356.929	2166.51
2360.092	2205.86
2363.255	2174.71
2366.418	2139.52
2369.58	2208.15
2372.742	2078.73
2375.904	2074.37
2379.066	2057.77
2382.227	2087.17
2385.388	2046.38
2388.548	1996.59
2391.709	2038.55
2394.869	2025.46
2398.029	2082.45
2401.188	2080.03
2404.347	2041.4
2407.506	2125.09
2410.665	2160.45
2413.823	2147.67
2416.981	2125.18
2420.139	2142.75
2423.296	2183.73
2426.453	2157.37
2429.61	2179.36
2432.767	2148.73
2435.923	2189.68
2439.079	2134.61
2442.235	2168.25
2445.391	2110.96
2448.546	2150.44
2451.701	2186.55
2454.855	2181.95
2458.009	2210.31
2461.163	2200.91
2464.317	2171.76
2467.471	2197.25
2470.624	2224.94
2473.777	2216.06
2476.929	2233.84
2480.082	2257.65
2483.234	2232.36
2486.385	2171.98
2489.537	2166.72
2492.688	2156.01
2495.839	2172.57
2498.989	2187.42
2502.14	2175.21
2505.29	2167.29
2508.439	2192.85
2511.589	2131.77
2514.738	2129.09
2517.887	2154.19
2521.035	2230.13
2524.183	2190.93
2527.331	2178.76
2530.479	2171.05
2533.627	2173.41
