Data from C_1_DEC_ON_6N_Splice17_11-53-58-417.txt Node
Date: Sat Mar 14 11:53:58 EDT 2020
User: sa697716
Spectrometer: FLMS03696
Trigger mode: 0
Integration Time (sec): 3.180400E-1
Scans to average: 20
Electric dark correction enabled: true
Nonlinearity correction enabled: true
Boxcar width: 5
XAxis mode: Wavelengths
Number of Pixels in Spectrum: 2048
>>>>>Begin Spectral Data<<<<<
187.83	-196534.11
188.298	1483.34
188.766	826.38
189.233	684.47
189.701	964.56
190.169	1386.13
190.636	461.25
191.104	397.9
191.571	27.85
192.039	-89.41
192.506	-124.69
192.974	252.12
193.441	-416.35
193.908	-70.11
194.375	-61.57
194.842	-42.25
195.31	-1.36
195.777	111.41
196.244	316.88
196.711	359.83
197.177	453.04
197.644	598.97
198.111	1032.34
198.578	1456.52
199.045	1181.41
199.511	1904.54
199.978	2207.13
200.445	1883.59
200.911	2058.13
201.378	2304.1
201.844	2115.95
202.31	3600.29
202.777	3791.84
203.243	2120.88
203.709	2022.87
204.176	2413.56
204.642	2008.97
205.108	1896.59
205.574	1546.89
206.04	1405.77
206.506	1299.68
206.972	1234.37
207.438	1181.82
207.903	1336.29
208.369	1174.87
208.835	1161.74
209.301	1203.4
209.766	1222.44
210.232	1208.75
210.697	1495.68
211.163	1833.02
211.628	2729.03
212.094	2255.41
212.559	2796.33
213.024	1728.38
213.49	2092.88
213.955	2040.21
214.42	1977.64
214.885	1837.72
215.35	1725.53
215.815	1657.62
216.28	1742.98
216.745	1419.94
217.21	1504.4
217.675	1322.52
218.14	1441.05
218.604	1530.09
219.069	1671.36
219.534	1699.78
219.998	1882.25
220.463	2208.69
220.927	2566.78
221.392	2343.79
221.856	2309.01
222.32	2803.69
222.785	3406.26
223.249	4184.75
223.713	4615.56
224.177	4569.75
224.642	5760.05
225.106	7045.95
225.57	7609.77
226.034	5689.07
226.497	8620.91
226.961	7721.18
227.425	8967.63
227.889	9856.18
228.353	9849.88
228.816	20152.32
229.28	19124.95
229.744	16012.15
230.207	9730.8
230.671	9542.21
231.134	15564.85
231.597	17870.6
232.061	17808.56
232.524	17257.14
232.987	11873.55
233.45	10663.98
233.914	9561.82
234.377	9730.7
234.84	8894.84
235.303	10432.5
235.766	11600.58
236.229	11951.23
236.691	7496.3
237.154	8382.84
237.617	6338.28
238.08	6460.39
238.542	7521.45
239.005	5372.49
239.468	5352.21
239.93	5050.52
240.393	4601.01
240.855	4056.8
241.317	4149.38
241.78	5039
242.242	5227.21
242.704	5663.21
243.166	4947.49
243.629	4528.81
244.091	5224.64
244.553	5716.68
245.015	6143.53
245.477	7907.76
245.939	11563.53
246.4	12307.67
246.862	11957.07
247.324	11269.46
247.786	12531.73
248.247	16405.83
248.709	16813.38
249.17	12573.55
249.632	11923.47
250.093	13897.41
250.555	12041.56
251.016	7363.84
251.477	6988.45
251.939	7561.11
252.4	7908.76
252.861	9394.8
253.322	8741.37
253.783	10401.33
254.244	13467.62
254.705	10585.43
255.166	9385.01
255.627	9221.36
256.088	13013.08
256.549	13793.34
257.009	11834.05
257.47	14343.81
257.931	11638.56
258.391	8748.01
258.852	9005.94
259.312	9408.91
259.773	11567.68
260.233	9779.67
260.694	8244.91
261.154	9278.88
261.614	7481.43
262.074	6667.72
262.534	6936.74
262.994	6543.46
263.455	8656.43
263.915	7286.32
264.374	6848.62
264.834	7469.51
265.294	8209.52
265.754	8468.73
266.214	8008.9
266.673	7468.39
267.133	9402.57
267.593	9267.8
268.052	11291.75
268.512	9779.71
268.971	11818.59
269.431	12959.71
269.89	11558.83
270.349	17310.35
270.809	19322.05
271.268	17359.94
271.727	38755.9
272.186	25052.3
272.645	18804.54
273.104	13508.38
273.563	19557.36
274.022	15293.21
274.481	12985.17
274.94	10022.26
275.399	7428.99
275.857	8610.5
276.316	11620.16
276.775	10332.17
277.233	10182.13
277.692	9573.09
278.15	10889.12
278.609	11255.19
279.067	10407.89
279.525	9708.99
279.984	12532.74
280.442	15114.33
280.9	15016.44
281.358	9897.43
281.816	9265.15
282.274	9108.8
282.732	9379.24
283.19	9407.52
283.648	8123.42
284.106	8659.51
284.564	8801.71
285.021	8196.11
285.479	6122.09
285.937	5531.59
286.394	4884.71
286.852	5023.1
287.309	5282.5
287.767	5146.36
288.224	4918.78
288.682	5392.6
289.139	5956.57
289.596	5471.68
290.053	5679.11
290.511	7164.23
290.968	8751.04
291.425	11852.05
291.882	9933.4
292.339	8648.67
292.796	8534.63
293.252	8051.36
293.709	6433.95
294.166	5752.11
294.623	6355.49
295.079	6103.09
295.536	6148.15
295.992	5576.38
296.449	5529.47
296.905	5726.46
297.362	5528.71
297.818	5835.17
298.274	6084.45
298.731	6173.68
299.187	6126.73
299.643	6573.73
300.099	7966.87
300.555	8752.22
301.011	7332.09
301.467	7125.89
301.923	8351.36
302.379	8164.22
302.835	8003.81
303.291	8010.93
303.746	9155.12
304.202	11603.14
304.658	11694.06
305.113	7894.75
305.569	7752.72
306.024	8281.92
306.479	7839.23
306.935	6648.75
307.39	7242.26
307.845	6724.11
308.301	6797.57
308.756	6610.79
309.211	6365.4
309.666	6518.16
310.121	8115.7
310.576	8237.58
311.031	8155.85
311.486	9327.35
311.94	9298.09
312.395	12466.85
312.85	23414.58
313.305	114425.32
313.759	598879.62
314.214	43450.25
314.668	34506.57
315.123	29147.3
315.577	10498.33
316.032	9386.07
316.486	11751.96
316.94	9329.4
317.394	6518.97
317.849	5080.18
318.303	4820.22
318.757	4549.06
319.211	5047.9
319.665	4429.68
320.119	4484.89
320.572	6406.55
321.026	5993.63
321.48	5014.21
321.934	5428.87
322.387	5438.45
322.841	5884.62
323.295	5323.23
323.748	6089.68
324.202	6168.54
324.655	7407.38
325.108	10392.47
325.562	7371.88
326.015	8741.68
326.468	6624.48
326.921	7467.94
327.374	7000.46
327.827	7297.24
328.28	8230
328.733	5567.64
329.186	4910.99
329.639	4693.67
330.092	3941.84
330.545	3765.21
330.997	3816.46
331.45	4173.76
331.903	4885.39
332.355	8367.69
332.808	8146.71
333.26	6724.86
333.713	7299.85
334.165	7367.55
334.617	9782.08
335.069	7858.2
335.522	14194.01
335.974	15744.16
336.426	14335.64
336.878	9935.06
337.33	5061.44
337.782	4933.68
338.234	6234.86
338.686	7463.43
339.137	8834.63
339.589	8366.13
340.041	6604.66
340.493	5648.5
340.944	5771.66
341.396	6247.48
341.847	5275.57
342.299	6243.48
342.75	7653.47
343.201	6637.99
343.653	7607.67
344.104	9305.64
344.555	7317.27
345.006	11314.75
345.457	8766.84
345.908	6947.62
346.359	6545.47
346.81	5317.39
347.261	5559.73
347.712	5461.94
348.163	5857.48
348.613	5964.68
349.064	5606.7
349.515	4906.52
349.965	5066.99
350.416	6060.23
350.866	6648.87
351.317	7509.5
351.767	12426.54
352.217	15687.53
352.668	13033.22
353.118	11976.2
353.568	11466.69
354.018	9051.37
354.468	9592.93
354.918	6892.35
355.368	6050.52
355.818	8602.58
356.268	24666.7
356.718	103939.78
357.168	25996.83
357.617	13075.45
358.067	14504.8
358.517	13653.66
358.966	16124.76
359.416	18146.16
359.865	19540.22
360.315	23289.45
360.764	10850.43
361.213	6128.56
361.663	5777.4
362.112	7123.21
362.561	11502.74
363.01	8749.93
363.459	7381.71
363.908	7963.81
364.357	6790.12
364.806	11459.76
365.255	7877.46
365.703	7261.36
366.152	7249.04
366.601	5896.47
367.05	4811.76
367.498	4396.27
367.947	4577.78
368.395	4771.4
368.844	4239.01
369.292	5092.95
369.74	3559.17
370.189	5447.05
370.637	6389.77
371.085	5527.67
371.533	6714.64
371.981	6455.45
372.429	6186.47
372.877	6434.26
373.325	5400.84
373.773	5532.09
374.221	4923.25
374.669	6108.31
375.116	5301.29
375.564	5358.78
376.012	6008.75
376.459	5008.08
376.907	6016.71
377.354	7246.55
377.801	6828.76
378.249	7856.32
378.696	10001.99
379.143	12152.01
379.591	12904.33
380.038	21909.87
380.485	15902.57
380.932	17199.04
381.379	15859.36
381.826	11780.13
382.273	8425.32
382.72	7329.32
383.166	7162.67
383.613	4671.25
384.06	4239.29
384.506	4918.06
384.953	3617.88
385.4	3627.49
385.846	3183.27
386.292	3076.93
386.739	3006.2
387.185	2965.58
387.631	2977.93
388.078	2912.88
388.524	3119.17
388.97	2885.24
389.416	2430.09
389.862	2598.08
390.308	2479.86
390.754	2527.46
391.2	2759.87
391.645	2831.95
392.091	2740.78
392.537	2675.42
392.983	2677.83
393.428	2671.68
393.874	2865.06
394.319	2894.95
394.765	2763.08
395.21	2847.64
395.655	2684.41
396.101	2523.52
396.546	2284.08
396.991	2307.34
397.436	2144.81
397.881	2077.34
398.326	1959.7
398.771	1868.95
399.216	1629.76
399.661	1472.4
400.106	1480.92
400.551	1527.64
400.995	1374.37
401.44	1366.82
401.885	1288.11
402.329	1303.76
402.774	1255.12
403.218	1228.63
403.663	1187.03
404.107	1229.25
404.551	1243.21
404.995	1138.14
405.44	1095.79
405.884	1115.7
406.328	1082.54
406.772	1083.15
407.216	993.01
407.66	963.88
408.104	912.97
408.547	856.49
408.991	831.02
409.435	803.06
409.879	795.56
410.322	791.29
410.766	765.59
411.209	731.78
411.653	705.31
412.096	695.32
412.54	696.23
412.983	692.84
413.426	699.07
413.869	699.32
414.312	690.55
414.756	668.47
415.199	636.32
415.642	623.12
416.085	627.42
416.527	621.98
416.97	630.17
417.413	601.52
417.856	596.96
418.298	592.92
418.741	588
419.184	582.79
419.626	604.09
420.069	605.51
420.511	610.32
420.953	595.99
421.396	593.05
421.838	578.52
422.28	591.76
422.722	596.37
423.164	601.54
423.606	593.08
424.048	594.2
424.49	569.46
424.932	569.1
425.374	558.84
425.816	568.18
426.258	579.2
426.699	587.02
427.141	582.04
427.582	588.11
428.024	585.83
428.465	583.2
428.907	569.74
429.348	561.31
429.789	562.76
430.231	555.99
430.672	565.61
431.113	553.24
431.554	544.96
431.995	528.77
432.436	513.54
432.877	504.6
433.318	498.66
433.759	495.76
434.2	496.86
434.64	491.02
435.081	490.94
435.522	466.36
435.962	450.42
436.403	444.59
436.843	450.36
437.284	442.29
437.724	431.09
438.164	430.06
438.604	422.96
439.045	409.45
439.485	395.95
439.925	388.44
440.365	379.24
440.805	373.71
441.245	369.47
441.685	357.15
442.125	353
442.564	356.34
443.004	350.92
443.444	350.48
443.883	350.32
444.323	344.85
444.762	344.25
445.202	349.51
445.641	357.7
446.081	354.78
446.52	358.95
446.959	358.96
447.398	351.26
447.837	346.94
448.276	340.28
448.716	345.91
449.154	350.9
449.593	346.18
450.032	345.04
450.471	338.47
450.91	338.29
451.349	340.25
451.787	337.5
452.226	341.8
452.664	342.41
453.103	344.28
453.541	342.95
453.98	343.81
454.418	344.76
454.856	341.97
455.295	340.95
455.733	345.84
456.171	347.05
456.609	349.01
457.047	349.27
457.485	355.09
457.923	357.15
458.361	352.61
458.798	352.9
459.236	352.57
459.674	353.45
460.111	356.33
460.549	353.21
460.987	351.69
461.424	350.19
461.862	348.63
462.299	345.05
462.736	345.3
463.173	347.32
463.611	346.21
464.048	345.96
464.485	349.98
464.922	346.46
465.359	343.4
465.796	344.44
466.233	343.17
466.67	342.3
467.106	341.88
467.543	338.25
467.98	334.22
468.416	325.01
468.853	323.76
469.29	313.59
469.726	310.95
470.162	303.46
470.599	295.4
471.035	291.72
471.471	283.51
471.907	280.57
472.344	278.66
472.78	278.29
473.216	281.13
473.652	278.14
474.088	277.33
474.523	277.15
474.959	279.97
475.395	277
475.831	276.93
476.266	279.27
476.702	277.96
477.138	274.93
477.573	274.98
478.008	273.28
478.444	274.05
478.879	277.5
479.314	278.47
479.75	277.34
480.185	277.98
480.62	278.47
481.055	279.23
481.49	281.66
481.925	285.83
482.36	291.35
482.795	299.75
483.229	306.75
483.664	313.01
484.099	314.45
484.534	320.6
484.968	325.47
485.403	327.43
485.837	327.04
486.271	326.89
486.706	328.43
487.14	324.81
487.574	320.5
488.009	318.67
488.443	316.38
488.877	320.91
489.311	322.45
489.745	326.94
490.179	331.25
490.613	340.06
491.046	344.23
491.48	347.88
491.914	349.8
492.348	353.89
492.781	358.24
493.215	360.98
493.648	362.67
494.082	367.79
494.515	370.35
494.948	376.91
495.382	380.87
495.815	386.32
496.248	391.96
496.681	401.82
497.114	411.01
497.547	419.46
497.98	430.32
498.413	438.48
498.846	447.41
499.279	455.45
499.711	461.45
500.144	467.21
500.577	477.01
501.009	486.7
501.442	496.84
501.874	502.46
502.306	507.57
502.739	517.62
503.171	530.68
503.603	537.51
504.036	548.49
504.468	556.99
504.9	568.64
505.332	577.76
505.764	586.21
506.196	595.51
506.627	610.25
507.059	624.81
507.491	634.93
507.923	639.61
508.354	654.99
508.786	667.11
509.217	684.7
509.649	700.74
510.08	719
510.512	736.16
510.943	752.01
511.374	765
511.805	783.73
512.237	801.92
512.668	829.54
513.099	854.05
513.53	879.1
513.961	898.68
514.391	926.97
514.822	957.04
515.253	988.5
515.684	1012.87
516.114	1038.96
516.545	1059.94
516.975	1084.68
517.406	1101.74
517.836	1107.19
518.267	1116.45
518.697	1134.49
519.127	1140.46
519.558	1149.17
519.988	1155.42
520.418	1166.51
520.848	1183.46
521.278	1193.44
521.708	1203.73
522.138	1215.38
522.567	1242.76
522.997	1264.73
523.427	1279.5
523.857	1294.75
524.286	1305.03
524.716	1318.86
525.145	1335.09
525.575	1345.57
526.004	1358.4
526.433	1361.19
526.863	1364.27
527.292	1357.33
527.721	1363.19
528.15	1368.77
528.579	1370.39
529.008	1379.8
529.437	1399
529.866	1410.57
530.295	1424.68
530.724	1435.72
531.152	1458.28
531.581	1469.89
532.01	1485.03
532.438	1492.17
532.867	1504.45
533.295	1520.63
533.723	1525.97
534.152	1524.11
534.58	1524.69
535.008	1512.6
535.436	1515.1
535.865	1522.09
536.293	1534.93
536.721	1548.05
537.149	1569.81
537.576	1572.19
538.004	1582.51
538.432	1588.95
538.86	1588.24
539.287	1594.6
539.715	1607.01
540.143	1609.7
540.57	1607.11
540.998	1604.31
541.425	1585.91
541.852	1568.06
542.28	1566.55
542.707	1553.87
543.134	1542.46
543.561	1538.58
543.988	1532.15
544.415	1531.29
544.842	1525.15
545.269	1518.14
545.696	1518.91
546.123	1529.23
546.549	1520.55
546.976	1509.34
547.403	1507.67
547.829	1509.33
548.256	1511.53
548.682	1507.99
549.108	1501.23
549.535	1500.41
549.961	1501.84
550.387	1490.52
550.813	1485.6
551.24	1489.97
551.666	1490.95
552.092	1483.38
552.518	1477.26
552.943	1471.66
553.369	1477.59
553.795	1482.25
554.221	1483.41
554.646	1480.75
555.072	1488.55
555.498	1491.02
555.923	1498.34
556.349	1509.07
556.774	1514.72
557.199	1514.98
557.625	1518.18
558.05	1511.26
558.475	1517.35
558.9	1514.66
559.325	1507.26
559.75	1501.03
560.175	1494.31
560.6	1488.05
561.025	1486.02
561.449	1485.73
561.874	1488.55
562.299	1490.21
562.723	1495.43
563.148	1486.55
563.572	1488.16
563.997	1494.21
564.421	1497.27
564.846	1497.09
565.27	1498.79
565.694	1495.05
566.118	1502.84
566.542	1508.31
566.966	1502.33
567.39	1498.29
567.814	1488.1
568.238	1487.47
568.662	1490.55
569.086	1491.24
569.509	1495.93
569.933	1480.45
570.357	1473.71
570.78	1455.81
571.204	1443.66
571.627	1433.37
572.05	1429.61
572.474	1427.53
572.897	1415.64
573.32	1407.66
573.743	1397.96
574.166	1381.91
574.589	1381.91
575.012	1374.05
575.435	1371
575.858	1362
576.281	1351.92
576.704	1337.43
577.126	1326.87
577.549	1316.54
577.972	1306.15
578.394	1296.6
578.817	1290.41
579.239	1273.31
579.661	1260.86
580.084	1247.54
580.506	1235.53
580.928	1231.22
581.35	1221.79
581.772	1216.3
582.194	1204.39
582.616	1194.27
583.038	1181.59
583.46	1170.42
583.882	1166.97
584.303	1168.97
584.725	1163.95
585.147	1164.24
585.568	1170.68
585.99	1178.18
586.411	1181.64
586.833	1191.34
587.254	1191.17
587.675	1200.98
588.096	1209.45
588.518	1203.75
588.939	1189.51
589.36	1186.88
589.781	1177.81
590.202	1156.56
590.623	1148.44
591.043	1146.32
591.464	1136.63
591.885	1133.2
592.305	1127.87
592.726	1116.85
593.147	1117.67
593.567	1113.43
593.987	1107.17
594.408	1102.62
594.828	1099.52
595.248	1094.87
595.669	1080.17
596.089	1073.65
596.509	1067.37
596.929	1056.99
597.349	1058.18
597.769	1050.58
598.189	1046.48
598.608	1047.19
599.028	1048.56
599.448	1048.14
599.867	1038.75
600.287	1035.86
600.706	1033.18
601.126	1025.33
601.545	1024.25
601.965	1021.82
602.384	1017.05
602.803	1017.49
603.222	1013.66
603.641	1007.5
604.061	1003.83
604.48	999.97
604.898	1004.58
605.317	1006.37
605.736	1006.92
606.155	1004.07
606.574	995.94
606.992	998.03
607.411	993.25
607.829	985.44
608.248	981.76
608.666	979.21
609.085	977.31
609.503	969.95
609.921	964.69
610.339	964.85
610.758	962.2
611.176	957.39
611.594	949.52
612.012	945.36
612.43	946.38
612.847	950.34
613.265	949.06
613.683	950.73
614.101	949.82
614.518	944.67
614.936	937.06
615.353	925.83
615.771	922.81
616.188	922.43
616.606	919.55
617.023	913.03
617.44	902.02
617.857	895.62
618.274	888.06
618.691	881.99
619.108	874.58
619.525	868.3
619.942	870.91
620.359	871.69
620.776	866.68
621.192	863.4
621.609	861.64
622.026	864.11
622.442	867.44
622.859	869.07
623.275	863.15
623.691	866.23
624.108	873.7
624.524	883.39
624.94	883.19
625.356	889.53
625.772	896.73
626.188	903.59
626.604	905.24
627.02	903.29
627.436	901.72
627.852	906.91
628.268	915.56
628.683	909.25
629.099	903.76
629.514	899.12
629.93	901.38
630.345	904.22
630.761	901.26
631.176	902.86
631.591	898.18
632.007	893.01
632.422	891.14
632.837	882.31
633.252	880.42
633.667	872.47
634.082	864.71
634.497	854.52
634.911	840.09
635.326	836.3
635.741	823.04
636.155	813.46
636.57	813.08
636.984	810.96
637.399	810.02
637.813	806.95
638.228	803.3
638.642	804.2
639.056	795.27
639.47	793.91
639.884	786.43
640.298	779.77
640.712	776.99
641.126	765.59
641.54	756.38
641.954	749.45
642.368	738.68
642.781	731.74
643.195	718.04
643.609	715.37
644.022	707.54
644.436	701.35
644.849	691.14
645.262	681.15
645.676	679.46
646.089	675.28
646.502	663.78
646.915	657.35
647.328	643.23
647.741	640.06
648.154	629.34
648.567	626.16
648.98	616.15
649.393	613.58
649.805	609.06
650.218	602.09
650.631	590.35
651.043	585.46
651.456	580.72
651.868	580.07
652.28	588.15
652.693	594.6
653.105	596.33
653.517	599.94
653.929	598.85
654.341	599.58
654.753	592.04
655.165	593.41
655.577	589.85
655.989	585.64
656.401	578.42
656.813	556.8
657.224	543.47
657.636	524.59
658.047	513.18
658.459	499.6
658.87	492.72
659.282	482.98
659.693	468.91
660.104	458.59
660.515	447.42
660.926	442.61
661.338	437.51
661.749	430.82
662.159	423.53
662.57	417.48
662.981	413.08
663.392	405.8
663.803	405.38
664.213	402.49
664.624	397.73
665.035	396.98
665.445	389.02
665.855	384.52
666.266	379.41
666.676	376.86
667.086	370.69
667.497	368.78
667.907	365.27
668.317	359.36
668.727	357.64
669.137	356.51
669.547	355.06
669.956	355.69
670.366	354.98
670.776	355.9
671.186	356.64
671.595	357.91
672.005	358.97
672.414	359.88
672.824	360.53
673.233	361.85
673.642	363.72
674.052	366.22
674.461	369.16
674.87	371.49
675.279	371.38
675.688	372.63
676.097	375.25
676.506	374.29
676.915	380.88
677.323	382.45
677.732	381.84
678.141	381.87
678.549	377.36
678.958	376.86
679.366	377.89
679.775	380.58
680.183	388.36
680.592	392.73
681	398.36
681.408	398.08
681.816	405.63
682.224	412.51
682.632	422.39
683.04	440.7
683.448	456.11
683.856	476.01
684.264	499.74
684.671	521.57
685.079	547.34
685.487	576.55
685.894	615.55
686.302	648.44
686.709	680.97
687.116	717.6
687.524	750.93
687.931	782.6
688.338	810.89
688.745	836.16
689.152	864.12
689.559	900.95
689.966	937.92
690.373	961.87
690.78	999.38
691.187	1050.33
691.593	1090.7
692	1127.76
692.407	1179.61
692.813	1241.65
693.22	1292.6
693.626	1345.43
694.032	1390.37
694.439	1453.43
694.845	1506.24
695.251	1567.76
695.657	1624.34
696.063	1706.06
696.469	1769.82
696.875	1829.56
697.281	1866.53
697.687	1911.54
698.093	1949.58
698.498	2014.72
698.904	2066.55
699.31	2140.59
699.715	2197.76
700.12	2276.9
700.526	2298.19
700.931	2359.45
701.337	2406.53
701.742	2439.46
702.147	2511.57
702.552	2543.64
702.957	2599.61
703.362	2623.3
703.767	2652.89
704.172	2690.52
704.577	2656.61
704.981	2700.84
705.386	2720.07
705.791	2719.09
706.195	2784.66
706.6	2795.43
707.004	2862.83
707.408	2840.23
707.813	2865.9
708.217	2859.46
708.621	2865.52
709.025	2948.77
709.43	2953.43
709.834	3008.08
710.237	3068.4
710.641	3059.63
711.045	3082.39
711.449	3082.67
711.853	3110.59
712.256	3147.94
712.66	3182.29
713.064	3245.65
713.467	3284.55
713.87	3378.41
714.274	3418.89
714.677	3514.07
715.08	3651.43
715.484	3793.42
715.887	3964.68
716.29	4133.65
716.693	4311.11
717.096	4514.15
717.499	4628.58
717.901	4651.97
718.304	4676.82
718.707	4699.42
719.109	4616.6
719.512	4591.97
719.915	4481.07
720.317	4433.66
720.719	4470.77
721.122	4447.92
721.524	4409.8
721.926	4379.26
722.328	4465.56
722.731	4462.02
723.133	4485.09
723.535	4646.23
723.937	4665.13
724.338	4712.19
724.74	4747.97
725.142	4695
725.544	4692.28
725.945	4713.24
726.347	4705.93
726.748	4701.26
727.15	4713.42
727.551	4684.97
727.952	4664.59
728.354	4642.87
728.755	4641.74
729.156	4611.37
729.557	4603.06
729.958	4502.23
730.359	4459.19
730.76	4448.16
731.161	4397.43
731.562	4377.52
731.962	4380.98
732.363	4326.99
732.763	4272.96
733.164	4305.8
733.564	4248.46
733.965	4170.58
734.365	4142.91
734.766	4166.42
735.166	4132.05
735.566	4087.38
735.966	4067.62
736.366	4062.41
736.766	4011.69
737.166	4039.43
737.566	4005.9
737.966	3983.43
738.365	4013.68
738.765	4011.1
739.165	3946.89
739.564	3927.15
739.964	3964.83
740.363	3922.76
740.763	3919.66
741.162	3908.94
741.561	3880.51
741.96	3841.56
742.36	3860.56
742.759	3866.92
743.158	3898.81
743.557	3913.93
743.955	3947.18
744.354	3909.76
744.753	3961.12
745.152	3931.42
745.55	3977.4
745.949	3973.11
746.348	3974.12
746.746	3987.83
747.144	3954.39
747.543	3934.68
747.941	3974.38
748.339	3915.63
748.737	3910.61
749.136	3901.84
749.534	3952.27
749.932	3926.73
750.33	3946.04
750.727	3992.26
751.125	3971.95
751.523	3956.93
751.921	3991.33
752.318	3961.27
752.716	4010.06
753.113	4019.06
753.511	4040.27
753.908	4040.46
754.305	4028.08
754.703	4080.33
755.1	4130.51
755.497	4180.78
755.894	4341.27
756.291	4490.92
756.688	4768.2
757.085	5135.05
757.482	5651.22
757.878	6215.5
758.275	6727.87
758.672	7433.3
759.068	8004.53
759.465	8818.78
759.861	9868.74
760.258	11086.13
760.654	11724.47
761.05	11628.58
761.447	11096.09
761.843	10332.55
762.239	9540.52
762.635	9182.14
763.031	8836.52
763.427	8340.83
763.822	7827.87
764.218	7315.51
764.614	6647.63
765.01	6198.69
765.405	5906.47
765.801	5688.09
766.196	5409.36
766.592	5252.3
766.987	4988.66
767.382	4811.82
767.778	4737.28
768.173	4626.65
768.568	4564.82
768.963	4463.21
769.358	4478.26
769.753	4441.32
770.148	4371.93
770.542	4370.67
770.937	4343.66
771.332	4419.86
771.726	4435.73
772.121	4383.64
772.515	4428.64
772.91	4417.39
773.304	4474.86
773.699	4420.75
774.093	4467.23
774.487	4511.68
774.881	4548.14
775.275	4545.37
775.669	4511.96
776.063	4548.98
776.457	4580.21
776.851	4519.02
777.245	4512.7
777.638	4540.01
778.032	4634.87
778.425	4603.53
778.819	4639.06
779.212	4604.53
779.606	4569.08
779.999	4583.76
780.392	4569.9
780.786	4638.62
781.179	4655.51
781.572	4688.2
781.965	4699.04
782.358	4650.75
782.751	4697.32
783.143	4658.36
783.536	4717.86
783.929	4757.29
784.322	4850.67
784.714	4873.58
785.107	4868.21
785.499	4926.91
785.891	4908.08
786.284	4894.49
786.676	5010.67
787.068	4993.73
787.46	5036.11
787.852	5050.25
788.245	5120.19
788.636	5143.63
789.028	5202.73
789.42	5234.32
789.812	5244.26
790.204	5327.37
790.595	5407.36
790.987	5245.13
791.378	5262.82
791.77	5367.7
792.161	5479.05
792.553	5525.81
792.944	5435.37
793.335	5374.64
793.726	5434.82
794.117	5509.32
794.508	5623.15
794.899	5598.37
795.29	5719.59
795.681	5769.57
796.072	5655.12
796.463	5505.02
796.853	5513.19
797.244	5641.89
797.634	5673.87
798.025	5676.86
798.415	5680.72
798.806	5752.33
799.196	5822.55
799.586	5862.81
799.976	5832.39
800.366	6023.75
800.756	6221.93
801.146	6182.99
801.536	6210.37
801.926	6268.54
802.316	6285.88
802.706	6347.6
803.095	6247.25
803.485	6329.8
803.874	6363.02
804.264	6579.91
804.653	6554.64
805.043	6673.41
805.432	6764.6
805.821	6764.07
806.21	6778.13
806.599	6874.53
806.988	6913.04
807.377	6997.05
807.766	7103.23
808.155	7338.06
808.544	7115.79
808.933	7128.38
809.321	7108.22
809.71	7353.39
810.098	7484.39
810.487	7870.9
810.875	8262.61
811.264	8281.36
811.652	8524.38
812.04	8648.95
812.428	8777.33
812.816	9407.03
813.204	9754.34
813.592	10218.71
813.98	10495.21
814.368	10414.51
814.756	10801.37
815.144	10740.31
815.531	11123.15
815.919	11060.8
816.306	11304.13
816.694	11053.49
817.081	11095.9
817.469	11377.5
817.856	11371.13
818.243	11593.72
818.63	11916.83
819.017	11575.38
819.404	11633.09
819.791	11937.93
820.178	12444.68
820.565	12654.52
820.952	13421.01
821.339	13006.37
821.725	13158.79
822.112	12544.24
822.498	12511.78
822.885	12615.37
823.271	12532.86
823.657	12870.49
824.044	12887.92
824.43	12947.14
824.816	12924.96
825.202	12556.05
825.588	13398.1
825.974	13411.78
826.36	13835.18
826.746	13862.58
827.132	14160.4
827.517	14139.56
827.903	13494.95
828.289	13526.75
828.674	12882.62
829.06	12790.18
829.445	13127.98
829.83	13423.68
830.216	13823.06
830.601	14130.61
830.986	13800.81
831.371	13692.3
831.756	14160.41
832.141	13812.46
832.526	13804.14
832.911	14046.66
833.295	13959.73
833.68	14348.35
834.065	13840.64
834.449	13083.88
834.834	13024.23
835.218	13026.67
835.603	13314.58
835.987	13145.1
836.371	13833.65
836.755	13755.17
837.139	14090.22
837.524	14294.3
837.908	14150.26
838.291	14206.3
838.675	14261.7
839.059	14438.28
839.443	14425.11
839.827	14229.01
840.21	14630.13
840.594	14510.53
840.977	14683.43
841.361	14662.1
841.744	14983.39
842.127	14863.76
842.511	15066.26
842.894	15562.7
843.277	15881.94
843.66	16336.68
844.043	16418.28
844.426	15744.95
844.809	15492.53
845.191	15518.87
845.574	15141.44
845.957	14831.69
846.339	14742.33
846.722	14310.34
847.104	14370.39
847.487	14224.84
847.869	14236.86
848.252	14458.52
848.634	14731.69
849.016	14950.52
849.398	15058.06
849.78	15763.48
850.162	15765.76
850.544	16095.04
850.926	16609.35
851.307	16534.08
851.689	16764.64
852.071	17139.28
852.452	17410.3
852.834	17394.44
853.215	17716.56
853.597	17832.66
853.978	18082.95
854.359	18459.42
854.741	17645.95
855.122	17570.66
855.503	17331.36
855.884	17441.82
856.265	17380.1
856.646	17476.76
857.026	17148.84
857.407	17094.9
857.788	17224.64
858.169	17454.36
858.549	16749.34
858.93	17261.77
859.31	17297.92
859.69	17464.51
860.071	17134.7
860.451	16963.82
860.831	16347.73
861.211	17309.78
861.591	17760.26
861.971	17741.3
862.351	17903.16
862.731	18232.26
863.111	18455.09
863.491	18727.58
863.87	19458.48
864.25	19737.86
864.629	19401.76
865.009	19823.09
865.388	20530.56
865.768	22003.88
866.147	21919.92
866.526	20703.04
866.905	20937.47
867.284	22099.93
867.663	20987.87
868.042	20118.82
868.421	20053.49
868.8	20392.67
869.179	20593.94
869.558	19394.09
869.936	17874.7
870.315	18194.24
870.693	18634.48
871.072	20095.9
871.45	19146.74
871.828	19387.48
872.207	20382.62
872.585	20080.16
872.963	20618.39
873.341	19911.49
873.719	19670.28
874.097	19443.59
874.475	19807.31
874.853	20259.14
875.23	19414.22
875.608	20233.65
875.986	21884.73
876.363	20926.63
876.741	21559.96
877.118	21021.06
877.495	22053.75
877.873	22417.09
878.25	23573.34
878.627	22624.43
879.004	22948.77
879.381	22835.86
879.758	22231.7
880.135	20703.47
880.512	21890.62
880.889	21319.66
881.265	21103.57
881.642	20922.24
882.019	21292.47
882.395	20862.51
882.772	21686.4
883.148	20752.73
883.524	20687.06
883.901	20569.35
884.277	20881.35
884.653	20754.26
885.029	21349.49
885.405	23631.17
885.781	23466.59
886.157	22492.79
886.532	22767.78
886.908	22764.25
887.284	25311.16
887.659	26128.81
888.035	26939.12
888.411	27617.54
888.786	27978.25
889.161	28956.89
889.537	28431.38
889.912	29338
890.287	29301.85
890.662	30072.54
891.037	29520.12
891.412	27513.63
891.787	27237.05
892.162	26291.74
892.536	26914.87
892.911	25913.89
893.286	25356.1
893.66	24337.84
894.035	24955.27
894.409	27182.93
894.784	26075.4
895.158	26502.81
895.532	28100.37
895.906	28864.54
896.281	29547.27
896.655	29075.61
897.029	33210.86
897.402	34592.92
897.776	38495.04
898.15	38365.23
898.524	37946.16
898.898	38451.48
899.271	43050.56
899.645	37273.27
900.018	35818.44
900.392	37111.56
900.765	37404.44
901.138	34615.91
901.511	34076.43
901.884	31313.01
902.258	28873.19
902.631	29837.04
903.003	34328.02
903.376	30970.08
903.749	34721.84
904.122	37165.66
904.495	40951.31
904.867	41475.08
905.24	36007.35
905.612	33534.07
905.985	34267.88
906.357	35843.84
906.729	34200.69
907.102	29223.9
907.474	28100.63
907.846	28259.1
908.218	27883.1
908.59	24639.13
908.962	23833.39
909.334	25658.93
909.705	26953.93
910.077	26170.03
910.449	27230.66
910.82	28002.36
911.192	30814.35
911.563	32029.58
911.935	34262.66
912.306	34299.5
912.677	35421.19
913.048	35058.55
913.419	38054.89
913.79	38247.76
914.161	41004.87
914.532	39192.32
914.903	36009.17
915.274	34198.18
915.645	33698.63
916.015	29660.83
916.386	28280.5
916.756	30100.33
917.127	31061.52
917.497	27744.83
917.868	30209.08
918.238	28710.81
918.608	29532.49
918.978	30142.73
919.348	31913.21
919.718	32956.25
920.088	31770.64
920.458	32985.4
920.828	34693.86
921.198	32867.93
921.567	35100.93
921.937	27173.96
922.306	27420.12
922.676	29557.26
923.045	24675.82
923.415	23440.74
923.784	21345.25
924.153	21938.43
924.522	21919.52
924.891	20616.09
925.26	22089.03
925.629	21576.48
925.998	24816.9
926.367	24229.96
926.736	23091.1
927.104	27470.79
927.473	29542.15
927.842	35702.31
928.21	35367.59
928.578	37181.8
928.947	35145.25
929.315	35382.02
929.683	41457.28
930.051	41775.3
930.42	48512.65
930.788	41485.59
931.156	41180.86
931.523	38580.8
931.891	35610.31
932.259	34193.74
932.627	39655.34
932.994	56089.84
933.362	46314.5
933.729	40267.56
934.097	38531.85
934.464	32603.57
934.831	37572.2
935.199	37036.55
935.566	35919.2
935.933	36393.54
936.3	44093.65
936.667	34307.7
937.034	30976.1
937.401	30658.67
937.767	26450.07
938.134	23561.46
938.501	33247.78
938.867	35433.81
939.234	59898.05
939.6	51148.99
939.967	56435.48
940.333	37801.76
940.699	32177.77
941.065	25800.58
941.431	33796.96
941.798	32570.72
942.163	42755.57
942.529	26717.07
942.895	24573.95
943.261	15922.79
943.627	20880.32
943.992	18302.83
944.358	18325.18
944.723	18387.59
945.089	17905.56
945.454	16548.24
945.82	17666.72
946.185	16959.03
946.55	19641.53
946.915	17635.7
947.28	20673.63
947.645	18208.07
948.01	16802.36
948.375	17511.7
948.74	21004.29
949.104	24529.71
949.469	35413.17
949.834	62546.13
950.198	59313.02
950.562	35545.59
950.927	29598.27
951.291	35640.43
951.655	30352.18
952.02	28470.92
952.384	21529.61
952.748	18723.98
953.112	18260.98
953.476	15876.48
953.839	14697.57
954.203	14544.78
954.567	18178.65
954.931	28630.51
955.294	24464.75
955.658	24597.11
956.021	41833.3
956.385	70871.15
956.748	104611.38
957.111	162076.89
957.474	182008.61
957.837	204975.72
958.2	155309.9
958.563	55931.85
958.926	37824.1
959.289	57410.69
959.652	64170.76
960.015	48209.08
960.377	69275.17
960.74	79029.48
961.102	136469.38
961.465	146550.05
961.827	78548.5
962.189	150529.73
962.552	104205.89
962.914	83600.2
963.276	54259.48
963.638	44855.2
964	44376.03
964.362	29972.64
964.724	29013.67
965.085	20729.14
965.447	17006.91
965.809	19369.5
966.17	19400.83
966.532	21017.93
966.893	19287.29
967.255	17542.04
967.616	20696.03
967.977	16556.65
968.338	18083.84
968.699	14855.76
969.061	14838.48
969.421	14937.46
969.782	16755.71
970.143	14160.98
970.504	14660.82
970.865	16673.68
971.225	17038.95
971.586	16682.04
971.946	23793.3
972.307	20652.1
972.667	26975.5
973.027	27774.92
973.388	33673.79
973.748	22905.77
974.108	24947.81
974.468	33736.64
974.828	26005.82
975.188	20024.4
975.548	18392.45
975.907	15467.25
976.267	17356.85
976.627	14591.7
976.986	15131.48
977.346	14401.68
977.705	13862.81
978.064	12622.57
978.424	10505.33
978.783	10865.37
979.142	12407.43
979.501	11873.13
979.86	12531.1
980.219	12059.54
980.578	15547.83
980.937	17381.54
981.296	15512.73
981.654	15942.39
982.013	24763.94
982.371	32151.14
982.73	30023.32
983.088	33957.06
983.447	36242.57
983.805	51879.13
984.163	108435.99
984.521	120373.28
984.879	176497.8
985.237	-286652.66
985.595	276271.22
985.953	68817.23
986.311	39750.9
986.669	23066.47
987.026	19949.44
987.384	26834.01
987.741	27719.26
988.099	19814.87
988.456	15789.79
988.814	14784.56
989.171	12868.3
989.528	12693.49
989.885	13391.95
990.242	10585.97
990.599	13157.95
990.956	10756.95
991.313	7519.77
991.67	6172.43
992.027	6549.26
992.383	5816.76
992.74	5110.38
993.096	5361.49
993.453	5566.03
993.809	5774.95
994.165	7702.19
994.522	7073.55
994.878	7788.68
995.234	9780.27
995.59	9635.2
995.946	9111.46
996.302	10394.29
996.658	11986.08
997.013	13207.69
997.369	15674.32
997.725	20009.03
998.08	12965.12
998.436	19985.7
998.791	27589.92
999.147	27508.46
999.502	30051.01
999.857	21847.74
1000.212	35586.8
1000.567	50669.8
1000.922	29096.75
1001.277	18468.73
1001.632	13741.39
1001.987	17708.57
1002.342	12728.48
1002.696	10169.08
1003.051	8105.44
1003.406	9797.91
1003.76	9737.31
1004.114	9589.79
1004.469	8088.65
1004.823	6717.65
1005.177	7231.69
1005.531	5728.21
1005.885	5076.47
1006.239	5699.99
1006.593	7139.01
1006.947	9561.26
1007.301	7163.03
1007.655	7829.57
1008.008	5763.98
1008.362	6466.21
1008.715	9223.45
1009.069	8395.25
1009.422	12627.77
1009.776	25321.1
1010.129	16868.35
1010.482	14085.22
1010.835	11911.95
1011.188	24845.12
1011.541	23331.14
1011.894	-142594.47
1012.247	419807.17
1012.6	28647.29
1012.952	18104.33
1013.305	9310.69
1013.657	6734.6
1014.01	6347.1
1014.362	5254.32
1014.715	4692.89
1015.067	4090.84
1015.419	4010.41
1015.771	3547.37
1016.123	3153.81
1016.475	3236.13
1016.827	3451.59
1017.179	3719.52
1017.531	3727.74
1017.883	3806.1
1018.234	3669.23
1018.586	4618.61
1018.938	4902.78
1019.289	6757.39
1019.64	7732.56
1019.992	7235.14
1020.343	6623.56
1020.694	5223.74
1021.045	4612.9
1021.396	5271.45
1021.747	5696.14
1022.098	6828.53
1022.449	4946.99
1022.8	4572.35
1023.151	3180.89
1023.501	2837.66
1023.852	3083.99
1024.202	3203.64
1024.553	3495.36
1024.903	3415.99
1025.253	2938.13
1025.604	2637.43
1025.954	3276.02
1026.304	3991.38
1026.654	4664.57
1027.004	6840.07
1027.354	10990.18
1027.703	10349.34
1028.053	13595.39
1028.403	20117.93
1028.753	29237.36
1029.102	39543.33
1029.452	202599.45
1029.801	8727.99
1030.15	5636.46
1030.499	4786.76
897.758	2160.48
901.051	2098.4
904.343	2130.48
907.636	2136.46
910.928	2198.88
914.22	2118.68
917.511	2124.58
920.803	2171.29
924.094	2167.4
927.384	2172.11
930.675	2138.74
933.965	2101.92
937.255	2126.63
940.544	2096.27
943.834	2095.29
947.123	2034.66
950.411	2122.21
953.7	2102.76
956.988	2087.93
960.276	2024.46
963.563	2072.57
966.851	2079.01
970.138	2121.88
973.424	2126.64
976.711	2078.88
979.997	2126.88
983.283	2169.62
986.568	2101.94
989.853	2092.26
993.138	2119.86
996.423	2206.06
999.708	2163.53
1002.992	2194.62
1006.275	2116.42
1009.559	2121.09
1012.842	2218.14
1016.125	2171.75
1019.408	2152.35
1022.69	2204.29
1025.972	2240.69
1029.254	2214.33
1032.536	2176.95
1035.817	2185.82
1039.098	2156.22
1042.379	2196.63
1045.659	2223.3
1048.939	2176.6
1052.219	2180.76
1055.498	2176.98
1058.778	2175.37
1062.057	2149.17
1065.335	2171.53
1068.614	2181.61
1071.892	2178.92
1075.17	2230.55
1078.447	2234.36
1081.724	2230.3
1085.001	2252.02
1088.278	2232.06
1091.554	2235.7
1094.83	2231.39
1098.106	2267.77
1101.382	2296.08
1104.657	2298.32
1107.932	2295.8
1111.206	2274.33
1114.481	2229.28
1117.755	2227.55
1121.029	2221.98
1124.302	2279.93
1127.575	2246.59
1130.848	2243.8
1134.121	2214.03
1137.393	2178.37
1140.665	2233.55
1143.937	2213.54
1147.208	2162.64
1150.48	2218.96
1153.75	2207.72
1157.021	2210.43
1160.291	2188.03
1163.561	2239.66
1166.831	2208.87
1170.101	2234.27
1173.37	2195.72
1176.639	2153.08
1179.907	2197.61
1183.176	2220.49
1186.444	2221.77
1189.711	2245.59
1192.979	2267.46
1196.246	2226.36
1199.513	2237.29
1202.78	2240.86
1206.046	2250.3
1209.312	2275.43
1212.578	2293.42
1215.843	2261.37
1219.108	2227.81
1222.373	2251.57
1225.638	2225.88
1228.902	2217.56
1232.166	2174.48
1235.43	2165.68
1238.693	2191.02
1241.956	2182
1245.219	2230.41
1248.482	2215.27
1251.744	2212.09
1255.006	2331.57
1258.268	2279.4
1261.529	2236.05
1264.79	2238.64
1268.051	2332.12
1271.312	2340.16
1274.572	2311.41
1277.832	2300.22
1281.092	2281.47
1284.351	2270.84
1287.61	2255.26
1290.869	2195.03
1294.128	2191.56
1297.386	2238.7
1300.644	2231.06
1303.902	2241.2
1307.159	2111.73
1310.416	2161.44
1313.673	2189.14
1316.93	2186.59
1320.186	2217.92
1323.442	2250.93
1326.697	2250.75
1329.953	2227.54
1333.208	2261.78
1336.463	2235.05
1339.717	2199.26
1342.972	2304.95
1346.226	2276.72
1349.479	2227.99
1352.733	2208.56
1355.986	2213.95
1359.238	2195.07
1362.491	2200.68
1365.743	2198.15
1368.995	2192.77
1372.247	2203.98
1375.498	2223.72
1378.749	2264.95
1382	2218.57
1385.251	2252.25
1388.501	2205.22
1391.751	2204.53
1395	2173.1
1398.25	2198.28
1401.499	2220.81
1404.748	2170.65
1407.996	2151.46
1411.244	2140.44
1414.492	2125.48
1417.74	2107.94
1420.987	2114.35
1424.234	2172.67
1427.481	2139.34
1430.728	2194.14
1433.974	2168.07
1437.22	2167.49
1440.465	2163.38
1443.711	2160.87
1446.956	2183.51
1450.201	2156.47
1453.445	2197.16
1456.689	2185.2
1459.933	2196.34
1463.177	2234.91
1466.42	2209.52
1469.663	2194.24
1472.906	2208.38
1476.148	2255.25
1479.391	2229.86
1482.633	2205.47
1485.874	2228.54
1489.115	2235.98
1492.356	2220.49
1495.597	2200.2
1498.838	2190.95
1502.078	2175.82
1505.318	2147.52
1508.557	2179.89
1511.797	2175.94
1515.036	2217.78
1518.274	2191.57
1521.513	2144.57
1524.751	2157.48
1527.989	2179.79
1531.227	2198.21
1534.464	2210.01
1537.701	2205.24
1540.938	2216.96
1544.174	2166.03
1547.41	2157.64
1550.646	2195.03
1553.882	2242.77
1557.117	2298.65
1560.352	2303.76
1563.587	2267.59
1566.821	2235.55
1570.055	2251.87
1573.289	2231.81
1576.523	2289.64
1579.756	2305.21
1582.989	2326.12
1586.222	2284.93
1589.454	2313.51
1592.686	2299.08
1595.918	2327.81
1599.15	2325.25
1602.381	2369.38
1605.612	2350.12
1608.843	2442.08
1612.073	2364.09
1615.303	2351.56
1618.533	2349.39
1621.762	2349.14
1624.992	2323.5
1628.221	2325.61
1631.449	2313.45
1634.678	2338.89
1637.906	2306.4
1641.134	2331.64
1644.361	2297.15
1647.588	2289.57
1650.815	2310.42
1654.042	2275.2
1657.269	2301.72
1660.495	2281.6
1663.72	2268.54
1666.946	2239.48
1670.171	2213.88
1673.396	2186.8
1676.621	2172.41
1679.845	2168.24
1683.069	2175.31
1686.293	2205.57
1689.517	2194.74
1692.74	2149.07
1695.963	2169.93
1699.185	2208.97
1702.408	2183.8
1705.63	2210.98
1708.852	2230.66
1712.073	2202.81
1715.294	2215.76
1718.515	2257.1
1721.736	2215.11
1724.956	2197.68
1728.176	2218.64
1731.396	2241.41
1734.616	2227.5
1737.835	2261.91
1741.054	2234.68
1744.272	2225.5
1747.491	2263.94
1750.709	2286.15
1753.927	2235.82
1757.144	2262.38
1760.361	2318.22
1763.578	2294.03
1766.795	2242.93
1770.011	2231.85
1773.227	2256.68
1776.443	2298.02
1779.658	2341.29
1782.874	2279.76
1786.089	2272.8
1789.303	2274.72
1792.518	2271.84
1795.732	2257.23
1798.945	2272.56
1802.159	2313.72
1805.372	2257.69
1808.585	2250.87
1811.797	2251.79
1815.01	2273.5
1818.222	2297.25
1821.434	2259.16
1824.645	2299.47
1827.856	2307.76
1831.067	2338.4
1834.278	2280.12
1837.488	2263.54
1840.698	2383.39
1843.908	2327.56
1847.117	2294.58
1850.326	2221.07
1853.535	2281.82
1856.744	2313.58
1859.952	2241.01
1863.16	2242.48
1866.368	2256.36
1869.575	2364.7
1872.782	2251.3
1875.989	2183.31
1879.196	2232.2
1882.402	2224.34
1885.608	2256.06
1888.814	2197.37
1892.019	2109.52
1895.224	2157.74
1898.429	2124.45
1901.634	2109.72
1904.838	2085.02
1908.042	2139.8
1911.246	2156.12
1914.449	2118.63
1917.652	2101.73
1920.855	2083.59
1924.058	2106.8
1927.26	2150.75
1930.462	2173.49
1933.664	2212.54
1936.865	2154.87
1940.066	2170.41
1943.267	2116.02
1946.467	2125.78
1949.668	2143.96
1952.868	2211.15
1956.067	2201.73
1959.267	2145.4
1962.466	2167.65
1965.665	2149.31
1968.863	2143.5
1972.061	2147.41
1975.259	2137.84
1978.457	2213.8
1981.654	2174.62
1984.852	2177.07
1988.048	2131.78
1991.245	2121.57
1994.441	2208.53
1997.637	2167.59
2000.833	2150.4
2004.028	2184.5
2007.223	2245.35
2010.418	2236.09
2013.613	2186.68
2016.807	2180.55
2020.001	2175.83
2023.194	2196.45
2026.388	2181.81
2029.581	2125.24
2032.774	2187.4
2035.966	2199.62
2039.158	2146.68
2042.35	2164.58
2045.542	2093.46
2048.733	2174.53
2051.924	2165.57
2055.115	2183.51
2058.306	2150.28
2061.496	2203.6
2064.686	2250.66
2067.875	2158.03
2071.065	2160.93
2074.254	2180.31
2077.442	2137.38
2080.631	2217.67
2083.819	2150.08
2087.007	2143.81
2090.195	2127.12
2093.382	2143.49
2096.569	2126.46
2099.756	2093.24
2102.942	2140.45
2106.128	2152.53
2109.314	2140.33
2112.5	2125.31
2115.685	2095.66
2118.87	2102.36
2122.055	2161.22
2125.239	2141.27
2128.424	2130.87
2131.608	2190.66
2134.791	2172.86
2137.974	2209.14
2141.157	2198.49
2144.34	2171.04
2147.523	2161.15
2150.705	2185.88
2153.887	2155.09
2157.068	2129.29
2160.25	2109.74
2163.431	2130.82
2166.611	2101.44
2169.792	2122.15
2172.972	2038.39
2176.152	2086.4
2179.331	2113.11
2182.511	2116.94
2185.69	2137.41
2188.868	2142.47
2192.047	2176.34
2195.225	2193.3
2198.403	2142.12
2201.58	2128.86
2204.758	2113.06
2207.935	2186.35
2211.111	2104.8
2214.288	2093.44
2217.464	2128.24
2220.64	2083.61
2223.815	2133.01
2226.991	2065.87
2230.166	2082.12
2233.34	2124.91
2236.515	2135.28
2239.689	2202.19
2242.863	2151.7
2246.036	2203.58
2249.209	2186.81
2252.382	2203.86
2255.555	2214.07
2258.727	2163.41
2261.9	2194.27
2265.071	2184.74
2268.243	2182.4
2271.414	2133.87
2274.585	2116.42
2277.756	2176.58
2280.926	2135.35
2284.096	2167.71
2287.266	2096.68
2290.436	2144.42
2293.605	2163.57
2296.774	2199.76
2299.942	2204.52
2303.111	2219.1
2306.279	2269.96
2309.447	2256.6
2312.614	2228.25
2315.781	2252.19
2318.948	2225.83
2322.115	2264.05
2325.281	2165
2328.447	2171.92
2331.613	2143.29
2334.779	2136.17
2337.944	2131.58
2341.109	2134.61
2344.274	2122.79
2347.438	2089.29
2350.602	2108.89
2353.766	2118.27
2356.929	2108.68
2360.092	2144.42
2363.255	2117.33
2366.418	2083.59
2369.58	2147.83
2372.742	2029.05
2375.904	2020.38
2379.066	2004.75
2382.227	2031.26
2385.388	1995.52
2388.548	1947.66
2391.709	1987.42
2394.869	1976.66
2398.029	2030.37
2401.188	2023.76
2404.347	1989.49
2407.506	2062.96
2410.665	2102.64
2413.823	2091.25
2416.981	2070.37
2420.139	2084.28
2423.296	2124.13
2426.453	2099.01
2429.61	2121.3
2432.767	2091.89
2435.923	2133.62
2439.079	2078.99
2442.235	2112.6
2445.391	2055.21
2448.546	2094.84
2451.701	2126.73
2454.855	2125.54
2458.009	2153.88
2461.163	2139.7
2464.317	2113.51
2467.471	2141.88
2470.624	2169.01
2473.777	2159.6
2476.929	2177.42
2480.082	2200.86
2483.234	2175.65
2486.385	2117.72
2489.537	2110.8
2492.688	2100.6
2495.839	2118.98
2498.989	2132.91
2502.14	2115.41
2505.29	2110.35
2508.439	2132.88
2511.589	2074.05
2514.738	2071.77
2517.887	2095.18
2521.035	2170.13
2524.183	2130.78
2527.331	2118.65
2530.479	2112.69
2533.627	2113.08
