Data from C_1_DEC_ON_6N_Splice17_11-54-14-426.txt Node
Date: Sat Mar 14 11:54:14 EDT 2020
User: sa697716
Spectrometer: FLMS03696
Trigger mode: 0
Integration Time (sec): 3.180400E-1
Scans to average: 20
Electric dark correction enabled: true
Nonlinearity correction enabled: true
Boxcar width: 5
XAxis mode: Wavelengths
Number of Pixels in Spectrum: 2048
>>>>>Begin Spectral Data<<<<<
187.83	-246159.4
188.298	1814.5
188.766	990.8
189.233	896.28
189.701	1276.67
190.169	1827.17
190.636	693.79
191.104	547.26
191.571	67.9
192.039	-33.29
192.506	-50.18
192.974	447.74
193.441	-722.45
193.908	-254.92
194.375	-75.59
194.842	-5.86
195.31	145.08
195.777	139.42
196.244	339.54
196.711	372.04
197.177	475.53
197.644	660.45
198.111	1114.87
198.578	1569.05
199.045	1258.54
199.511	2047.98
199.978	2370.15
200.445	2016.19
200.911	2264.19
201.378	2504.03
201.844	2281.88
202.31	3959.2
202.777	4108.59
203.243	2279.15
203.709	2172.08
204.176	2597.81
204.642	2139.44
205.108	1998.68
205.574	1609.08
206.04	1463.74
206.506	1369.07
206.972	1295.4
207.438	1224.19
207.903	1393.97
208.369	1243.66
208.835	1229.08
209.301	1274.36
209.766	1305.03
210.232	1286.4
210.697	1586.04
211.163	1932.11
211.628	2882.15
212.094	2415.39
212.559	2976.11
213.024	1849.18
213.49	2205.3
213.955	2135.57
214.42	2069.77
214.885	1904.25
215.35	1822.77
215.815	1767.3
216.28	1859.62
216.745	1493.33
217.21	1590.47
217.675	1393.65
218.14	1507.05
218.604	1625.25
219.069	1772.34
219.534	1806.61
219.998	2008.84
220.463	2324.43
220.927	2695.83
221.392	2442.94
221.856	2407.37
222.32	2893.75
222.785	3520.11
223.249	4333.4
223.713	4734.21
224.177	4689.01
224.642	5878.13
225.106	7158.42
225.57	7741.41
226.034	5755.2
226.497	8670.1
226.961	7794.28
227.425	9097.32
227.889	9992.92
228.353	9953.3
228.816	20353.42
229.28	19409.58
229.744	16263.15
230.207	9867.57
230.671	9664.78
231.134	15837.68
231.597	18318.54
232.061	18163.92
232.524	17586.58
232.987	12067.15
233.45	10831.09
233.914	9713.84
234.377	9873.4
234.84	9014.78
235.303	10593.01
235.766	11805.98
236.229	12168.44
236.691	7625.63
237.154	8550.05
237.617	6447.63
238.08	6603.68
238.542	7730.16
239.005	5525.59
239.468	5486.76
239.93	5181.72
240.393	4712.07
240.855	4149.51
241.317	4247.63
241.78	5144.89
242.242	5339.9
242.704	5789.26
243.166	5040.63
243.629	4589.18
244.091	5284.03
244.553	5780.16
245.015	6219.04
245.477	8003.99
245.939	11681.41
246.4	12374.17
246.862	12039.14
247.324	11320.45
247.786	12602.25
248.247	16487.65
248.709	16922.21
249.17	12693.76
249.632	12070.32
250.093	14027.7
250.555	12152.23
251.016	7427.39
251.477	7054.43
251.939	7624.09
252.4	7981.72
252.861	9460.93
253.322	8819.33
253.783	10486.3
254.244	13578.55
254.705	10629.72
255.166	9434.13
255.627	9255.59
256.088	13069.61
256.549	13906.3
257.009	11937.58
257.47	14473.29
257.931	11732.86
258.391	8775.18
258.852	9014.65
259.312	9421.76
259.773	11596.75
260.233	9811.63
260.694	8292.82
261.154	9356.32
261.614	7513.97
262.074	6694.09
262.534	6959.82
262.994	6571.01
263.455	8723.32
263.915	7347.5
264.374	6894.58
264.834	7517.63
265.294	8266.66
265.754	8533.15
266.214	8069.33
266.673	7550.36
267.133	9487.37
267.593	9361.51
268.052	11437.38
268.512	9902.66
268.971	11966.93
269.431	13088.02
269.89	11708.39
270.349	17529.49
270.809	19556.28
271.268	17536.71
271.727	39059.89
272.186	25380.09
272.645	19040.87
273.104	13671.61
273.563	19830.59
274.022	15493.44
274.481	13214.7
274.94	10181.67
275.399	7559.39
275.857	8752.57
276.316	11811.69
276.775	10503.13
277.233	10329.77
277.692	9687.31
278.15	11008.37
278.609	11362.16
279.067	10544.59
279.525	9820.99
279.984	12675.01
280.442	15251.1
280.9	15146.46
281.358	9985.26
281.816	9286.02
282.274	9114.48
282.732	9387.58
283.19	9428.49
283.648	8118.58
284.106	8642.78
284.564	8776.2
285.021	8163.7
285.479	6101.76
285.937	5535.18
286.394	4893.54
286.852	5074.43
287.309	5347.35
287.767	5221.11
288.224	4987.41
288.682	5487.05
289.139	6048.41
289.596	5572.04
290.053	5779.27
290.511	7265.07
290.968	8823.29
291.425	11920.53
291.882	9941.76
292.339	8651.43
292.796	8550.49
293.252	8062.57
293.709	6411.6
294.166	5745.19
294.623	6341.83
295.079	6094.21
295.536	6173.83
295.992	5627.83
296.449	5591.34
296.905	5834.79
297.362	5641.09
297.818	5938.06
298.274	6176.31
298.731	6314.26
299.187	6266.89
299.643	6722.25
300.099	8155.66
300.555	8928.11
301.011	7459.78
301.467	7233.19
301.923	8437.95
302.379	8224.27
302.835	8083.39
303.291	8081.13
303.746	9181.67
304.202	11636.29
304.658	11692.49
305.113	7874.19
305.569	7754.6
306.024	8289.8
306.479	7862.8
306.935	6664.64
307.39	7275.62
307.845	6734.96
308.301	6824.7
308.756	6653.81
309.211	6415.83
309.666	6624.06
310.121	8266.64
310.576	8386.58
311.031	8328.14
311.486	9522.42
311.94	9504.05
312.395	12743.55
312.85	23977.17
313.305	117295.15
313.759	615274.86
314.214	44562.81
314.668	35233.17
315.123	29767.99
315.577	10707.2
316.032	9589.66
316.486	12043.37
316.94	9558.39
317.394	6653.77
317.849	5202.21
318.303	4924.35
318.757	4623.52
319.211	5125.28
319.665	4492.47
320.119	4548.72
320.572	6499.17
321.026	6070.75
321.48	5062.02
321.934	5510.26
322.387	5532.05
322.841	5975.26
323.295	5418.86
323.748	6218.16
324.202	6308.22
324.655	7574.64
325.108	10591.23
325.562	7510.19
326.015	8877.47
326.468	6734.85
326.921	7509.11
327.374	7010.19
327.827	7333.58
328.28	8299.77
328.733	5588.22
329.186	4924.64
329.639	4714.22
330.092	3975.7
330.545	3787.68
330.997	3836.86
331.45	4217.89
331.903	4978.47
332.355	8525.56
332.808	8277.18
333.26	6826.8
333.713	7432.78
334.165	7481.14
334.617	9979.35
335.069	8019.26
335.522	14497.17
335.974	16098.72
336.426	14597.79
336.878	10071.31
337.33	5152.54
337.782	5019.38
338.234	6313.81
338.686	7574.82
339.137	9016.79
339.589	8469.19
340.041	6696.66
340.493	5753.96
340.944	5888.65
341.396	6366.84
341.847	5385.17
342.299	6367.74
342.75	7815.81
343.201	6789.43
343.653	7765.06
344.104	9490.1
344.555	7495.75
345.006	11562.03
345.457	8951.35
345.908	7101.45
346.359	6699.27
346.81	5458.14
347.261	5728.06
347.712	5606.02
348.163	6006.52
348.613	6135.37
349.064	5736.86
349.515	5000.39
349.965	5151.35
350.416	6164.96
350.866	6781.11
351.317	7605.76
351.767	12553.07
352.217	15904.63
352.668	13233.52
353.118	12103.31
353.568	11566.22
354.018	9167.2
354.468	9720.49
354.918	6995.55
355.368	6131.26
355.818	8601.5
356.268	24757.66
356.718	104244.07
357.168	25915.43
357.617	13015.93
358.067	14494.08
358.517	13689.38
358.966	16150.3
359.416	18158.93
359.865	19615.41
360.315	23291.11
360.764	10991.16
361.213	6181.47
361.663	5831.25
362.112	7217.11
362.561	11663.45
363.01	8853.89
363.459	7427.74
363.908	8020.25
364.357	6842.71
364.806	11548.34
365.255	7949.24
365.703	7290.66
366.152	7349.84
366.601	6008.14
367.05	4906.77
367.498	4469.9
367.947	4663.23
368.395	4845.58
368.844	4294.02
369.292	5150.58
369.74	3579.8
370.189	5521.04
370.637	6506.59
371.085	5583.86
371.533	6789.12
371.981	6514.77
372.429	6261.57
372.877	6540.57
373.325	5517.75
373.773	5658.8
374.221	5056.52
374.669	6278.52
375.116	5414.39
375.564	5449.6
376.012	6144.41
376.459	5078.53
376.907	6085.13
377.354	7348.8
377.801	6913.4
378.249	7987.35
378.696	10197.88
379.143	12390.17
379.591	13195.56
380.038	22394.04
380.485	16234.37
380.932	17540.51
381.379	16120.65
381.826	11974.53
382.273	8543.17
382.72	7437.69
383.166	7287.73
383.613	4760.01
384.06	4303.23
384.506	5010.88
384.953	3693.89
385.4	3715.81
385.846	3268.38
386.292	3174.69
386.739	3093.86
387.185	3052.1
387.631	3063.36
388.078	2974.21
388.524	3179.36
388.97	2953.76
389.416	2472.4
389.862	2626.38
390.308	2498.47
390.754	2542.56
391.2	2777.21
391.645	2844
392.091	2763.18
392.537	2687.49
392.983	2686.35
393.428	2670.99
393.874	2860.3
394.319	2888.52
394.765	2773.3
395.21	2858.45
395.655	2702.73
396.101	2539.64
396.546	2309.81
396.991	2319.89
397.436	2157.12
397.881	2088.7
398.326	1974.22
398.771	1882.54
399.216	1649.37
399.661	1484.18
400.106	1490.89
400.551	1530.16
400.995	1378.25
401.44	1369.12
401.885	1291.61
402.329	1307.37
402.774	1259.77
403.218	1230.64
403.663	1188.95
404.107	1228.63
404.551	1245.81
404.995	1145.85
405.44	1103.2
405.884	1123.79
406.328	1086.97
406.772	1087.36
407.216	995.02
407.66	965.46
408.104	913.91
408.547	858.66
408.991	830.97
409.435	798.15
409.879	788.91
410.322	784.11
410.766	759.42
411.209	729.85
411.653	700.26
412.096	691.43
412.54	694.94
412.983	694.81
413.426	701.58
413.869	704.46
414.312	700.2
414.756	677.46
415.199	648.61
415.642	634.35
416.085	636.95
416.527	638.02
416.97	648.21
417.413	617.61
417.856	609.2
418.298	603.3
418.741	597.98
419.184	590.95
419.626	612.73
420.069	612.66
420.511	616.99
420.953	604.25
421.396	598.28
421.838	584.46
422.28	599.37
422.722	608.49
423.164	615.93
423.606	609.47
424.048	612.71
424.49	585.9
424.932	580.75
425.374	571.48
425.816	580.27
426.258	592.1
426.699	598
427.141	590.24
427.582	596.29
428.024	593.24
428.465	586.74
428.907	571.71
429.348	565.15
429.789	569.68
430.231	560.13
430.672	570.91
431.113	558.95
431.554	551.53
431.995	536.94
432.436	521.12
432.877	509.05
433.318	505.26
433.759	502.89
434.2	503.62
434.64	499.5
435.081	503.17
435.522	476.42
435.962	460.34
436.403	453.71
436.843	460.9
437.284	452.12
437.724	442.9
438.164	441
438.604	433.55
439.045	419.26
439.485	403.3
439.925	394.42
440.365	386.68
440.805	382.03
441.245	376.99
441.685	364.75
442.125	361.38
442.564	362.93
443.004	356.56
443.444	356.8
443.883	357.43
444.323	352.12
444.762	350.6
445.202	354.62
445.641	360.46
446.081	358.58
446.52	362.22
446.959	360.19
447.398	353.21
447.837	349.97
448.276	343.02
448.716	348.66
449.154	353.91
449.593	347.77
450.032	347.08
450.471	341.47
450.91	341.74
451.349	341.71
451.787	340.62
452.226	345.52
452.664	345.14
453.103	345.67
453.541	344.68
453.98	345.37
454.418	348.46
454.856	344.19
455.295	344.73
455.733	348.85
456.171	350.92
456.609	351.65
457.047	352.62
457.485	359.67
457.923	362.49
458.361	356.75
458.798	357.95
459.236	356.74
459.674	359.45
460.111	360.79
460.549	357.88
460.987	355.71
461.424	353.77
461.862	352.8
462.299	347.47
462.736	347.64
463.173	349.09
463.611	347.69
464.048	348.28
464.485	352.19
464.922	348.96
465.359	346.78
465.796	347.81
466.233	347.24
466.67	344.57
467.106	344.9
467.543	342.6
467.98	337.93
468.416	329.63
468.853	327.03
469.29	316.77
469.726	314.65
470.162	306
470.599	298.22
471.035	294.85
471.471	287.64
471.907	285.52
472.344	282.76
472.78	284.27
473.216	285.7
473.652	282.48
474.088	280.73
474.523	279.71
474.959	283.11
475.395	280.66
475.831	279.09
476.266	280.34
476.702	278.22
477.138	274.82
477.573	274.19
478.008	273.03
478.444	274.36
478.879	278.57
479.314	279.94
479.75	279.48
480.185	279.88
480.62	282.47
481.055	284.25
481.49	286.86
481.925	290.91
482.36	297.7
482.795	306.54
483.229	313.99
483.664	320.34
484.099	321.72
484.534	327.21
484.968	331.93
485.403	332.83
485.837	332.4
486.271	332.6
486.706	333.68
487.14	328.85
487.574	324.16
488.009	322.03
488.443	319.27
488.877	322.94
489.311	324.42
489.745	329
490.179	333.51
490.613	341.76
491.046	345.52
491.48	349.89
491.914	352.07
492.348	356.64
492.781	361.44
493.215	364.47
493.648	367.39
494.082	372.29
494.515	375.09
494.948	381.97
495.382	385.52
495.815	390.86
496.248	396.18
496.681	406.11
497.114	414.63
497.547	422.96
497.98	433.85
498.413	440.89
498.846	450.19
499.279	457.77
499.711	462.31
500.144	467.9
500.577	478.25
501.009	488.72
501.442	498.84
501.874	504.57
502.306	509.74
502.739	519.52
503.171	533.15
503.603	540.25
504.036	550.95
504.468	560.5
504.9	572.75
505.332	582.24
505.764	591.05
506.196	600.99
506.627	616.05
507.059	630.27
507.491	640.7
507.923	644.7
508.354	660.77
508.786	673.92
509.217	691.58
509.649	707.33
510.08	725.41
510.512	742.03
510.943	757.5
511.374	770.96
511.805	791.51
512.237	810.38
512.668	838.62
513.099	862.67
513.53	887.31
513.961	907.15
514.391	935.85
514.822	965.94
515.253	997.26
515.684	1021.41
516.114	1047.93
516.545	1068.24
516.975	1092.64
517.406	1111.66
517.836	1117.23
518.267	1126.79
518.697	1145.73
519.127	1152.62
519.558	1161.38
519.988	1168.02
520.418	1179.6
520.848	1197.28
521.278	1207.29
521.708	1218.31
522.138	1229.78
522.567	1257.89
522.997	1279.78
523.427	1294.29
523.857	1310.16
524.286	1320.58
524.716	1334.84
525.145	1352.19
525.575	1361.82
526.004	1374.75
526.433	1377.09
526.863	1379.1
527.292	1371.68
527.721	1377.74
528.15	1382.27
528.579	1382.27
529.008	1391.92
529.437	1411.09
529.866	1422.06
530.295	1436.41
530.724	1447.26
531.152	1470.45
531.581	1482.69
532.01	1497.07
532.438	1504.4
532.867	1517.5
533.295	1534.6
533.723	1540.35
534.152	1538.58
534.58	1538.91
535.008	1526.67
535.436	1528.38
535.865	1534.01
536.293	1546.28
536.721	1560.33
537.149	1581.83
537.576	1584.48
538.004	1595.64
538.432	1603.35
538.86	1602.49
539.287	1608.79
539.715	1620.3
540.143	1622.77
540.57	1621.29
540.998	1619.03
541.425	1599.91
541.852	1583.01
542.28	1581.84
542.707	1567.6
543.134	1554.89
543.561	1550.79
543.988	1544.19
544.415	1543.78
544.842	1539.63
545.269	1532.76
545.696	1534.06
546.123	1544.23
546.549	1534.24
546.976	1523.03
547.403	1522.98
547.829	1523.62
548.256	1524.9
548.682	1521.77
549.108	1514.53
549.535	1513.22
549.961	1513.59
550.387	1501.22
550.813	1497.37
551.24	1502.28
551.666	1502.47
552.092	1492.86
552.518	1487.16
552.943	1481.85
553.369	1485.95
553.795	1490.2
554.221	1490.18
554.646	1487.73
555.072	1496.59
555.498	1499.41
555.923	1506.23
556.349	1517.73
556.774	1524.71
557.199	1525.46
557.625	1529.47
558.05	1524.38
558.475	1531.07
558.9	1529.32
559.325	1521.9
559.75	1514.49
560.175	1506.88
560.6	1500.26
561.025	1498
561.449	1497.29
561.874	1500.13
562.299	1502.15
562.723	1507.87
563.148	1499.55
563.572	1500.91
563.997	1506.93
564.421	1510.26
564.846	1509.57
565.27	1511.35
565.694	1507.66
566.118	1516.63
566.542	1521.73
566.966	1515.97
567.39	1510.57
567.814	1501.32
568.238	1500.69
568.662	1504.05
569.086	1505.31
569.509	1510.84
569.933	1498.09
570.357	1490.19
570.78	1471.06
571.204	1459.57
571.627	1449.44
572.05	1445.7
572.474	1442.64
572.897	1430.61
573.32	1422.61
573.743	1412.36
574.166	1395.94
574.589	1393.32
575.012	1385.52
575.435	1383.73
575.858	1374.87
576.281	1364.02
576.704	1349.88
577.126	1339.12
577.549	1328.78
577.972	1318.55
578.394	1309.38
578.817	1301.43
579.239	1285.28
579.661	1273.91
580.084	1258.99
580.506	1245.44
580.928	1239.99
581.35	1229.47
581.772	1224
582.194	1212.36
582.616	1202.01
583.038	1189
583.46	1179.96
583.882	1174.81
584.303	1175.8
584.725	1171.97
585.147	1173.33
585.568	1180.97
585.99	1189.57
586.411	1193.48
586.833	1203.35
587.254	1203.64
587.675	1213.39
588.096	1221.37
588.518	1217.36
588.939	1204.12
589.36	1201.07
589.781	1191.52
590.202	1168.79
590.623	1161.26
591.043	1159.12
591.464	1148.52
591.885	1144.09
592.305	1138.97
592.726	1127.58
593.147	1127.62
593.567	1122.52
593.987	1115.68
594.408	1110.87
594.828	1108.1
595.248	1103.69
595.669	1089.16
596.089	1083.02
596.509	1077.13
596.929	1066.54
597.349	1066.84
597.769	1059.04
598.189	1054
598.608	1054.57
599.028	1055.28
599.448	1055.35
599.867	1044.69
600.287	1041.08
600.706	1037.7
601.126	1030.29
601.545	1028.59
601.965	1026.56
602.384	1022.14
602.803	1024.1
603.222	1020.6
603.641	1014.99
604.061	1012.34
604.48	1009.12
604.898	1013.31
605.317	1015.92
605.736	1016.32
606.155	1013.67
606.574	1005.65
606.992	1008.25
607.411	1003.75
607.829	995.77
608.248	992.48
608.666	988.21
609.085	986.09
609.503	978.78
609.921	972.79
610.339	973.02
610.758	970.94
611.176	966.9
611.594	959.71
612.012	955.29
612.43	956.28
612.847	958.6
613.265	958.42
613.683	959.93
614.101	959.61
614.518	955.55
614.936	946.47
615.353	934.9
615.771	930.98
616.188	928.52
616.606	923.9
617.023	917.67
617.44	906.99
617.857	900.21
618.274	892.58
618.691	886.94
619.108	878.69
619.525	873.2
619.942	876.89
620.359	877.34
620.776	873.43
621.192	869.98
621.609	867.21
622.026	870.82
622.442	873.76
622.859	875.64
623.275	870.06
623.691	874.07
624.108	882.31
624.524	891.28
624.94	890.98
625.356	897.27
625.772	905.91
626.188	913.36
626.604	914.12
627.02	911.37
627.436	910.09
627.852	914.72
628.268	922.57
628.683	915.44
629.099	909.18
629.514	904.96
629.93	907.22
630.345	909.87
630.761	906.55
631.176	909.05
631.591	905.57
632.007	900.54
632.422	898.14
632.837	889.43
633.252	885.87
633.667	878.03
634.082	870.83
634.497	860.53
634.911	846.7
635.326	842.81
635.741	829.23
636.155	820.02
636.57	819.85
636.984	817.64
637.399	817.25
637.813	815.6
638.228	811.89
638.642	811.99
639.056	802.22
639.47	799.37
639.884	792.27
640.298	785.27
640.712	781.83
641.126	769.82
641.54	760.93
641.954	753.39
642.368	743.54
642.781	736.43
643.195	722.91
643.609	720.19
644.022	713.11
644.436	706.7
644.849	696.15
645.262	686
645.676	683.78
646.089	678.14
646.502	667.29
646.915	660.18
647.328	646.82
647.741	643.15
648.154	633.42
648.567	630.21
648.98	620.58
649.393	619.01
649.805	615.27
650.218	609.36
650.631	598.56
651.043	592.52
651.456	588.46
651.868	586.54
652.28	595.17
652.693	601.87
653.105	604.02
653.517	607.05
653.929	605.77
654.341	606.77
654.753	598.34
655.165	599.06
655.577	594.98
655.989	589.88
656.401	583.15
656.813	560.41
657.224	546.39
657.636	527.42
658.047	516.03
658.459	501.73
658.87	492.95
659.282	482.66
659.693	470.15
660.104	460.51
660.515	450.26
660.926	446.2
661.338	442.2
661.749	435.97
662.159	428.73
662.57	422.84
662.981	417.73
663.392	411.83
663.803	412.19
664.213	407.94
664.624	402.94
665.035	401.95
665.445	392.75
665.855	387.5
666.266	382.03
666.676	379
667.086	373.36
667.497	372.8
667.907	368.7
668.317	362.86
668.727	361.83
669.137	360.79
669.547	358.73
669.956	359.71
670.366	359.3
670.776	359.63
671.186	360.2
671.595	361.52
672.005	362.28
672.414	362.34
672.824	362.05
673.233	362.83
673.642	364.47
674.052	367.36
674.461	370.35
674.87	373.2
675.279	373.15
675.688	374.08
676.097	377.22
676.506	376.27
676.915	384.77
677.323	386.73
677.732	386.54
678.141	387.02
678.549	383.06
678.958	382.6
679.366	383.97
679.775	387.19
680.183	395.5
680.592	399.2
681	406.08
681.408	404.08
681.816	410.65
682.224	418.67
682.632	428.46
683.04	446.18
683.448	462.87
683.856	483.06
684.264	507.49
684.671	529.25
685.079	556.39
685.487	584.99
685.894	627.09
686.302	663.12
686.709	693.96
687.116	729.88
687.524	763.31
687.931	793.77
688.338	821.3
688.745	846.51
689.152	874.93
689.559	910.96
689.966	948.78
690.373	970.88
690.78	1006.93
691.187	1057.45
691.593	1099.99
692	1137.75
692.407	1189.4
692.813	1252.63
693.22	1304.74
693.626	1358.54
694.032	1402.85
694.439	1465.85
694.845	1518.27
695.251	1581.06
695.657	1639.45
696.063	1720.69
696.469	1785.27
696.875	1846.12
697.281	1883.43
697.687	1927.64
698.093	1966.99
698.498	2034.8
698.904	2086
699.31	2163.04
699.715	2220.28
700.12	2298.15
700.526	2321.44
700.931	2382.99
701.337	2431.28
701.742	2463.19
702.147	2535.74
702.552	2567.05
702.957	2620.06
703.362	2645.33
703.767	2673.7
704.172	2712.94
704.577	2682.09
704.981	2723.83
705.386	2742.49
705.791	2740.95
706.195	2808.28
706.6	2821.07
707.004	2889.14
707.408	2869.4
707.813	2894.29
708.217	2887.11
708.621	2892.55
709.025	2977.54
709.43	2984.31
709.834	3036.57
710.237	3097.63
710.641	3089.59
711.045	3110.9
711.449	3111.35
711.853	3138.88
712.256	3177.61
712.66	3213.92
713.064	3279.54
713.467	3315.69
713.87	3412.96
714.274	3454.99
714.677	3551.88
715.08	3688.48
715.484	3833.33
715.887	4007.41
716.29	4176.44
716.693	4352.47
717.096	4557.56
717.499	4672.69
717.901	4698.95
718.304	4723.11
718.707	4747.27
719.109	4662.03
719.512	4639.16
719.915	4527.53
720.317	4480.47
720.719	4519.07
721.122	4498.18
721.524	4456.35
721.926	4421.69
722.328	4508.18
722.731	4499.64
723.133	4525.26
723.535	4687.65
723.937	4703.97
724.338	4749.84
724.74	4784.44
725.142	4737.07
725.544	4736.96
725.945	4762.9
726.347	4759.72
726.748	4755.83
727.15	4769.08
727.551	4737.88
727.952	4716.83
728.354	4695.85
728.755	4696.87
729.156	4662.07
729.557	4647.98
729.958	4545.21
730.359	4497.23
730.76	4483.03
731.161	4430.63
731.562	4410.76
731.962	4414.22
732.363	4362.5
732.763	4309.3
733.164	4339.19
733.564	4285.27
733.965	4207.6
734.365	4177.96
734.766	4202.89
735.166	4170.79
735.566	4125.22
735.966	4104.27
736.366	4098.6
736.766	4045.46
737.166	4072.77
737.566	4039.01
737.966	4016.18
738.365	4047.74
738.765	4044.47
739.165	3982.65
739.564	3959.38
739.964	3997.68
740.363	3958.7
740.763	3958.01
741.162	3947.67
741.561	3920.18
741.96	3881.89
742.36	3898.39
742.759	3902.84
743.158	3933.91
743.557	3944.33
743.955	3979.96
744.354	3941.79
744.753	3988.77
745.152	3956.37
745.55	4003.53
745.949	3998.22
746.348	3999.09
746.746	4012.84
747.144	3977.97
747.543	3960.39
747.941	4001.44
748.339	3939.25
748.737	3932.81
749.136	3926.74
749.534	3979.62
749.932	3956.23
750.33	3974.97
750.727	4020.14
751.125	4001.59
751.523	3990.96
751.921	4028.34
752.318	3998.72
752.716	4050.74
753.113	4061.5
753.511	4082.94
753.908	4083.81
754.305	4069.61
754.703	4123.56
755.1	4175.56
755.497	4227.04
755.894	4386.77
756.291	4536.34
756.688	4815.67
757.085	5184.56
757.482	5707.18
757.878	6275.53
758.275	6789.32
758.672	7500.78
759.068	8074.28
759.465	8902.27
759.861	9960.41
760.258	11188.45
760.654	11823.64
761.05	11734.82
761.447	11205.66
761.843	10431.46
762.239	9632.8
762.635	9266.89
763.031	8914.76
763.427	8417.84
763.822	7888.03
764.218	7368.64
764.614	6700.21
765.01	6251.21
765.405	5956.97
765.801	5733.86
766.196	5454.93
766.592	5297.44
766.987	5032.65
767.382	4852.4
767.778	4778.19
768.173	4669.64
768.568	4607.26
768.963	4500.83
769.358	4514.73
769.753	4476.67
770.148	4406.48
770.542	4402.93
770.937	4377.13
771.332	4454.9
771.726	4473.93
772.121	4421.65
772.515	4468.51
772.91	4456.82
773.304	4514.87
773.699	4461.54
774.093	4507.98
774.487	4557.47
774.881	4594.48
775.275	4589.86
775.669	4554.44
776.063	4589.39
776.457	4617.55
776.851	4553.66
777.245	4548.62
777.638	4576.22
778.032	4673.36
778.425	4642.43
778.819	4675.53
779.212	4637.72
779.606	4605.11
779.999	4623.4
780.392	4608.7
780.786	4677.81
781.179	4696.02
781.572	4731.69
781.965	4743.8
782.358	4696.52
782.751	4743.88
783.143	4703.67
783.536	4766.21
783.929	4801.57
784.322	4895.01
784.714	4922.37
785.107	4916.98
785.499	4976.3
785.891	4959.39
786.284	4942.8
786.676	5059.98
787.068	5042.8
787.46	5086.75
787.852	5102.28
788.245	5172.62
788.636	5199.61
789.028	5255.94
789.42	5290.68
789.812	5297.66
790.204	5377.3
790.595	5461.06
790.987	5293.57
791.378	5312.11
791.77	5417.05
792.161	5530.64
792.553	5577.38
792.944	5484.08
793.335	5426.69
793.726	5490.54
794.117	5567.3
794.508	5681.72
794.899	5656.23
795.29	5775.78
795.681	5825.76
796.072	5707.83
796.463	5554.45
796.853	5566.37
797.244	5695.4
797.634	5723.54
798.025	5719.95
798.415	5730.38
798.806	5804.4
799.196	5876.81
799.586	5916.95
799.976	5883.37
800.366	6072.04
800.756	6273.25
801.146	6236.63
801.536	6259.63
801.926	6317.79
802.316	6339.62
802.706	6394.37
803.095	6289.79
803.485	6375.07
803.874	6409.44
804.264	6624.98
804.653	6607.76
805.043	6729.37
805.432	6820.29
805.821	6826.32
806.21	6846.81
806.599	6941.66
806.988	6979.93
807.377	7068.51
807.766	7171.17
808.155	7409.48
808.544	7188.65
808.933	7198.13
809.321	7180.41
809.71	7425.66
810.098	7555.18
810.487	7938.7
810.875	8340.42
811.264	8362.85
811.652	8605.19
812.04	8730.2
812.428	8863.01
812.816	9497.78
813.204	9851.87
813.592	10308.5
813.98	10584.89
814.368	10506.53
814.756	10903.08
815.144	10833.61
815.531	11216.51
815.919	11150.44
816.306	11400.12
816.694	11141.61
817.081	11184.04
817.469	11462.96
817.856	11462.95
818.243	11680.78
818.63	12006.14
819.017	11655.83
819.404	11707.19
819.791	12024.93
820.178	12533.54
820.565	12740
820.952	13520.03
821.339	13107.1
821.725	13262.92
822.112	12641.9
822.498	12617.35
822.885	12722.52
823.271	12645.11
823.657	12993.32
824.044	12995.1
824.43	13060.27
824.816	13036.81
825.202	12674.97
825.588	13529.59
825.974	13537.4
826.36	13968.92
826.746	13996.5
827.132	14293.25
827.517	14274.25
827.903	13626.52
828.289	13657.53
828.674	13013.14
829.06	12926.09
829.445	13257.48
829.83	13558.47
830.216	13955.82
830.601	14260.77
830.986	13926.85
831.371	13824.23
831.756	14285.98
832.141	13932.11
832.526	13929.74
832.911	14173.58
833.295	14083.67
833.68	14470.34
834.065	13946.27
834.449	13201.24
834.834	13145.45
835.218	13142.84
835.603	13424.73
835.987	13258.38
836.371	13955.57
836.755	13869.93
837.139	14197.51
837.524	14403.86
837.908	14261.67
838.291	14320.03
838.675	14374.86
839.059	14552.26
839.443	14541.2
839.827	14343.34
840.21	14747.7
840.594	14625.61
840.977	14804.56
841.361	14799.4
841.744	15109.86
842.127	14984.14
842.511	15192.96
842.894	15691.99
843.277	16005.4
843.66	16465.5
844.043	16546.6
844.426	15874.02
844.809	15603.64
845.191	15633.64
845.574	15241.27
845.957	14936.08
846.339	14847.58
846.722	14406.91
847.104	14456.42
847.487	14320.77
847.869	14331.35
848.252	14563.6
848.634	14828.62
849.016	15057.97
849.398	15165.79
849.78	15885.51
850.162	15899.29
850.544	16246.04
850.926	16767.77
851.307	16705.49
851.689	16931.74
852.071	17304.92
852.452	17571.41
852.834	17559.8
853.215	17895.69
853.597	18021.46
853.978	18252
854.359	18622.21
854.741	17783.4
855.122	17700.19
855.503	17452.32
855.884	17561.38
856.265	17508.22
856.646	17603.62
857.026	17277.2
857.407	17223.8
857.788	17357.83
858.169	17604.98
858.549	16893.57
858.93	17417.47
859.31	17457.75
859.69	17631.04
860.071	17292.95
860.451	17112.04
860.831	16489.43
861.211	17451.97
861.591	17904.17
861.971	17876.49
862.351	18035.22
862.731	18361.09
863.111	18573.73
863.491	18844.41
863.87	19568.78
864.25	19865.07
864.629	19533.62
865.009	19963.97
865.388	20682.88
865.768	22153.63
866.147	22068.32
866.526	20843.58
866.905	21093.96
867.284	22286.31
867.663	21167.88
868.042	20305.49
868.421	20228.1
868.8	20562.24
869.179	20768.69
869.558	19554.82
869.936	18036.99
870.315	18359.48
870.693	18811.07
871.072	20272.12
871.45	19305.01
871.828	19557.44
872.207	20551.61
872.585	20252.2
872.963	20804.67
873.341	20083.68
873.719	19845.38
874.097	19592.91
874.475	19956.13
874.853	20415.5
875.23	19576.26
875.608	20404.38
875.986	22068.46
876.363	21099.59
876.741	21746.88
877.118	21204.32
877.495	22249.88
877.873	22616.75
878.25	23804.41
878.627	22847.65
879.004	23162.71
879.381	23048.54
879.758	22439.47
880.135	20889.29
880.512	22088.24
880.889	21500.38
881.265	21288.37
881.642	21106.99
882.019	21488.37
882.395	21061.77
882.772	21896.23
883.148	20950.39
883.524	20871.92
883.901	20753.06
884.277	21061.87
884.653	20936.65
885.029	21536.7
885.405	23851.06
885.781	23678.17
886.157	22680.35
886.532	22958.72
886.908	22939.28
887.284	25505.58
887.659	26337.16
888.035	27155.9
888.411	27867.74
888.786	28233.5
889.161	29212.25
889.537	28666
889.912	29574.75
890.287	29545.2
890.662	30314.48
891.037	29775.72
891.412	27753.44
891.787	27469.64
892.162	26511.71
892.536	27122.29
892.911	26106.61
893.286	25555.42
893.66	24526.52
894.035	25153.85
894.409	27401.52
894.784	26293.39
895.158	26725.5
895.532	28327.79
895.906	29107.99
896.281	29791.53
896.655	29319.06
897.029	33500.65
897.402	34886.93
897.776	38827.48
898.15	38702.74
898.524	38277.76
898.898	38772.5
899.271	43404.41
899.645	37585.38
900.018	36098.07
900.392	37442.64
900.765	37741.86
901.138	34933.65
901.511	34396.52
901.884	31574.25
902.258	29117.99
902.631	30071.77
903.003	34610.37
903.376	31220.23
903.749	34996.68
904.122	37464.98
904.495	41228.34
904.867	41747.3
905.24	36205.25
905.612	33713.33
905.985	34488.44
906.357	36045.7
906.729	34425.8
907.102	29408.05
907.474	28295.69
907.846	28470.52
908.218	28086.82
908.59	24822.88
908.962	24004.67
909.334	25872.59
909.705	27167.7
910.077	26374.62
910.449	27457.53
910.82	28225.04
911.192	31065.04
911.563	32255.61
911.935	34518.99
912.306	34547.77
912.677	35689.65
913.048	35338.34
913.419	38330.47
913.79	38558.56
914.161	41341.21
914.532	39517.52
914.903	36298.49
915.274	34461.76
915.645	33984.41
916.015	29926.54
916.386	28552.81
916.756	30385.15
917.127	31356.21
917.497	28022.37
917.868	30507.85
918.238	28991.68
918.608	29807.08
918.978	30425.72
919.348	32207.79
919.718	33265.59
920.088	32046.48
920.458	33290.76
920.828	35014.88
921.198	33163.29
921.567	35428.32
921.937	27436.22
922.306	27688.59
922.676	29879
923.045	24937.41
923.415	23700
923.784	21577.27
924.153	22174.72
924.522	22143.39
924.891	20806.98
925.26	22298.38
925.629	21762.97
925.998	25015.14
926.367	24432.25
926.736	23257.51
927.104	27694.4
927.473	29778.35
927.842	35963.11
928.21	35623.16
928.578	37461.5
928.947	35481.16
929.315	35683.05
929.683	41828.21
930.051	42158.8
930.42	48920.6
930.788	41841.96
931.156	41530.47
931.523	38934.42
931.891	36015.42
932.259	34594.75
932.627	40084.41
932.994	56694.6
933.362	46882.05
933.729	40757.11
934.097	38985.41
934.464	33024.11
934.831	38097.76
935.199	37537.22
935.566	36379.93
935.933	36825.61
936.3	44566.67
936.667	34680.02
937.034	31250.38
937.401	30899.52
937.767	26642.88
938.134	23753.26
938.501	33464.95
938.867	35676.97
939.234	60369.82
939.6	51531.4
939.967	56818.55
940.333	38054.6
940.699	32432.82
941.065	26047.53
941.431	34143.89
941.798	32948.87
942.163	43191.54
942.529	27003.45
942.895	24844.46
943.261	16058.96
943.627	21051.82
943.992	18435.02
944.358	18464.1
944.723	18516.11
945.089	18056.41
945.454	16707.99
945.82	17824.99
946.185	17135.96
946.55	19856.55
946.915	17825.66
947.28	20935.3
947.645	18435.32
948.01	17029.81
948.375	17754.65
948.74	21304.56
949.104	24839.19
949.469	35812.38
949.834	63291.69
950.198	60037.64
950.562	35968.1
950.927	29935.6
951.291	36008.77
951.655	30667.34
952.02	28771.54
952.384	21778.21
952.748	18972.5
953.112	18502.6
953.476	16085.22
953.839	14877.97
954.203	14713.15
954.567	18400.41
954.931	28973.69
955.294	24786.39
955.658	24925.59
956.021	42349.84
956.385	71731.89
956.748	105761.01
957.111	164018.38
957.474	184318.44
957.837	207448.03
958.2	157113.54
958.563	56578.35
958.926	38292.5
959.289	58123.73
959.652	64926.06
960.015	48749.17
960.377	70047.42
960.74	79947.51
961.102	137995.47
961.465	148226.52
961.827	79462.71
962.189	152448.1
962.552	105557.41
962.914	84599.81
963.276	54891.91
963.638	45398.49
964	44950.94
964.362	30370.44
964.724	29347.59
965.085	20939.04
965.447	17167.96
965.809	19543.54
966.17	19546.62
966.532	21163.01
966.893	19401.43
967.255	17628.09
967.616	20793.89
967.977	16653.26
968.338	18194.05
968.699	14967.78
969.061	14958.4
969.421	15054.02
969.782	16893.89
970.143	14276.06
970.504	14794.79
970.865	16842.55
971.225	17247.76
971.586	16879.83
971.946	24024.28
972.307	20838.7
972.667	27229
973.027	28073.83
973.388	34036.81
973.748	23168.56
974.108	25249.97
974.468	34098.53
974.828	26270.28
975.188	20223.06
975.548	18589.51
975.907	15642.77
976.267	17547.41
976.627	14740.95
976.986	15261.55
977.346	14539.45
977.705	13989.3
978.064	12741.4
978.424	10620.61
978.783	10980.9
979.142	12521.68
979.501	11977.1
979.86	12664.4
980.219	12191.44
980.578	15722.59
980.937	17624.4
981.296	15727.4
981.654	16177.92
982.013	25152.43
982.371	32632.48
982.73	30490.25
983.088	34550.55
983.447	36948.55
983.805	52850.6
984.163	110674.8
984.521	122874.3
984.879	179682.08
985.237	-292240.16
985.595	281797.79
985.953	70108.26
986.311	40494.54
986.669	23498.59
987.026	20240.87
987.384	27204.28
987.741	28085.43
988.099	20066.62
988.456	15987.49
988.814	14998.7
989.171	13044.45
989.528	12868.44
989.885	13574.37
990.242	10744.76
990.599	13393.41
990.956	10973.63
991.313	7666.98
991.67	6291.49
992.027	6669.9
992.383	5931.04
992.74	5199.81
993.096	5450.42
993.453	5653.15
993.809	5863.87
994.165	7813.23
994.522	7155.14
994.878	7879.73
995.234	9885.27
995.59	9749.22
995.946	9230.13
996.302	10520.96
996.658	12174.47
997.013	13409.76
997.369	15875.11
997.725	20344.53
998.08	13165.53
998.436	20284.93
998.791	27981.22
999.147	27978.36
999.502	30511.91
999.857	22148.75
1000.212	36193.67
1000.567	51535.13
1000.922	29741.87
1001.277	18919.11
1001.632	14023.19
1001.987	18047.05
1002.342	12941.54
1002.696	10375.21
1003.051	8277.34
1003.406	10031.62
1003.76	9970.1
1004.114	9798.75
1004.469	8231.63
1004.823	6817.41
1005.177	7360.22
1005.531	5837.76
1005.885	5196.45
1006.239	5871.48
1006.593	7343.54
1006.947	9808
1007.301	7373.68
1007.655	8066.8
1008.008	5916.42
1008.362	6629.09
1008.715	9427.93
1009.069	8543.3
1009.422	12814.79
1009.776	25671.34
1010.129	17054.15
1010.482	14290.94
1010.835	12107.67
1011.188	25216.77
1011.541	23707.18
1011.894	-145260.57
1012.247	427888.27
1012.6	29135.9
1012.952	18484.85
1013.305	9552.82
1013.657	6904.7
1014.01	6540.24
1014.362	5395.92
1014.715	4805.21
1015.067	4166.87
1015.419	4079.89
1015.771	3605.76
1016.123	3216.67
1016.475	3306.65
1016.827	3508.97
1017.179	3769.2
1017.531	3795.98
1017.883	3855.69
1018.234	3718.14
1018.586	4680.8
1018.938	4967.23
1019.289	6833.77
1019.64	7857.12
1019.992	7290.99
1020.343	6698.75
1020.694	5321.08
1021.045	4717.14
1021.396	5378.75
1021.747	5778.89
1022.098	6925.74
1022.449	5020.56
1022.8	4660.84
1023.151	3250.23
1023.501	2877.42
1023.852	3132.27
1024.202	3249.86
1024.553	3566.7
1024.903	3489.4
1025.253	2987.37
1025.604	2708.19
1025.954	3370.57
1026.304	4108.17
1026.654	4797.2
1027.004	7021.28
1027.354	11381.65
1027.703	10758.69
1028.053	14113.65
1028.403	20638.19
1028.753	29742.23
1029.102	40322.24
1029.452	206474.76
1029.801	8881.76
1030.15	5738.12
1030.499	4851.01
897.758	2167.47
901.051	2100.94
904.343	2134.68
907.636	2141.28
910.928	2204.04
914.22	2123.97
917.511	2129.37
920.803	2178.56
924.094	2175.22
927.384	2179.03
930.675	2142
933.965	2106.21
937.255	2136.67
940.544	2105.83
943.834	2103.92
947.123	2042.8
950.411	2130.66
953.7	2111.22
956.988	2093.85
960.276	2030.41
963.563	2078.69
966.851	2088.74
970.138	2130.08
973.424	2131.04
976.711	2085.35
979.997	2131.65
983.283	2174.36
986.568	2106.44
989.853	2098.08
993.138	2126
996.423	2212.7
999.708	2170.87
1002.992	2200.77
1006.275	2123.67
1009.559	2128.5
1012.842	2224.45
1016.125	2179.56
1019.408	2161.65
1022.69	2214.78
1025.972	2249.63
1029.254	2224.17
1032.536	2185.74
1035.817	2194.46
1039.098	2164.18
1042.379	2207.44
1045.659	2235.09
1048.939	2186.78
1052.219	2192.89
1055.498	2186.55
1058.778	2184.15
1062.057	2159.68
1065.335	2182.01
1068.614	2191.69
1071.892	2188.16
1075.17	2243.33
1078.447	2246.19
1081.724	2240.28
1085.001	2263.43
1088.278	2242.23
1091.554	2247.32
1094.83	2243.35
1098.106	2277.47
1101.382	2308.51
1104.657	2309.95
1107.932	2309.03
1111.206	2285.58
1114.481	2238.93
1117.755	2239.03
1121.029	2231.68
1124.302	2291.2
1127.575	2256.28
1130.848	2252.17
1134.121	2223.88
1137.393	2186.88
1140.665	2241.44
1143.937	2219.41
1147.208	2170.09
1150.48	2226.06
1153.75	2213.53
1157.021	2219
1160.291	2194.08
1163.561	2248.34
1166.831	2217.45
1170.101	2243.21
1173.37	2203.11
1176.639	2161.45
1179.907	2207.56
1183.176	2227.64
1186.444	2228.57
1189.711	2253.23
1192.979	2273.67
1196.246	2234.38
1199.513	2244.66
1202.78	2249.58
1206.046	2257.36
1209.312	2284.17
1212.578	2303.04
1215.843	2269.42
1219.108	2238.36
1222.373	2263.66
1225.638	2237.05
1228.902	2229.39
1232.166	2186.31
1235.43	2175.92
1238.693	2200.22
1241.956	2192.13
1245.219	2240.4
1248.482	2226.32
1251.744	2222.88
1255.006	2342.41
1258.268	2288.54
1261.529	2245.87
1264.79	2247.58
1268.051	2342.99
1271.312	2350.77
1274.572	2322.4
1277.832	2314.83
1281.092	2292.65
1284.351	2280.15
1287.61	2265.61
1290.869	2204.51
1294.128	2202.12
1297.386	2249.11
1300.644	2242.61
1303.902	2249.84
1307.159	2121.6
1310.416	2171.68
1313.673	2195.8
1316.93	2195.79
1320.186	2228.06
1323.442	2261.36
1326.697	2260.69
1329.953	2235.97
1333.208	2271.52
1336.463	2242.88
1339.717	2206.97
1342.972	2312.94
1346.226	2284.87
1349.479	2235.6
1352.733	2216.36
1355.986	2221.71
1359.238	2202.7
1362.491	2206.96
1365.743	2206.08
1368.995	2198.13
1372.247	2211.71
1375.498	2231.99
1378.749	2275.18
1382	2226.87
1385.251	2260.72
1388.501	2213.55
1391.751	2213.84
1395	2182.37
1398.25	2208.18
1401.499	2230.08
1404.748	2180.23
1407.996	2159.29
1411.244	2147.74
1414.492	2131.06
1417.74	2115.06
1420.987	2121.16
1424.234	2180.94
1427.481	2143.51
1430.728	2198.34
1433.974	2174.01
1437.22	2173.17
1440.465	2169.69
1443.711	2167.41
1446.956	2189.91
1450.201	2162.33
1453.445	2203.85
1456.689	2190.77
1459.933	2200.8
1463.177	2240.01
1466.42	2213.54
1469.663	2199.12
1472.906	2213.55
1476.148	2260.45
1479.391	2235.9
1482.633	2212.15
1485.874	2234.17
1489.115	2239.64
1492.356	2226.35
1495.597	2205.73
1498.838	2200
1502.078	2185
1505.318	2154.32
1508.557	2187.19
1511.797	2183.9
1515.036	2225.58
1518.274	2198.41
1521.513	2153.22
1524.751	2166.21
1527.989	2189.66
1531.227	2207.48
1534.464	2217.84
1537.701	2213.62
1540.938	2225.64
1544.174	2175.38
1547.41	2168.28
1550.646	2204.6
1553.882	2253.97
1557.117	2310.27
1560.352	2316.28
1563.587	2277.59
1566.821	2245.03
1570.055	2263.02
1573.289	2243.08
1576.523	2300.27
1579.756	2315.8
1582.989	2334.25
1586.222	2295.26
1589.454	2324.49
1592.686	2310.96
1595.918	2338.76
1599.15	2336.39
1602.381	2381.85
1605.612	2361.68
1608.843	2454.89
1612.073	2377.24
1615.303	2365.74
1618.533	2365.74
1621.762	2361.64
1624.992	2335.67
1628.221	2336.2
1631.449	2325.81
1634.678	2351.74
1637.906	2320.14
1641.134	2344.12
1644.361	2309.57
1647.588	2301.18
1650.815	2320.61
1654.042	2284.42
1657.269	2315.32
1660.495	2292.53
1663.72	2280.76
1666.946	2249.43
1670.171	2224.29
1673.396	2195.33
1676.621	2182.37
1679.845	2178.87
1683.069	2187.13
1686.293	2215.15
1689.517	2206.33
1692.74	2157.65
1695.963	2180.58
1699.185	2217.93
1702.408	2192.85
1705.63	2221.06
1708.852	2240.02
1712.073	2211.23
1715.294	2222.21
1718.515	2262.34
1721.736	2223.66
1724.956	2204.43
1728.176	2225.29
1731.396	2249.04
1734.616	2236.09
1737.835	2270.46
1741.054	2241.86
1744.272	2236.36
1747.491	2272.35
1750.709	2297.26
1753.927	2247.39
1757.144	2272.62
1760.361	2327.67
1763.578	2304.04
1766.795	2251.04
1770.011	2240.39
1773.227	2264.3
1776.443	2306.5
1779.658	2347.08
1782.874	2289.67
1786.089	2280.95
1789.303	2283.31
1792.518	2280.2
1795.732	2265.97
1798.945	2281.94
1802.159	2323.06
1805.372	2265.36
1808.585	2261.16
1811.797	2261.6
1815.01	2282.86
1818.222	2305.44
1821.434	2266.45
1824.645	2307.32
1827.856	2315.78
1831.067	2346.98
1834.278	2287.62
1837.488	2272.48
1840.698	2392.26
1843.908	2334.87
1847.117	2303.31
1850.326	2229.3
1853.535	2290.22
1856.744	2322.8
1859.952	2249.65
1863.16	2252.31
1866.368	2265.72
1869.575	2371.92
1872.782	2258.34
1875.989	2192.38
1879.196	2242.75
1882.402	2233.87
1885.608	2265.76
1888.814	2206.25
1892.019	2117.25
1895.224	2165.97
1898.429	2131.75
1901.634	2117.19
1904.838	2094.46
1908.042	2149.51
1911.246	2164.89
1914.449	2126.21
1917.652	2108.04
1920.855	2092.02
1924.058	2115.95
1927.26	2160.78
1930.462	2183.04
1933.664	2222.61
1936.865	2165.06
1940.066	2181
1943.267	2126.25
1946.467	2133.43
1949.668	2153.01
1952.868	2221.78
1956.067	2210.69
1959.267	2153.84
1962.466	2175.47
1965.665	2155.56
1968.863	2151.5
1972.061	2155.51
1975.259	2146.32
1978.457	2220.49
1981.654	2181.96
1984.852	2184.66
1988.048	2139.02
1991.245	2129.07
1994.441	2216.34
1997.637	2175.45
2000.833	2159.84
2004.028	2192.97
2007.223	2252.8
2010.418	2242.46
2013.613	2194.59
2016.807	2189.72
2020.001	2184.99
2023.194	2206.2
2026.388	2189.92
2029.581	2133.13
2032.774	2196.07
2035.966	2206.59
2039.158	2151.95
2042.35	2171.3
2045.542	2102.69
2048.733	2183.3
2051.924	2175.84
2055.115	2190.8
2058.306	2157.25
2061.496	2210.66
2064.686	2259.85
2067.875	2166.91
2071.065	2172.36
2074.254	2189.52
2077.442	2144.23
2080.631	2224.56
2083.819	2156.3
2087.007	2150.19
2090.195	2135.04
2093.382	2151.18
2096.569	2135.15
2099.756	2098.96
2102.942	2146.13
2106.128	2157.06
2109.314	2147.89
2112.5	2135.28
2115.685	2102.53
2118.87	2109.11
2122.055	2167.33
2125.239	2148.09
2128.424	2136.53
2131.608	2196.43
2134.791	2179.85
2137.974	2216.12
2141.157	2206.14
2144.34	2177.88
2147.523	2166.86
2150.705	2192.53
2153.887	2162.99
2157.068	2135.91
2160.25	2116.54
2163.431	2140.22
2166.611	2109.51
2169.792	2129.93
2172.972	2047.14
2176.152	2094.1
2179.331	2122.3
2182.511	2126.3
2185.69	2146.47
2188.868	2149.8
2192.047	2186
2195.225	2201.77
2198.403	2148.94
2201.58	2137.57
2204.758	2123.11
2207.935	2194.34
2211.111	2115.13
2214.288	2102.24
2217.464	2136.58
2220.64	2095.07
2223.815	2144.05
2226.991	2076.84
2230.166	2092.71
2233.34	2135.98
2236.515	2145.63
2239.689	2211.94
2242.863	2161.62
2246.036	2212.54
2249.209	2196.41
2252.382	2214.83
2255.555	2222.93
2258.727	2174.24
2261.9	2202.27
2265.071	2194.71
2268.243	2190.33
2271.414	2143.43
2274.585	2125.84
2277.756	2187.04
2280.926	2145.25
2284.096	2174.94
2287.266	2104.11
2290.436	2150.44
2293.605	2169.73
2296.774	2207.09
2299.942	2211.94
2303.111	2226.49
2306.279	2277.09
2309.447	2262.4
2312.614	2232.81
2315.781	2255.9
2318.948	2232.5
2322.115	2270.53
2325.281	2171.07
2328.447	2178.1
2331.613	2150.6
2334.779	2141.63
2337.944	2139.64
2341.109	2141.01
2344.274	2129.04
2347.438	2096.4
2350.602	2115.76
2353.766	2127.03
2356.929	2115.88
2360.092	2153.85
2363.255	2125.74
2366.418	2090.93
2369.58	2155.83
2372.742	2034.57
2375.904	2026.38
2379.066	2012.46
2382.227	2040.21
2385.388	2003.61
2388.548	1953.68
2391.709	1995.03
2394.869	1983.29
2398.029	2038.62
2401.188	2031.96
2404.347	1997.5
2407.506	2072.3
2410.665	2114.29
2413.823	2100.61
2416.981	2078.59
2420.139	2096.44
2423.296	2133.72
2426.453	2108.54
2429.61	2130.29
2432.767	2100.13
2435.923	2142.02
2439.079	2087.58
2442.235	2120.64
2445.391	2060.33
2448.546	2101.56
2451.701	2134.75
2454.855	2129.08
2458.009	2161.14
2461.163	2146.97
2464.317	2120.18
2467.471	2146.92
2470.624	2175.23
2473.777	2166
2476.929	2182.84
2480.082	2205.04
2483.234	2180.23
2486.385	2123.27
2489.537	2117.57
2492.688	2106.36
2495.839	2124.98
2498.989	2138.56
2502.14	2124.1
2505.29	2115.35
2508.439	2139.63
2511.589	2081.6
2514.738	2082.61
2517.887	2105.32
2521.035	2180.7
2524.183	2139.95
2527.331	2128.1
2530.479	2121.64
2533.627	2123.63
