Data from C_1_DEC_VA_2N_Splice17_11-57-24-392.txt Node
Date: Sat Mar 14 11:57:24 EDT 2020
User: sa697716
Spectrometer: FLMS03696
Trigger mode: 0
Integration Time (sec): 3.180400E-1
Scans to average: 20
Electric dark correction enabled: true
Nonlinearity correction enabled: true
Boxcar width: 5
XAxis mode: Wavelengths
Number of Pixels in Spectrum: 2048
>>>>>Begin Spectral Data<<<<<
187.83	-289882.85
188.298	2160.87
188.766	1172.17
189.233	1093.95
189.701	1522.23
190.169	1971.2
190.636	719.78
191.104	576.03
191.571	103.78
192.039	-20.68
192.506	-51.26
192.974	347
193.441	-582.93
193.908	-81.52
194.375	19.42
194.842	114.44
195.31	125.02
195.777	117.6
196.244	316.63
196.711	434.14
197.177	561.24
197.644	769.71
198.111	1351.04
198.578	1915.46
199.045	1531.97
199.511	2489.34
199.978	2909.85
200.445	2479.95
200.911	2787.15
201.378	3102.46
201.844	2789.18
202.31	4785.77
202.777	5034.27
203.243	2787.38
203.709	2678.32
204.176	3212.08
204.642	2672.56
205.108	2494.24
205.574	2035.23
206.04	1855.12
206.506	1755.72
206.972	1670.86
207.438	1611.06
207.903	1836.46
208.369	1616.61
208.835	1615.8
209.301	1684.53
209.766	1722.12
210.232	1700.49
210.697	2119.94
211.163	2621.45
211.628	3940.1
212.094	3297.27
212.559	4066.43
213.024	2514.95
213.49	3053.64
213.955	2938.2
214.42	2893.84
214.885	2686.29
215.35	2585.87
215.815	2472.78
216.28	2610.87
216.745	2123.68
217.21	2298.13
217.675	2107.5
218.14	2374.06
218.604	2670.3
219.069	3060.84
219.534	3198.67
219.998	3715.59
220.463	4485.38
220.927	5535.6
221.392	5203.71
221.856	5266.88
222.32	6627.48
222.785	8181.47
223.249	10273.06
223.713	11435.01
224.177	11429.6
224.642	14680.75
225.106	18091.63
225.57	19795.75
226.034	14731.15
226.497	22479.19
226.961	20356.56
227.425	23728.53
227.889	26301.12
228.353	26398.78
228.816	54579.65
229.28	52239.34
229.744	44089.38
230.207	26802.58
230.671	26343.78
231.134	43597.03
231.597	50219.29
232.061	50135.48
232.524	48882.99
232.987	33700.56
233.45	30311.19
233.914	27207.96
234.377	27940.36
234.84	25554.27
235.303	30140.11
235.766	33638.14
236.229	34708.78
236.691	21884.96
237.154	24592.9
237.617	18508.31
238.08	18950.04
238.542	22201.85
239.005	15853.39
239.468	15716.22
239.93	14829.17
240.393	13488.38
240.855	11843.93
241.317	12136.57
241.78	14760.7
242.242	15283.73
242.704	16518.36
243.166	14386.21
243.629	13046.36
244.091	15063.99
244.553	16520.68
245.015	17749.81
245.477	22945.87
245.939	33657.97
246.4	35772.33
246.862	34778.98
247.324	32758.67
247.786	36639.03
248.247	48058.52
248.709	49649.24
249.17	37153.72
249.632	35050.09
250.093	40691.62
250.555	35204.23
251.016	21522.22
251.477	20435.33
251.939	22057.8
252.4	23173.84
252.861	27596.55
253.322	25675.8
253.783	30616.4
254.244	39705.75
254.705	31291.81
255.166	27836.71
255.627	27397.1
256.088	38619.14
256.549	41021.02
257.009	35381.86
257.47	42906.44
257.931	34973.23
258.391	26240.87
258.852	27040.6
259.312	28349.82
259.773	35045.43
260.233	29612.41
260.694	25023.35
261.154	28368.88
261.614	22777.6
262.074	20385.76
262.534	21200.19
262.994	19978.6
263.455	26627.68
263.915	22453.29
264.374	21170.78
264.834	23128.92
265.294	25629.78
265.754	26530.11
266.214	25148.58
266.673	23579.2
267.133	29758.61
267.593	29557.38
268.052	36156.16
268.512	31441.81
268.971	37897.51
269.431	41573.3
269.89	37218.54
270.349	55840.03
270.809	62251.49
271.268	55978.23
271.727	125298.3
272.186	81143.79
272.645	60841.76
273.104	43910.35
273.563	63585.37
274.022	50038.18
274.481	42534.82
274.94	32774.42
275.399	24360.51
275.857	28392.33
276.316	38393.84
276.775	34253.93
277.233	33733.09
277.692	31565.24
278.15	35726.79
278.609	36738.07
279.067	34009.17
279.525	31591.94
279.984	40800.44
280.442	49020.68
280.9	48294.66
281.358	31784.17
281.816	29615.8
282.274	29001.88
282.732	29978.42
283.19	30141.79
283.648	26057.78
284.106	27743.91
284.564	28210.95
285.021	26167.66
285.479	19506.85
285.937	17744.94
286.394	15556.92
286.852	15998.15
287.309	16796.75
287.767	16237.15
288.224	15426.3
288.682	16919.16
289.139	18557.58
289.596	16993.38
290.053	17655.44
290.511	22258.9
290.968	27020.16
291.425	36667.92
291.882	30533.61
292.339	26626.04
292.796	26419.57
293.252	24928.35
293.709	19791.34
294.166	17759.08
294.623	19650.38
295.079	18857.28
295.536	18962.64
295.992	17190.83
296.449	16998.74
296.905	17642.64
297.362	16928.55
297.818	17807.17
298.274	18457.8
298.731	18826.51
299.187	18634.98
299.643	19975.51
300.099	24152.97
300.555	26480.81
301.011	22147.65
301.467	21367.33
301.923	25045.24
302.379	24430.16
302.835	23995.14
303.291	24028.77
303.746	27351.73
304.202	34542.54
304.658	34734.84
305.113	23413.71
305.569	22972.27
306.024	24502.38
306.479	23339.41
306.935	19689.17
307.39	21501.91
307.845	19866.24
308.301	20008.83
308.756	19494.07
309.211	18783.88
309.666	19244.21
310.121	23873.61
310.576	24238.63
311.031	24057.61
311.486	27542.12
311.94	27530.05
312.395	36809.19
312.85	69161.93
313.305	339504.71
313.759	1758413.68
314.214	127390.39
314.668	100946.89
315.123	84806.2
315.577	30412.68
316.032	27075.82
316.486	33943.76
316.94	26800.4
317.394	18682.5
317.849	14517.39
318.303	13745.48
318.757	12955.7
319.211	14337.52
319.665	12558.11
320.119	12705.54
320.572	18240.26
321.026	17023.65
321.48	14167.54
321.934	15442.84
322.387	15492.73
322.841	16725.91
323.295	15057.99
323.748	17358.43
324.202	17605.23
324.655	21145.37
325.108	29595.65
325.562	20875.25
326.015	24806.5
326.468	18754.71
326.921	20966.55
327.374	19551.2
327.827	20404.13
328.28	23084.85
328.733	15470.41
329.186	13620.6
329.639	12986.75
330.092	10931.3
330.545	10425.36
330.997	10522.79
331.45	11510.48
331.903	13474.11
332.355	23168.25
332.808	22507.08
333.26	18561.75
333.713	20157.01
334.165	20325.62
334.617	27147.55
335.069	21984.87
335.522	39781.77
335.974	44061.69
336.426	40285.83
336.878	27995.54
337.33	14203.62
337.782	13866.98
338.234	17387.18
338.686	20786.02
339.137	24587.05
339.589	23095.53
340.041	18089.39
340.493	15516.45
340.944	15881.76
341.396	17087.82
341.847	14341.94
342.299	16934.81
342.75	20676.61
343.201	18062.68
343.653	20801.04
344.104	25576.39
344.555	20143.58
345.006	31334.28
345.457	24013.02
345.908	19101.89
346.359	17981.82
346.81	14662.86
347.261	15452.49
347.712	15204.1
348.163	16288.86
348.613	16490.71
349.064	15399.75
349.515	13499.72
349.965	13849.97
350.416	16662.22
350.866	18280.57
351.317	20659.83
351.767	34165.7
352.217	43115.05
352.668	35798.6
353.118	32762.05
353.568	31546.52
354.018	24925.99
354.468	26289.95
354.918	18853.67
355.368	16493.18
355.818	23296.11
356.268	66983.16
356.718	280840.6
357.168	69913.31
357.617	35077.34
358.067	39038.91
358.517	36605.89
358.966	42940.35
359.416	48135.59
359.865	52125.88
360.315	62181.74
360.764	29056.6
361.213	16282.07
361.663	15428.44
362.112	19024.95
362.561	30699.84
363.01	23195.28
363.459	19559.29
363.908	21176.56
364.357	17978.93
364.806	30302.31
365.255	20847.22
365.703	19083.81
366.152	19152.41
366.601	15537.1
367.05	12652.86
367.498	11512.78
367.947	12037.31
368.395	12514.19
368.844	11069.48
369.292	13327.18
369.74	9208.3
370.189	14085.25
370.637	16503.53
371.085	14215.55
371.533	17305.63
371.981	16662.82
372.429	15899.12
372.877	16542.72
373.325	13854.83
373.773	14124.06
374.221	12594.33
374.669	15630.69
375.116	13513.03
375.564	13619.79
376.012	15228.17
376.459	12546.35
376.907	14996.46
377.354	18113.71
377.801	16909.59
378.249	19408.2
378.696	24814.88
379.143	30046.83
379.591	32069.66
380.038	54351.66
380.485	39353.08
380.932	42473.6
381.379	38881.33
381.826	28645.19
382.273	20412.13
382.72	17809.43
383.166	17416.79
383.613	11312.22
384.06	10213.12
384.506	11830.28
384.953	8691.65
385.4	8760.89
385.846	7705.42
386.292	7531.27
386.739	7386.26
387.185	7301.21
387.631	7321.96
388.078	7098.24
388.524	7601.44
388.97	7032.38
389.416	5871.12
389.862	6244.05
390.308	5912
390.754	6010.98
391.2	6516.42
391.645	6674.37
392.091	6394.47
392.537	6190.17
392.983	6206.61
393.428	6111.69
393.874	6557.08
394.319	6604.19
394.765	6273.57
395.21	6471.2
395.655	6070.72
396.101	5702.76
396.546	5155.29
396.991	5204.83
397.436	4840.68
397.881	4689.91
398.326	4450.32
398.771	4216.68
399.216	3683.3
399.661	3322.92
400.106	3309.23
400.551	3386.98
400.995	3042.29
401.44	3008.41
401.885	2829.46
402.329	2865.66
402.774	2749.66
403.218	2660.87
403.663	2563.72
404.107	2635.36
404.551	2650.73
404.995	2433.24
405.44	2346.33
405.884	2379.98
406.328	2301.84
406.772	2295.08
407.216	2084.65
407.66	2007.56
408.104	1906.92
408.547	1783.27
408.991	1723.33
409.435	1657.5
409.879	1635.08
410.322	1612.53
410.766	1554.96
411.209	1477.6
411.653	1418.32
412.096	1390.6
412.54	1391.65
412.983	1381.58
413.426	1384.44
413.869	1379.58
414.312	1354.62
414.756	1303.12
415.199	1244.35
415.642	1207.97
416.085	1207.89
416.527	1197.19
416.97	1214.11
417.413	1152.64
417.856	1137.85
418.298	1124.44
418.741	1117.56
419.184	1114.96
419.626	1158.05
420.069	1153.31
420.511	1156.67
420.953	1130.6
421.396	1117.99
421.838	1090.71
422.28	1114.24
422.722	1120.82
423.164	1138.07
423.606	1117.92
424.048	1116.67
424.49	1061.3
424.932	1055.63
425.374	1041.93
425.816	1058.37
426.258	1079.42
426.699	1088.6
427.141	1071.86
427.582	1086.43
428.024	1078.2
428.465	1072.09
428.907	1043.42
429.348	1030.05
429.789	1032.2
430.231	1009.34
430.672	1022.86
431.113	998.78
431.554	981.43
431.995	956.64
432.436	921.67
432.877	902.95
433.318	888.1
433.759	882.12
434.2	882.06
434.64	872.55
435.081	872.58
435.522	827.48
435.962	796.48
436.403	781.19
436.843	791.64
437.284	775.59
437.724	753.65
438.164	754.64
438.604	739.01
439.045	712
439.485	682.74
439.925	669.86
440.365	653.24
440.805	644.66
441.245	636.22
441.685	613.38
442.125	608.77
442.564	611.55
443.004	598.98
443.444	597.81
443.883	599.14
444.323	593.97
444.762	594.41
445.202	602.98
445.641	614.33
446.081	609.81
446.52	615.06
446.959	609.32
447.398	596.53
447.837	588.68
448.276	578.58
448.716	586.63
449.154	591.56
449.593	579.02
450.032	576.86
450.471	565.62
450.91	567.52
451.349	567.03
451.787	565.69
452.226	574.1
452.664	574.22
453.103	573.96
453.541	570.14
453.98	569.69
454.418	574
454.856	565.56
455.295	564.96
455.733	568.68
456.171	570.5
456.609	570.96
457.047	568.83
457.485	578.51
457.923	580.85
458.361	572.75
458.798	575.19
459.236	573.64
459.674	577.25
460.111	579.94
460.549	574.74
460.987	572.72
461.424	570.65
461.862	569.68
462.299	559.71
462.736	559.39
463.173	562.93
463.611	557.06
464.048	555.31
464.485	560.08
464.922	555.38
465.359	553.72
465.796	548.41
466.233	545.1
466.67	541.2
467.106	540.18
467.543	533.19
467.98	525.96
468.416	512.08
468.853	509.06
469.29	493.62
469.726	488.76
470.162	475.04
470.599	467.51
471.035	462
471.471	450.96
471.907	447.99
472.344	446.64
472.78	447.45
473.216	453.01
473.652	447.44
474.088	446.36
474.523	443.97
474.959	448.33
475.395	443.72
475.831	441.51
476.266	443.56
476.702	442.42
477.138	436.64
477.573	435.35
478.008	433.43
478.444	434.42
478.879	438.25
479.314	440.69
479.75	439.75
480.185	441.74
480.62	445.26
481.055	446.17
481.49	449.03
481.925	456.04
482.36	464
482.795	476.65
483.229	488.8
483.664	498.74
484.099	500.08
484.534	507.97
484.968	512.93
485.403	514.69
485.837	514.7
486.271	514.64
486.706	514.67
487.14	509.2
487.574	500.96
488.009	496.82
488.443	492.97
488.877	498.11
489.311	500.02
489.745	506.41
490.179	511.06
490.613	520.92
491.046	525.44
491.48	530.04
491.914	530.92
492.348	535.91
492.781	540.62
493.215	542.96
493.648	544.99
494.082	550.76
494.515	552.33
494.948	559.75
495.382	564.88
495.815	569.7
496.248	575.06
496.681	586.51
497.114	596.61
497.547	606.16
497.98	618.69
498.413	625.53
498.846	634.75
499.279	644.14
499.711	649.58
500.144	653.68
500.577	664.98
501.009	677.25
501.442	688.4
501.874	692.65
502.306	697.21
502.739	706.21
503.171	721.76
503.603	727.45
504.036	737.88
504.468	746.58
504.9	760.25
505.332	769.59
505.764	776.83
506.196	786.11
506.627	802.52
507.059	817.84
507.491	830.57
507.923	833.94
508.354	851.61
508.786	865.52
509.217	885.91
509.649	903.23
510.08	924.35
510.512	944.55
510.943	962.78
511.374	977.79
511.805	1001.64
512.237	1023.38
512.668	1058.05
513.099	1087.96
513.53	1118.01
513.961	1142.7
514.391	1177.87
514.822	1214.58
515.253	1252.6
515.684	1282.18
516.114	1316.77
516.545	1341.92
516.975	1371.82
517.406	1392.1
517.836	1399.81
518.267	1410.95
518.697	1432.36
519.127	1439.96
519.558	1450.63
519.988	1458.45
520.418	1472.29
520.848	1491.28
521.278	1503.12
521.708	1521.34
522.138	1538.11
522.567	1571.49
522.997	1600.52
523.427	1618.51
523.857	1639.37
524.286	1652.23
524.716	1669.56
525.145	1691.26
525.575	1705.33
526.004	1722.2
526.433	1721.12
526.863	1724.31
527.292	1716.92
527.721	1724.27
528.15	1733.16
528.579	1735.04
529.008	1749.18
529.437	1774.64
529.866	1790.15
530.295	1809.78
530.724	1823.79
531.152	1852.91
531.581	1868.5
532.01	1888.03
532.438	1896.88
532.867	1913.3
533.295	1934.07
533.723	1940.71
534.152	1939.45
534.58	1940.82
535.008	1925.48
535.436	1928.18
535.865	1937.79
536.293	1953.69
536.721	1971.86
537.149	2000.51
537.576	2003.02
538.004	2016.53
538.432	2025.99
538.86	2025.47
539.287	2033.77
539.715	2049.11
540.143	2054.48
540.57	2051.2
540.998	2047.75
541.425	2022.48
541.852	1999.96
542.28	2000.12
542.707	1984.38
543.134	1969.59
543.561	1965.11
543.988	1956.44
544.415	1955.51
544.842	1948.05
545.269	1940.44
545.696	1942.47
546.123	1955.91
546.549	1944.93
546.976	1930.07
547.403	1928.52
547.829	1930.41
548.256	1932.79
548.682	1929.54
549.108	1920.23
549.535	1920.77
549.961	1921.55
550.387	1906.28
550.813	1900.5
551.24	1907.92
551.666	1908.65
552.092	1898.65
552.518	1889.56
552.943	1882.39
553.369	1890.59
553.795	1896.65
554.221	1896.22
554.646	1891.29
555.072	1901.53
555.498	1906.2
555.923	1915.09
556.349	1929.67
556.774	1937.27
557.199	1939.64
557.625	1944.7
558.05	1935.73
558.475	1946.47
558.9	1944.52
559.325	1936.06
559.75	1928.13
560.175	1919.73
560.6	1911.19
561.025	1908.81
561.449	1909.41
561.874	1913.29
562.299	1916.62
562.723	1923.56
563.148	1911.4
563.572	1914.43
563.997	1924.68
564.421	1931.08
564.846	1930.7
565.27	1933.6
565.694	1928.53
566.118	1939.12
566.542	1946.66
566.966	1938.04
567.39	1932.12
567.814	1919.93
568.238	1917.95
568.662	1922.07
569.086	1922.99
569.509	1930.06
569.933	1913.41
570.357	1905.5
570.78	1882.41
571.204	1867.71
571.627	1856.05
572.05	1852.87
572.474	1850.77
572.897	1837.51
573.32	1827.48
573.743	1816.41
574.166	1794.89
574.589	1793.69
575.012	1785.28
575.435	1782.25
575.858	1770.2
576.281	1758.38
576.704	1740.02
577.126	1725.46
577.549	1712.05
577.972	1699.7
578.394	1686.74
578.817	1678.4
579.239	1655.8
579.661	1639.48
580.084	1621.3
580.506	1606.54
580.928	1601.11
581.35	1588.68
581.772	1583.94
582.194	1568.59
582.616	1555.04
583.038	1539.77
583.46	1527.27
583.882	1523.41
584.303	1525.55
584.725	1520.71
585.147	1521.44
585.568	1530.11
585.99	1541.72
586.411	1546.03
586.833	1559.73
587.254	1559.36
587.675	1571.53
588.096	1582.49
588.518	1576.29
588.939	1559.27
589.36	1555.29
589.781	1544.77
590.202	1514.68
590.623	1504.08
591.043	1501.72
591.464	1488.23
591.885	1483.5
592.305	1477.13
592.726	1463.78
593.147	1465.19
593.567	1459.97
593.987	1452.11
594.408	1446.17
594.828	1444.32
595.248	1438.07
595.669	1419.5
596.089	1412.61
596.509	1406.88
596.929	1393.19
597.349	1393.98
597.769	1382.9
598.189	1376.44
598.608	1378.5
599.028	1379.65
599.448	1378.74
599.867	1366.05
600.287	1360.91
600.706	1356.11
601.126	1345.87
601.545	1344.9
601.965	1342.53
602.384	1337.35
602.803	1338.7
603.222	1332.48
603.641	1325.75
604.061	1321.92
604.48	1317.88
604.898	1324.6
605.317	1328.38
605.736	1328.99
606.155	1324.47
606.574	1314.15
606.992	1317.38
607.411	1311.5
607.829	1302.17
608.248	1297.4
608.666	1294.18
609.085	1291.86
609.503	1282.86
609.921	1274.49
610.339	1276.18
610.758	1274.19
611.176	1268.86
611.594	1258.21
612.012	1253.88
612.43	1255.55
612.847	1260.34
613.265	1258.94
613.683	1261.36
614.101	1260.87
614.518	1255.94
614.936	1243.86
615.353	1229.06
615.771	1224.8
616.188	1224.12
616.606	1220.27
617.023	1212.09
617.44	1197.43
617.857	1190.2
618.274	1180.98
618.691	1174.15
619.108	1164.89
619.525	1158.24
619.942	1162.16
620.359	1163.7
620.776	1158.66
621.192	1153.38
621.609	1150.41
622.026	1155.64
622.442	1159.83
622.859	1160.7
623.275	1153.27
623.691	1157.76
624.108	1168.34
624.524	1182.08
624.94	1181.74
625.356	1189.39
625.772	1200.22
626.188	1211.27
626.604	1211.77
627.02	1207.52
627.436	1206.28
627.852	1212.58
628.268	1223.95
628.683	1214.82
629.099	1205.96
629.514	1201.1
629.93	1205.59
630.345	1208.84
630.761	1205.07
631.176	1208.36
631.591	1204.11
632.007	1199.4
632.422	1196.35
632.837	1184.54
633.252	1181.42
633.667	1171.2
634.082	1161.09
634.497	1146.23
634.911	1127.63
635.326	1121.86
635.741	1104.33
636.155	1092.45
636.57	1090.99
636.984	1089.21
637.399	1088.72
637.813	1085.96
638.228	1082.45
638.642	1084.47
639.056	1073.02
639.47	1071.5
639.884	1062.77
640.298	1054.78
640.712	1050.49
641.126	1037.25
641.54	1026.17
641.954	1018.65
642.368	1005.2
642.781	996.48
643.195	977.9
643.609	977.62
644.022	968.86
644.436	961.41
644.849	947.79
645.262	934.59
645.676	932.55
646.089	925.76
646.502	910.52
646.915	904.26
647.328	887.16
647.741	883.39
648.154	869.08
648.567	865.81
648.98	852.9
649.393	852.77
649.805	849.19
650.218	840.43
650.631	825.9
651.043	819.54
651.456	812.59
651.868	811.48
652.28	824.31
652.693	833.93
653.105	837.51
653.517	844.68
653.929	841.53
654.341	844.8
654.753	834.55
655.165	837.51
655.577	833.58
655.989	828.08
656.401	819.41
656.813	789.18
657.224	772.21
657.636	745.69
658.047	729.62
658.459	713.08
658.87	702.99
659.282	690.7
659.693	673.43
660.104	659.68
660.515	648.06
660.926	644.02
661.338	638.96
661.749	630.17
662.159	622.07
662.57	615.65
662.981	610.25
663.392	601.5
663.803	602.76
664.213	598.85
664.624	593.21
665.035	591.79
665.445	579.38
665.855	571.86
666.266	565.22
666.676	561.01
667.086	552.49
667.497	550.72
667.907	546.31
668.317	538.88
668.727	536.29
669.137	536.3
669.547	534.44
669.956	536.24
670.366	537.04
670.776	536.82
671.186	539.35
671.595	542.08
672.005	543.35
672.414	542.41
672.824	540.53
673.233	541.79
673.642	543.41
674.052	545.54
674.461	547.59
674.87	550.14
675.279	550.31
675.688	551.17
676.097	552.24
676.506	551.51
676.915	561.41
677.323	564.15
677.732	564.79
678.141	565.3
678.549	558.96
678.958	558.8
679.366	559.99
679.775	564.36
680.183	574.7
680.592	580.14
681	585.14
681.408	583.29
681.816	591.7
682.224	600.27
682.632	611.06
683.04	635.44
683.448	656.95
683.856	684.12
684.264	714.19
684.671	742.04
685.079	777.92
685.487	818.31
685.894	872.02
686.302	917.75
686.709	957.41
687.116	1003.52
687.524	1046.26
687.931	1083.28
688.338	1115.57
688.745	1146.07
689.152	1180.43
689.559	1225.62
689.966	1268.74
690.373	1295.48
690.78	1338.59
691.187	1401.47
691.593	1451.52
692	1495.81
692.407	1558.64
692.813	1634.51
693.22	1699.12
693.626	1765.73
694.032	1819.38
694.439	1900.29
694.845	1964.05
695.251	2041.84
695.657	2112.9
696.063	2215.86
696.469	2293.91
696.875	2368.25
697.281	2414.94
697.687	2466.66
698.093	2511.38
698.498	2592.72
698.904	2654.73
699.31	2747.88
699.715	2816.91
700.12	2912.69
700.526	2936.44
700.931	3012.88
701.337	3070.61
701.742	3110.38
702.147	3199.43
702.552	3235.63
702.957	3301.25
703.362	3327.97
703.767	3359.81
704.172	3406.29
704.577	3364.52
704.981	3417.41
705.386	3438.23
705.791	3436.89
706.195	3518.55
706.6	3534.44
707.004	3620.91
707.408	3593.43
707.813	3626.01
708.217	3620.32
708.621	3628.24
709.025	3732.03
709.43	3738.52
709.834	3804.96
710.237	3880.27
710.641	3866.31
711.045	3892.33
711.449	3890.34
711.853	3924.24
712.256	3969.45
712.66	4011.32
713.064	4091.9
713.467	4139.14
713.87	4258.53
714.274	4307.49
714.677	4424.48
715.08	4596.39
715.484	4776.97
715.887	4989.23
716.29	5198.91
716.693	5420.6
717.096	5674.93
717.499	5813.57
717.901	5839.54
718.304	5870.16
718.707	5900.74
719.109	5795.37
719.512	5765.09
719.915	5622.45
720.317	5566.34
720.719	5614.94
721.122	5586.34
721.524	5535.4
721.926	5492.93
722.328	5604.9
722.731	5596.82
723.133	5626.21
723.535	5832.75
723.937	5854.72
724.338	5910.22
724.74	5954.39
725.142	5873.95
725.544	5872.6
725.945	5899.84
726.347	5897.9
726.748	5891.34
727.15	5905.29
727.551	5868.55
727.952	5839.86
728.354	5810.92
728.755	5811.97
729.156	5769.56
729.557	5770.3
729.958	5643.95
730.359	5587.03
730.76	5567.22
731.161	5503.17
731.562	5480.13
731.962	5482.71
732.363	5413.76
732.763	5348.53
733.164	5389.46
733.564	5319.91
733.965	5221.34
734.365	5184.44
734.766	5218.7
735.166	5179.59
735.566	5124.62
735.966	5094.6
736.366	5091.13
736.766	5028.7
737.166	5061.86
737.566	5018.45
737.966	4991.7
738.365	5033.11
738.765	5027.47
739.165	4945.42
739.564	4918.9
739.964	4964.22
740.363	4918.05
740.763	4914.74
741.162	4902.3
741.561	4870.94
741.96	4821.25
742.36	4841.47
742.759	4847.04
743.158	4888.29
743.557	4905.1
743.955	4946.83
744.354	4900.01
744.753	4959.88
745.152	4916.76
745.55	4975.38
745.949	4967.62
746.348	4968.68
746.746	4987.19
747.144	4945.67
747.543	4919.63
747.941	4971.84
748.339	4897.52
748.737	4889.91
749.136	4879.3
749.534	4948.46
749.932	4916.3
750.33	4941.07
750.727	5000.17
751.125	4974.34
751.523	4958.62
751.921	5003.28
752.318	4966.63
752.716	5027.28
753.113	5040.72
753.511	5067.78
753.908	5066.33
754.305	5048.88
754.703	5110.62
755.1	5173.85
755.497	5235.87
755.894	5432.08
756.291	5622.2
756.688	5964.23
757.085	6421.9
757.482	7064.55
757.878	7766.78
758.275	8398.7
758.672	9274.36
759.068	9988.2
759.465	11002.99
759.861	12312.07
760.258	13832.98
760.654	14607.16
761.05	14490.03
761.447	13821.85
761.843	12869.85
762.239	11887.66
762.635	11446.33
763.031	11022.04
763.427	10408.27
763.822	9762.93
764.218	9122.12
764.614	8289.19
765.01	7735.87
765.405	7376.73
765.801	7107.18
766.196	6758.52
766.592	6561.84
766.987	6235.25
767.382	6008.91
767.778	5914.51
768.173	5777.63
768.568	5703.55
768.963	5576.44
769.358	5593.43
769.753	5543.86
770.148	5455.19
770.542	5455.5
770.937	5424.95
771.332	5520.15
771.726	5542.46
772.121	5476.8
772.515	5533.16
772.91	5517.61
773.304	5591.53
773.699	5525.11
774.093	5581.62
774.487	5641.8
774.881	5686.62
775.275	5680.04
775.669	5634.69
776.063	5680.35
776.457	5716.97
776.851	5638.6
777.245	5631.33
777.638	5666.52
778.032	5788.33
778.425	5753.26
778.819	5796.87
779.212	5752.25
779.606	5711.1
779.999	5731.18
780.392	5712.44
780.786	5799.57
781.179	5822.14
781.572	5865.95
781.965	5875.31
782.358	5813.47
782.751	5872.14
783.143	5821.46
783.536	5895.66
783.929	5940.58
784.322	6057.67
784.714	6092.04
785.107	6084.28
785.499	6157.09
785.891	6133.02
786.284	6115
786.676	6262.44
787.068	6242.04
787.46	6294.54
787.852	6315.58
788.245	6405.27
788.636	6435.38
789.028	6502.96
789.42	6543.74
789.812	6554.5
790.204	6654.73
790.595	6756.52
790.987	6549.23
791.378	6567.27
791.77	6701.65
792.161	6842.26
792.553	6894.7
792.944	6780.77
793.335	6706.21
793.726	6781.79
794.117	6875.09
794.508	7014.07
794.899	6979.28
795.29	7124.69
795.681	7184.22
796.072	7035.31
796.463	6836.32
796.853	6846.4
797.244	7007.17
797.634	7042.61
798.025	7041.42
798.415	7051.94
798.806	7143.39
799.196	7234.23
799.586	7285.61
799.976	7245.24
800.366	7483.66
800.756	7736.42
801.146	7696.05
801.536	7726.28
801.926	7803.78
802.316	7830.44
802.706	7908.97
803.095	7785.44
803.485	7889.64
803.874	7934.66
804.264	8205.22
804.653	8177.43
805.043	8329.21
805.432	8440.53
805.821	8441.79
806.21	8463.81
806.599	8582.21
806.988	8624.67
807.377	8732.52
807.766	8867.55
808.155	9154.65
808.544	8881.81
808.933	8894.31
809.321	8875.04
809.71	9185.07
810.098	9346.86
810.487	9820.84
810.875	10319.73
811.264	10342.78
811.652	10639.62
812.04	10784.57
812.428	10956.52
812.816	11744.81
813.204	12173.6
813.592	12737.65
813.98	13077.02
814.368	12977.8
814.756	13472.59
815.144	13382
815.531	13857.91
815.919	13775.1
816.306	14087.3
816.694	13764.66
817.081	13816.33
817.469	14167.25
817.856	14160.45
818.243	14434.32
818.63	14840.51
819.017	14405.73
819.404	14474.91
819.791	14857.42
820.178	15495.26
820.565	15751.98
820.952	16713.13
821.339	16208.56
821.725	16400.05
822.112	15633.74
822.498	15594.89
822.885	15726.06
823.271	15631.61
823.657	16064
824.044	16078.9
824.43	16156.51
824.816	16127.84
825.202	15681.38
825.588	16725.4
825.974	16742.16
826.36	17272.84
826.746	17311.27
827.132	17677.41
827.517	17651.1
827.903	16842.22
828.289	16877.26
828.674	16070.13
829.06	15961.36
829.445	16365.11
829.83	16723.61
830.216	17214.45
830.601	17591.26
830.986	17168.58
831.371	17025.83
831.756	17592.18
832.141	17150.59
832.526	17144.74
832.911	17439.69
833.295	17323.41
833.68	17807.63
834.065	17180.57
834.449	16247.39
834.834	16173.89
835.218	16169.53
835.603	16527.72
835.987	16320.82
836.371	17178.21
836.755	17073.06
837.139	17491.32
837.524	17742.96
837.908	17560.84
838.291	17622.38
838.675	17694.91
839.059	17916
839.443	17908.63
839.827	17670.12
840.21	18165.51
840.594	18013.49
840.977	18229.96
841.361	18202.2
841.744	18592.53
842.127	18431.74
842.511	18687.59
842.894	19307.58
843.277	19697.03
843.66	20262.65
844.043	20348.18
844.426	19515.19
844.809	19204.77
845.191	19241.14
845.574	18780.82
845.957	18402.07
846.339	18295.8
846.722	17758.22
847.104	17823.57
847.487	17644.6
847.869	17652.85
848.252	17940.12
848.634	18284.43
849.016	18551.53
849.398	18678.91
849.78	19551.11
850.162	19558.6
850.544	19987.09
850.926	20632.14
851.307	20546.77
851.689	20833.97
852.071	21298.98
852.452	21635.58
852.834	21613.7
853.215	22011.91
853.597	22166.58
853.978	22466.26
854.359	22932.23
854.741	21900.93
855.122	21793.19
855.503	21489.21
855.884	21622.02
856.265	21553.45
856.646	21670.67
857.026	21258.25
857.407	21201.02
857.788	21359.55
858.169	21651.07
858.549	20779.02
858.93	21426.95
859.31	21478.18
859.69	21689.07
860.071	21281.22
860.451	21058.18
860.831	20294.62
861.211	21486.74
861.591	22050.09
861.971	22034.59
862.351	22230.31
862.731	22632.14
863.111	22899.95
863.491	23245.19
863.87	24143.41
864.25	24498.82
864.629	24082.79
865.009	24615.73
865.388	25499.59
865.768	27323.59
866.147	27204.49
866.526	25689.82
866.905	25995.25
867.284	27444.46
867.663	26043.95
868.042	24964.6
868.421	24878.74
868.8	25301.37
869.179	25545.6
869.558	24054.05
869.936	22166.77
870.315	22562.54
870.693	23115.83
871.072	24914.01
871.45	23734.26
871.828	24034.12
872.207	25267.56
872.585	24892.15
872.963	25569.41
873.341	24682.2
873.719	24383.64
874.097	24097.18
874.475	24569.08
874.853	25130.82
875.23	24095.07
875.608	25113.18
875.986	27174.62
876.363	25994.66
876.741	26786.23
877.118	26122.92
877.495	27410.63
877.873	27869.6
878.25	29327.52
878.627	28126.33
879.004	28525.65
879.381	28385.41
879.758	27641.13
880.135	25743.74
880.512	27220.01
880.889	26500.58
881.265	26213.3
881.642	26006.54
882.019	26444.17
882.395	25912.49
882.772	26934.49
883.148	25764.36
883.524	25665.65
883.901	25512.07
884.277	25889.48
884.653	25726.52
885.029	26460.65
885.405	29306.46
885.781	29076.32
886.157	27891.16
886.532	28228.93
886.908	28217.97
887.284	31376.95
887.659	32411.41
888.035	33425.34
888.411	34300.05
888.786	34753.01
889.161	35968.1
889.537	35300.08
889.912	36419.22
890.287	36370.92
890.662	37306.07
891.037	36628.94
891.412	34157.3
891.787	33812.95
892.162	32633.32
892.536	33395.47
892.911	32141.67
893.286	31469.45
893.66	30198.71
894.035	30970.65
894.409	33735.34
894.784	32380.04
895.158	32906.61
895.532	34862.61
895.906	35805.18
896.281	36642.28
896.655	36046.67
897.029	41201.82
897.402	42889.31
897.776	47758.88
898.15	47621.31
898.524	47102.22
898.898	47718.95
899.271	53435.22
899.645	46273.81
900.018	44452.22
900.392	46089.77
900.765	46471.41
901.138	42984.99
901.511	42343.4
901.884	38867.97
902.258	35811.38
902.631	37006.74
903.003	42602.9
903.376	38451.46
903.749	43117.56
904.122	46160.86
904.495	50839.42
904.867	51459.49
905.24	44675.39
905.612	41592.85
905.985	42529.12
906.357	44486.27
906.729	42463.35
907.102	36262.72
907.474	34859.17
907.846	35072.88
908.218	34604.01
908.59	30562.28
908.962	29567.81
909.334	31827.06
909.705	33424.52
910.077	32449.68
910.449	33778.44
910.82	34704.6
911.192	38160.06
911.563	39631.27
911.935	42427.08
912.306	42453.95
912.677	43849.72
913.048	43404.1
913.419	47099.38
913.79	47349.98
914.161	50797.27
914.532	48547.47
914.903	44614.37
915.274	42381.11
915.645	41771.01
916.015	36754.82
916.386	35046.31
916.756	37298.7
917.127	38464.64
917.497	34355.14
917.868	37381.19
918.238	35506.93
918.608	36513.54
918.978	37260.14
919.348	39474.24
919.718	40791.26
920.088	39286.58
920.458	40809.31
920.828	42933.31
921.198	40705.66
921.567	43494.2
921.937	33704.87
922.306	34030.07
922.676	36713.43
923.045	30653.97
923.415	29109.13
923.784	26512.49
924.153	27259.42
924.522	27240.28
924.891	25610.63
925.26	27416.44
925.629	26769.71
925.998	30770.71
926.367	30041.94
926.736	28614.38
927.104	34071.89
927.473	36628.46
927.842	44224.88
928.21	43819.26
928.578	46063.85
928.947	43556.23
929.315	43834.6
929.683	51401.37
930.051	51779.6
930.42	60163.09
930.788	51407.61
931.156	51024.75
931.523	47861.59
931.891	44237.84
932.259	42464.02
932.627	49213.19
932.994	69671.7
933.362	57579.82
933.729	50033.27
934.097	47911.29
934.464	40499.95
934.831	46756.7
935.199	46063.46
935.566	44644.62
935.933	45214.34
936.3	54777.71
936.667	42666.08
937.034	38472.08
937.401	38075.17
937.767	32860.51
938.134	29253.37
938.501	41263.39
938.867	43943.64
939.234	74286.3
939.6	63405.13
939.967	69991.82
940.333	46868.22
940.699	39904.12
941.065	32024.33
941.431	41994.07
941.798	40476.39
942.163	53172.87
942.529	33211.77
942.895	30559.75
943.261	19793.16
943.627	25968.25
943.992	22720.7
944.358	22779.12
944.723	22835.67
945.089	22244.38
945.454	20537.43
945.82	21955.97
946.185	21095.43
946.55	24475.17
946.915	21958.01
947.28	25742.11
947.645	22644.63
948.01	20896.73
948.375	21773.06
948.74	26123.95
949.104	30538.37
949.469	44165.04
949.834	77955.38
950.198	73984.65
950.562	44293.24
950.927	36925.75
951.291	44438.15
951.655	37888.26
952.02	35561.91
952.384	26901.98
952.748	23394.69
953.112	22778.48
953.476	19794.18
953.839	18318.7
954.203	18128.24
954.567	22668.5
954.931	35705.81
955.294	30536.84
955.658	30713.77
956.021	52205.56
956.385	88457.9
956.748	130721.13
957.111	202790.9
957.474	227652.06
957.837	256301.18
958.2	193895.53
958.563	69820.95
958.926	47220.82
959.289	71756.92
959.652	80225.84
960.015	60274.64
960.377	86450.8
960.74	98555.15
961.102	170201.07
961.465	182608.72
961.827	97694.2
962.189	187431.01
962.552	129998.58
962.914	104186.48
963.276	67554.99
963.638	55801.37
964	55282.07
964.362	37390.39
964.724	36178.78
965.085	25801.54
965.447	21176.01
965.809	24171.76
966.17	24221.61
966.532	26168.43
966.893	24022.36
967.255	21866.37
967.616	25801.35
967.977	20665.29
968.338	22581.11
968.699	18548.89
969.061	18552.22
969.421	18653.81
969.782	20937.48
970.143	17668.02
970.504	18290.8
970.865	20782.65
971.225	21215.55
971.586	20770.6
971.946	29568.87
972.307	25652.13
972.667	33518.77
973.027	34524.8
973.388	41874.6
973.748	28428.86
974.108	30972.4
974.468	42019.22
974.828	32423.78
975.188	24975.11
975.548	22941.2
975.907	19274.77
976.267	21631.84
976.627	18188.49
976.986	18826.37
977.346	17970.71
977.705	17314.22
978.064	15765.09
978.424	13094.76
978.783	13537.63
979.142	15471.47
979.501	14796.47
979.86	15640.08
980.219	15063.94
980.578	19400.04
980.937	21763.12
981.296	19383.02
981.654	19920.4
982.013	30977.85
982.371	40264.85
982.73	37642.83
983.088	42576.45
983.447	45469.32
983.805	65003.41
984.163	135866.38
984.521	151015.49
984.879	221293.8
985.237	-359986.09
985.595	347096.63
985.953	86297.16
986.311	49809.54
986.669	28905.58
987.026	24937.67
987.384	33519.57
987.741	34641.95
988.099	24735.99
988.456	19711
988.814	18438.72
989.171	16040.1
989.528	15843.67
989.885	16721.78
990.242	13229.64
990.599	16473.58
990.956	13474.97
991.313	9433.64
991.67	7736.42
992.027	8194.74
992.383	7273.95
992.74	6374.2
993.096	6680.83
993.453	6926.3
993.809	7187.57
994.165	9583.68
994.522	8766.08
994.878	9682.23
995.234	12142.57
995.59	11984.36
995.946	11355.75
996.302	12962.19
996.658	15021.2
997.013	16543.48
997.369	19608.89
997.725	25085.86
998.08	16230.58
998.436	25045.45
998.791	34464.54
999.147	34404.98
999.502	37523.92
999.857	27288.2
1000.212	44446.6
1000.567	63158.8
1000.922	36458.66
1001.277	23115.38
1001.632	17143.11
1001.987	22082.72
1002.342	15841.07
1002.696	12657.18
1003.051	10095.17
1003.406	12233.14
1003.76	12172.56
1004.114	12045.2
1004.469	10129.7
1004.823	8373.62
1005.177	9053.49
1005.531	7182.2
1005.885	6370.18
1006.239	7198.95
1006.593	9033.47
1006.947	12107.17
1007.301	9081.38
1007.655	9884.29
1008.008	7242.72
1008.362	8128.54
1008.715	11611.3
1009.069	10529.25
1009.422	15813.2
1009.776	31735.32
1010.129	21000.33
1010.482	17568.64
1010.835	14848.46
1011.188	30920.41
1011.541	29243.73
1011.894	-178045.62
1012.247	523859.38
1012.6	35732.2
1012.952	22511.19
1013.305	11644.96
1013.657	8382.55
1014.01	7950.51
1014.362	6560.75
1014.715	5820.47
1015.067	5057.96
1015.419	4926.34
1015.771	4374.89
1016.123	3900.34
1016.475	4007.91
1016.827	4282.39
1017.179	4593.78
1017.531	4632.09
1017.883	4730.06
1018.234	4557.74
1018.586	5748.82
1018.938	6090.88
1019.289	8431.24
1019.64	9676.84
1019.992	9012.2
1020.343	8238.57
1020.694	6509.76
1021.045	5739.88
1021.396	6560.61
1021.747	7039.06
1022.098	8471.43
1022.449	6137.48
1022.8	5713.35
1023.151	3951.99
1023.501	3485.95
1023.852	3800.85
1024.202	3937.65
1024.553	4333.54
1024.903	4219.17
1025.253	3601.22
1025.604	3250.95
1025.954	4024.45
1026.304	4923.21
1026.654	5712.84
1027.004	8414.26
1027.354	13685.99
1027.703	12815.21
1028.053	16843.23
1028.403	24377.46
1028.753	35630.7
1029.102	48429.56
1029.452	247305.71
1029.801	10645.55
1030.15	6859.89
1030.499	5831.74
897.758	2206.73
901.051	2142.02
904.343	2174.64
907.636	2181.76
910.928	2243.42
914.22	2163.7
917.511	2167.79
920.803	2217.11
924.094	2216.05
927.384	2218.78
930.675	2180.62
933.965	2143.4
937.255	2171.01
940.544	2139.33
943.834	2139.87
947.123	2079.2
950.411	2169.29
953.7	2149.96
956.988	2133.58
960.276	2068.27
963.563	2118.32
966.851	2130
970.138	2172.63
973.424	2175.43
976.711	2127.3
979.997	2174.87
983.283	2219.42
986.568	2147.78
989.853	2138.77
993.138	2165.87
996.423	2253.51
999.708	2209.92
1002.992	2240.37
1006.275	2156.25
1009.559	2160.42
1012.842	2262.4
1016.125	2213.45
1019.408	2194.9
1022.69	2249.96
1025.972	2285.93
1029.254	2260.27
1032.536	2220.54
1035.817	2234.29
1039.098	2201.21
1042.379	2254.4
1045.659	2281.21
1048.939	2229.34
1052.219	2237.63
1055.498	2232.08
1058.778	2230.19
1062.057	2205.3
1065.335	2229.69
1068.614	2239.56
1071.892	2232.66
1075.17	2292.63
1078.447	2291.53
1081.724	2288.69
1085.001	2313.43
1088.278	2295
1091.554	2299.33
1094.83	2295.95
1098.106	2332.28
1101.382	2362.39
1104.657	2363.91
1107.932	2365.84
1111.206	2340.2
1114.481	2294.85
1117.755	2294.16
1121.029	2288.34
1124.302	2345.66
1127.575	2311.89
1130.848	2307.3
1134.121	2276.43
1137.393	2240.28
1140.665	2298.07
1143.937	2274.84
1147.208	2223.66
1150.48	2281.52
1153.75	2270.2
1157.021	2274.01
1160.291	2250.17
1163.561	2306.53
1166.831	2274.47
1170.101	2301.95
1173.37	2260.87
1176.639	2219.48
1179.907	2263.67
1183.176	2287.45
1186.444	2289.61
1189.711	2314.39
1192.979	2335.11
1196.246	2294.35
1199.513	2302.61
1202.78	2308.07
1206.046	2316.84
1209.312	2345.59
1212.578	2363.88
1215.843	2330.98
1219.108	2298.73
1222.373	2321.98
1225.638	2295.39
1228.902	2287.46
1232.166	2241.35
1235.43	2231.5
1238.693	2258.01
1241.956	2249.84
1245.219	2296.98
1248.482	2278.78
1251.744	2276.83
1255.006	2400.08
1258.268	2346.5
1261.529	2301.65
1264.79	2303.37
1268.051	2402.08
1271.312	2412.9
1274.572	2379.77
1277.832	2370.37
1281.092	2350.53
1284.351	2341.71
1287.61	2325.33
1290.869	2260.52
1294.128	2256.85
1297.386	2308.17
1300.644	2300.57
1303.902	2310.93
1307.159	2177.22
1310.416	2231.08
1313.673	2258.75
1316.93	2255.54
1320.186	2286.51
1323.442	2321.02
1326.697	2321.92
1329.953	2295.95
1333.208	2331.09
1336.463	2304.68
1339.717	2264.26
1342.972	2370.93
1346.226	2342.71
1349.479	2289.27
1352.733	2272.5
1355.986	2277.31
1359.238	2257.76
1362.491	2263.6
1365.743	2262.47
1368.995	2254.51
1372.247	2267.06
1375.498	2286.41
1378.749	2329.3
1382	2277.99
1385.251	2315.05
1388.501	2266.73
1391.751	2267.74
1395	2234.97
1398.25	2260.16
1401.499	2282.5
1404.748	2231.12
1407.996	2208.86
1411.244	2198.52
1414.492	2182.83
1417.74	2169.85
1420.987	2173.35
1424.234	2232.81
1427.481	2197.27
1430.728	2253.44
1433.974	2226.6
1437.22	2226.81
1440.465	2223.65
1443.711	2223
1446.956	2247.4
1450.201	2220.47
1453.445	2259.95
1456.689	2251.33
1459.933	2262.59
1463.177	2302
1466.42	2274.41
1469.663	2259.58
1472.906	2273.72
1476.148	2323.62
1479.391	2296.88
1482.633	2272.23
1485.874	2297.85
1489.115	2305.44
1492.356	2288.49
1495.597	2268.95
1498.838	2262.33
1502.078	2248.13
1505.318	2218.78
1508.557	2254.71
1511.797	2250.33
1515.036	2296.92
1518.274	2269.05
1521.513	2220.33
1524.751	2233.88
1527.989	2258.64
1531.227	2274.65
1534.464	2289.3
1537.701	2283.9
1540.938	2297.52
1544.174	2245.15
1547.41	2236.18
1550.646	2273.63
1553.882	2324.88
1557.117	2381.74
1560.352	2389.89
1563.587	2351.36
1566.821	2318.73
1570.055	2335.17
1573.289	2317.22
1576.523	2374.83
1579.756	2390.52
1582.989	2411.29
1586.222	2370.17
1589.454	2400.86
1592.686	2385.82
1595.918	2413.07
1599.15	2412.84
1602.381	2457.69
1605.612	2437.04
1608.843	2530.98
1612.073	2452.03
1615.303	2440.69
1618.533	2439.33
1621.762	2438.88
1624.992	2410.52
1628.221	2413.97
1631.449	2401.62
1634.678	2429.71
1637.906	2397.08
1641.134	2425.39
1644.361	2390.21
1647.588	2381.91
1650.815	2401.76
1654.042	2363.05
1657.269	2392.88
1660.495	2372.37
1663.72	2357.78
1666.946	2326.51
1670.171	2296.3
1673.396	2271.63
1676.621	2254.52
1679.845	2250.42
1683.069	2257.05
1686.293	2287.92
1689.517	2280.9
1692.74	2229.14
1695.963	2250.1
1699.185	2290.73
1702.408	2263.08
1705.63	2292.34
1708.852	2310.61
1712.073	2280.56
1715.294	2291.13
1718.515	2334.78
1721.736	2293.67
1724.956	2270.57
1728.176	2293.78
1731.396	2317.54
1734.616	2302.86
1737.835	2339.98
1741.054	2311.12
1744.272	2301.05
1747.491	2341.85
1750.709	2366.37
1753.927	2313.59
1757.144	2339.38
1760.361	2398.36
1763.578	2373.7
1766.795	2322.24
1770.011	2311.43
1773.227	2337.42
1776.443	2380.41
1779.658	2425.51
1782.874	2361.16
1786.089	2354.88
1789.303	2357.19
1792.518	2354.22
1795.732	2341.45
1798.945	2354.2
1802.159	2397.1
1805.372	2337.37
1808.585	2330.34
1811.797	2330.62
1815.01	2352.12
1818.222	2376.01
1821.434	2335.9
1824.645	2379.57
1827.856	2386.88
1831.067	2416.09
1834.278	2355.2
1837.488	2337.06
1840.698	2460.89
1843.908	2400.95
1847.117	2369.43
1850.326	2292.81
1853.535	2356.45
1856.744	2386.02
1859.952	2309.49
1863.16	2310.25
1866.368	2325.08
1869.575	2438.78
1872.782	2319.52
1875.989	2252.66
1879.196	2304.11
1882.402	2293.63
1885.608	2325.83
1888.814	2262.66
1892.019	2171.74
1895.224	2218.64
1898.429	2185.61
1901.634	2168.21
1904.838	2140.81
1908.042	2197.37
1911.246	2208.2
1914.449	2167.88
1917.652	2151
1920.855	2133.02
1924.058	2157.38
1927.26	2200.98
1930.462	2223.7
1933.664	2261.39
1936.865	2203.23
1940.066	2221.47
1943.267	2164.68
1946.467	2176.47
1949.668	2194.11
1952.868	2264.16
1956.067	2252.72
1959.267	2193.9
1962.466	2217.94
1965.665	2200.89
1968.863	2194.77
1972.061	2199.56
1975.259	2189.37
1978.457	2267.04
1981.654	2226.07
1984.852	2231.34
1988.048	2183.16
1991.245	2173.35
1994.441	2262.01
1997.637	2221.04
2000.833	2204.79
2004.028	2240.99
2007.223	2301.53
2010.418	2291.94
2013.613	2242.75
2016.807	2236.29
2020.001	2231.71
2023.194	2253.01
2026.388	2237.17
2029.581	2185.05
2032.774	2247.07
2035.966	2257.5
2039.158	2202.53
2042.35	2220.99
2045.542	2149.71
2048.733	2231.61
2051.924	2224.69
2055.115	2242.72
2058.306	2207.71
2061.496	2262.47
2064.686	2307.65
2067.875	2214.56
2071.065	2217.89
2074.254	2237.72
2077.442	2192.48
2080.631	2274.25
2083.819	2204.38
2087.007	2198.29
2090.195	2178.81
2093.382	2196.13
2096.569	2180.23
2099.756	2143.02
2102.942	2191.31
2106.128	2204.14
2109.314	2191.24
2112.5	2178.59
2115.685	2144.99
2118.87	2152.42
2122.055	2213.03
2125.239	2193.07
2128.424	2180.7
2131.608	2243.58
2134.791	2227.88
2137.974	2264.91
2141.157	2254.04
2144.34	2224.94
2147.523	2216.39
2150.705	2242.63
2153.887	2211.27
2157.068	2182.02
2160.25	2164.64
2163.431	2187.89
2166.611	2155.56
2169.792	2177.21
2172.972	2088.74
2176.152	2139.54
2179.331	2168.61
2182.511	2170.19
2185.69	2190.68
2188.868	2197.07
2192.047	2231.18
2195.225	2245.98
2198.403	2195.02
2201.58	2178.98
2204.758	2164.86
2207.935	2239.01
2211.111	2154.91
2214.288	2142.49
2217.464	2177.52
2220.64	2135.05
2223.815	2183.53
2226.991	2115.93
2230.166	2132.15
2233.34	2175.36
2236.515	2188.04
2239.689	2253.85
2242.863	2203.77
2246.036	2257.47
2249.209	2241.3
2252.382	2258.1
2255.555	2269.25
2258.727	2216.93
2261.9	2246.78
2265.071	2238.34
2268.243	2232.79
2271.414	2184.54
2274.585	2166.09
2277.756	2227.3
2280.926	2182.31
2284.096	2211.11
2287.266	2143.27
2290.436	2187.19
2293.605	2208.53
2296.774	2244.67
2299.942	2249.27
2303.111	2268.23
2306.279	2318.3
2309.447	2300.82
2312.614	2272.82
2315.781	2299.13
2318.948	2273.95
2322.115	2309.7
2325.281	2211.63
2328.447	2219.16
2331.613	2190.03
2334.779	2181.69
2337.944	2173.82
2341.109	2174.81
2344.274	2166.91
2347.438	2133.3
2350.602	2153.06
2353.766	2165.64
2356.929	2154.27
2360.092	2188.65
2363.255	2158.16
2366.418	2123.63
2369.58	2192.33
2372.742	2066.27
2375.904	2061.63
2379.066	2044.87
2382.227	2070.78
2385.388	2033.03
2388.548	1981.52
2391.709	2023.07
2394.869	2014.28
2398.029	2069.38
2401.188	2066.53
2404.347	2027.74
2407.506	2107.52
2410.665	2145.21
2413.823	2132
2416.981	2110.58
2420.139	2126.42
2423.296	2168.2
2426.453	2141.56
2429.61	2162.71
2432.767	2133.29
2435.923	2172.8
2439.079	2121.73
2442.235	2157.7
2445.391	2097.35
2448.546	2139.54
2451.701	2173.62
2454.855	2169.48
2458.009	2199.54
2461.163	2189.11
2464.317	2157.86
2467.471	2185.06
2470.624	2214.03
2473.777	2199.93
2476.929	2214.24
2480.082	2241.54
2483.234	2214.15
2486.385	2154.86
2489.537	2149.61
2492.688	2137.45
2495.839	2152.55
2498.989	2169.84
2502.14	2154.06
2505.29	2147.36
2508.439	2171.63
2511.589	2113.03
2514.738	2110.5
2517.887	2133.99
2521.035	2212.19
2524.183	2170.98
2527.331	2158.1
2530.479	2152.52
2533.627	2153.57
