Data from C_1_DIV_OH_2N_Splice17_11-49-56-716.txt Node
Date: Sat Mar 14 11:49:56 EDT 2020
User: sa697716
Spectrometer: FLMS03696
Trigger mode: 0
Integration Time (sec): 3.180400E-1
Scans to average: 20
Electric dark correction enabled: true
Nonlinearity correction enabled: true
Boxcar width: 5
XAxis mode: Wavelengths
Number of Pixels in Spectrum: 2048
>>>>>Begin Spectral Data<<<<<
187.83	-250306.17
188.298	1855.52
188.766	921.42
189.233	786.24
189.701	1091.08
190.169	1494
190.636	551.09
191.104	398.26
191.571	20.69
192.039	-78.5
192.506	-138.72
192.974	261.68
193.441	-392.01
193.908	-237.39
194.375	-110.64
194.842	-89.72
195.31	-51.39
195.777	83.16
196.244	263.23
196.711	437.18
197.177	568.9
197.644	840.7
198.111	1492.91
198.578	2122.72
199.045	1741.29
199.511	2878.18
199.978	3381.72
200.445	2868.93
200.911	3205.15
201.378	3618
201.844	3267.84
202.31	5666.83
202.777	5927.41
203.243	3278.87
203.709	3134.95
204.176	3700.98
204.642	3063.22
205.108	2874.41
205.574	2371.09
206.04	2180.89
206.506	2068.01
206.972	1967.21
207.438	1912.75
207.903	2186.25
208.369	1943.46
208.835	1931.95
209.301	2045.93
209.766	2112.06
210.232	2092.86
210.697	2592.63
211.163	3230.52
211.628	4889.51
212.094	4120.67
212.559	5056.21
213.024	3164.96
213.49	3846.08
213.955	3792.12
214.42	3752.2
214.885	3505.18
215.35	3380.58
215.815	3250.8
216.28	3471.74
216.745	2860.57
217.21	3151.52
217.675	2959.71
218.14	3405.99
218.604	3919.89
219.069	4600.08
219.534	4923.99
219.998	5873.35
220.463	7296.72
220.927	9217.66
221.392	8832.43
221.856	9056.78
222.32	11581.93
222.785	14420.73
223.249	18335.47
223.713	20588.71
224.177	20699.25
224.642	26744.08
225.106	33062.58
225.57	36245.95
226.034	26967.69
226.497	41124.03
226.961	37201.71
227.425	43343.22
227.889	48333.69
228.353	48416.35
228.816	100322.66
229.28	96053.4
229.744	81110.43
230.207	49323.93
230.671	48602.89
231.134	80670.2
231.597	93050.5
232.061	93265.47
232.524	91073.2
232.987	62681.33
233.45	56376.5
233.914	50600.19
234.377	51961.8
234.84	47605.7
235.303	56166.78
235.766	62740.11
236.229	64841.46
236.691	40902.2
237.154	45967.78
237.617	34552.75
238.08	35426.12
238.542	41529.62
239.005	29671.08
239.468	29447.88
239.93	27743.85
240.393	25222.89
240.855	22117.67
241.317	22664.63
241.78	27572.56
242.242	28501.32
242.704	30769.09
243.166	26782.03
243.629	24259
244.091	27941.5
244.553	30607.62
245.015	32884.13
245.477	42579.63
245.939	62471.2
246.4	66275.59
246.862	64448.83
247.324	60782.9
247.786	68093.47
248.247	89318.16
248.709	92448.6
249.17	69164.9
249.632	65108
250.093	75445.5
250.555	65065.88
251.016	39641.92
251.477	37615.16
251.939	40561.4
252.4	42543.52
252.861	50596.11
253.322	47046.96
253.783	56009.46
254.244	72629.36
254.705	57297.25
255.166	50987.15
255.627	50212.98
256.088	70789.67
256.549	75182.06
257.009	64788.63
257.47	78674.65
257.931	64081.45
258.391	47979.49
258.852	49442.74
259.312	51875.49
259.773	64124.84
260.233	54134.36
260.694	45641.73
261.154	51788.37
261.614	41498.93
262.074	37150.73
262.534	38563.55
262.994	36342.21
263.455	48465.46
263.915	40833.24
264.374	38486.21
264.834	42023.8
265.294	46632.32
265.754	48289.39
266.214	45757.08
266.673	42922.86
267.133	54160.21
267.593	53799
268.052	65815.58
268.512	57245.7
268.971	68951.41
269.431	75595.88
269.89	67697.96
270.349	101475.7
270.809	113227.33
271.268	101772.4
271.727	228357.03
272.186	147894.18
272.645	110836.26
273.104	80017.61
273.563	115809.52
274.022	91196.36
274.481	77520.9
274.94	59683.18
275.399	44399.37
275.857	51696.3
276.316	69905.39
276.775	62199.55
277.233	61211.48
277.692	57247.65
278.15	64706.14
278.609	66541.83
279.067	61539.57
279.525	57117.83
279.984	73735.36
280.442	88516.81
280.9	87132.75
281.358	57286.67
281.816	53315.22
282.274	52190.1
282.732	53951.59
283.19	54222.77
283.648	46769.25
284.106	49780.33
284.564	50622.26
285.021	46917.14
285.479	34903.22
285.937	31770.99
286.394	27833.82
286.852	28648.4
287.309	30073.95
287.767	28970.96
288.224	27504.76
288.682	30161.17
289.139	33075.26
289.596	30229.61
290.053	31385.8
290.511	39634.89
290.968	48021.8
291.425	65187.47
291.882	54149.61
292.339	47058.64
292.796	46736.72
293.252	44024.56
293.709	34917.93
294.166	31297.27
294.623	34569.27
295.079	33192.41
295.536	33304.35
295.992	30224.28
296.449	29869.16
296.905	31037.87
297.362	29753.12
297.818	31299.41
298.274	32457.69
298.731	33084.39
299.187	32706.46
299.643	35131.94
300.099	42454.08
300.555	46555.86
301.011	38872.89
301.467	37395.9
301.923	43809.36
302.379	42784.64
302.835	41985.74
303.291	41990.84
303.746	47766.21
304.202	60309.59
304.658	60481.44
305.113	40672.47
305.569	39800.48
306.024	42410.23
306.479	40409.54
306.935	34011.07
307.39	37096.38
307.845	34239.12
308.301	34416.7
308.756	33515.53
309.211	32283.59
309.666	33031.09
310.121	40904.68
310.576	41537.81
311.031	41189.86
311.486	47204.66
311.94	47162.54
312.395	63110.99
312.85	118574.08
313.305	582872.58
313.759	3006489.06
314.214	217825.08
314.668	172731.31
315.123	145213.53
315.577	51963.37
316.032	46171.5
316.486	57709.52
316.94	45474.65
317.394	31601.59
317.849	24523.27
318.303	23232.13
318.757	21944.28
319.211	24221.68
319.665	21178.36
320.119	21438.13
320.572	30774.48
321.026	28742.4
321.48	23945.13
321.934	26136.98
322.387	26211.21
322.841	28308.43
323.295	25379.97
323.748	29298.55
324.202	29709.12
324.655	35665.74
325.108	49783.37
325.562	35145.59
326.015	41777.34
326.468	31574.55
326.921	35310.47
327.374	32872.69
327.827	34187.85
328.28	38699.71
328.733	25897.53
329.186	22808.05
329.639	21716.91
330.092	18310.33
330.545	17430.77
330.997	17563.46
331.45	19153.27
331.903	22396.17
332.355	38577.02
332.808	37508.78
333.26	30949.5
333.713	33553.96
334.165	33740.87
334.617	45122.17
335.069	36479.81
335.522	65982.47
335.974	73083.66
336.426	66891.14
336.878	46336.39
337.33	23492.59
337.782	22917.21
338.234	28675.3
338.686	34342.19
339.137	40675.5
339.589	38283.81
340.041	29968.94
340.493	25729.69
340.944	26295.34
341.396	28308.03
341.847	23830.26
342.299	28056.33
342.75	34268.34
343.201	29997.75
343.653	34479.08
344.104	42466.72
344.555	33420.99
345.006	52079.04
345.457	39850.91
345.908	31799.77
346.359	29889.22
346.81	24302.94
347.261	25681.26
347.712	25300.27
348.163	27105.13
348.613	27413.78
349.064	25565.37
349.515	22385.45
349.965	22948.82
350.416	27667.39
350.866	30320.92
351.317	34296.92
351.767	56843.91
352.217	71724.73
352.668	59499.37
353.118	54529.16
353.568	52696.94
354.018	41646.06
354.468	43924.74
354.918	31489.24
355.368	27542.22
355.818	38899.2
356.268	112026.08
356.718	468403.64
357.168	116541.68
357.617	58475.07
358.067	65176.96
358.517	60990.03
358.966	71454.12
359.416	79983.98
359.865	86515.07
360.315	103015.43
360.764	48052.69
361.213	26882.94
361.663	25508.07
362.112	31477.35
362.561	50858.37
363.01	38313.7
363.459	32293.38
363.908	34967.65
364.357	29710.2
364.806	50173
365.255	34526.7
365.703	31615.05
366.152	31695.27
366.601	25665.1
367.05	20845.39
367.498	18924.51
367.947	19771.37
368.395	20504.66
368.844	18151.58
369.292	21904.13
369.74	15134.82
370.189	23164.45
370.637	27168.28
371.085	23429.79
371.533	28555.8
371.981	27552.24
372.429	26255.06
372.877	27316.02
373.325	22900.57
373.773	23370.66
374.221	20806.84
374.669	25825.75
375.116	22316.31
375.564	22487.62
376.012	25150.19
376.459	20712.47
376.907	24721.79
377.354	29910.37
377.801	27876.86
378.249	32032.73
378.696	40962.58
379.143	49652.36
379.591	52924.34
380.038	89552.45
380.485	64696.99
380.932	69880.43
381.379	63913.45
381.826	47037.46
382.273	33465.64
382.72	29325.93
383.166	28547.14
383.613	18471.82
384.06	16642.34
384.506	19234.35
384.953	14131.85
385.4	14244.17
385.846	12498.88
386.292	12197.25
386.739	11956.38
387.185	11840.22
387.631	11835.59
388.078	11498.86
388.524	12311.49
388.97	11378.57
389.416	9486.25
389.862	10072.06
390.308	9537.65
390.754	9669.46
391.2	10510.76
391.645	10762.29
392.091	10252.04
392.537	9896.73
392.983	9914
393.428	9728.67
393.874	10420.4
394.319	10447.49
394.765	9894.45
395.21	10174.2
395.655	9536.67
396.101	8916.52
396.546	8024.91
396.991	8110.58
397.436	7532.34
397.881	7275.8
398.326	6903.01
398.771	6524.17
399.216	5706.58
399.661	5142.23
400.106	5113.33
400.551	5222.32
400.995	4670.17
401.44	4617.01
401.885	4330.45
402.329	4366.41
402.774	4175.59
403.218	4026.05
403.663	3877.66
404.107	3979.07
404.551	4000.04
404.995	3666.98
405.44	3534
405.884	3590.05
406.328	3473.57
406.772	3454.56
407.216	3145.79
407.66	3041.59
408.104	2890.7
408.547	2698.63
408.991	2607.18
409.435	2504.15
409.879	2461.8
410.322	2422.91
410.766	2332.15
411.209	2213.73
411.653	2126.49
412.096	2077.56
412.54	2075.78
412.983	2059.57
413.426	2060.83
413.869	2058.98
414.312	2020.12
414.756	1944.39
415.199	1853.38
415.642	1799.06
416.085	1798.01
416.527	1784.4
416.97	1811.57
417.413	1714.64
417.856	1692.56
418.298	1674.05
418.741	1660.26
419.184	1655.36
419.626	1726.17
420.069	1724.5
420.511	1731.35
420.953	1691.91
421.396	1673.48
421.838	1631.57
422.28	1667.72
422.722	1676.92
423.164	1701.39
423.606	1672.26
424.048	1668.96
424.49	1582.42
424.932	1575.13
425.374	1556.6
425.816	1585.29
426.258	1613.95
426.699	1631.2
427.141	1606.61
427.582	1632.03
428.024	1624.3
428.465	1614.73
428.907	1575.18
429.348	1558.5
429.789	1555.59
430.231	1519.82
430.672	1536.83
431.113	1502.09
431.554	1479.1
431.995	1444.03
432.436	1389.9
432.877	1357.15
433.318	1333.53
433.759	1328.72
434.2	1329.05
434.64	1315.89
435.081	1319.25
435.522	1251.59
435.962	1208.25
436.403	1182.84
436.843	1199.83
437.284	1176.82
437.724	1149.07
438.164	1154.32
438.604	1129.7
439.045	1087.96
439.485	1043.85
439.925	1024.52
440.365	1001.06
440.805	986.46
441.245	973.38
441.685	938.63
442.125	931.83
442.564	937.64
443.004	917.59
443.444	916.31
443.883	920.01
444.323	916.77
444.762	921.1
445.202	934.88
445.641	953.26
446.081	950.9
446.52	960.75
446.959	953.37
447.398	931.49
447.837	922.15
448.276	908.19
448.716	918.02
449.154	928.58
449.593	907.65
450.032	907.38
450.471	893.48
450.91	897.2
451.349	896.13
451.787	896
452.226	909.34
452.664	911.19
453.103	912.87
453.541	912.22
453.98	909.77
454.418	916.77
454.856	902.41
455.295	900.86
455.733	908.1
456.171	913.05
456.609	913.77
457.047	915.61
457.485	928.92
457.923	932.02
458.361	921.23
458.798	924.74
459.236	923.88
459.674	931.49
460.111	937.46
460.549	927.87
460.987	927.61
461.424	924.69
461.862	920.14
462.299	906.67
462.736	905.28
463.173	907.61
463.611	897.5
464.048	894.82
464.485	901.81
464.922	894.46
465.359	890.44
465.796	873.22
466.233	866.53
466.67	857.03
467.106	853.82
467.543	846.73
467.98	835.82
468.416	815.07
468.853	808.86
469.29	786.14
469.726	777.94
470.162	757.75
470.599	752.15
471.035	746.38
471.471	730.98
471.907	727.55
472.344	723.55
472.78	725.45
473.216	735.66
473.652	726.84
474.088	724.58
474.523	720.09
474.959	727.51
475.395	719.74
475.831	715.21
476.266	718.2
476.702	716.26
477.138	707.18
477.573	705.3
478.008	701.12
478.444	703.97
478.879	708.58
479.314	711.76
479.75	711.12
480.185	714.67
480.62	720.74
481.055	723.86
481.49	729.24
481.925	739.65
482.36	751.27
482.795	773.04
483.229	794.66
483.664	813.37
484.099	817.38
484.534	830.59
484.968	839.71
485.403	843
485.837	844.12
486.271	843.49
486.706	846.21
487.14	839.42
487.574	827.49
488.009	820.57
488.443	814.7
488.877	823.34
489.311	826.89
489.745	837.38
490.179	845.78
490.613	861.51
491.046	870.65
491.48	878.74
491.914	881.1
492.348	889.38
492.781	896.8
493.215	900.59
493.648	905.76
494.082	914.04
494.515	916.48
494.948	929.34
495.382	938.6
495.815	947.07
496.248	956.11
496.681	975.68
497.114	994.26
497.547	1009.69
497.98	1029.1
498.413	1039.45
498.846	1056.21
499.279	1071.71
499.711	1080.64
500.144	1087.46
500.577	1103.89
501.009	1122.38
501.442	1138.03
501.874	1142.02
502.306	1149.17
502.739	1161.45
503.171	1185.01
503.603	1193.37
504.036	1209.71
504.468	1221.47
504.9	1241.26
505.332	1254.04
505.764	1262.41
506.196	1275.59
506.627	1298.55
507.059	1319.83
507.491	1337.37
507.923	1338.03
508.354	1360.49
508.786	1378.04
509.217	1404.44
509.649	1425.44
510.08	1454.3
510.512	1478.9
510.943	1502.01
511.374	1520.6
511.805	1550.34
512.237	1578.16
512.668	1624.39
513.099	1664.16
513.53	1703.92
513.961	1733.19
514.391	1780.24
514.822	1825.28
515.253	1875.82
515.684	1910.5
516.114	1950.84
516.545	1979.03
516.975	2015.1
517.406	2039.06
517.836	2041.11
518.267	2046.48
518.697	2070.07
519.127	2072.69
519.558	2081.63
519.988	2084.88
520.418	2097.63
520.848	2120.07
521.278	2130.05
521.708	2129.81
522.138	2144.62
522.567	2187.02
522.997	2221.12
523.427	2240.29
523.857	2261.14
524.286	2273.27
524.716	2292.63
525.145	2315.31
525.575	2328.47
526.004	2346.78
526.433	2355.83
526.863	2353.93
527.292	2335.32
527.721	2339.18
528.15	2344.67
528.579	2342.73
529.008	2354.79
529.437	2383.7
529.866	2401.52
530.295	2421.6
530.724	2436
531.152	2471.19
531.581	2486.65
532.01	2509.19
532.438	2521.19
532.867	2539.91
533.295	2564.6
533.723	2571.25
534.152	2566.03
534.58	2562.5
535.008	2539.17
535.436	2540.44
535.865	2550.2
536.293	2572.29
536.721	2593.02
537.149	2625.77
537.576	2628.97
538.004	2645.85
538.432	2657.06
538.86	2654.23
539.287	2666.08
539.715	2685.55
540.143	2691
540.57	2686.16
540.998	2680.98
541.425	2648.66
541.852	2619.87
542.28	2616.93
542.707	2594.67
543.134	2574.82
543.561	2569
543.988	2557.14
544.415	2556.54
544.842	2546.54
545.269	2534.61
545.696	2534.41
546.123	2551.34
546.549	2534.77
546.976	2516.49
547.403	2513.88
547.829	2515.07
548.256	2517.37
548.682	2510.3
549.108	2496.24
549.535	2495.27
549.961	2498.61
550.387	2479.52
550.813	2469.84
551.24	2477.55
551.666	2478.65
552.092	2464.28
552.518	2454.25
552.943	2444.9
553.369	2454.61
553.795	2462.83
554.221	2462.61
554.646	2455.51
555.072	2468.17
555.498	2475.88
555.923	2487.91
556.349	2506.64
556.774	2518.27
557.199	2520.7
557.625	2528.16
558.05	2520.14
558.475	2533.73
558.9	2532.98
559.325	2521.57
559.75	2514.19
560.175	2506.03
560.6	2497.81
561.025	2496.43
561.449	2498.6
561.874	2506.53
562.299	2513.26
562.723	2524.26
563.148	2512.09
563.572	2517.78
563.997	2533.56
564.421	2544.02
564.846	2545.91
565.27	2552.79
565.694	2551.55
566.118	2569.69
566.542	2582.18
566.966	2575.9
567.39	2571.39
567.814	2559.48
568.238	2561.57
568.662	2571.23
569.086	2576.42
569.509	2588.69
569.933	2568.77
570.357	2559.08
570.78	2531.64
571.204	2514.36
571.627	2502.27
572.05	2501.99
572.474	2501.93
572.897	2485.45
573.32	2475.03
573.743	2462.67
574.166	2437.66
574.589	2439.27
575.012	2429.86
575.435	2428.67
575.858	2416.85
576.281	2400.09
576.704	2378.27
577.126	2362.2
577.549	2346.99
577.972	2335.29
578.394	2320.62
578.817	2309.13
579.239	2283.24
579.661	2264.25
580.084	2242.82
580.506	2223.9
580.928	2218.02
581.35	2202.27
581.772	2196.25
582.194	2178.91
582.616	2160.66
583.038	2141.33
583.46	2128.66
583.882	2124.7
584.303	2131.61
584.725	2124.34
585.147	2124.65
585.568	2140.24
585.99	2157.61
586.411	2166.63
586.833	2186.77
587.254	2189.68
587.675	2210.78
588.096	2228.69
588.518	2219.94
588.939	2196.32
589.36	2194.29
589.781	2184.52
590.202	2143.1
590.623	2129.48
591.043	2126.33
591.464	2107.77
591.885	2101.14
592.305	2090.74
592.726	2071.46
593.147	2073.95
593.567	2065.69
593.987	2056.3
594.408	2048.57
594.828	2048.39
595.248	2040.94
595.669	2014.57
596.089	2005.63
596.509	1997.19
596.929	1978.56
597.349	1979.06
597.769	1964.56
598.189	1957.96
598.608	1958.69
599.028	1962.24
599.448	1963.54
599.867	1946.9
600.287	1942.87
600.706	1935.94
601.126	1921.63
601.545	1919.43
601.965	1918.39
602.384	1912.47
602.803	1915.71
603.222	1909.93
603.641	1899.61
604.061	1892.15
604.48	1886.27
604.898	1896.8
605.317	1905.4
605.736	1909.49
606.155	1906.4
606.574	1894.54
606.992	1902.48
607.411	1895.35
607.829	1884.23
608.248	1880.49
608.666	1880.04
609.085	1880.19
609.503	1869.38
609.921	1860.98
610.339	1864.95
610.758	1865.59
611.176	1858.18
611.594	1845.38
612.012	1841.94
612.43	1846.37
612.847	1855.73
613.265	1855.38
613.683	1862.02
614.101	1864.04
614.518	1857.95
614.936	1844.29
615.353	1823.55
615.771	1819.84
616.188	1819.35
616.606	1814.11
617.023	1805.06
617.44	1786.21
617.857	1777.86
618.274	1765.17
618.691	1755.8
619.108	1743.5
619.525	1734.25
619.942	1743.96
620.359	1747.91
620.776	1742.14
621.192	1736.13
621.609	1733.34
622.026	1741.63
622.442	1749.52
622.859	1755.33
623.275	1746.07
623.691	1754.87
624.108	1770.91
624.524	1790.26
624.94	1790.62
625.356	1804.4
625.772	1823.56
626.188	1840.15
626.604	1842.67
627.02	1836.73
627.436	1833.45
627.852	1841.33
628.268	1857.54
628.683	1845.83
629.099	1834.51
629.514	1828.53
629.93	1833.13
630.345	1838.8
630.761	1832.26
631.176	1836.77
631.591	1827.68
632.007	1819.7
632.422	1817.25
632.837	1801.07
633.252	1797.07
633.667	1781.79
634.082	1767.09
634.497	1748.29
634.911	1720.01
635.326	1714.54
635.741	1689.97
636.155	1675.12
636.57	1674.23
636.984	1673.01
637.399	1673.42
637.813	1670.14
638.228	1667.35
638.642	1672.64
639.056	1657.35
639.47	1655.88
639.884	1642.3
640.298	1631.3
640.712	1627.61
641.126	1608.25
641.54	1594.13
641.954	1585.14
642.368	1567.92
642.781	1553.29
643.195	1526.76
643.609	1525.59
644.022	1515.49
644.436	1508.97
644.849	1493.47
645.262	1477.68
645.676	1479.06
646.089	1471.7
646.502	1449.39
646.915	1440.91
647.328	1418.52
647.741	1414.38
648.154	1395.9
648.567	1389.98
648.98	1371.22
649.393	1368.44
649.805	1362.22
650.218	1349.91
650.631	1328.41
651.043	1320.65
651.456	1312
651.868	1312.71
652.28	1335.63
652.693	1354.09
653.105	1363.65
653.517	1374.56
653.929	1374.6
654.341	1380.61
654.753	1365.93
655.165	1372.44
655.577	1367.13
655.989	1359.96
656.401	1348.26
656.813	1298.29
657.224	1268.4
657.636	1229.21
658.047	1205.06
658.459	1177.08
658.87	1164.14
659.282	1146.15
659.693	1117.54
660.104	1097.04
660.515	1077.26
660.926	1070.92
661.338	1065.44
661.749	1055.75
662.159	1041.33
662.57	1033
662.981	1025.39
663.392	1013.15
663.803	1016.01
664.213	1010.47
664.624	1002.17
665.035	1002.91
665.445	985.15
665.855	972.77
666.266	961.16
666.676	955.98
667.086	943.08
667.497	939.45
667.907	930.72
668.317	917.01
668.727	910.36
669.137	910.16
669.547	905
669.956	905.4
670.366	907.09
670.776	906.91
671.186	910.23
671.595	912.4
672.005	917.02
672.414	913.26
672.824	910.46
673.233	915.74
673.642	918.06
674.052	921.49
674.461	923.83
674.87	928.64
675.279	925.21
675.688	927.14
676.097	927.71
676.506	922.97
676.915	941.13
677.323	943.93
677.732	942.23
678.141	940.83
678.549	929.7
678.958	929.06
679.366	928.84
679.775	936.29
680.183	949.2
680.592	957.75
681	967.16
681.408	961.68
681.816	974
682.224	986.58
682.632	1001.32
683.04	1039.95
683.448	1073.71
683.856	1116.22
684.264	1164
684.671	1209.97
685.079	1265.96
685.487	1326.33
685.894	1410.86
686.302	1481.05
686.709	1541.01
687.116	1610.51
687.524	1669.15
687.931	1719.91
688.338	1761.83
688.745	1800.48
689.152	1843.93
689.559	1899.72
689.966	1955.53
690.373	1980.63
690.78	2031.94
691.187	2113.01
691.593	2171.57
692	2221.31
692.407	2298.66
692.813	2392.69
693.22	2465.1
693.626	2540.48
694.032	2597.95
694.439	2689.31
694.845	2759.08
695.251	2850.63
695.657	2927.06
696.063	3048.95
696.469	3136.53
696.875	3214.43
697.281	3256.65
697.687	3308.97
698.093	3350.25
698.498	3440.55
698.904	3506.45
699.31	3609.66
699.715	3680.08
700.12	3790.37
700.526	3804.73
700.931	3885.69
701.337	3944.83
701.742	3978.03
702.147	4076.04
702.552	4106.05
702.957	4175.75
703.362	4194.92
703.767	4228.62
704.172	4272.8
704.577	4204.53
704.981	4257.05
705.386	4270.68
705.791	4252.83
706.195	4341.72
706.6	4347.37
707.004	4443.31
707.408	4397.11
707.813	4423.07
708.217	4400.6
708.621	4396.89
709.025	4513.7
709.43	4509.82
709.834	4579.21
710.237	4664.3
710.641	4640.09
711.045	4660.57
711.449	4645.97
711.853	4676.33
712.256	4723.53
712.66	4764.28
713.064	4851.77
713.467	4896.98
713.87	5031.14
714.274	5084.17
714.677	5212.15
715.08	5403.69
715.484	5605.68
715.887	5848.61
716.29	6087.93
716.693	6336.73
717.096	6623.96
717.499	6777.61
717.901	6804.34
718.304	6829.52
718.707	6851.03
719.109	6721.35
719.512	6680.24
719.915	6511.31
720.317	6436.82
720.719	6485.17
721.122	6445.24
721.524	6380.25
721.926	6324.05
722.328	6440.07
722.731	6422.49
723.133	6452.9
723.535	6682.24
723.937	6700.71
724.338	6758.35
724.74	6806.44
725.142	6696.87
725.544	6691.29
725.945	6714.03
726.347	6708.27
726.748	6699.35
727.15	6716.1
727.551	6664.5
727.952	6626.62
728.354	6588.55
728.755	6588.97
729.156	6534.78
729.557	6546.77
729.958	6397.09
730.359	6332.41
730.76	6308.2
731.161	6230.96
731.562	6198.72
731.962	6205.41
732.363	6127.99
732.763	6054.24
733.164	6096.97
733.564	6017.33
733.965	5900.76
734.365	5860.16
734.766	5891.92
735.166	5844.9
735.566	5779.67
735.966	5747.06
736.366	5737.25
736.766	5663.2
737.166	5697.59
737.566	5645.16
737.966	5612.26
738.365	5655.95
738.765	5648.9
739.165	5561.05
739.564	5529.09
739.964	5579.97
740.363	5525.1
740.763	5523.32
741.162	5505.88
741.561	5468.6
741.96	5415.57
742.36	5439.55
742.759	5445.73
743.158	5488.99
743.557	5504.86
743.955	5549.63
744.354	5496.69
744.753	5565.97
745.152	5515.74
745.55	5580.53
745.949	5571.17
746.348	5572.66
746.746	5590.83
747.144	5542.91
747.543	5516.44
747.941	5572.83
748.339	5491.75
748.737	5482.45
749.136	5469.38
749.534	5544.12
749.932	5510.38
750.33	5536.42
750.727	5600.14
751.125	5572.5
751.523	5554.31
751.921	5603.53
752.318	5563.68
752.716	5631.44
753.113	5647.81
753.511	5679
753.908	5677.72
754.305	5657.08
754.703	5730.31
755.1	5799.36
755.497	5868.18
755.894	6090.14
756.291	6300.57
756.688	6689.12
757.085	7202.66
757.482	7924.7
757.878	8711.59
758.275	9429.66
758.672	10414.51
759.068	11215.76
759.465	12357.41
759.861	13830.02
760.258	15545.19
760.654	16428.93
761.05	16292.74
761.447	15552.75
761.843	14484.15
762.239	13374.84
762.635	12874.37
763.031	12394.62
763.427	11699.6
763.822	10969.02
764.218	10248.68
764.614	9307.16
765.01	8683.48
765.405	8277.38
765.801	7971.38
766.196	7575.54
766.592	7356.06
766.987	6983.65
767.382	6734.09
767.778	6631.22
768.173	6478.76
768.568	6394.32
768.963	6248.41
769.358	6267.98
769.753	6213.86
770.148	6110.85
770.542	6111.34
770.937	6075.32
771.332	6184.49
771.726	6207.02
772.121	6130.69
772.515	6195.84
772.91	6180.21
773.304	6264.29
773.699	6189.49
774.093	6248.73
774.487	6315.7
774.881	6365.39
775.275	6358.71
775.669	6306.54
776.063	6360.28
776.457	6402.6
776.851	6316.28
777.245	6306.08
777.638	6347.7
778.032	6481.32
778.425	6439.69
778.819	6487.55
779.212	6438.44
779.606	6389.06
779.999	6415.92
780.392	6394.57
780.786	6490.86
781.179	6516.03
781.572	6567.85
781.965	6579.84
782.358	6512.97
782.751	6578.67
783.143	6521.09
783.536	6605.14
783.929	6658.96
784.322	6790.69
784.714	6827.25
785.107	6825.26
785.499	6907.04
785.891	6874.62
786.284	6855.86
786.676	7018.63
787.068	6999.51
787.46	7061.48
787.852	7085.74
788.245	7187.75
788.636	7224.06
789.028	7304.61
789.42	7347.55
789.812	7358.89
790.204	7478.5
790.595	7591.32
790.987	7362.61
791.378	7388.65
791.77	7539.21
792.161	7698.74
792.553	7759.81
792.944	7626.82
793.335	7540.73
793.726	7627.09
794.117	7732.07
794.508	7891.29
794.899	7856.94
795.29	8019.46
795.681	8085.65
796.072	7921.82
796.463	7692.22
796.853	7703.6
797.244	7886.18
797.634	7928.93
798.025	7926.27
798.415	7939.18
798.806	8036.68
799.196	8133.52
799.586	8192.09
799.976	8144.28
800.366	8412.44
800.756	8706.05
801.146	8659.35
801.536	8694.43
801.926	8780.54
802.316	8806.93
802.706	8887.94
803.095	8745.74
803.485	8864.69
803.874	8910.77
804.264	9213.69
804.653	9179.55
805.043	9341.06
805.432	9466.17
805.821	9465.28
806.21	9484.5
806.599	9622.16
806.988	9671.85
807.377	9794.06
807.766	9935.65
808.155	10257.27
808.544	9951.92
808.933	9971.11
809.321	9946.14
809.71	10292.9
810.098	10475.62
810.487	11013.3
810.875	11568.47
811.264	11596.04
811.652	11926.27
812.04	12098.03
812.428	12291.88
812.816	13173.17
813.204	13646.92
813.592	14284.65
813.98	14663.31
814.368	14551.55
814.756	15100.91
815.144	15004.11
815.531	15538.82
815.919	15458.01
816.306	15815.21
816.694	15450.79
817.081	15506.01
817.469	15906.87
817.856	15905.84
818.243	16214.49
818.63	16665.26
819.017	16173.76
819.404	16247
819.791	16682.32
820.178	17388
820.565	17667.98
820.952	18749.07
821.339	18184.58
821.725	18401.29
822.112	17543.99
822.498	17500.92
822.885	17653.78
823.271	17546.85
823.657	18032.78
824.044	18045.19
824.43	18134.66
824.816	18091.95
825.202	17590.07
825.588	18766.38
825.974	18782.35
826.36	19376.98
826.746	19416.48
827.132	19829.21
827.517	19805.12
827.903	18904.04
828.289	18948.61
828.674	18057.6
829.06	17946.72
829.445	18406.49
829.83	18823.57
830.216	19382.7
830.601	19806.75
830.986	19329.41
831.371	19177.03
831.756	19818.05
832.141	19318.27
832.526	19309.66
832.911	19631.42
833.295	19504.07
833.68	20042.06
834.065	19328.23
834.449	18271.51
834.834	18196.41
835.218	18195.36
835.603	18582.89
835.987	18338.36
836.371	19298.69
836.755	19183.78
837.139	19649.54
837.524	19927.49
837.908	19724.76
838.291	19797.77
838.675	19872.46
839.059	20104.56
839.443	20099.88
839.827	19845.34
840.21	20407.08
840.594	20243.91
840.977	20479.98
841.361	20453.5
841.744	20897.62
842.127	20726.63
842.511	21007.7
842.894	21707.87
843.277	22159.17
843.66	22787.42
844.043	22875.63
844.426	21944.49
844.809	21581.43
845.191	21629.9
845.574	21097.36
845.957	20667.71
846.339	20540.14
846.722	19936.92
847.104	20007.69
847.487	19806.62
847.869	19824.19
848.252	20145.63
848.634	20530.8
849.016	20838.67
849.398	20969.97
849.78	21952.36
850.162	21959.82
850.544	22446.36
850.926	23176.43
851.307	23076.42
851.689	23401.28
852.071	23922.03
852.452	24295.6
852.834	24267.33
853.215	24721.85
853.597	24908.67
853.978	25250.96
854.359	25775.07
854.741	24611.14
855.122	24491.58
855.503	24159.15
855.884	24301.45
856.265	24216.32
856.646	24350.08
857.026	23889.74
857.407	23810.25
857.788	23986.4
858.169	24323.94
858.549	23340.21
858.93	24064.46
859.31	24110.51
859.69	24343.1
860.071	23891.88
860.451	23643.16
860.831	22791.04
861.211	24133.41
861.591	24764.2
861.971	24739.3
862.351	24953.85
862.731	25400.25
863.111	25701.83
863.491	26083.06
863.87	27107.5
864.25	27495.21
864.629	27029.7
865.009	27613.09
865.388	28596.12
865.768	30640.49
866.147	30510.2
866.526	28821.98
866.905	29175.58
867.284	30816.56
867.663	29256.67
868.042	28031.81
868.421	27931.18
868.8	28400.39
869.179	28675.58
869.558	26998.63
869.936	24891.31
870.315	25340.22
870.693	25947.3
871.072	27968.63
871.45	26637.86
871.828	26981.89
872.207	28371.19
872.585	27963.87
872.963	28741.77
873.341	27750.56
873.719	27420.83
874.097	27086.98
874.475	27604.16
874.853	28248.43
875.23	27073.43
875.608	28215.82
875.986	30520.59
876.363	29182.45
876.741	30065.17
877.118	29295.78
877.495	30742.33
877.873	31269.27
878.25	32917.45
878.627	31578.2
879.004	32014.41
879.381	31864.42
879.758	31003.28
880.135	28870.49
880.512	30530.62
880.889	29725.79
881.265	29419.61
881.642	29182.08
882.019	29651.55
882.395	29036.9
882.772	30171.99
883.148	28858.9
883.524	28742.79
883.901	28576.71
884.277	29002.28
884.653	28822.08
885.029	29642.4
885.405	32803.68
885.781	32540.02
886.157	31210.07
886.532	31597.54
886.908	31583.9
887.284	35114.12
887.659	36256.68
888.035	37396.64
888.411	38352.88
888.786	38869.28
889.161	40203.76
889.537	39481.44
889.912	40737.86
890.287	40710.89
890.662	41758.86
891.037	41003.24
891.412	38236.08
891.787	37852.16
892.162	36531.43
892.536	37380.8
892.911	35970.21
893.286	35222.68
893.66	33796.24
894.035	34662.25
894.409	37752.37
894.784	36235.8
895.158	36843.56
895.532	39030.62
895.906	40103.07
896.281	41038.86
896.655	40402.04
897.029	46150.71
897.402	48057.66
897.776	53526.93
898.15	53361.08
898.524	52760.83
898.898	53461.98
899.271	59844.35
899.645	51825.71
900.018	49768.01
900.392	51611.72
900.765	52013.39
901.138	48142.68
901.511	47417.24
901.884	43505.5
902.258	40095.47
902.631	41433.58
903.003	47667.92
903.376	43027.7
903.749	48262.83
904.122	51665.2
904.495	56885.9
904.867	57580.02
905.24	49995.08
905.612	46536.2
905.985	47606.82
906.357	49811.15
906.729	47531.73
907.102	40598.61
907.474	39006.49
907.846	39238.26
908.218	38713.06
908.59	34202.59
908.962	33093.01
909.334	35624.4
909.705	37412.29
910.077	36311.83
910.449	37789.88
910.82	38843.41
911.192	42730.85
911.563	44410.96
911.935	47513.74
912.306	47562.02
912.677	49105.13
913.048	48604.66
913.419	52722.49
913.79	53025.94
914.161	56870.16
914.532	54347.1
914.903	49934.18
915.274	47435.25
915.645	46714.49
916.015	41128.38
916.386	39223.49
916.756	41733.59
917.127	43023.66
917.497	38421.17
917.868	41798.71
918.238	39704.06
918.608	40827.78
918.978	41658.94
919.348	44113.71
919.718	45604.12
920.088	43902.4
920.458	45595.46
920.828	48003.37
921.198	45514.36
921.567	48632.87
921.937	37663.22
922.306	38008.19
922.676	40972.62
923.045	34166.62
923.415	32440.87
923.784	29532.69
924.153	30363.11
924.522	30327.67
924.891	28484.9
925.26	30517.81
925.629	29786.68
925.998	34212.74
926.367	33389.32
926.736	31798.54
927.104	37888.48
927.473	40700.74
927.842	49136.55
928.21	48658.18
928.578	51144.27
928.947	48363.84
929.315	48602.97
929.683	56967.8
930.051	57452.24
930.42	66718.57
930.788	57028.86
931.156	56599.23
931.523	53053.46
931.891	49022.49
932.259	47063.35
932.627	54511.01
932.994	77096.05
933.362	63737.25
933.729	55381.61
934.097	53022.82
934.464	44839.12
934.831	51709.44
935.199	50924.86
935.566	49397.57
935.933	50085.29
936.3	60637.37
936.667	47195.95
937.034	42551.71
937.401	42093.36
937.767	36303.64
938.134	32275.64
938.501	45549.22
938.867	48553.39
939.234	82161.43
939.6	70130.02
939.967	77189.59
940.333	51712.4
940.699	44077.77
941.065	35400.57
941.431	46405.88
941.798	44734.03
942.163	58742.3
942.529	36667.7
942.895	33715.83
943.261	21806.41
943.627	28616.87
943.992	25056.08
944.358	25091.83
944.723	25173.81
945.089	24558.55
945.454	22694.01
945.82	24216.53
946.185	23288.99
946.55	26991.52
946.915	24257.33
947.28	28436.73
947.645	25011.62
948.01	23088.66
948.375	24090.37
948.74	28891.25
949.104	33683.65
949.469	48657.72
949.834	86092.53
950.198	81489.98
950.562	48834.16
950.927	40625.04
951.291	48919.19
951.655	41708.64
952.02	39172.36
952.384	29636.86
952.748	25755.84
953.112	25093.96
953.476	21824.05
953.839	20182.35
954.203	19984.34
954.567	25015.66
954.931	39441.27
955.294	33712.05
955.658	33888.19
956.021	57581.08
956.385	97479.05
956.748	144025.09
957.111	223670.7
957.474	250972.37
957.837	282606.63
958.2	213843.85
958.563	76904.37
958.926	51966.43
959.289	78914.55
959.652	88189.47
960.015	66233.52
960.377	95053.83
960.74	108415.6
961.102	187102.61
961.465	200810.13
961.827	107301.77
962.189	206148.96
962.552	142951.5
962.914	114660.22
963.276	74333.38
963.638	61365.15
964	60719.2
964.362	41062.1
964.724	39705.47
965.085	28331.33
965.447	23234.15
965.809	26525.3
966.17	26565
966.532	28751.22
966.893	26386.39
967.255	24029.38
967.616	28369.58
967.977	22715.04
968.338	24826.21
968.699	20397.82
969.061	20390.37
969.421	20522.95
969.782	23039.92
970.143	19441.23
970.504	20102.02
970.865	22846.6
971.225	23358.5
971.586	22883.3
971.946	32637.14
972.307	28305.92
972.667	37027.09
973.027	38101.55
973.388	46194.07
973.748	31406.58
974.108	34207.66
974.468	46288.23
974.828	35647.55
975.188	27419.49
975.548	25170.72
975.907	21116.41
976.267	23690.08
976.627	19884.17
976.986	20612.76
977.346	19647.24
977.705	18898.35
978.064	17205.24
978.424	14330.97
978.783	14839.47
979.142	16920.63
979.501	16184.71
979.86	17107.03
980.219	16472.07
980.578	21249.21
980.937	23788.54
981.296	21183.44
981.654	21794.57
982.013	33921.55
982.371	43996.03
982.73	41041.52
983.088	46521.35
983.447	49700.24
983.805	71111.87
984.163	148732.29
984.521	165011.2
984.879	242082.34
985.237	-394499.68
985.595	380073.28
985.953	94308.46
986.311	54479.25
986.669	31617.42
987.026	27289.45
987.384	36658.38
987.741	37875.47
988.099	27048.28
988.456	21544.25
988.814	20158.82
989.171	17503.5
989.528	17275.22
989.885	18286.54
990.242	14470.94
990.599	18040.82
990.956	14750.99
991.313	10325.54
991.67	8469.99
992.027	8946.87
992.383	7955.42
992.74	6966.65
993.096	7294.57
993.453	7561.69
993.809	7832.83
994.165	10432.07
994.522	9529.75
994.878	10505.16
995.234	13161.41
995.59	12991.82
995.946	12343.3
996.302	14068.33
996.658	16315.62
997.013	18005.33
997.369	21337.32
997.725	27311.91
998.08	17704.39
998.436	27400.25
998.791	37850.77
999.147	37787.02
999.502	41174.49
999.857	29960.62
1000.212	48911.44
1000.567	69526.97
1000.922	40163.27
1001.277	25491.8
1001.632	18884.09
1001.987	24305.05
1002.342	17411.34
1002.696	13872.18
1003.051	11076.9
1003.406	13428.76
1003.76	13343.4
1004.114	13140.76
1004.469	11067.31
1004.823	9149.57
1005.177	9900.33
1005.531	7853.86
1005.885	6971.61
1006.239	7866.38
1006.593	9867.7
1006.947	13182.46
1007.301	9894.58
1007.655	10775.11
1008.008	7904.24
1008.362	8854.94
1008.715	12647.95
1009.069	11481.98
1009.422	17221.49
1009.776	34466.28
1010.129	22925.8
1010.482	19174.9
1010.835	16257.55
1011.188	33804.46
1011.541	31870.6
1011.894	-194682.25
1012.247	572506.79
1012.6	38881.59
1012.952	24505.61
1013.305	12681.48
1013.657	9173.11
1014.01	8685.29
1014.362	7161.67
1014.715	6328.87
1015.067	5510.41
1015.419	5376.35
1015.771	4773.62
1016.123	4254.49
1016.475	4363.5
1016.827	4661.89
1017.179	5001.14
1017.531	5030.74
1017.883	5119.08
1018.234	4918.28
1018.586	6232.21
1018.938	6587.74
1019.289	9106.37
1019.64	10421.16
1019.992	9689.77
1020.343	8905.6
1020.694	7024.75
1021.045	6223.21
1021.396	7093.56
1021.747	7611.14
1022.098	9187.95
1022.449	6670.39
1022.8	6172.82
1023.151	4294.88
1023.501	3803.69
1023.852	4138.83
1024.202	4276.9
1024.553	4710.87
1024.903	4586.14
1025.253	3922.44
1025.604	3522.63
1025.954	4384.83
1026.304	5342.27
1026.654	6243.95
1027.004	9181.85
1027.354	14880.26
1027.703	13964.76
1028.053	18483.12
1028.403	26642.41
1028.753	38730.62
1029.102	52892.51
1029.452	273579.05
1029.801	11797.98
1030.15	7625.3
1030.499	6489.06
897.758	2064.82
901.051	1994.56
904.343	2025.05
907.636	2034.69
910.928	2094.87
914.22	2018.24
917.511	2023.57
920.803	2068
924.094	2061.78
927.384	2068.95
930.675	2032.19
933.965	1998.5
937.255	2031.86
940.544	2006.09
943.834	1995.78
947.123	1939.48
950.411	2026.47
953.7	2007.48
956.988	1995.32
960.276	1933.5
963.563	1976.22
966.851	1987.18
970.138	2026.19
973.424	2028.45
976.711	1980.05
979.997	2032.17
983.283	2070.83
986.568	2006.49
989.853	1994.28
993.138	2019.49
996.423	2106.18
999.708	2069.01
1002.992	2100.11
1006.275	2016.43
1009.559	2021.95
1012.842	2117.51
1016.125	2073.36
1019.408	2057.54
1022.69	2106.89
1025.972	2141.74
1029.254	2120.62
1032.536	2086.97
1035.817	2091.42
1039.098	2061.8
1042.379	2106.72
1045.659	2132.92
1048.939	2085.39
1052.219	2091.51
1055.498	2078.73
1058.778	2077.99
1062.057	2053.75
1065.335	2077.08
1068.614	2085.56
1071.892	2087.39
1075.17	2137.5
1078.447	2144.93
1081.724	2139.77
1085.001	2162.6
1088.278	2141.27
1091.554	2147.54
1094.83	2142.39
1098.106	2180.99
1101.382	2207.3
1104.657	2207.83
1107.932	2207.28
1111.206	2188.39
1114.481	2141.44
1117.755	2140.5
1121.029	2138.68
1124.302	2199.86
1127.575	2170.4
1130.848	2168.9
1134.121	2141.77
1137.393	2107.72
1140.665	2162.22
1143.937	2143.43
1147.208	2087.3
1150.48	2148.86
1153.75	2139.94
1157.021	2134.03
1160.291	2112.65
1163.561	2167.54
1166.831	2130.24
1170.101	2154.66
1173.37	2110.57
1176.639	2072.58
1179.907	2111.75
1183.176	2139.17
1186.444	2139.2
1189.711	2161.5
1192.979	2188.38
1196.246	2146.33
1199.513	2156.85
1202.78	2165.34
1206.046	2173.73
1209.312	2202.42
1212.578	2218.73
1215.843	2188.45
1219.108	2155.49
1222.373	2177.43
1225.638	2153.2
1228.902	2146.55
1232.166	2099.63
1235.43	2087.63
1238.693	2113.22
1241.956	2102.98
1245.219	2154.7
1248.482	2134.04
1251.744	2134.42
1255.006	2248.87
1258.268	2195.63
1261.529	2155.15
1264.79	2155.73
1268.051	2248.9
1271.312	2258.41
1274.572	2229.83
1277.832	2217.72
1281.092	2194.92
1284.351	2191.05
1287.61	2176.92
1290.869	2115.86
1294.128	2117.43
1297.386	2155.77
1300.644	2149.34
1303.902	2161.28
1307.159	2032.89
1310.416	2082.43
1313.673	2112.17
1316.93	2112.11
1320.186	2138.99
1323.442	2168.2
1326.697	2174.23
1329.953	2143.02
1333.208	2181.84
1336.463	2151.22
1339.717	2116.92
1342.972	2217.42
1346.226	2188.09
1349.479	2140.3
1352.733	2122.37
1355.986	2123.97
1359.238	2107.76
1362.491	2110.67
1365.743	2112.12
1368.995	2101.06
1372.247	2116.23
1375.498	2134.82
1378.749	2179.54
1382	2129.37
1385.251	2161.01
1388.501	2114.03
1391.751	2119.25
1395	2082.76
1398.25	2107.64
1401.499	2133.18
1404.748	2088.62
1407.996	2063.66
1411.244	2054.28
1414.492	2040
1417.74	2027.8
1420.987	2030.43
1424.234	2089.58
1427.481	2048.52
1430.728	2106.83
1433.974	2082.41
1437.22	2076.38
1440.465	2072.1
1443.711	2077.96
1446.956	2098.72
1450.201	2068.73
1453.445	2108.43
1456.689	2104.04
1459.933	2111.27
1463.177	2152.95
1466.42	2125.77
1469.663	2110.92
1472.906	2132.22
1476.148	2179.63
1479.391	2140.31
1482.633	2117.67
1485.874	2148.53
1489.115	2159.34
1492.356	2135.77
1495.597	2119.02
1498.838	2111.21
1502.078	2099.85
1505.318	2075.09
1508.557	2105.81
1511.797	2103.19
1515.036	2157.25
1518.274	2124.6
1521.513	2073.62
1524.751	2081.14
1527.989	2108.84
1531.227	2127.6
1534.464	2145.53
1537.701	2135.09
1540.938	2145.69
1544.174	2095.31
1547.41	2082.3
1550.646	2119.45
1553.882	2173.13
1557.117	2228.51
1560.352	2237.91
1563.587	2202.33
1566.821	2170.3
1570.055	2181.64
1573.289	2165.52
1576.523	2219.45
1579.756	2234.9
1582.989	2259.38
1586.222	2220.82
1589.454	2244.34
1592.686	2233.25
1595.918	2259.95
1599.15	2259.6
1602.381	2298.28
1605.612	2285
1608.843	2375.34
1612.073	2301.43
1615.303	2291.59
1618.533	2290.41
1621.762	2286.62
1624.992	2261.99
1628.221	2266.74
1631.449	2254.03
1634.678	2274.77
1637.906	2245.25
1641.134	2269.16
1644.361	2236.36
1647.588	2227.19
1650.815	2247.87
1654.042	2208.4
1657.269	2237.52
1660.495	2221.77
1663.72	2200.79
1666.946	2173.57
1670.171	2152.13
1673.396	2124.9
1676.621	2108.16
1679.845	2101.02
1683.069	2103.82
1686.293	2131.14
1689.517	2124.93
1692.74	2079.86
1695.963	2098.99
1699.185	2143.26
1702.408	2115.68
1705.63	2143.92
1708.852	2164.06
1712.073	2132.64
1715.294	2147.93
1718.515	2187.17
1721.736	2149.78
1724.956	2127.19
1728.176	2147.11
1731.396	2170.04
1734.616	2154.54
1737.835	2191.64
1741.054	2159.49
1744.272	2152.19
1747.491	2195.58
1750.709	2213.15
1753.927	2171.71
1757.144	2190.86
1760.361	2252.58
1763.578	2222.37
1766.795	2173.42
1770.011	2162.48
1773.227	2182.35
1776.443	2225.36
1779.658	2266.04
1782.874	2203.5
1786.089	2199.09
1789.303	2200.3
1792.518	2196.12
1795.732	2182.97
1798.945	2202.5
1802.159	2239.03
1805.372	2187.08
1808.585	2185.06
1811.797	2185.62
1815.01	2200.42
1818.222	2227.01
1821.434	2180.63
1824.645	2221.49
1827.856	2233.38
1831.067	2260.81
1834.278	2196.59
1837.488	2182.47
1840.698	2295.59
1843.908	2241.47
1847.117	2211.34
1850.326	2147.53
1853.535	2196.19
1856.744	2236.7
1859.952	2161.52
1863.16	2163.05
1866.368	2176.32
1869.575	2284.5
1872.782	2168.5
1875.989	2106.28
1879.196	2146.76
1882.402	2137.38
1885.608	2166.43
1888.814	2117.96
1892.019	2028.56
1895.224	2077.39
1898.429	2041.03
1901.634	2024.82
1904.838	2001.17
1908.042	2059.49
1911.246	2068.16
1914.449	2037.59
1917.652	2018.46
1920.855	1999.99
1924.058	2018.27
1927.26	2064.56
1930.462	2083.32
1933.664	2124.94
1936.865	2069.91
1940.066	2086.77
1943.267	2030.78
1946.467	2041.71
1949.668	2058.31
1952.868	2125.46
1956.067	2118.17
1959.267	2062.25
1962.466	2083.47
1965.665	2066.02
1968.863	2060.02
1972.061	2062.25
1975.259	2053.92
1978.457	2125.31
1981.654	2088.32
1984.852	2091.51
1988.048	2048.82
1991.245	2035.43
1994.441	2122.32
1997.637	2077.14
2000.833	2062.05
2004.028	2094.45
2007.223	2153.98
2010.418	2146.07
2013.613	2096.61
2016.807	2093.04
2020.001	2086.87
2023.194	2104.33
2026.388	2091.18
2029.581	2035.43
2032.774	2098.65
2035.966	2109.39
2039.158	2060.13
2042.35	2078.32
2045.542	2006.01
2048.733	2082.28
2051.924	2070.09
2055.115	2081.86
2058.306	2051.59
2061.496	2103.38
2064.686	2150.41
2067.875	2059.77
2071.065	2058.03
2074.254	2075.52
2077.442	2032.6
2080.631	2112.79
2083.819	2053.82
2087.007	2046.15
2090.195	2034.94
2093.382	2046.43
2096.569	2032.08
2099.756	1997.53
2102.942	2047.07
2106.128	2063.65
2109.314	2050.46
2112.5	2038.59
2115.685	2006
2118.87	2014.48
2122.055	2072.57
2125.239	2054.56
2128.424	2047.12
2131.608	2095.55
2134.791	2079.86
2137.974	2112.51
2141.157	2101.56
2144.34	2078.52
2147.523	2064.4
2150.705	2091.25
2153.887	2056.17
2157.068	2035.24
2160.25	2009.85
2163.431	2030.65
2166.611	2005.03
2169.792	2027.29
2172.972	1945.86
2176.152	1988.61
2179.331	2014.28
2182.511	2020.69
2185.69	2040.65
2188.868	2045.84
2192.047	2078.35
2195.225	2102.94
2198.403	2049.34
2201.58	2036.77
2204.758	2021.92
2207.935	2091.78
2211.111	2017.47
2214.288	2005.14
2217.464	2037.39
2220.64	1990.47
2223.815	2039.2
2226.991	1971.89
2230.166	1986.02
2233.34	2029.84
2236.515	2040.5
2239.689	2101.01
2242.863	2051.37
2246.036	2103.25
2249.209	2084.75
2252.382	2101.42
2255.555	2113.47
2258.727	2067.9
2261.9	2094.5
2265.071	2087.27
2268.243	2084.23
2271.414	2038.31
2274.585	2025.19
2277.756	2084.88
2280.926	2039.13
2284.096	2066.23
2287.266	2001.5
2290.436	2046.28
2293.605	2061.91
2296.774	2101.03
2299.942	2100.49
2303.111	2117.59
2306.279	2167.59
2309.447	2154.3
2312.614	2124.7
2315.781	2151.7
2318.948	2129.27
2322.115	2165.74
2325.281	2066.41
2328.447	2072.88
2331.613	2042.88
2334.779	2040.23
2337.944	2029.94
2341.109	2032.5
2344.274	2022.85
2347.438	1991.01
2350.602	2011.45
2353.766	2017.95
2356.929	2008.7
2360.092	2045.52
2363.255	2020.75
2366.418	1993.02
2369.58	2046.98
2372.742	1948.36
2375.904	1935.8
2379.066	1921.05
2382.227	1946.24
2385.388	1908.09
2388.548	1865.69
2391.709	1903.04
2394.869	1895.64
2398.029	1940.07
2401.188	1931.88
2404.347	1903.46
2407.506	1964.64
2410.665	2006.96
2413.823	1988.9
2416.981	1972.93
2420.139	1985.58
2423.296	2023.09
2426.453	1996.6
2429.61	2015.85
2432.767	1995.17
2435.923	2036.26
2439.079	1977.39
2442.235	2007.29
2445.391	1953.38
2448.546	1996.57
2451.701	2026.36
2454.855	2027.56
2458.009	2051.61
2461.163	2036.73
2464.317	2012.27
2467.471	2036.35
2470.624	2060.81
2473.777	2057.49
2476.929	2074.93
2480.082	2096.33
2483.234	2074.74
2486.385	2013.38
2489.537	2008.48
2492.688	2003.29
2495.839	2021.29
2498.989	2034.13
2502.14	2021.59
2505.29	2017.61
2508.439	2039.57
2511.589	1985.28
2514.738	1983.6
2517.887	2001.93
2521.035	2079.47
2524.183	2037.27
2527.331	2026.01
2530.479	2023.16
2533.627	2025.25
