Data from C_1_DIV_PA_2N_Splice17_12-01-27-776.txt Node
Date: Sat Mar 14 12:01:27 EDT 2020
User: sa697716
Spectrometer: FLMS03696
Trigger mode: 0
Integration Time (sec): 3.180400E-1
Scans to average: 20
Electric dark correction enabled: true
Nonlinearity correction enabled: true
Boxcar width: 5
XAxis mode: Wavelengths
Number of Pixels in Spectrum: 2048
>>>>>Begin Spectral Data<<<<<
187.83	-350609.71
188.298	2508.76
188.766	1342.85
189.233	1194.17
189.701	1608.33
190.169	2185.18
190.636	868.8
191.104	736.48
191.571	177.17
192.039	-9.71
192.506	17.42
192.974	480.01
193.441	-630.68
193.908	-44.58
194.375	31.89
194.842	15.61
195.31	101.05
195.777	147.75
196.244	354.79
196.711	486.33
197.177	623.66
197.644	900.56
198.111	1580.21
198.578	2209.97
199.045	1755.25
199.511	2851.05
199.978	3355.89
200.445	2825.63
200.911	3156.42
201.378	3541.81
201.844	3198.59
202.31	5512.36
202.777	5765.76
203.243	3196.85
203.709	3029.28
204.176	3628.69
204.642	2994.69
205.108	2802.31
205.574	2291.51
206.04	2109.99
206.506	1980.19
206.972	1861.44
207.438	1784.6
207.903	2031.07
208.369	1783.31
208.835	1785.35
209.301	1855.88
209.766	1897.43
210.232	1869.62
210.697	2331.22
211.163	2862.86
211.628	4307.48
212.094	3632.05
212.559	4457.26
213.024	2756.73
213.49	3349
213.955	3272.47
214.42	3223.28
214.885	2993.95
215.35	2887.04
215.815	2757.89
216.28	2919.11
216.745	2389.12
217.21	2572.51
217.675	2353.02
218.14	2633.31
218.604	2921.75
219.069	3308.7
219.534	3435.37
219.998	3991.27
220.463	4815.47
220.927	5948.06
221.392	5585.28
221.856	5641.63
222.32	7124.09
222.785	8814.48
223.249	11120.88
223.713	12449.32
224.177	12486.36
224.642	16119.2
225.106	19855.15
225.57	21808.87
226.034	16219.45
226.497	24761.19
226.961	22398.48
227.425	26143.61
227.889	29122.87
228.353	29224.36
228.816	60549.89
229.28	58077.76
229.744	49037.44
230.207	29901.55
230.671	29501.06
231.134	48941.86
231.597	56592.08
232.061	56910.49
232.524	55667.72
232.987	38442.55
233.45	34692.58
233.914	31219.18
234.377	32118.19
234.84	29502.26
235.303	34924.91
235.766	39085.74
236.229	40517.32
236.691	25586.63
237.154	28793.46
237.617	21748.01
238.08	22348.87
238.542	26236.22
239.005	18788.59
239.468	18698.18
239.93	17682.44
240.393	16098.34
240.855	14156.1
241.317	14543.22
241.78	17766.94
242.242	18396.37
242.704	19857.04
243.166	17299.07
243.629	15706.66
244.091	18135.69
244.553	19891.63
245.015	21362.78
245.477	27682.83
245.939	40637.74
246.4	43143.3
246.862	41936.2
247.324	39612.44
247.786	44430.7
248.247	58396.1
248.709	60451.9
249.17	45227.85
249.632	42650.52
250.093	49604.53
250.555	42911.38
251.016	26195.39
251.477	24870.55
251.939	26859.32
252.4	28202.2
252.861	33606.29
253.322	31274.43
253.783	37276.72
254.244	48450.59
254.705	38224.73
255.166	33981.85
255.627	33466.54
256.088	47222.78
256.549	50276.42
257.009	43353.39
257.47	52653.02
257.931	42901.69
258.391	32127.49
258.852	33118.47
259.312	34737.56
259.773	42992.89
260.233	36351.88
260.694	30703.67
261.154	34819.04
261.614	27933.58
262.074	25006.86
262.534	25984.12
262.994	24484.94
263.455	32691.4
263.915	27548.37
264.374	25947.86
264.834	28321.96
265.294	31440.11
265.754	32535.14
266.214	30836.07
266.673	28879.79
267.133	36448.3
267.593	36204.2
268.052	44311.94
268.512	38534.33
268.971	46483.79
269.431	50991.26
269.89	45670.34
270.349	68441.71
270.809	76388.01
271.268	68727.49
271.727	154360.99
272.186	99969.44
272.645	74973.01
273.104	54078.88
273.563	78246.42
274.022	61554.97
274.481	52374.33
274.94	40389.46
275.399	30018.57
275.857	34965.98
276.316	47282.28
276.775	42066.94
277.233	41456.93
277.692	38769.88
278.15	43898.83
278.609	45180.17
279.067	41828.67
279.525	38870.09
279.984	50228.48
280.442	60375.32
280.9	59552.71
281.358	39228.49
281.816	36599.39
282.274	35869.95
282.732	37146.78
283.19	37352.86
283.648	32330.58
284.106	34484.26
284.564	35135.54
285.021	32579.55
285.479	24328.01
285.937	22155.87
286.394	19446.41
286.852	20042.13
287.309	21070.94
287.767	20362.72
288.224	19386.07
288.682	21263.96
289.139	23370.24
289.596	21376.2
290.053	22270.76
290.511	28129.35
290.968	34129.11
291.425	46384.44
291.882	38630.81
292.339	33693.33
292.796	33496.94
293.252	31612.5
293.709	25125.72
294.166	22534.62
294.623	24948.39
295.079	23938.44
295.536	24067.52
295.992	21890.26
296.449	21676.66
296.905	22527.54
297.362	21611.89
297.818	22765.47
298.274	23643.48
298.731	24157.31
299.187	23956.19
299.643	25767.69
300.099	31215.58
300.555	34280.58
301.011	28671.68
301.467	27659.83
301.923	32474.63
302.379	31761.44
302.835	31235.26
303.291	31310.84
303.746	35662.66
304.202	45060.3
304.658	45328.12
305.113	30497.1
305.569	29916.49
306.024	31936.67
306.479	30443.43
306.935	25640.12
307.39	28054.45
307.845	25927.17
308.301	26101.9
308.756	25465.09
309.211	24563.06
309.666	25142.74
310.121	31267.64
310.576	31770.55
311.031	31568.45
311.486	36202.6
311.94	36283.15
312.395	48526.63
312.85	91290.81
313.305	449526.23
313.759	2323055.99
314.214	168521.53
314.668	133701.37
315.123	112452.03
315.577	40385.29
316.032	35916.97
316.486	44978.18
316.94	35476.39
317.394	24693.37
317.849	19184.33
318.303	18153.11
318.757	17168.82
319.211	18970.45
319.665	16622.24
320.119	16827.31
320.572	24162.55
321.026	22570.13
321.48	18785.84
321.934	20498.1
322.387	20555.98
322.841	22214.11
323.295	19958.8
323.748	23002.25
324.202	23380.07
324.655	28063.86
325.108	39179.19
325.562	27655.56
326.015	32917.65
326.468	24923.87
326.921	27886.53
327.374	26011.2
327.827	27113.18
328.28	30736.83
328.733	20599.59
329.186	18120.06
329.639	17288.74
330.092	14583.33
330.545	13906.57
330.997	14027.97
331.45	15341.81
331.903	17988.22
332.355	31000.48
332.808	30141.2
333.26	24893.15
333.713	27048.83
334.165	27254.89
334.617	36433.94
335.069	29548.24
335.522	53410.61
335.974	59170.26
336.426	54094.43
336.878	37520.48
337.33	19012.48
337.782	18581.58
338.234	23256.04
338.686	27823.83
339.137	33004.75
339.589	31089.82
340.041	24387.83
340.493	20974.55
340.944	21481.74
341.396	23150.93
341.847	19476.55
342.299	23020.18
342.75	28073.57
343.201	24568.98
343.653	28285.4
344.104	34794.97
344.555	27392.59
345.006	42623.11
345.457	32641.85
345.908	25948.51
346.359	24410.93
346.81	19873.84
347.261	20935.51
347.712	20627.61
348.163	22119.24
348.613	22385.76
349.064	20869.13
349.515	18273.15
349.965	18742.15
350.416	22572.29
350.866	24793.99
351.317	28043.87
351.767	46459.88
352.217	58731.08
352.668	48799.81
353.118	44749.23
353.568	43210.61
354.018	34172.71
354.468	36064.11
354.918	25886.82
355.368	22693.96
355.818	32084.8
356.268	92424.19
356.718	386821.56
357.168	96371.67
357.617	48415.16
358.067	53897.88
358.517	50497.8
358.966	59300.68
359.416	66503.38
359.865	71932.59
360.315	85644.9
360.764	39988.95
361.213	22433.37
361.663	21315.18
362.112	26372.24
362.561	42606.37
363.01	32176.29
363.459	27131.53
363.908	29418.99
364.357	25026.65
364.806	42354.57
365.255	29187.63
365.703	26785.55
366.152	26806.44
366.601	21743.17
367.05	17638.19
367.498	16064.69
367.947	16831.72
368.395	17538.62
368.844	15547.21
369.292	18776.45
369.74	12990.41
370.189	19941.32
370.637	23426.04
371.085	20296.34
371.533	24768.71
371.981	23958.27
372.429	22902.55
372.877	23890.87
373.325	20103.1
373.773	20551.54
374.221	18380.82
374.669	22873.4
375.116	19865.63
375.564	20090.5
376.012	22517.49
376.459	18636.97
376.907	22354.2
377.354	27119.56
377.801	25368.23
378.249	29157.01
378.696	37399.36
379.143	45358.44
379.591	48540.8
380.038	82146.29
380.485	59476.71
380.932	64469.48
381.379	59058.81
381.826	43551.75
382.273	31034.74
382.72	27247.77
383.166	26581.17
383.613	17277.2
384.06	15649.96
384.506	18163.85
384.953	13383.59
385.4	13522.42
385.846	11887.85
386.292	11641.47
386.739	11431.78
387.185	11334.48
387.631	11345.44
388.078	11050.18
388.524	11849.2
388.97	10943.52
389.416	9128.26
389.862	9710.69
390.308	9216.87
390.754	9356.71
391.2	10151.6
391.645	10397.52
392.091	9932.76
392.537	9607.72
392.983	9629.05
393.428	9457.06
393.874	10164.86
394.319	10198.48
394.765	9675.41
395.21	9955.52
395.655	9342.39
396.101	8765.74
396.546	7916.57
396.991	8008.37
397.436	7449.38
397.881	7225.61
398.326	6870.08
398.771	6493.09
399.216	5693.15
399.661	5147.51
400.106	5131.44
400.551	5266.7
400.995	4730.31
401.44	4690.32
401.885	4413.93
402.329	4467.16
402.774	4275.5
403.218	4139.56
403.663	4002.07
404.107	4119.97
404.551	4149.81
404.995	3816.24
405.44	3683.93
405.884	3754.59
406.328	3645.61
406.772	3643.92
407.216	3327.45
407.66	3229.21
408.104	3079.91
408.547	2889.98
408.991	2803.43
409.435	2709.12
409.879	2678.46
410.322	2650.47
410.766	2560.15
411.209	2435.43
411.653	2343.33
412.096	2297.67
412.54	2305.29
412.983	2291.34
413.426	2297.91
413.869	2300.56
414.312	2255.48
414.756	2174.92
415.199	2077.31
415.642	2021.05
416.085	2029.48
416.527	2020.02
416.97	2057.2
417.413	1953.24
417.856	1939.73
418.298	1924.6
418.741	1916.68
419.184	1919.23
419.626	2005.54
420.069	2008.38
420.511	2019.81
420.953	1974.41
421.396	1956.2
421.838	1907.49
422.28	1952.23
422.722	1959.31
423.164	1991.22
423.606	1959.38
424.048	1959.24
424.49	1863.86
424.932	1857.08
425.374	1837.18
425.816	1877.75
426.258	1919.3
426.699	1945.48
427.141	1917.27
427.582	1953.89
428.024	1947.68
428.465	1938.75
428.907	1889.89
429.348	1867.77
429.789	1868.06
430.231	1825.69
430.672	1845.98
431.113	1800.96
431.554	1773.62
431.995	1733.34
432.436	1666.81
432.877	1626.71
433.318	1596.12
433.759	1588.8
434.2	1589.33
434.64	1573.04
435.081	1580.54
435.522	1498.46
435.962	1444.36
436.403	1411.32
436.843	1428.83
437.284	1402.81
437.724	1366.98
438.164	1374.39
438.604	1344.64
439.045	1293.47
439.485	1237.58
439.925	1209.06
440.365	1178.39
440.805	1162.54
441.245	1147.03
441.685	1104.96
442.125	1095.25
442.564	1100.44
443.004	1071.11
443.444	1067.22
443.883	1066.98
444.323	1059.42
444.762	1062.26
445.202	1075.2
445.641	1090.27
446.081	1083.88
446.52	1090.07
446.959	1074.76
447.398	1044.81
447.837	1030.06
448.276	1010.49
448.716	1017.4
449.154	1023.85
449.593	995.62
450.032	988.46
450.471	967.68
450.91	966.71
451.349	961.14
451.787	955.04
452.226	968.12
452.664	966.25
453.103	966.69
453.541	963.3
453.98	958.38
454.418	964.67
454.856	949.5
455.295	949.79
455.733	955.19
456.171	961.3
456.609	962.26
457.047	962.24
457.485	974.38
457.923	974.38
458.361	961.53
458.798	964.81
459.236	961.88
459.674	969.73
460.111	972.82
460.549	963.39
460.987	959.39
461.424	956.53
461.862	951.36
462.299	937.82
462.736	937.01
463.173	940.11
463.611	929.94
464.048	927.06
464.485	933.64
464.922	925.33
465.359	921.44
465.796	904.43
466.233	898.36
466.67	888.79
467.106	886.63
467.543	877.73
467.98	867.47
468.416	845.78
468.853	839.48
469.29	814.02
469.726	805.06
470.162	782.75
470.599	776.85
471.035	769.62
471.471	750.31
471.907	746.35
472.344	739.83
472.78	739.06
473.216	747.04
473.652	736.56
474.088	734.11
474.523	730.41
474.959	736.21
475.395	728.08
475.831	721.45
476.266	724.37
476.702	720.54
477.138	712.6
477.573	709.14
478.008	704.91
478.444	706.98
478.879	710.33
479.314	710.79
479.75	708.33
480.185	711.28
480.62	716.46
481.055	719.26
481.49	723.55
481.925	733.31
482.36	744.57
482.795	764.51
483.229	784.31
483.664	801.3
484.099	804.5
484.534	815.86
484.968	822.02
485.403	823.58
485.837	822.56
486.271	819.94
486.706	819.13
487.14	809.09
487.574	794.43
488.009	785.71
488.443	776.64
488.877	782.1
489.311	782.73
489.745	788.34
490.179	792.38
490.613	802.32
491.046	805.02
491.48	807.07
491.914	804.28
492.348	806.43
492.781	806.03
493.215	802.53
493.648	799.02
494.082	799.7
494.515	795.61
494.948	799.11
495.382	799.71
495.815	799.27
496.248	799.32
496.681	806.43
497.114	812.3
497.547	816.98
497.98	824.74
498.413	824.53
498.846	826.74
499.279	827.32
499.711	823.18
500.144	817.3
500.577	819.38
501.009	821.86
501.442	822.75
501.874	814.3
502.306	806.28
502.739	803.52
503.171	807.55
503.603	801.11
504.036	799.01
504.468	794.72
504.9	794.19
505.332	788.28
505.764	781.17
506.196	776.05
506.627	777.44
507.059	777.79
507.491	772.92
507.923	759.92
508.354	760
508.786	757.38
509.217	759.27
509.649	758.92
510.08	762.41
510.512	763.81
510.943	763.84
511.374	761.36
511.805	763.66
512.237	766.18
512.668	776.41
513.099	784.13
513.53	791.76
513.961	795.17
514.391	805.34
514.822	816.85
515.253	828.61
515.684	834.42
516.114	842.27
516.545	846.43
516.975	852.82
517.406	854.9
517.836	848.04
518.267	843.8
518.697	845.64
519.127	839.83
519.558	835.96
519.988	831.14
520.418	830.29
520.848	833.67
521.278	832.92
521.708	853.04
522.138	855.72
522.567	867.29
522.997	875.98
523.427	880.03
523.857	885.15
524.286	886.85
524.716	891.79
525.145	899.55
525.575	902.53
526.004	906.57
526.433	884.01
526.863	880.59
527.292	874.14
527.721	875.6
528.15	876.37
528.579	876.19
529.008	880.59
529.437	889.52
529.866	893.9
530.295	900.96
530.724	906.64
531.152	919.03
531.581	926.61
532.01	934.47
532.438	937.67
532.867	944.4
533.295	952.85
533.723	955.46
534.152	954.74
534.58	955.18
535.008	947.57
535.436	948.58
535.865	952.91
536.293	959.43
536.721	966.75
537.149	980.18
537.576	982.12
538.004	988.89
538.432	992.76
538.86	992.42
539.287	995.19
539.715	1002.76
540.143	1004.23
540.57	1002.28
540.998	1000.42
541.425	989.56
541.852	978.41
542.28	976.4
542.707	967.63
543.134	959.97
543.561	957.72
543.988	954
544.415	952.98
544.842	949.58
545.269	945.38
545.696	945.85
546.123	951.39
546.549	944.47
546.976	938.68
547.403	937.68
547.829	937.67
548.256	937.72
548.682	935.48
549.108	931.32
549.535	930.15
549.961	930.67
550.387	924.09
550.813	921.45
551.24	925.54
551.666	925.4
552.092	920.37
552.518	917.4
552.943	914.02
553.369	917.42
553.795	919.53
554.221	920.75
554.646	918.89
555.072	923.81
555.498	925.17
555.923	928.72
556.349	935.56
556.774	939.67
557.199	939.67
557.625	942.28
558.05	939.5
558.475	943.81
558.9	942.41
559.325	937.97
559.75	934.81
560.175	931.72
560.6	928.15
561.025	926.6
561.449	926.54
561.874	928.36
562.299	930.15
562.723	931.89
563.148	926.07
563.572	927.45
563.997	932.21
564.421	932.75
564.846	931.54
565.27	933.61
565.694	932.05
566.118	937.22
566.542	941.12
566.966	937.37
567.39	935.32
567.814	930.49
568.238	930.34
568.662	932.46
569.086	935.09
569.509	939.49
569.933	932.3
570.357	929.58
570.78	920.08
571.204	915.61
571.627	911.92
572.05	912.14
572.474	914.01
572.897	908.54
573.32	907.01
573.743	903.55
574.166	896.26
574.589	898.35
575.012	894.74
575.435	895.61
575.858	891.72
576.281	887.11
576.704	879.96
577.126	873.59
577.549	870.07
577.972	865.22
578.394	860.81
578.817	859.41
579.239	849.82
579.661	846.16
580.084	839.51
580.506	833.72
580.928	833.1
581.35	829.26
581.772	828.97
582.194	822.57
582.616	816.88
583.038	810
583.46	804.92
583.882	804.92
584.303	807.62
584.725	806.64
585.147	810.88
585.568	817.4
585.99	824.74
586.411	830.03
586.833	840.02
587.254	842.38
587.675	851.2
588.096	858.68
588.518	856.76
588.939	848.12
589.36	847.77
589.781	840.13
590.202	826.87
590.623	822.93
591.043	821.12
591.464	814.14
591.885	812.64
592.305	809.86
592.726	802.56
593.147	803.79
593.567	801.47
593.987	798.25
594.408	795.58
594.828	793.28
595.248	790.85
595.669	781.56
596.089	777.72
596.509	775.05
596.929	768.64
597.349	769.54
597.769	765.15
598.189	762.21
598.608	763.02
599.028	765.75
599.448	765.86
599.867	759.95
600.287	757.87
600.706	756.66
601.126	752.04
601.545	752.62
601.965	753.24
602.384	750.59
602.803	752.54
603.222	750.09
603.641	746.56
604.061	746.15
604.48	744.75
604.898	750.34
605.317	753.78
605.736	756.39
606.155	756.18
606.574	752.29
606.992	756.99
607.411	756.49
607.829	754.13
608.248	754.97
608.666	755.72
609.085	757.39
609.503	755.5
609.921	755.51
610.339	758.92
610.758	760.65
611.176	760.83
611.594	758.45
612.012	759.58
612.43	764.93
612.847	770.41
613.265	774.33
613.683	779.47
614.101	783.19
614.518	783.51
614.936	779.84
615.353	773.75
615.771	773.86
616.188	776.06
616.606	776.31
617.023	774.35
617.44	768.92
617.857	766.19
618.274	762.86
618.691	760.85
619.108	757.05
619.525	754.94
619.942	761.49
620.359	766.24
620.776	764.7
621.192	764.08
621.609	764.82
622.026	770.25
622.442	776
622.859	779.84
623.275	776.22
623.691	780.9
624.108	789.15
624.524	798.19
624.94	798.48
625.356	805.81
625.772	814.49
626.188	821.13
626.604	822.51
627.02	820.2
627.436	819.49
627.852	826.08
628.268	834.1
628.683	829.42
629.099	824.65
629.514	821.49
629.93	823.9
630.345	827.55
630.761	824.71
631.176	827.65
631.591	825.2
632.007	821.46
632.422	819.93
632.837	813.27
633.252	812.95
633.667	807.39
634.082	803.54
634.497	797.96
634.911	788.59
635.326	789.33
635.741	780.4
636.155	776.9
636.57	781.78
636.984	784.88
637.399	790.31
637.813	793.91
638.228	798.59
638.642	806.29
639.056	804
639.47	808.78
639.884	809.49
640.298	811.83
640.712	816.43
641.126	813.48
641.54	813.9
641.954	815.83
642.368	814.66
642.781	816.44
643.195	811.18
643.609	818.74
644.022	821
644.436	825.27
644.849	823.35
645.262	821.6
645.676	830.21
646.089	833.28
646.502	829.49
646.915	831.61
647.328	825.04
647.741	829.17
648.154	824.36
648.567	828.3
648.98	822.75
649.393	828.68
649.805	830.31
650.218	827.56
650.631	819.11
651.043	818.11
651.456	817.27
651.868	820.45
652.28	838.2
652.693	853.41
653.105	862.06
653.517	873.51
653.929	877.55
654.341	885.8
654.753	880.79
655.165	890.65
655.577	892.88
655.989	892.83
656.401	892.27
656.813	866.25
657.224	854.35
657.636	834.71
658.047	825.02
658.459	813.04
658.87	811.7
659.282	807.92
659.693	797.1
660.104	791.47
660.515	788.14
660.926	794
661.338	799.62
661.749	801.25
662.159	800.76
662.57	804.67
662.981	808.92
663.392	810.14
663.803	823.04
664.213	828.41
664.624	831.82
665.035	841.39
665.445	834.31
665.855	833.62
666.266	833.15
666.676	837.73
667.086	834.09
667.497	839.31
667.907	838.1
668.317	832.63
668.727	832.37
669.137	837.79
669.547	839.5
669.956	845.65
670.366	850.96
670.776	855.07
671.186	862.63
671.595	869.2
672.005	875.39
672.414	876.68
672.824	877.02
673.233	884.75
673.642	888.2
674.052	892.58
674.461	896.22
674.87	902.38
675.279	899.43
675.688	901.05
676.097	902.21
676.506	898.05
676.915	915.25
677.323	918.38
677.732	914.36
678.141	912.31
678.549	899.33
678.958	897.11
679.366	894.25
679.775	898.3
680.183	906.12
680.592	909.3
681	911.6
681.408	898.77
681.816	901.09
682.224	904.81
682.632	908.05
683.04	931.1
683.448	947.21
683.856	967.69
684.264	990.33
684.671	1009.32
685.079	1033.01
685.487	1057.44
685.894	1095.45
686.302	1117.63
686.709	1130.14
687.116	1147.69
687.524	1153.6
687.931	1152.13
688.338	1143.6
688.745	1130.18
689.152	1118.19
689.559	1114.83
689.966	1112.14
690.373	1091.84
690.78	1086.65
691.187	1096.59
691.593	1095.02
692	1089.08
692.407	1098.05
692.813	1117.18
693.22	1127.26
693.626	1137.74
694.032	1144.28
694.439	1166.44
694.845	1179.51
695.251	1203.32
695.657	1225.11
696.063	1264.03
696.469	1293.57
696.875	1318.8
697.281	1331.57
697.687	1351.93
698.093	1371.53
698.498	1410.26
698.904	1439.13
699.31	1490.21
699.715	1530.29
700.12	1585.94
700.526	1605.14
700.931	1650.83
701.337	1693.13
701.742	1722.97
702.147	1785.02
702.552	1817.61
702.957	1867.62
703.362	1898.22
703.767	1932.92
704.172	1976.41
704.577	1967.93
704.981	2016.61
705.386	2049.12
705.791	2064.02
706.195	2132.62
706.6	2158.98
707.004	2231.6
707.408	2236.1
707.813	2280.11
708.217	2297.51
708.621	2322.64
709.025	2412.7
709.43	2438.29
709.834	2504.38
710.237	2581.89
710.641	2601.19
711.045	2646.88
711.449	2672.3
711.853	2723.37
712.256	2781.55
712.66	2838.92
713.064	2926.65
713.467	2987.74
713.87	3105.23
714.274	3174.29
714.677	3292.71
715.08	3452.82
715.484	3620.64
715.887	3819.78
716.29	4017.46
716.693	4224.84
717.096	4462.4
717.499	4611.16
717.901	4676.51
718.304	4741.31
718.707	4805.12
719.109	4758.41
719.512	4773.38
719.915	4694.69
720.317	4683.56
720.719	4760.7
721.122	4772.54
721.524	4769.32
721.926	4770.34
722.328	4900.29
722.731	4931.54
723.133	4997.39
723.535	5213.67
723.937	5269.3
724.338	5356.73
724.74	5435.32
725.142	5405.25
725.544	5441.28
725.945	5498.18
726.347	5529.82
726.748	5559.53
727.15	5607.46
727.551	5599.5
727.952	5605.38
728.354	5606.23
728.755	5635.34
729.156	5619.81
729.557	5640.95
729.958	5542.07
730.359	5512.94
730.76	5517.11
731.161	5474.69
731.562	5471.38
731.962	5496.99
732.363	5452.13
732.763	5405.12
733.164	5464.61
733.564	5412.83
733.965	5335.47
734.365	5317.92
734.766	5364.81
735.166	5340.79
735.566	5301.06
735.966	5287.71
736.366	5298.8
736.766	5243.82
737.166	5294.22
737.566	5264.17
737.966	5251.76
738.365	5309.57
738.765	5315.41
739.165	5246.26
739.564	5231.74
739.964	5293.17
740.363	5251.9
740.763	5259.99
741.162	5258.71
741.561	5231.99
741.96	5190.21
742.36	5220.28
742.759	5232.13
743.158	5285.2
743.557	5310.82
743.955	5362.26
744.354	5318.33
744.753	5395.91
745.152	5357.38
745.55	5428.02
745.949	5430.4
746.348	5438.28
746.746	5465.41
747.144	5425.33
747.543	5404.69
747.941	5469.32
748.339	5391.62
748.737	5384.88
749.136	5376.8
749.534	5455.88
749.932	5427.02
750.33	5456.76
750.727	5525.14
751.125	5500.33
751.523	5487.34
751.921	5542.75
752.318	5504.4
752.716	5579.28
753.113	5602.86
753.511	5634.4
753.908	5636.28
754.305	5618.03
754.703	5694.15
755.1	5767.23
755.497	5839.56
755.894	6064.62
756.291	6276.05
756.688	6665.03
757.085	7179.24
757.482	7901.94
757.878	8691.36
758.275	9409.31
758.672	10403.37
759.068	11206.98
759.465	12354.84
759.861	13838.58
760.258	15554.7
760.654	16437.68
761.05	16306.34
761.447	15569.41
761.843	14497.81
762.239	13397.62
762.635	12899.59
763.031	12414.8
763.427	11722.58
763.822	10997.3
764.218	10282.14
764.614	9349.37
765.01	8727.79
765.405	8322.77
765.801	8014.25
766.196	7627.22
766.592	7408.65
766.987	7038.71
767.382	6791.7
767.778	6686.87
768.173	6534.96
768.568	6446.39
768.963	6296.86
769.358	6316.75
769.753	6263.65
770.148	6165.54
770.542	6161.94
770.937	6125.25
771.332	6232.47
771.726	6254.66
772.121	6181.07
772.515	6245.62
772.91	6229.76
773.304	6313.72
773.699	6238.86
774.093	6303.49
774.487	6372.26
774.881	6424.91
775.275	6420.21
775.669	6372.91
776.063	6424.07
776.457	6467.44
776.851	6377.91
777.245	6369.88
777.638	6408.59
778.032	6546.09
778.425	6503.23
778.819	6550.27
779.212	6500.11
779.606	6453.06
779.999	6476.83
780.392	6457.09
780.786	6556.61
781.179	6583.24
781.572	6633.36
781.965	6649.19
782.358	6577.95
782.751	6646.24
783.143	6591.27
783.536	6676.26
783.929	6728.29
784.322	6864.11
784.714	6901.63
785.107	6896.39
785.499	6982.34
785.891	6953.77
786.284	6934.81
786.676	7104.34
787.068	7078.05
787.46	7139.03
787.852	7162.35
788.245	7265.18
788.636	7302.78
789.028	7384.66
789.42	7425.88
789.812	7436.84
790.204	7551.43
790.595	7667.65
790.987	7434.58
791.378	7464.91
791.77	7619.37
792.161	7779.83
792.553	7841.24
792.944	7706.02
793.335	7618.45
793.726	7708.62
794.117	7813.16
794.508	7977.78
794.899	7940.62
795.29	8109.06
795.681	8173.32
796.072	8004.54
796.463	7781.15
796.853	7794.84
797.244	7980.29
797.634	8025.61
798.025	8022.96
798.415	8038.54
798.806	8142.27
799.196	8243.4
799.586	8297.57
799.976	8252.04
800.366	8525.73
800.756	8816.62
801.146	8770.74
801.536	8806.12
801.926	8894.93
802.316	8927.98
802.706	9015.29
803.095	8870.53
803.485	8991.24
803.874	9045.55
804.264	9356.68
804.653	9321.42
805.043	9488.13
805.432	9610.22
805.821	9609.29
806.21	9627.34
806.599	9762.74
806.988	9812.2
807.377	9940.1
807.766	10094.27
808.155	10421.41
808.544	10109.39
808.933	10131.41
809.321	10107.85
809.71	10456.49
810.098	10645.55
810.487	11192.8
810.875	11759.63
811.264	11781.85
811.652	12111.52
812.04	12277
812.428	12470
812.816	13361.6
813.204	13841.77
813.592	14494.09
813.98	14888.58
814.368	14776.1
814.756	15329.63
815.144	15230.2
815.531	15779.63
815.919	15694.9
816.306	16056.08
816.694	15694.37
817.081	15753.12
817.469	16157.52
817.856	16149.56
818.243	16468.61
818.63	16916.48
819.017	16427.47
819.404	16501.1
819.791	16940.73
820.178	17670.48
820.565	17960.32
820.952	19050.03
821.339	18475.84
821.725	18699.89
822.112	17829.01
822.498	17787.08
822.885	17952.32
823.271	17851.96
823.657	18352.7
824.044	18356.45
824.43	18436.4
824.816	18401.1
825.202	17888.5
825.588	19085.95
825.974	19104
826.36	19709.39
826.746	19745.11
827.132	20163.84
827.517	20128.54
827.903	19204.71
828.289	19261.62
828.674	18351.15
829.06	18232.92
829.445	18706.8
829.83	19132.52
830.216	19694.04
830.601	20126.69
830.986	19646.68
831.371	19484.01
831.756	20139.8
832.141	19641.61
832.526	19634.8
832.911	19976.26
833.295	19838.39
833.68	20387.11
834.065	19659.44
834.449	18594.02
834.834	18505.92
835.218	18507.09
835.603	18918.72
835.987	18669.8
836.371	19645.16
836.755	19526.7
837.139	19993.46
837.524	20292.13
837.908	20093.37
838.291	20169.24
838.675	20251.41
839.059	20503.26
839.443	20492.87
839.827	20227.79
840.21	20806.06
840.594	20638.24
840.977	20889.59
841.361	20871.43
841.744	21308.28
842.127	21117.34
842.511	21407.54
842.894	22116.11
843.277	22573.08
843.66	23216.61
844.043	23310.89
844.426	22359.07
844.809	22000.2
845.191	22035.4
845.574	21492.87
845.957	21058.17
846.339	20934.97
846.722	20313.02
847.104	20388.16
847.487	20189.26
847.869	20202.49
848.252	20522.93
848.634	20914.56
849.016	21222.6
849.398	21363.91
849.78	22366.49
850.162	22380.21
850.544	22872.72
850.926	23625.1
851.307	23522.36
851.689	23844.4
852.071	24376.54
852.452	24762.81
852.834	24732.7
853.215	25194.44
853.597	25377.76
853.978	25717.79
854.359	26241.42
854.741	25070.44
855.122	24942.89
855.503	24604.11
855.884	24771.88
856.265	24703.62
856.646	24843.65
857.026	24384.62
857.407	24306.95
857.788	24492.34
858.169	24838.75
858.549	23844.04
858.93	24581.1
859.31	24636.86
859.69	24878.85
860.071	24389.24
860.451	24131.87
860.831	23255.73
861.211	24622.68
861.591	25270.71
861.971	25239.96
862.351	25462.51
862.731	25927.48
863.111	26223.79
863.491	26602.96
863.87	27638.94
864.25	28059.9
864.629	27588.01
865.009	28194.96
865.388	29195.4
865.768	31296.09
866.147	31175.53
866.526	29442.99
866.905	29795.67
867.284	31491.39
867.663	29917.66
868.042	28666.15
868.421	28565.91
868.8	29042.61
869.179	29330.83
869.558	27618.72
869.936	25450.77
870.315	25914
870.693	26552.43
871.072	28631.62
871.45	27273.86
871.828	27634.3
872.207	29049.32
872.585	28625.86
872.963	29408.11
873.341	28397.54
873.719	28071.53
874.097	27739.54
874.475	28266.9
874.853	28928.29
875.23	27724.43
875.608	28883.08
875.986	31225.41
876.363	29878.1
876.741	30783.54
877.118	30009.91
877.495	31482.27
877.873	32007.48
878.25	33681.32
878.627	32306.94
879.004	32746.64
879.381	32586.01
879.758	31733.13
880.135	29554.29
880.512	31239.75
880.889	30404.02
881.265	30087.81
881.642	29836.44
882.019	30338.55
882.395	29723.71
882.772	30904.86
883.148	29564.31
883.524	29446.91
883.901	29268.27
884.277	29713.47
884.653	29531.17
885.029	30374.09
885.405	33642.95
885.781	33375.1
886.157	31996.05
886.532	32387.84
886.908	32365.78
887.284	35999.59
887.659	37169.09
888.035	38335.01
888.411	39317.66
888.786	39840.94
889.161	41232.49
889.537	40459.98
889.912	41775.79
890.287	41740.02
890.662	42826.21
891.037	42065.25
891.412	39224.73
891.787	38853.79
892.162	37488.73
892.536	38348.24
892.911	36909.19
893.286	36128.29
893.66	34683.35
894.035	35568.4
894.409	38732.82
894.784	37167.07
895.158	37770.26
895.532	40007.31
895.906	41072.98
896.281	42027.09
896.655	41383.67
897.029	47276.52
897.402	49250.66
897.776	54801.21
898.15	54588.66
898.524	53998.03
898.898	54714.35
899.271	61249.13
899.645	53037.34
900.018	50957.24
900.392	52864.8
900.765	53259.21
901.138	49296.06
901.511	48546.69
901.884	44590.01
902.258	41141.78
902.631	42514.05
903.003	48919.1
903.376	44137.26
903.749	49500.04
904.122	52988.04
904.495	58343.4
904.867	59102.89
905.24	51325.81
905.612	47773.86
905.985	48856.45
906.357	51072.11
906.729	48735.53
907.102	41626.2
907.474	40070.78
907.846	40311.39
908.218	39778.15
908.59	35152.69
908.962	34012.83
909.334	36619.47
909.705	38464.65
910.077	37340.04
910.449	38870.7
910.82	39954.24
911.192	43963.05
911.563	45640.02
911.935	48858.7
912.306	48916.12
912.677	50533.65
913.048	50018.54
913.419	54263.64
913.79	54569.11
914.161	58516.46
914.532	55944.39
914.903	51434.4
915.274	48855.13
915.645	48116.52
916.015	42343.13
916.386	40387.64
916.756	42973.57
917.127	44295.42
917.497	39576.36
917.868	43071.8
918.238	40915.95
918.608	42077.91
918.978	42930.39
919.348	45467.59
919.718	46989.48
920.088	45272.9
920.458	47025.01
920.828	49495.77
921.198	46949.34
921.567	50139.57
921.937	38816.8
922.306	39193.75
922.676	42272.59
923.045	35259.79
923.415	33480.11
923.784	30514.46
924.153	31346.88
924.522	31296.37
924.891	29404.1
925.26	31483.59
925.629	30735.33
925.998	35336.52
926.367	34495.37
926.736	32841.84
927.104	39107.49
927.473	42057.52
927.842	50744.2
928.21	50281.74
928.578	52888.82
928.947	50027.96
929.315	50323.32
929.683	59020.3
930.051	59512.71
930.42	69108.61
930.788	59060.71
931.156	58625.55
931.523	54921.26
931.891	50757.36
932.259	48757.34
932.627	56475.21
932.994	79901.73
933.362	66025.17
933.729	57356.88
934.097	54860.28
934.464	46409.63
934.831	53569.19
935.199	52797.17
935.566	51212.39
935.933	51864.48
936.3	62789.82
936.667	48918.63
937.034	44070.4
937.401	43576.26
937.767	37583
938.134	33469.48
938.501	47188.38
938.867	50278.45
939.234	85052.45
939.6	72561.65
939.967	80032.08
940.333	53568.86
940.699	45570.31
941.065	36593.08
941.431	48017.34
941.798	46294.74
942.163	60833.92
942.529	38058.52
942.895	35053.36
943.261	22675.35
943.627	29751.06
943.992	26048.6
944.358	26095.88
944.723	26176.31
945.089	25518.45
945.454	23562.14
945.82	25148.29
946.185	24136.58
946.55	27952.23
946.915	25060.21
947.28	29415.65
947.645	25889.6
948.01	23890.75
948.375	24909.45
948.74	29888.98
949.104	34875.77
949.469	50364.92
949.834	89014.19
950.198	84411
950.562	50560.07
950.927	42087.23
951.291	50602.21
951.655	43146.88
952.02	40547.31
952.384	30643.38
952.748	26637.51
953.112	25937.31
953.476	22578.82
953.839	20884.82
954.203	20640.72
954.567	25822.31
954.931	40672.12
955.294	34805.92
955.658	35016.67
956.021	59502.64
956.385	100909.5
956.748	149020.73
957.111	231314.1
957.474	259628.71
957.837	292444.68
958.2	221502.29
958.563	79632.16
958.926	53870.63
959.289	81753.32
959.652	91209.35
960.015	68431.97
960.377	98258.73
960.74	112146.87
961.102	193679.08
961.465	207832.26
961.827	111161.17
962.189	213373.8
962.552	147933.32
962.914	118569.04
963.276	76882.61
963.638	63615.67
964	63046.21
964.362	42559.56
964.724	41133.2
965.085	29320.64
965.447	24032.82
965.809	27419.46
966.17	27464.37
966.532	29745.67
966.893	27284.98
967.255	24843.15
967.616	29295.93
967.977	23425.05
968.338	25609.94
968.699	21040.89
969.061	21034.99
969.421	21166.83
969.782	23750.72
970.143	20057.99
970.504	20744.18
970.865	23577.12
971.225	24064.32
971.586	23558.53
971.946	33608.83
972.307	29145.25
972.667	38096.07
973.027	39250.27
973.388	47606.74
973.748	32367.02
974.108	35224.76
974.468	47686.08
974.828	36740.2
975.188	28299.79
975.548	25992.59
975.907	21815.48
976.267	24491.92
976.627	20596.54
976.986	21348.41
977.346	20351.86
977.705	19583.09
978.064	17834.39
978.424	14841.11
978.783	15351.8
979.142	17524.72
979.501	16754.72
979.86	17709.31
980.219	17050.83
980.578	21987.81
980.937	24630.81
981.296	21973.05
981.654	22613.05
982.013	35220.89
982.371	45683.39
982.73	42715.45
983.088	48385.14
983.447	51717.44
983.805	73877.5
984.163	154490.82
984.521	171350.77
984.879	251060.18
985.237	-407888.63
985.595	392924.84
985.953	97577.87
986.311	56338.48
986.669	32684.42
987.026	28186.79
987.384	37884.06
987.741	39207.9
988.099	27957.71
988.456	22280.28
988.814	20847.63
989.171	18104.29
989.528	17882.24
989.885	18885.82
990.242	14958.64
990.599	18617
990.956	15218.4
991.313	10631.06
991.67	8729.17
992.027	9252.09
992.383	8215.38
992.74	7214.49
993.096	7568.82
993.453	7838.87
993.809	8127.1
994.165	10821.87
994.522	9904.92
994.878	10917.29
995.234	13710.59
995.59	13511.56
995.946	12829.61
996.302	14648.26
996.658	16915.78
997.013	18654.67
997.369	22108.3
997.725	28262.66
998.08	18322.37
998.436	28319.42
998.791	39054.12
999.147	38986.03
999.502	42530.18
999.857	30874.59
1000.212	50332
1000.567	71673.07
1000.922	41250.12
1001.277	26234.45
1001.632	19497.28
1001.987	25110.27
1002.342	18020.01
1002.696	14432.8
1003.051	11505.13
1003.406	13942.1
1003.76	13900.15
1004.114	13693.37
1004.469	11527.9
1004.823	9565.09
1005.177	10324.76
1005.531	8167.89
1005.885	7230.9
1006.239	8150.39
1006.593	10209.71
1006.947	13677.25
1007.301	10281.79
1007.655	11203.64
1008.008	8218.35
1008.362	9212.13
1008.715	13145.03
1009.069	11965.93
1009.422	18009.82
1009.776	36157.32
1010.129	24029.46
1010.482	20095.73
1010.835	17006.15
1011.188	35290.66
1011.541	33250.78
1011.894	-203602.98
1012.247	598939.31
1012.6	40704.75
1012.952	25613.43
1013.305	13226.16
1013.657	9525.69
1014.01	9013.16
1014.362	7437.09
1014.715	6573.68
1015.067	5708.92
1015.419	5565.44
1015.771	4927.85
1016.123	4386.77
1016.475	4516.73
1016.827	4804.94
1017.179	5157.13
1017.531	5208.4
1017.883	5316.21
1018.234	5124.34
1018.586	6485.4
1018.938	6864.5
1019.289	9478.09
1019.64	10851.01
1019.992	10106.47
1020.343	9264.33
1020.694	7318.39
1021.045	6467.18
1021.396	7398.94
1021.747	7957.44
1022.098	9543.67
1022.449	6931.78
1022.8	6437.89
1023.151	4486.45
1023.501	3970.63
1023.852	4333.92
1024.202	4481.94
1024.553	4932.07
1024.903	4817.6
1025.253	4107.61
1025.604	3684.52
1025.954	4592.49
1026.304	5609.75
1026.654	6562.98
1027.004	9620.28
1027.354	15590.31
1027.703	14624.73
1028.053	19264.4
1028.403	28149.19
1028.753	40878.96
1029.102	55747.24
1029.452	286970.72
1029.801	12397.44
1030.15	8001.21
1030.499	6797.38
897.758	2228.34
901.051	2157.56
904.343	2193.13
907.636	2200.41
910.928	2265.17
914.22	2181.81
917.511	2187.84
920.803	2235.05
924.094	2234.97
927.384	2237.82
930.675	2203.35
933.965	2163.99
937.255	2194.7
940.544	2162.08
943.834	2162.75
947.123	2101.09
950.411	2191.08
953.7	2172.02
956.988	2154.74
960.276	2089.52
963.563	2139.36
966.851	2148.3
970.138	2194.31
973.424	2196.14
976.711	2149.97
979.997	2196.68
983.283	2241.66
986.568	2172.62
989.853	2164.08
993.138	2192.23
996.423	2278.46
999.708	2237.41
1002.992	2268.6
1006.275	2177.69
1009.559	2185.57
1012.842	2284.94
1016.125	2238.09
1019.408	2216.14
1022.69	2276.71
1025.972	2312.12
1029.254	2287.59
1032.536	2248.72
1035.817	2258.44
1039.098	2229.19
1042.379	2284.34
1045.659	2311.28
1048.939	2258.68
1052.219	2266.22
1055.498	2262.01
1058.778	2257.72
1062.057	2231.36
1065.335	2256.28
1068.614	2268.84
1071.892	2263.75
1075.17	2316.45
1078.447	2320.21
1081.724	2317.36
1085.001	2344.05
1088.278	2323.43
1091.554	2329.19
1094.83	2321.26
1098.106	2360.66
1101.382	2391.21
1104.657	2389.67
1107.932	2394.03
1111.206	2373.27
1114.481	2324.31
1117.755	2323.8
1121.029	2317.3
1124.302	2379.64
1127.575	2343.72
1130.848	2341.88
1134.121	2308.98
1137.393	2272.72
1140.665	2331.98
1143.937	2307.15
1147.208	2253.97
1150.48	2314.24
1153.75	2302.2
1157.021	2304.63
1160.291	2279.62
1163.561	2336.09
1166.831	2302.25
1170.101	2331.23
1173.37	2288.3
1176.639	2246.29
1179.907	2291.21
1183.176	2315.91
1186.444	2316.46
1189.711	2341.23
1192.979	2365.19
1196.246	2320.52
1199.513	2330.58
1202.78	2337.54
1206.046	2346.74
1209.312	2374.51
1212.578	2393.56
1215.843	2359.04
1219.108	2325.36
1222.373	2348.47
1225.638	2320.52
1228.902	2313.03
1232.166	2266.7
1235.43	2254.54
1238.693	2280.86
1241.956	2271.49
1245.219	2320.43
1248.482	2300.35
1251.744	2299.46
1255.006	2424.49
1258.268	2373.7
1261.529	2328.86
1264.79	2328.65
1268.051	2430.15
1271.312	2439.96
1274.572	2411.08
1277.832	2398.9
1281.092	2380.23
1284.351	2371.43
1287.61	2355.51
1290.869	2288.96
1294.128	2283.71
1297.386	2332.92
1300.644	2327.14
1303.902	2338.28
1307.159	2203.79
1310.416	2255.51
1313.673	2283.15
1316.93	2279.49
1320.186	2312.65
1323.442	2345.87
1326.697	2346.08
1329.953	2320.99
1333.208	2356.44
1336.463	2324.62
1339.717	2283.69
1342.972	2392.06
1346.226	2362.26
1349.479	2310.03
1352.733	2290.29
1355.986	2292.69
1359.238	2273.85
1362.491	2278.44
1365.743	2274.98
1368.995	2266.92
1372.247	2280.29
1375.498	2299.55
1378.749	2340.25
1382	2287.99
1385.251	2325.33
1388.501	2276.66
1391.751	2277.04
1395	2240.96
1398.25	2266.59
1401.499	2286.1
1404.748	2234.2
1407.996	2211.62
1411.244	2199.49
1414.492	2185.37
1417.74	2170.37
1420.987	2174.44
1424.234	2233.93
1427.481	2195.66
1430.728	2254.43
1433.974	2229.31
1437.22	2229.32
1440.465	2225.36
1443.711	2222.47
1446.956	2247.16
1450.201	2218.82
1453.445	2260.26
1456.689	2248.38
1459.933	2258.01
1463.177	2297.73
1466.42	2270.3
1469.663	2253.28
1472.906	2268.14
1476.148	2317.93
1479.391	2292.06
1482.633	2266.48
1485.874	2290.64
1489.115	2297.12
1492.356	2280.67
1495.597	2259.12
1498.838	2255.06
1502.078	2238.04
1505.318	2208.4
1508.557	2242.92
1511.797	2240.8
1515.036	2283.29
1518.274	2257.43
1521.513	2213.12
1524.751	2222.89
1527.989	2250.19
1531.227	2268.94
1534.464	2282.68
1537.701	2276.45
1540.938	2290.29
1544.174	2238.88
1547.41	2227.76
1550.646	2269.99
1553.882	2319.06
1557.117	2375.74
1560.352	2385.69
1563.587	2346.79
1566.821	2314.61
1570.055	2328.07
1573.289	2312.05
1576.523	2371.2
1579.756	2385.13
1582.989	2408.1
1586.222	2367.18
1589.454	2394.94
1592.686	2377.2
1595.918	2406.55
1599.15	2403.52
1602.381	2448.97
1605.612	2431.79
1608.843	2523.15
1612.073	2446.87
1615.303	2436.26
1618.533	2432.37
1621.762	2431.28
1624.992	2409.16
1628.221	2413.16
1631.449	2400.43
1634.678	2426.33
1637.906	2397.7
1641.134	2425.3
1644.361	2392.38
1647.588	2380.34
1650.815	2402.59
1654.042	2369.29
1657.269	2397.24
1660.495	2376.59
1663.72	2360.79
1666.946	2329.67
1670.171	2304.01
1673.396	2275.81
1676.621	2259.79
1679.845	2256.05
1683.069	2263.54
1686.293	2292.74
1689.517	2281.38
1692.74	2231.94
1695.963	2254.05
1699.185	2294.16
1702.408	2266.59
1705.63	2297.3
1708.852	2314.35
1712.073	2283.49
1715.294	2294.06
1718.515	2336
1721.736	2295.96
1724.956	2276.41
1728.176	2298.25
1731.396	2319.71
1734.616	2305.36
1737.835	2341.85
1741.054	2310.93
1744.272	2303.61
1747.491	2341.82
1750.709	2366.73
1753.927	2314.34
1757.144	2338.91
1760.361	2394.98
1763.578	2367.86
1766.795	2317.62
1770.011	2307.2
1773.227	2333.35
1776.443	2375.26
1779.658	2415.01
1782.874	2357.31
1786.089	2349.46
1789.303	2353.23
1792.518	2350.78
1795.732	2336.88
1798.945	2354.8
1802.159	2395.38
1805.372	2337.47
1808.585	2330.65
1811.797	2333.61
1815.01	2355.09
1818.222	2376.39
1821.434	2333.32
1824.645	2377.73
1827.856	2383.55
1831.067	2415.69
1834.278	2354.11
1837.488	2336.26
1840.698	2459.38
1843.908	2400.2
1847.117	2367.59
1850.326	2293.42
1853.535	2353.37
1856.744	2385.94
1859.952	2306.13
1863.16	2311.33
1866.368	2324.52
1869.575	2435.51
1872.782	2320.9
1875.989	2250.76
1879.196	2302.84
1882.402	2290.64
1885.608	2324.98
1888.814	2264.57
1892.019	2176.01
1895.224	2226.03
1898.429	2192.77
1901.634	2176.2
1904.838	2148.52
1908.042	2202.67
1911.246	2217.47
1914.449	2177.88
1917.652	2160.15
1920.855	2143.09
1924.058	2166.65
1927.26	2211.05
1930.462	2233.41
1933.664	2272.14
1936.865	2214.45
1940.066	2233.72
1943.267	2177.9
1946.467	2187.5
1949.668	2205.36
1952.868	2280.53
1956.067	2266.27
1959.267	2208.6
1962.466	2232
1965.665	2215.29
1968.863	2205.34
1972.061	2208.64
1975.259	2201.52
1978.457	2277.17
1981.654	2240.06
1984.852	2244.55
1988.048	2192.81
1991.245	2181.64
1994.441	2271.16
1997.637	2230.15
2000.833	2211.01
2004.028	2249.12
2007.223	2310.83
2010.418	2299.81
2013.613	2250.47
2016.807	2241.97
2020.001	2234.94
2023.194	2258.86
2026.388	2245.35
2029.581	2188.06
2032.774	2249.46
2035.966	2262.48
2039.158	2207.13
2042.35	2226.19
2045.542	2150.77
2048.733	2234.39
2051.924	2229.73
2055.115	2246.79
2058.306	2210.21
2061.496	2264.38
2064.686	2315.17
2067.875	2221.96
2071.065	2224.91
2074.254	2243.22
2077.442	2198.15
2080.631	2282.17
2083.819	2211.86
2087.007	2201.04
2090.195	2185.46
2093.382	2203.45
2096.569	2186.97
2099.756	2148.97
2102.942	2196.32
2106.128	2208.19
2109.314	2198.16
2112.5	2183.1
2115.685	2150.8
2118.87	2158.33
2122.055	2219.79
2125.239	2200.96
2128.424	2186.4
2131.608	2248.07
2134.791	2230.87
2137.974	2268.31
2141.157	2258.79
2144.34	2228.14
2147.523	2220.01
2150.705	2245.74
2153.887	2215.46
2157.068	2187.82
2160.25	2168.74
2163.431	2191.65
2166.611	2159.71
2169.792	2183.25
2172.972	2094.91
2176.152	2145.53
2179.331	2174.31
2182.511	2176.44
2185.69	2199.39
2188.868	2203.86
2192.047	2236.27
2195.225	2250.76
2198.403	2200.77
2201.58	2189.89
2204.758	2174
2207.935	2249.55
2211.111	2164.25
2214.288	2152.46
2217.464	2185.92
2220.64	2142.42
2223.815	2190.91
2226.991	2125.98
2230.166	2142.4
2233.34	2183.87
2236.515	2197.85
2239.689	2263.17
2242.863	2214.33
2246.036	2267.65
2249.209	2249.75
2252.382	2268.66
2255.555	2277.07
2258.727	2227.11
2261.9	2257.01
2265.071	2247.38
2268.243	2245.97
2271.414	2190.64
2274.585	2174.49
2277.756	2234.86
2280.926	2191.07
2284.096	2223.27
2287.266	2152.18
2290.436	2198.59
2293.605	2217.27
2296.774	2255.76
2299.942	2259.86
2303.111	2275.63
2306.279	2329.58
2309.447	2314.54
2312.614	2284.07
2315.781	2309.19
2318.948	2286.34
2322.115	2323.98
2325.281	2223.49
2328.447	2233.95
2331.613	2202.54
2334.779	2196.1
2337.944	2192.39
2341.109	2193.77
2344.274	2182.08
2347.438	2149.06
2350.602	2171.69
2353.766	2179.7
2356.929	2169.44
2360.092	2207.61
2363.255	2175.44
2366.418	2140.14
2369.58	2208.69
2372.742	2078.16
2375.904	2072.52
2379.066	2057.2
2382.227	2084.71
2385.388	2045.05
2388.548	1993.32
2391.709	2035.54
2394.869	2023.09
2398.029	2079.98
2401.188	2077.78
2404.347	2039.24
2407.506	2122.29
2410.665	2161.02
2413.823	2147.55
2416.981	2125.26
2420.139	2143.81
2423.296	2186.88
2426.453	2159.69
2429.61	2179.31
2432.767	2150.25
2435.923	2191.81
2439.079	2136.65
2442.235	2170.05
2445.391	2111.55
2448.546	2151.41
2451.701	2189.07
2454.855	2182.3
2458.009	2210.55
2461.163	2200.6
2464.317	2174.71
2467.471	2199.2
2470.624	2225.52
2473.777	2217.87
2476.929	2235.77
2480.082	2259.12
2483.234	2234.05
2486.385	2171.55
2489.537	2167.93
2492.688	2156.28
2495.839	2173.12
2498.989	2187.78
2502.14	2175.5
2505.29	2168.01
2508.439	2192.2
2511.589	2131.78
2514.738	2128.07
2517.887	2152.44
2521.035	2228.7
2524.183	2188.81
2527.331	2176.92
2530.479	2169.39
2533.627	2171.54
