Data from C_1_DIV_OH_2N_Splice17_11-50-19-947.txt Node
Date: Sat Mar 14 11:50:19 EDT 2020
User: sa697716
Spectrometer: FLMS03696
Trigger mode: 0
Integration Time (sec): 3.180400E-1
Scans to average: 20
Electric dark correction enabled: true
Nonlinearity correction enabled: true
Boxcar width: 5
XAxis mode: Wavelengths
Number of Pixels in Spectrum: 2048
>>>>>Begin Spectral Data<<<<<
187.83	-223111.52
188.298	1638.57
188.766	942.88
189.233	823.91
189.701	1145.47
190.169	1625.28
190.636	628.16
191.104	483.1
191.571	73.34
192.039	-39.66
192.506	-63.78
192.974	466.25
193.441	-789.41
193.908	-75.29
194.375	-57.6
194.842	-19.46
195.31	56.97
195.777	158.13
196.244	379.16
196.711	542.41
197.177	697.5
197.644	1013.09
198.111	1759.08
198.578	2499.67
199.045	1989.23
199.511	3296.28
199.978	3868.2
200.445	3275.6
200.911	3651.83
201.378	4094.45
201.844	3701.96
202.31	6349.98
202.777	6620.14
203.243	3689.95
203.709	3513.69
204.176	4207.28
204.642	3472.21
205.108	3266.5
205.574	2684.5
206.04	2461.56
206.506	2328.72
206.972	2211.79
207.438	2136.83
207.903	2436.13
208.369	2145.03
208.835	2139.02
209.301	2249.19
209.766	2328.59
210.232	2305.14
210.697	2876.55
211.163	3583.81
211.628	5463.47
212.094	4609.61
212.559	5680.07
213.024	3574.75
213.49	4372.89
213.955	4291.65
214.42	4246.73
214.885	3980.48
215.35	3841.76
215.815	3677.69
216.28	3950.67
216.745	3271.77
217.21	3601.38
217.675	3414.67
218.14	3937.23
218.604	4546.37
219.069	5346.42
219.534	5733.96
219.998	6862.73
220.463	8512.41
220.927	10800.13
221.392	10358.81
221.856	10633.78
222.32	13665.21
222.785	17031.58
223.249	21676.81
223.713	24392.46
224.177	24574.1
224.642	31821.69
225.106	39399.94
225.57	43363.04
226.034	32267.53
226.497	49237.05
226.961	44540.57
227.425	51932.09
227.889	57860.58
228.353	58034.28
228.816	120146.38
229.28	115006.51
229.744	97227.21
230.207	59018.98
230.671	58096.1
231.134	96529.94
231.597	111353.6
232.061	111545.43
232.524	108927.36
232.987	75083.2
233.45	67464.58
233.914	60484.69
234.377	62118
234.84	56808.46
235.303	67099.23
235.766	74868.72
236.229	77325.02
236.691	48739.93
237.154	54803.05
237.617	41188.36
238.08	42183.95
238.542	49417.85
239.005	35311.47
239.468	35014.33
239.93	32959.54
240.393	29925.3
240.855	26260.52
241.317	26897.37
241.78	32731.66
242.242	33779.74
242.704	36401.29
243.166	31646.4
243.629	28662.5
244.091	33026.13
244.553	36146.74
245.015	38856.33
245.477	50265.83
245.939	73678.19
246.4	78110.12
246.862	75890.79
247.324	71513.58
247.786	80104.41
248.247	105042.56
248.709	108666.17
249.17	81231.51
249.632	76458.67
250.093	88499.99
250.555	76389.34
251.016	46517.53
251.477	44100.03
251.939	47556.29
252.4	49914.26
252.861	59327.61
253.322	55121.5
253.783	65619.31
254.244	85111.65
254.705	67174.23
255.166	59800.98
255.627	58887.31
256.088	83007.18
256.549	88219.5
257.009	76016.1
257.47	92267.28
257.931	75218.71
258.391	56424.47
258.852	58175.97
259.312	61024.85
259.773	75364.76
260.233	63623.63
260.694	53658.08
261.154	60939.38
261.614	48828.63
262.074	43674.43
262.534	45364.85
262.994	42740.76
263.455	56936.84
263.915	47927.23
264.374	45152
264.834	49335.34
265.294	54732.65
265.754	56690.7
266.214	53670.84
266.673	50347.8
267.133	63557.05
267.593	63095.42
268.052	77229.96
268.512	67215.22
268.971	80992.39
269.431	88780.16
269.89	79466.58
270.349	119096.56
270.809	132725.63
271.268	119241.45
271.727	267549.88
272.186	173218.74
272.645	129831.64
273.104	93709.9
273.563	135605.69
274.022	106788.5
274.481	90781.43
274.94	69927.38
275.399	52002.73
275.857	60566.28
276.316	81987.27
276.775	72914.02
277.233	71783.39
277.692	67128.98
278.15	75842.5
278.609	77951.58
279.067	72112.18
279.525	66931.18
279.984	86487.33
280.442	103800.74
280.9	102210.31
281.358	67168.01
281.816	62539.07
282.274	61207.11
282.732	63283.87
283.19	63548.8
283.648	54795.85
284.106	58326.44
284.564	59286.74
285.021	54865.39
285.479	40861.29
285.937	37179.38
286.394	32554.27
286.852	33505.69
287.309	35165.32
287.767	33851.04
288.224	32163.74
288.682	35280.5
289.139	38616.73
289.596	35310.76
290.053	36655.74
290.511	46252.25
290.968	55954.56
291.425	75995.09
291.882	63102.75
292.339	54849.88
292.796	54496.44
293.252	51333.85
293.709	40707.79
294.166	36502.45
294.623	40339.08
295.079	38730.07
295.536	38815.88
295.992	35225.76
296.449	34809.48
296.905	36139.32
297.362	34650.15
297.818	36431.48
298.274	37715
298.731	38443.68
299.187	38013.75
299.643	40792.93
300.099	49267.35
300.555	54046.63
301.011	45164.12
301.467	43383.37
301.923	50826.42
302.379	49581.87
302.835	48651.32
303.291	48689.51
303.746	55421.37
304.202	69959.72
304.658	70181.95
305.113	47198.48
305.569	46219.5
306.024	49254.94
306.479	47014.32
306.935	39565.52
307.39	43199.94
307.845	39848.03
308.301	40080.11
308.756	39007.66
309.211	37580.49
309.666	38481.11
310.121	47664.28
310.576	48391.45
311.031	47976.82
311.486	54915.36
311.94	54898.44
312.395	73361.81
312.85	137988.84
313.305	678440.28
313.759	3501850.8
314.214	253453.41
314.668	200471.38
315.123	168302.88
315.577	60214.58
316.032	53501.71
316.486	66981.31
316.94	52710.26
317.394	36691.75
317.849	28445.02
318.303	26909.85
318.757	25375.32
319.211	28029.29
319.665	24532.77
320.119	24824.81
320.572	35600.27
321.026	33244.36
321.48	27636.83
321.934	30176.08
322.387	30217.52
322.841	32622.59
323.295	29273.27
323.748	33783.59
324.202	34239.74
324.655	41094.88
325.108	57354.02
325.562	40500.25
326.015	48193
326.468	36406.07
326.921	40665.24
327.374	37902.69
327.827	39439.86
328.28	44636.93
328.733	29872.81
329.186	26292.67
329.639	25049.65
330.092	21142.48
330.545	20142.54
330.997	20281.04
331.45	22125.77
331.903	25910.36
332.355	44595.78
332.808	43372.29
333.26	35772.11
333.713	38781.33
334.165	39028.56
334.617	52132.78
335.069	42139.61
335.522	76236.47
335.974	84292.05
336.426	77169.56
336.878	53554.99
337.33	27108.11
337.782	26464.71
338.234	33081.67
338.686	39621.1
339.137	46919.48
339.589	44169.7
340.041	34611.86
340.493	29715.91
340.944	30456.53
341.396	32773.92
341.847	27499.2
342.299	32426.58
342.75	39563.03
343.201	34642.16
343.653	39875.37
344.104	49096.34
344.555	38659.81
345.006	60226.88
345.457	46007.09
345.908	36606.62
346.359	34404
346.81	28034.93
347.261	29588.37
347.712	29138.65
348.163	31247.5
348.613	31538.53
349.064	29418.79
349.515	25780.87
349.965	26427.74
350.416	31865.58
350.866	34939.27
351.317	39578.91
351.767	65581.09
352.217	82878.98
352.668	68855.53
353.118	63123.26
353.568	61009.95
354.018	48179.67
354.468	50722.93
354.918	36368.62
355.368	31848.48
355.818	44999.75
356.268	129534.68
356.718	541656.92
357.168	134703.33
357.617	67625.22
358.067	75211.03
358.517	70488.03
358.966	82642.48
359.416	92520.07
359.865	100102.58
360.315	119371.52
360.764	55662.09
361.213	31145.91
361.663	29549.79
362.112	36493.86
362.561	58893.13
363.01	44412.74
363.459	37407.53
363.908	40555.26
364.357	34472.14
364.806	58184.71
365.255	39925.98
365.703	36560.42
366.152	36653.37
366.601	29701.44
367.05	24106.1
367.498	21862.62
367.947	22852.68
368.395	23766.2
368.844	21001.47
369.292	25398.89
369.74	17536.13
370.189	26912.66
370.637	31565.08
371.085	27229.61
371.533	33151.86
371.981	31948.61
372.429	30452.78
372.877	31766.06
373.325	26571.85
373.773	27129.08
374.221	24100.56
374.669	29918.52
375.116	25854.41
375.564	26074.47
376.012	29132.72
376.459	23988.62
376.907	28671.31
377.354	34698.44
377.801	32251.65
378.249	37026.27
378.696	47283.34
379.143	57242.71
379.591	61027.66
380.038	103003.77
380.485	74351.5
380.932	80266.36
381.379	73275.33
381.826	53841.52
382.273	38241.55
382.72	33489.93
383.166	32598.13
383.613	21155.17
384.06	19094.62
384.506	22085.36
384.953	16229.07
385.4	16342.32
385.846	14313.33
386.292	13980.98
386.739	13690.34
387.185	13564.29
387.631	13559.15
388.078	13133.58
388.524	14036.67
388.97	12937.27
389.416	10771.29
389.862	11442.37
390.308	10831.29
390.754	10983.89
391.2	11914.77
391.645	12184.88
392.091	11599.78
392.537	11189.14
392.983	11225.28
393.428	10987.01
393.874	11768.05
394.319	11779.85
394.765	11142.7
395.21	11428.65
395.655	10684.11
396.101	9988.72
396.546	8998.42
396.991	9078.18
397.436	8414.19
397.881	8104.95
398.326	7681.2
398.771	7254.54
399.216	6338.61
399.661	5701.84
400.106	5671.3
400.551	5796.95
400.995	5188.48
401.44	5129.75
401.885	4808.78
402.329	4847.89
402.774	4637.17
403.218	4470.58
403.663	4298.99
404.107	4410.14
404.551	4430.59
404.995	4057.46
405.44	3905.13
405.884	3956.08
406.328	3819.09
406.772	3805.61
407.216	3466.42
407.66	3348.82
408.104	3179.63
408.547	2969.86
408.991	2868.68
409.435	2761.87
409.879	2715.76
410.322	2678.05
410.766	2578.05
411.209	2446.28
411.653	2341.43
412.096	2283.57
412.54	2281.35
412.983	2262.95
413.426	2263.32
413.869	2258.84
414.312	2206.82
414.756	2128.15
415.199	2029.5
415.642	1970.91
416.085	1969.44
416.527	1956.62
416.97	1988.21
417.413	1883.95
417.856	1864.09
418.298	1844.69
418.741	1831.2
419.184	1828.26
419.626	1904.72
420.069	1900.55
420.511	1908.21
420.953	1865.37
421.396	1844.94
421.838	1798.28
422.28	1839.44
422.722	1846.9
423.164	1872.93
423.606	1841.22
424.048	1841.78
424.49	1747.6
424.932	1740.74
425.374	1720.22
425.816	1753.5
426.258	1790.26
426.699	1813.32
427.141	1786.01
427.582	1815.58
428.024	1808.64
428.465	1801.1
428.907	1757.55
429.348	1738.47
429.789	1736.91
430.231	1700.33
430.672	1721.39
431.113	1681.84
431.554	1655.71
431.995	1618.76
432.436	1560.78
432.877	1525.22
433.318	1498.75
433.759	1489.99
434.2	1492.07
434.64	1479.47
435.081	1483.95
435.522	1408.68
435.962	1357.85
436.403	1329.5
436.843	1349.21
437.284	1322.63
437.724	1291.28
438.164	1298.68
438.604	1273.75
439.045	1224.73
439.485	1172.62
439.925	1149.09
440.365	1122.6
440.805	1110.13
441.245	1096.52
441.685	1056.33
442.125	1050.38
442.564	1059.37
443.004	1034.77
443.444	1033.71
443.883	1036.89
444.323	1034.56
444.762	1042.39
445.202	1058.05
445.641	1078.12
446.081	1077.08
446.52	1088.55
446.959	1079.36
447.398	1051.84
447.837	1041.49
448.276	1025.87
448.716	1039.04
449.154	1048.85
449.593	1023.49
450.032	1022.1
450.471	1005.28
450.91	1007.09
451.349	1006.1
451.787	1004.24
452.226	1021.27
452.664	1024.05
453.103	1026.87
453.541	1025.99
453.98	1024.38
454.418	1031.93
454.856	1015.47
455.295	1014.21
455.733	1022.28
456.171	1029.11
456.609	1032.14
457.047	1033.56
457.485	1046.5
457.923	1047.38
458.361	1034.79
458.798	1039.97
459.236	1038.25
459.674	1047.85
460.111	1054.83
460.549	1045.31
460.987	1042.87
461.424	1040.41
461.862	1035.91
462.299	1021.46
462.736	1020.52
463.173	1025.43
463.611	1012.75
464.048	1010.67
464.485	1017.51
464.922	1007.56
465.359	1001.64
465.796	980.63
466.233	972.59
466.67	962.35
467.106	959.3
467.543	950.27
467.98	937.91
468.416	915.94
468.853	908.93
469.29	883.52
469.726	873.8
470.162	852.8
470.599	849.16
471.035	841.41
471.471	822.61
471.907	819.29
472.344	814.79
472.78	816.54
473.216	826.95
473.652	816.52
474.088	814.5
474.523	811.48
474.959	817.74
475.395	808.19
475.831	802.93
476.266	805.96
476.702	803.86
477.138	794.63
477.573	791.5
478.008	787.44
478.444	790.54
478.879	796.14
479.314	799.25
479.75	798.67
480.185	802.97
480.62	810.52
481.055	814.96
481.49	820.11
481.925	833.12
482.36	846.24
482.795	870.17
483.229	894.71
483.664	914.1
484.099	918.86
484.534	933.26
484.968	942.03
485.403	946.46
485.837	947.13
486.271	946.2
486.706	947.75
487.14	938.24
487.574	923.96
488.009	917.19
488.443	910.92
488.877	919.86
489.311	923.88
489.745	935.71
490.179	943.27
490.613	959.2
491.046	968.42
491.48	975.97
491.914	979.8
492.348	988.42
492.781	994.01
493.215	997.09
493.648	1000.95
494.082	1010.18
494.515	1011.98
494.948	1024.64
495.382	1033.87
495.815	1041.88
496.248	1050.3
496.681	1069.49
497.114	1087.61
497.547	1103.54
497.98	1123.02
498.413	1132.06
498.846	1147.57
499.279	1163
499.711	1171.21
500.144	1176.33
500.577	1191.72
501.009	1210.47
501.442	1225.91
501.874	1229.31
502.306	1235.57
502.739	1247.62
503.171	1272.88
503.603	1279.75
504.036	1295.22
504.468	1305.76
504.9	1325.22
505.332	1338.7
505.764	1346.67
506.196	1359.19
506.627	1382.67
507.059	1403.62
507.491	1419.69
507.923	1418.09
508.354	1440.54
508.786	1457.05
509.217	1484.3
509.649	1507.75
510.08	1537.09
510.512	1562.46
510.943	1584.81
511.374	1602.45
511.805	1632.72
512.237	1661.7
512.668	1709.09
513.099	1750.44
513.53	1790.89
513.961	1820.75
514.391	1866.73
514.822	1912.8
515.253	1965.77
515.684	2002.59
516.114	2044.44
516.545	2073.64
516.975	2111.23
517.406	2137.51
517.836	2138.2
518.267	2145.51
518.697	2169.44
519.127	2172.4
519.558	2181.83
519.988	2183.52
520.418	2196.89
520.848	2219.33
521.278	2230.13
521.708	2228.57
522.138	2242.05
522.567	2285.78
522.997	2318.96
523.427	2338.76
523.857	2360.88
524.286	2373.73
524.716	2392.21
525.145	2415.06
525.575	2427.89
526.004	2446.14
526.433	2455.88
526.863	2454.69
527.292	2434.79
527.721	2439.63
528.15	2445.97
528.579	2444.96
529.008	2457.03
529.437	2488.67
529.866	2506.47
530.295	2529.58
530.724	2544.76
531.152	2581.87
531.581	2598.62
532.01	2624.01
532.438	2634.66
532.867	2654.59
533.295	2678.95
533.723	2686.94
534.152	2683.06
534.58	2681.01
535.008	2657.01
535.436	2657.52
535.865	2669.37
536.293	2692.03
536.721	2714.65
537.149	2752.46
537.576	2754.58
538.004	2773.49
538.432	2783.64
538.86	2779.37
539.287	2791.69
539.715	2812.67
540.143	2818.4
540.57	2811.59
540.998	2804.69
541.425	2769.17
541.852	2737.51
542.28	2735.33
542.707	2710.62
543.134	2690.1
543.561	2683.76
543.988	2671.37
544.415	2668.33
544.842	2659.11
545.269	2647.35
545.696	2648.89
546.123	2667.34
546.549	2650.93
546.976	2631.09
547.403	2629.03
547.829	2631.46
548.256	2633.86
548.682	2627.54
549.108	2614.76
549.535	2612.33
549.961	2613.97
550.387	2593.68
550.813	2583.76
551.24	2591.43
551.666	2591.98
552.092	2577.49
552.518	2565.26
552.943	2554.77
553.369	2563.1
553.795	2570.2
554.221	2570.89
554.646	2565.79
555.072	2580.24
555.498	2588.07
555.923	2600.71
556.349	2620.61
556.774	2633.12
557.199	2636.03
557.625	2644.49
558.05	2636.61
558.475	2651.51
558.9	2649.69
559.325	2637.56
559.75	2627.35
560.175	2617.49
560.6	2608.53
561.025	2606.77
561.449	2608.19
561.874	2617.14
562.299	2623.58
562.723	2634.25
563.148	2621.67
563.572	2629.21
563.997	2644.92
564.421	2656.4
564.846	2658.94
565.27	2666.54
565.694	2664.27
566.118	2682.17
566.542	2693.44
566.966	2686.69
567.39	2682.45
567.814	2668.07
568.238	2669.15
568.662	2679.27
569.086	2683.71
569.509	2696.01
569.933	2675.27
570.357	2667.91
570.78	2639.36
571.204	2622.85
571.627	2610.98
572.05	2609.8
572.474	2611.67
572.897	2595.17
573.32	2584.4
573.743	2573.27
574.166	2547.85
574.589	2549.59
575.012	2537.92
575.435	2537.07
575.858	2524.08
576.281	2506.38
576.704	2483.32
577.126	2465.43
577.549	2449.14
577.972	2434.72
578.394	2418.34
578.817	2406.56
579.239	2378.3
579.661	2358.66
580.084	2335.42
580.506	2315.34
580.928	2309.37
581.35	2293.71
581.772	2287.44
582.194	2267.79
582.616	2250.55
583.038	2231
583.46	2217.67
583.882	2213.71
584.303	2221.13
584.725	2215.31
585.147	2216.1
585.568	2231.65
585.99	2249.58
586.411	2258.32
586.833	2280.64
587.254	2281.67
587.675	2301.36
588.096	2320.49
588.518	2311.48
588.939	2287.32
589.36	2284.13
589.781	2273.73
590.202	2230.46
590.623	2217.8
591.043	2216.7
591.464	2198.18
591.885	2193.32
592.305	2184.37
592.726	2163.12
593.147	2166.12
593.567	2157.41
593.987	2147.9
594.408	2139.16
594.828	2138.55
595.248	2128.86
595.669	2099.9
596.089	2089.83
596.509	2080.35
596.929	2061.23
597.349	2062.28
597.769	2048.71
598.189	2040.02
598.608	2041.28
599.028	2044.78
599.448	2045.76
599.867	2028.65
600.287	2023.12
600.706	2016.2
601.126	2002.32
601.545	2000.67
601.965	1999.61
602.384	1991.59
602.803	1996.6
603.222	1989.54
603.641	1979.89
604.061	1973.61
604.48	1967.49
604.898	1980.32
605.317	1988.11
605.736	1992.38
606.155	1988.52
606.574	1975.63
606.992	1984.53
607.411	1977.95
607.829	1967.07
608.248	1963.38
608.666	1961.22
609.085	1961.32
609.503	1948.78
609.921	1939.58
610.339	1942.97
610.758	1943.15
611.176	1936.7
611.594	1922.84
612.012	1918.34
612.43	1922.05
612.847	1931.75
613.265	1932.4
613.683	1939.11
614.101	1941.97
614.518	1938.77
614.936	1924.52
615.353	1902.98
615.771	1899.91
616.188	1901.24
616.606	1895.46
617.023	1887.19
617.44	1867.93
617.857	1859.79
618.274	1848.34
618.691	1839.25
619.108	1825.48
619.525	1816.5
619.942	1826.93
620.359	1830.08
620.776	1823.5
621.192	1817.42
621.609	1813.25
622.026	1821.31
622.442	1829.26
622.859	1834.25
623.275	1824.92
623.691	1833.61
624.108	1850.22
624.524	1870.42
624.94	1869.78
625.356	1883.27
625.772	1904.15
626.188	1923.36
626.604	1927.5
627.02	1921.5
627.436	1918.15
627.852	1926.89
628.268	1944.07
628.683	1931.73
629.099	1919.51
629.514	1913.81
629.93	1919.88
630.345	1925.96
630.761	1921.05
631.176	1923.29
631.591	1915.06
632.007	1905.19
632.422	1903.18
632.837	1886.97
633.252	1881.68
633.667	1867.22
634.082	1854.25
634.497	1834.67
634.911	1804.79
635.326	1797.27
635.741	1773.29
636.155	1757.38
636.57	1758.03
636.984	1755.92
637.399	1756.35
637.813	1756.04
638.228	1752.42
638.642	1756.26
639.056	1740.1
639.47	1739.42
639.884	1726.88
640.298	1717.01
640.712	1715.99
641.126	1698.1
641.54	1685.37
641.954	1677.36
642.368	1657.27
642.781	1644.59
643.195	1618.32
643.609	1617.67
644.022	1608.78
644.436	1601.5
644.849	1583.6
645.262	1565.29
645.676	1567.99
646.089	1559.84
646.502	1538.12
646.915	1531.01
647.328	1506.75
647.741	1503.43
648.154	1484.49
648.567	1478.55
648.98	1458.59
649.393	1458.21
649.805	1452.74
650.218	1441.16
650.631	1419.31
651.043	1409.31
651.456	1402.22
651.868	1404.06
652.28	1428.44
652.693	1449.03
653.105	1460.17
653.517	1475.48
653.929	1477.11
654.341	1485.33
654.753	1468.07
655.165	1476.48
655.577	1473.94
655.989	1466.03
656.401	1455.78
656.813	1402.62
657.224	1373.71
657.636	1332.18
658.047	1305.23
658.459	1276.61
658.87	1263.83
659.282	1247.09
659.693	1217.04
660.104	1195.05
660.515	1175.86
660.926	1171.04
661.338	1168.07
661.749	1159.35
662.159	1146.34
662.57	1139.66
662.981	1133.09
663.392	1120.5
663.803	1125.03
664.213	1122.03
664.624	1115.55
665.035	1119.98
665.445	1101.33
665.855	1089.88
666.266	1077.52
666.676	1072.84
667.086	1058.9
667.497	1055.75
667.907	1047.92
668.317	1034.49
668.727	1027.42
669.137	1028.41
669.547	1023.28
669.956	1026.39
670.366	1028.87
670.776	1029.7
671.186	1035.03
671.595	1040.27
672.005	1045.38
672.414	1044.19
672.824	1041.71
673.233	1049.24
673.642	1051.81
674.052	1055.77
674.461	1057.57
674.87	1063.99
675.279	1059.89
675.688	1061.79
676.097	1063.02
676.506	1058.76
676.915	1077.77
677.323	1080.67
677.732	1077.47
678.141	1077.4
678.549	1061.96
678.958	1061.5
679.366	1059.81
679.775	1067.89
680.183	1080.98
680.592	1089.86
681	1097.62
681.408	1087.74
681.816	1099.31
682.224	1111.45
682.632	1125.66
683.04	1168.49
683.448	1203.72
683.856	1246.9
684.264	1295.46
684.671	1341.98
685.079	1398.01
685.487	1460.54
685.894	1549.33
686.302	1621.55
686.709	1680.32
687.116	1748.02
687.524	1803.74
687.931	1849.86
688.338	1889.76
688.745	1924.75
689.152	1964.86
689.559	2018.46
689.966	2071.53
690.373	2093.67
690.78	2141.96
691.187	2223.69
691.593	2281.35
692	2330.49
692.407	2407.44
692.813	2502.02
693.22	2576.9
693.626	2654.62
694.032	2712.3
694.439	2806.78
694.845	2877.65
695.251	2970.68
695.657	3049.94
696.063	3177.91
696.469	3269.06
696.875	3352.07
697.281	3397.61
697.687	3452.73
698.093	3495.5
698.498	3590.81
698.904	3660.91
699.31	3773.58
699.715	3848.81
700.12	3963.31
700.526	3977.57
700.931	4064.34
701.337	4125.61
701.742	4162.93
702.147	4267.29
702.552	4301.71
702.957	4375.53
703.362	4395.46
703.767	4427.72
704.172	4477.25
704.577	4408.29
704.981	4465.89
705.386	4480.64
705.791	4464.75
706.195	4558.47
706.6	4564.66
707.004	4664.75
707.408	4619.19
707.813	4649.73
708.217	4628.73
708.621	4625.27
709.025	4750.44
709.43	4748.86
709.834	4822.58
710.237	4912.6
710.641	4885.85
711.045	4909.1
711.449	4898
711.853	4927.68
712.256	4981.42
712.66	5024.42
713.064	5118.47
713.467	5168.47
713.87	5308.02
714.274	5364.43
714.677	5501.32
715.08	5708.91
715.484	5925.03
715.887	6180.94
716.29	6439.41
716.693	6698.83
717.096	7005.81
717.499	7170.62
717.901	7199.36
718.304	7229.75
718.707	7255.22
719.109	7121.44
719.512	7073.85
719.915	6892.88
720.317	6816.44
720.719	6868.07
721.122	6829.43
721.524	6760.41
721.926	6702.77
722.328	6824.88
722.731	6811.43
723.133	6844.33
723.535	7086
723.937	7111.95
724.338	7175.36
724.74	7224.55
725.142	7108.08
725.544	7099.46
725.945	7122.41
726.347	7115.93
726.748	7106.46
727.15	7120.09
727.551	7067.92
727.952	7029.78
728.354	6991.19
728.755	6989.17
729.156	6934.96
729.557	6945.15
729.958	6789.82
730.359	6726.29
730.76	6700.48
731.161	6622.43
731.562	6586.57
731.962	6592.44
732.363	6508.36
732.763	6425.6
733.164	6471.77
733.564	6384.23
733.965	6263.96
734.365	6219.84
734.766	6252.38
735.166	6201.28
735.566	6130.91
735.966	6099.35
736.366	6091.8
736.766	6014.6
737.166	6051.82
737.566	5999.04
737.966	5965.27
738.365	6012.88
738.765	6004.39
739.165	5910.64
739.564	5880.47
739.964	5935.45
740.363	5875
740.763	5868.7
741.162	5851.17
741.561	5810.63
741.96	5750.78
742.36	5779.32
742.759	5785.25
743.158	5832.95
743.557	5851.7
743.955	5900.92
744.354	5844.68
744.753	5919.62
745.152	5868.8
745.55	5939.15
745.949	5931.84
746.348	5932.55
746.746	5948.46
747.144	5896.44
747.543	5866.76
747.941	5926.04
748.339	5833.13
748.737	5819.61
749.136	5805.66
749.534	5887.7
749.932	5850.46
750.33	5877.34
750.727	5949.68
751.125	5919.23
751.523	5899.67
751.921	5952.5
752.318	5911.41
752.716	5986.34
753.113	6007.31
753.511	6038.01
753.908	6035.06
754.305	6010.11
754.703	6086.72
755.1	6160.85
755.497	6235.35
755.894	6474.62
756.291	6700.3
756.688	7106.12
757.085	7652.7
757.482	8419.39
757.878	9253.4
758.275	10013.08
758.672	11060.98
759.068	11915.5
759.465	13130.25
759.861	14696.44
760.258	16512.41
760.654	17442.62
761.05	17305.55
761.447	16511.51
761.843	15371.37
762.239	14204
762.635	13670.51
763.031	13166.87
763.427	12425.98
763.822	11651.35
764.218	10886.12
764.614	9887.26
765.01	9221.69
765.405	8793.34
765.801	8467.03
766.196	8050.46
766.592	7815.36
766.987	7424.43
767.382	7156.34
767.778	7043.54
768.173	6879.81
768.568	6790.54
768.963	6637.26
769.358	6662.39
769.753	6603.19
770.148	6499.98
770.542	6498.29
770.937	6461.39
771.332	6573.66
771.726	6598.16
772.121	6519.39
772.515	6587.14
772.91	6567.28
773.304	6655.02
773.699	6573.67
774.093	6642.45
774.487	6710.34
774.881	6763.96
775.275	6756.97
775.669	6706.71
776.063	6761.44
776.457	6808.59
776.851	6715.59
777.245	6707.33
777.638	6749.36
778.032	6891.09
778.425	6843.44
778.819	6892.25
779.212	6837.22
779.606	6786.4
779.999	6810.88
780.392	6790.34
780.786	6891.89
781.179	6916.46
781.572	6968.38
781.965	6981.96
782.358	6910.4
782.751	6982.95
783.143	6925.03
783.536	7016.44
783.929	7071.42
784.322	7212.24
784.714	7253.36
785.107	7249.27
785.499	7342.24
785.891	7318.16
786.284	7297.18
786.676	7473.11
787.068	7446.65
787.46	7512.18
787.852	7539.28
788.245	7645.15
788.636	7679.45
789.028	7759.17
789.42	7807.23
789.812	7815
790.204	7932.66
790.595	8053.99
790.987	7811.02
791.378	7841.35
791.77	8002.58
792.161	8170.1
792.553	8238.12
792.944	8103.79
793.335	8019.96
793.726	8110.18
794.117	8223.19
794.508	8394.87
794.899	8359.22
795.29	8532.36
795.681	8602.75
796.072	8427.82
796.463	8187.47
796.853	8197.11
797.244	8390.24
797.634	8430
798.025	8425.88
798.415	8439.41
798.806	8542.45
799.196	8641.18
799.586	8705.61
799.976	8653.1
800.366	8937.97
800.756	9244.03
801.146	9197.44
801.536	9232.71
801.926	9324.43
802.316	9354.13
802.706	9440.21
803.095	9289.15
803.485	9416.9
803.874	9461.1
804.264	9786.77
804.653	9748.2
805.043	9924.93
805.432	10058.33
805.821	10058.85
806.21	10087.33
806.599	10235.61
806.988	10286.4
807.377	10420.89
807.766	10579.32
808.155	10930.9
808.544	10605.17
808.933	10618.47
809.321	10591.14
809.71	10953.73
810.098	11143.88
810.487	11707.53
810.875	12293.02
811.264	12322.72
811.652	12664.62
812.04	12843.17
812.428	13040.24
812.816	13970.57
813.204	14481.27
813.592	15155.94
813.98	15567.92
814.368	15450.11
814.756	16034.36
815.144	15933.67
815.531	16508.06
815.919	16429.6
816.306	16803.07
816.694	16427.33
817.081	16485.62
817.469	16907
817.856	16908.27
818.243	17231.83
818.63	17716.3
819.017	17203.84
819.404	17286.71
819.791	17745.18
820.178	18496.62
820.565	18799.82
820.952	19932.1
821.339	19325.54
821.725	19559.63
822.112	18647.9
822.498	18600.32
822.885	18754.46
823.271	18629.81
823.657	19140.62
824.044	19152.32
824.43	19233.89
824.816	19193.58
825.202	18663.28
825.588	19920.56
825.974	19937.96
826.36	20566.33
826.746	20612.12
827.132	21049.6
827.517	21022.47
827.903	20060.62
828.289	20108.83
828.674	19165.08
829.06	19052.37
829.445	19546.5
829.83	19984.2
830.216	20578.39
830.601	21018.06
830.986	20513.4
831.371	20352.85
831.756	21038.89
832.141	20519.12
832.526	20510.77
832.911	20866.55
833.295	20715.29
833.68	21294.08
834.065	20535.83
834.449	19412.4
834.834	19327.66
835.218	19328.63
835.603	19742.76
835.987	19487.99
836.371	20515.81
836.755	20390.66
837.139	20871.53
837.524	21171.27
837.908	20952.76
838.291	21013.52
838.675	21095.32
839.059	21355.89
839.443	21337.21
839.827	21069.4
840.21	21654.14
840.594	21458.78
840.977	21717.56
841.361	21692.82
841.744	22160.57
842.127	21966.04
842.511	22281.46
842.894	23022.13
843.277	23502.56
843.66	24177.5
844.043	24274.59
844.426	23291.03
844.809	22922.96
845.191	22967.06
845.574	22404.08
845.957	21944.81
846.339	21815.97
846.722	21170.84
847.104	21253.68
847.487	21038.88
847.869	21048.92
848.252	21385.09
848.634	21789.34
849.016	22109.49
849.398	22258.55
849.78	23318.88
850.162	23329.83
850.544	23831.37
850.926	24610.49
851.307	24501.47
851.689	24845.24
852.071	25410.11
852.452	25812.19
852.834	25776.51
853.215	26253.72
853.597	26433.76
853.978	26786.14
854.359	27337.58
854.741	26116.55
855.122	25986.48
855.503	25622.58
855.884	25778.24
856.265	25690.25
856.646	25837.71
857.026	25363.02
857.407	25285.91
857.788	25478.81
858.169	25827.89
858.549	24785.59
858.93	25556.31
859.31	25610.53
859.69	25866.01
860.071	25359.06
860.451	25089.6
860.831	24164.19
861.211	25592.24
861.591	26264.06
861.971	26239.62
862.351	26466.83
862.731	26946.06
863.111	27263.89
863.491	27663.58
863.87	28735.08
864.25	29167.83
864.629	28684.23
865.009	29329.71
865.388	30354.67
865.768	32532.93
866.147	32391.49
866.526	30592.92
866.905	30958.41
867.284	32687.57
867.663	31032.9
868.042	29748.21
868.421	29657.88
868.8	30149.54
869.179	30431.55
869.558	28669.26
869.936	26417.57
870.315	26901.22
870.693	27559.67
871.072	29727.2
871.45	28333.58
871.828	28707.87
872.207	30182.85
872.585	29719.13
872.963	30526.69
873.341	29472.62
873.719	29121.02
874.097	28785.07
874.475	29333.07
874.853	30008.73
875.23	28755.55
875.608	29958.99
875.986	32406.48
876.363	30985.24
876.741	31936.2
877.118	31127.02
877.495	32666.62
877.873	33219.79
878.25	34948.94
878.627	33525.57
879.004	34010.99
879.381	33851.56
879.758	32937.22
880.135	30666.81
880.512	32421.16
880.889	31560.8
881.265	31243.88
881.642	30978.32
882.019	31487.23
882.395	30834.8
882.772	32043.22
883.148	30651.51
883.524	30522.75
883.901	30358.02
884.277	30813.72
884.653	30626.52
885.029	31503.15
885.405	34878.74
885.781	34603.08
886.157	33172.68
886.532	33582.84
886.908	33564.9
887.284	37294.18
887.659	38506.35
888.035	39698.1
888.411	40716.51
888.786	41231.27
889.161	42663.4
889.537	41896.64
889.912	43254.85
890.287	43221.54
890.662	44355.3
891.037	43554.42
891.412	40626.88
891.787	40227.75
892.162	38826
892.536	39737.19
892.911	38259.75
893.286	37456.25
893.66	35932.76
894.035	36851.66
894.409	40123.32
894.784	38491.32
895.158	39139.77
895.532	41458.06
895.906	42579.14
896.281	43587.04
896.655	42881.5
897.029	48999.34
897.402	51033.09
897.776	56808.5
898.15	56609.72
898.524	56002.45
898.898	56750.47
899.271	63505.09
899.645	55011.1
900.018	52840.91
900.392	54796.72
900.765	55231.8
901.138	51112.37
901.511	50343.59
901.884	46235.91
902.258	42634.67
902.631	44053.22
903.003	50697.5
903.376	45759.66
903.749	51299.65
904.122	54915.8
904.495	60429.35
904.867	61204.43
905.24	53142.58
905.612	49460.78
905.985	50584.06
906.357	52890.99
906.729	50482.18
907.102	43139.73
907.474	41476.14
907.846	41732.74
908.218	41169.73
908.59	36395.2
908.962	35203.44
909.334	37907.45
909.705	39807.56
910.077	38641.44
910.449	40220.73
910.82	41345.07
911.192	45462.39
911.563	47234.1
911.935	50581.48
912.306	50673.78
912.677	52305.5
913.048	51754.21
913.419	56149
913.79	56468.91
914.161	60520.17
914.532	57851.31
914.903	53176.25
915.274	50512.38
915.645	49769.62
916.015	43795.47
916.386	41756.87
916.756	44457.54
917.127	45878.13
917.497	40979.11
917.868	44586.94
918.238	42362.94
918.608	43571.97
918.978	44479.99
919.348	47095.94
919.718	48652.23
920.088	46847.84
920.458	48651.18
920.828	51178.51
921.198	48498.1
921.567	51806.32
921.937	40137.39
922.306	40520.39
922.676	43711.21
923.045	36436.23
923.415	34608.52
923.784	31514.86
924.153	32389.58
924.522	32336.46
924.891	30405.46
925.26	32571.4
925.629	31800.72
925.998	36550.09
926.367	35683.95
926.736	33958.01
927.104	40444.15
927.473	43476.79
927.842	52519.18
928.21	52005.46
928.578	54676.22
928.947	51681.39
929.315	51969.55
929.683	60960.91
930.051	61431.61
930.42	71300.27
930.788	60920.51
931.156	60455.49
931.523	56636.49
931.891	52304.36
932.259	50242.95
932.627	58203.94
932.994	82375.07
933.362	68095.73
933.729	59105.56
934.097	56579.18
934.464	47919
934.831	55320.13
935.199	54526.33
935.566	52885.57
935.933	53660.85
936.3	64965.92
936.667	50623.46
937.034	45588.56
937.401	45080.14
937.767	38913.79
938.134	34640.86
938.501	48839.27
938.867	51995.23
939.234	87935.74
939.6	75060.18
939.967	82588.57
940.333	55298.86
940.699	47055.6
941.065	37845.11
941.431	49618.11
941.798	47794.91
942.163	62720.46
942.529	39168.99
942.895	36093.18
943.261	23326.63
943.627	30603.56
943.992	26797.75
944.358	26831.79
944.723	26918.78
945.089	26256.05
945.454	24263.75
945.82	25926.27
946.185	24934.4
946.55	28879.93
946.915	25911.93
947.28	30424.06
947.645	26790.97
948.01	24728.61
948.375	25796.59
948.74	30917.9
949.104	36025.01
949.469	52048.79
949.834	92000.11
950.198	87095.03
950.562	52228.73
950.927	43452.51
951.291	52278.33
951.655	44529.57
952.02	41837.49
952.384	31652.85
952.748	27555.02
953.112	26862.35
953.476	23369.88
953.839	21609.04
954.203	21393.93
954.567	26745.74
954.931	42167.94
955.294	36063.11
955.658	36252.18
956.021	61593.31
956.385	104392.86
956.748	154150.43
957.111	239325.83
957.474	268830.06
957.837	302684.37
958.2	229200.79
958.563	82487.51
958.926	55755.25
959.289	84632.59
959.652	94583.46
960.015	71037.12
960.377	101925.99
960.74	116302.75
961.102	200784.97
961.465	215304.54
961.827	115170.97
962.189	220998.93
962.552	153226.19
962.914	122927.2
963.276	79738.66
963.638	65961.52
964	65308.56
964.362	44152.42
964.724	42684.55
965.085	30421.37
965.447	24952.45
965.809	28480.08
966.17	28532.96
966.532	30874.28
966.893	28332.59
967.255	25814.06
967.616	30450.61
967.977	24358.87
968.338	26589.2
968.699	21850.85
969.061	21878.73
969.421	22010.44
969.782	24728.05
970.143	20851.14
970.504	21564.44
970.865	24482.33
971.225	25019.9
971.586	24474.59
971.946	34950.47
972.307	30365.26
972.667	39722.35
973.027	40877.02
973.388	49595.35
973.748	33717.89
974.108	36760.17
974.468	49781.02
974.828	38373.93
975.188	29544.98
975.548	27166.06
975.907	22782.69
976.267	25566.06
976.627	21472
976.986	22236.37
977.346	21195.17
977.705	20364.76
978.064	18535.44
978.424	15435.57
978.783	15970.61
979.142	18218.29
979.501	17410.93
979.86	18396.14
980.219	17719.89
980.578	22849.79
980.937	25616.49
981.296	22817.71
981.654	23476.04
982.013	36576.94
982.371	47436
982.73	44301.22
983.088	50095.02
983.447	53511.26
983.805	76546.63
984.163	159844.26
984.521	177327.58
984.879	259904.3
985.237	-423187.65
985.595	407947.31
985.953	101399.69
986.311	58621.04
986.669	34060.86
987.026	29433.97
987.384	39591.36
987.741	40946.21
988.099	29196.09
988.456	23275.16
988.814	21780.36
989.171	18941.03
989.528	18700.5
989.885	19729.69
990.242	15591.85
990.599	19417.99
990.956	15883.46
991.313	11110.98
991.67	9106.11
992.027	9645.17
992.383	8565.04
992.74	7512.63
993.096	7873.45
993.453	8159.96
993.809	8467.25
994.165	11293.01
994.522	10316.75
994.878	11360.69
995.234	14254.73
995.59	14084.79
995.946	13384.78
996.302	15272.53
996.658	17650.15
997.013	19430.49
997.369	23017.39
997.725	29451.15
998.08	19091.41
998.436	29516.63
998.791	40763.26
999.147	40652.48
999.502	44287.49
999.857	32222.26
1000.212	52536.48
1000.567	74714.66
1000.922	43141.03
1001.277	27415.81
1001.632	20358.49
1001.987	26203.17
1002.342	18802.29
1002.696	15034.26
1003.051	11989.84
1003.406	14493.6
1003.76	14421.57
1004.114	14216.66
1004.469	11971.7
1004.823	9905.89
1005.177	10722.32
1005.531	8479.08
1005.885	7520.49
1006.239	8482.34
1006.593	10642.18
1006.947	14240.63
1007.301	10697.94
1007.655	11664.76
1008.008	8560.18
1008.362	9632.94
1008.715	13758.79
1009.069	12474.11
1009.422	18722.24
1009.776	37595.41
1010.129	24981.08
1010.482	20828.82
1010.835	17628.73
1011.188	36808.92
1011.541	34587.97
1011.894	-211146.25
1012.247	619996.97
1012.6	42213.34
1012.952	26606.05
1013.305	13775.68
1013.657	9909.41
1014.01	9377.63
1014.362	7762.27
1014.715	6887.75
1015.067	5998.96
1015.419	5880.08
1015.771	5209.55
1016.123	4639.11
1016.475	4767.39
1016.827	5075.28
1017.179	5436.95
1017.531	5486.88
1017.883	5611.15
1018.234	5378.6
1018.586	6805.36
1018.938	7171.94
1019.289	9891.63
1019.64	11367.51
1019.992	10582.9
1020.343	9652.85
1020.694	7634.26
1021.045	6730.71
1021.396	7686.6
1021.747	8226.47
1022.098	9881.56
1022.449	7154.27
1022.8	6644.97
1023.151	4614.8
1023.501	4086.36
1023.852	4449.92
1024.202	4634.79
1024.553	5100.49
1024.903	4995.24
1025.253	4258.26
1025.604	3837.63
1025.954	4803.59
1026.304	5867.59
1026.654	6862.32
1027.004	10047.77
1027.354	16226.05
1027.703	15259.48
1028.053	20059.5
1028.403	29239.57
1028.753	42664.3
1029.102	58315.67
1029.452	300347.33
1029.801	12927.36
1030.15	8348.24
1030.499	7080.89
897.758	2068.56
901.051	1999.35
904.343	2031.61
907.636	2039.38
910.928	2100.98
914.22	2024.72
917.511	2030.88
920.803	2078.51
924.094	2069.23
927.384	2076.01
930.675	2041.94
933.965	2007.9
937.255	2043.85
940.544	2015.82
943.834	2007.99
947.123	1950.01
950.411	2035.89
953.7	2017.85
956.988	2004.27
960.276	1943.45
963.563	1986.37
966.851	1997.2
970.138	2036.47
973.424	2035.89
976.711	1989.43
979.997	2040.22
983.283	2081.06
986.568	2017.77
989.853	2005.62
993.138	2030.91
996.423	2116.37
999.708	2079.64
1002.992	2111.04
1006.275	2027.35
1009.559	2031.49
1012.842	2128.12
1016.125	2084.14
1019.408	2066.84
1022.69	2118.13
1025.972	2152.31
1029.254	2128.18
1032.536	2097.48
1035.817	2102.66
1039.098	2072.21
1042.379	2119.04
1045.659	2146.34
1048.939	2096.67
1052.219	2103.87
1055.498	2091.65
1058.778	2089.74
1062.057	2067.12
1065.335	2093.1
1068.614	2102.26
1071.892	2102.7
1075.17	2151.75
1078.447	2158.07
1081.724	2153.69
1085.001	2180
1088.278	2156.58
1091.554	2163.23
1094.83	2157.79
1098.106	2193.94
1101.382	2220.13
1104.657	2221.93
1107.932	2221.21
1111.206	2203.75
1114.481	2152.69
1117.755	2152.77
1121.029	2147.97
1124.302	2209.74
1127.575	2179.68
1130.848	2177.94
1134.121	2152.55
1137.393	2117.95
1140.665	2171.49
1143.937	2152.62
1147.208	2097.83
1150.48	2162.57
1153.75	2154.27
1157.021	2148.37
1160.291	2127.77
1163.561	2183.43
1166.831	2145.54
1170.101	2170.59
1173.37	2126.86
1176.639	2088.02
1179.907	2128.61
1183.176	2154.87
1186.444	2155.2
1189.711	2175.84
1192.979	2204.57
1196.246	2161.8
1199.513	2171.77
1202.78	2179.12
1206.046	2188.53
1209.312	2216.42
1212.578	2231.82
1215.843	2202.32
1219.108	2168.68
1222.373	2190.67
1225.638	2165.97
1228.902	2158.91
1232.166	2111.22
1235.43	2100.51
1238.693	2128.59
1241.956	2116.16
1245.219	2168.23
1248.482	2149.77
1251.744	2148.25
1255.006	2263.43
1258.268	2209.46
1261.529	2169.54
1264.79	2167.82
1268.051	2265.13
1271.312	2273.34
1274.572	2245.49
1277.832	2234.39
1281.092	2211.97
1284.351	2206.99
1287.61	2193.6
1290.869	2132.12
1294.128	2134.56
1297.386	2174.05
1300.644	2165.87
1303.902	2177.24
1307.159	2047.62
1310.416	2096.81
1313.673	2125.86
1316.93	2126.45
1320.186	2151.42
1323.442	2181.31
1326.697	2189.65
1329.953	2158.29
1333.208	2194.4
1336.463	2167.53
1339.717	2132.16
1342.972	2233.04
1346.226	2201.77
1349.479	2154.35
1352.733	2135.63
1355.986	2140.85
1359.238	2122.21
1362.491	2123.51
1365.743	2122.63
1368.995	2115.34
1372.247	2125.34
1375.498	2143.81
1378.749	2190.71
1382	2141
1385.251	2173.38
1388.501	2124.53
1391.751	2128.41
1395	2092.92
1398.25	2116.94
1401.499	2143.87
1404.748	2096.82
1407.996	2076.03
1411.244	2065.46
1414.492	2050.8
1417.74	2038.03
1420.987	2041.19
1424.234	2101.2
1427.481	2060.11
1430.728	2117.41
1433.974	2092.78
1437.22	2089.36
1440.465	2084.01
1443.711	2089.26
1446.956	2110.62
1450.201	2077.74
1453.445	2119.09
1456.689	2112.87
1459.933	2123.27
1463.177	2163.16
1466.42	2137.2
1469.663	2123.71
1472.906	2141.16
1476.148	2189.72
1479.391	2152.24
1482.633	2129.47
1485.874	2162.88
1489.115	2170.99
1492.356	2151.04
1495.597	2132.8
1498.838	2125.52
1502.078	2114.39
1505.318	2089.02
1508.557	2121.68
1511.797	2117.87
1515.036	2173.89
1518.274	2140.08
1521.513	2087.59
1524.751	2096.16
1527.989	2122.95
1531.227	2141.41
1534.464	2160.03
1537.701	2150.76
1540.938	2161.38
1544.174	2107.91
1547.41	2099.32
1550.646	2135.31
1553.882	2190.53
1557.117	2247.07
1560.352	2258.47
1563.587	2219.2
1566.821	2186.94
1570.055	2198.54
1573.289	2183.09
1576.523	2236.88
1579.756	2255.9
1582.989	2276.14
1586.222	2235.98
1589.454	2260.51
1592.686	2247.4
1595.918	2274.26
1599.15	2275.68
1602.381	2315.4
1605.612	2302.35
1608.843	2392.72
1612.073	2318.33
1615.303	2307.5
1618.533	2308.11
1621.762	2305.69
1624.992	2279.3
1628.221	2286.38
1631.449	2272.11
1634.678	2293.63
1637.906	2262.54
1641.134	2287.08
1644.361	2254.22
1647.588	2243.5
1650.815	2264.92
1654.042	2224.94
1657.269	2253.84
1660.495	2238.28
1663.72	2216.28
1666.946	2188.36
1670.171	2165.85
1673.396	2139.52
1676.621	2120.54
1679.845	2113.63
1683.069	2117.77
1686.293	2146.19
1689.517	2141.18
1692.74	2096.43
1695.963	2114.61
1699.185	2160.41
1702.408	2132.33
1705.63	2160.12
1708.852	2180.73
1712.073	2149.66
1715.294	2163.97
1718.515	2204.21
1721.736	2165.08
1724.956	2140.34
1728.176	2160.46
1731.396	2183.81
1734.616	2168.02
1737.835	2206.38
1741.054	2174.4
1744.272	2166.67
1747.491	2209.86
1750.709	2227.45
1753.927	2185.06
1757.144	2205.82
1760.361	2268.68
1763.578	2237.2
1766.795	2188.56
1770.011	2175.31
1773.227	2195.74
1776.443	2237.99
1779.658	2278.73
1782.874	2214.44
1786.089	2213.21
1789.303	2214.59
1792.518	2210.79
1795.732	2194.97
1798.945	2215.06
1802.159	2252.43
1805.372	2202.38
1808.585	2200.18
1811.797	2201.14
1815.01	2215.56
1818.222	2245.57
1821.434	2194.99
1824.645	2234.49
1827.856	2246.28
1831.067	2276.51
1834.278	2209.99
1837.488	2196.56
1840.698	2309.79
1843.908	2255.07
1847.117	2223.65
1850.326	2159.62
1853.535	2208.43
1856.744	2250.61
1859.952	2175.61
1863.16	2176.81
1866.368	2187.4
1869.575	2299.7
1872.782	2180.72
1875.989	2117.95
1879.196	2157.61
1882.402	2150.74
1885.608	2179.27
1888.814	2128.99
1892.019	2039.02
1895.224	2088.92
1898.429	2048.99
1901.634	2034.88
1904.838	2009.02
1908.042	2067.77
1911.246	2077.22
1914.449	2046.69
1917.652	2025.03
1920.855	2006.55
1924.058	2026.75
1927.26	2071.03
1930.462	2090.52
1933.664	2134.3
1936.865	2078.27
1940.066	2096.8
1943.267	2040.29
1946.467	2051.25
1949.668	2067.63
1952.868	2135.94
1956.067	2128.24
1959.267	2073.41
1962.466	2095
1965.665	2076.15
1968.863	2070.67
1972.061	2071.87
1975.259	2062.61
1978.457	2135.32
1981.654	2095.04
1984.852	2100.64
1988.048	2058.19
1991.245	2044.02
1994.441	2131.56
1997.637	2084.25
2000.833	2068.79
2004.028	2102.9
2007.223	2165.01
2010.418	2158.83
2013.613	2107.24
2016.807	2106.46
2020.001	2097.63
2023.194	2115.47
2026.388	2103.08
2029.581	2045.13
2032.774	2111.68
2035.966	2123.29
2039.158	2070.2
2042.35	2089.19
2045.542	2016.06
2048.733	2091.33
2051.924	2079.09
2055.115	2092.64
2058.306	2061.78
2061.496	2114.24
2064.686	2160.66
2067.875	2069.56
2071.065	2067.63
2074.254	2085.84
2077.442	2041.98
2080.631	2119.86
2083.819	2062.89
2087.007	2054.58
2090.195	2042.28
2093.382	2055.32
2096.569	2040.44
2099.756	2005.42
2102.942	2055.59
2106.128	2072.26
2109.314	2060.13
2112.5	2048.17
2115.685	2014.86
2118.87	2023.49
2122.055	2083.37
2125.239	2065.72
2128.424	2054.58
2131.608	2104.24
2134.791	2089.5
2137.974	2119.68
2141.157	2111.09
2144.34	2085.95
2147.523	2072.8
2150.705	2101.83
2153.887	2064.94
2157.068	2043.28
2160.25	2019.6
2163.431	2041.39
2166.611	2016.21
2169.792	2037.25
2172.972	1956.94
2176.152	1998.49
2179.331	2024.94
2182.511	2030.58
2185.69	2049.2
2188.868	2058.7
2192.047	2087.11
2195.225	2109.42
2198.403	2055.81
2201.58	2042.9
2204.758	2025.54
2207.935	2096.27
2211.111	2021.01
2214.288	2010.69
2217.464	2043.25
2220.64	1997.56
2223.815	2043.68
2226.991	1979.9
2230.166	1994.53
2233.34	2040.92
2236.515	2051.18
2239.689	2114.91
2242.863	2064.44
2246.036	2115.51
2249.209	2094.65
2252.382	2111.58
2255.555	2122.63
2258.727	2076.65
2261.9	2104.59
2265.071	2096.19
2268.243	2090.88
2271.414	2044.1
2274.585	2031.76
2277.756	2091.21
2280.926	2047.52
2284.096	2073.68
2287.266	2008.05
2290.436	2052.57
2293.605	2070.63
2296.774	2107.99
2299.942	2108.4
2303.111	2125.52
2306.279	2174.97
2309.447	2159.67
2312.614	2130.27
2315.781	2157.36
2318.948	2137.05
2322.115	2173.45
2325.281	2074.29
2328.447	2078.86
2331.613	2048.45
2334.779	2045.18
2337.944	2036.77
2341.109	2040.62
2344.274	2030.51
2347.438	1999.41
2350.602	2018.68
2353.766	2024.46
2356.929	2014.79
2360.092	2051.66
2363.255	2026.47
2366.418	1999.4
2369.58	2054.61
2372.742	1953.71
2375.904	1940.4
2379.066	1928.05
2382.227	1952.03
2385.388	1914.33
2388.548	1871.39
2391.709	1909.64
2394.869	1901.1
2398.029	1945.99
2401.188	1936.69
2404.347	1907.02
2407.506	1969.3
2410.665	2012.27
2413.823	1993.96
2416.981	1977.19
2420.139	1991.03
2423.296	2028.16
2426.453	2002.78
2429.61	2021.9
2432.767	2000.38
2435.923	2043.44
2439.079	1985.01
2442.235	2014.79
2445.391	1959.39
2448.546	2003.32
2451.701	2034.69
2454.855	2034.74
2458.009	2057.83
2461.163	2041.82
2464.317	2018.65
2467.471	2042.32
2470.624	2067.66
2473.777	2064.28
2476.929	2082.09
2480.082	2106.04
2483.234	2081.99
2486.385	2020.41
2489.537	2015.27
2492.688	2012.05
2495.839	2028.77
2498.989	2042.46
2502.14	2030.34
2505.29	2025.59
2508.439	2047.27
2511.589	1991.53
2514.738	1989.52
2517.887	2011.17
2521.035	2087.84
2524.183	2042.58
2527.331	2032.34
2530.479	2030.27
2533.627	2031.84
