Data from C_1_DEC_NC_4N_Splice17_11-44-00-526.txt Node
Date: Sat Mar 14 11:44:00 EDT 2020
User: sa697716
Spectrometer: FLMS03696
Trigger mode: 0
Integration Time (sec): 3.180400E-1
Scans to average: 20
Electric dark correction enabled: true
Nonlinearity correction enabled: true
Boxcar width: 5
XAxis mode: Wavelengths
Number of Pixels in Spectrum: 2048
>>>>>Begin Spectral Data<<<<<
187.83	-121956.36
188.298	885.66
188.766	570.76
189.233	477.7
189.701	705.72
190.169	977.81
190.636	356.55
191.104	294.44
191.571	16.82
192.039	-49.64
192.506	31.49
192.974	299.51
193.441	-664.59
193.908	-98.47
194.375	-0.74
194.842	64.98
195.31	86.15
195.777	123.14
196.244	213.3
196.711	105.7
197.177	96.83
197.644	67.96
198.111	85.21
198.578	83.16
199.045	49.02
199.511	25.64
199.978	-40.75
200.445	-3.04
200.911	-28.76
201.378	-95.67
201.844	-30.16
202.31	-91.54
202.777	-72.55
203.243	-64.09
203.709	-71.66
204.176	-99.63
204.642	-70.25
205.108	-41.19
205.574	-48.23
206.04	-69.95
206.506	-71.01
206.972	-93.53
207.438	-100.7
207.903	-119.35
208.369	-67.39
208.835	-34.61
209.301	-33.05
209.766	-54.73
210.232	-63.17
210.697	-90.07
211.163	-128.97
211.628	-217.81
212.094	-160.79
212.559	-91.94
213.024	-30.06
213.49	-20.51
213.955	-40.3
214.42	-70.66
214.885	-48.19
215.35	-44.44
215.815	56.03
216.28	74.23
216.745	56.95
217.21	84.46
217.675	35.06
218.14	27.32
218.604	3.48
219.069	-1.24
219.534	38.52
219.998	16.85
220.463	25.72
220.927	-66.73
221.392	-45.97
221.856	-21.61
222.32	-83.84
222.785	-65.09
223.249	-85.29
223.713	-98.57
224.177	-94.25
224.642	-196.91
225.106	-226.44
225.57	-272.88
226.034	-132.67
226.497	-225.77
226.961	-152.38
227.425	-134.21
227.889	-200.64
228.353	-199.68
228.816	-465.85
229.28	-332.2
229.744	-190.28
230.207	-44.32
230.671	-6.91
231.134	-172.16
231.597	-90.51
232.061	-154.49
232.524	-167.41
232.987	-90.79
233.45	-63.99
233.914	-35.27
234.377	-111.45
234.84	-131.61
235.303	-208.86
235.766	-260.21
236.229	-258.1
236.691	-199.35
237.154	-262.36
237.617	-187.68
238.08	-219.38
238.542	-279.74
239.005	-192.75
239.468	-170.42
239.93	-149.8
240.393	-125.95
240.855	-103.92
241.317	-122.46
241.78	-158.82
242.242	-137.29
242.704	-114.84
243.166	-74.68
243.629	-29.35
244.091	-27.33
244.553	-31.43
245.015	-17.45
245.477	-33.99
245.939	-96.33
246.4	-64.69
246.862	-70.96
247.324	-50.27
247.786	-112.46
248.247	-225.74
248.709	-386.82
249.17	-300.88
249.632	-190.94
250.093	-163.78
250.555	-108.48
251.016	-5.09
251.477	3.71
251.939	6.15
252.4	-27.69
252.861	-53.3
253.322	-21.04
253.783	-31.29
254.244	-61.65
254.705	-122.47
255.166	-173
255.627	-185.58
256.088	-276.24
256.549	-319.43
257.009	-292.4
257.47	-327.68
257.931	-288.51
258.391	-192.28
258.852	-195.56
259.312	-212.68
259.773	-271.48
260.233	-147.65
260.694	-99.15
261.154	-139.86
261.614	-48.27
262.074	-35.27
262.534	-23.45
262.994	14.79
263.455	-15.49
263.915	7.13
264.374	5.68
264.834	8.7
265.294	-43.24
265.754	-43.86
266.214	-33.4
266.673	-61.05
267.133	-90.02
267.593	-125.98
268.052	-165.11
268.512	-146.19
268.971	-104.06
269.431	-94.52
269.89	-67.41
270.349	-62.8
270.809	-53.16
271.268	-32.44
271.727	-109.54
272.186	-43.68
272.645	9.57
273.104	-45
273.563	-40.01
274.022	-147.48
274.481	-92.62
274.94	-53.84
275.399	-65.8
275.857	-119.38
276.316	-186.14
276.775	-179.32
277.233	-179.58
277.692	-146.83
278.15	-148.95
278.609	-119.48
279.067	-101.71
279.525	-74.8
279.984	-147.25
280.442	-143.09
280.9	-54.49
281.358	-28.83
281.816	-12.72
282.274	-13.49
282.732	-64.4
283.19	-76.74
283.648	-95.71
284.106	-103.88
284.564	-134.88
285.021	-102.3
285.479	-95.47
285.937	-118.12
286.394	-83.56
286.852	-103.57
287.309	-107.42
287.767	-64.74
288.224	-47.23
288.682	-55.43
289.139	-50.25
289.596	-44.61
290.053	-71.39
290.511	-104.21
290.968	-106.58
291.425	-204.09
291.882	-88.05
292.339	-66.46
292.796	-97.24
293.252	-97.78
293.709	-34.96
294.166	-27.32
294.623	-40.23
295.079	-27.85
295.536	0.76
295.992	-3.22
296.449	5.91
296.905	8.73
297.362	37.31
297.818	36.96
298.274	57.85
298.731	26.56
299.187	19.01
299.643	12.65
300.099	-5.95
300.555	-20.5
301.011	-15.1
301.467	59.92
301.923	-2.49
302.379	-23.92
302.835	-18.02
303.291	-36.33
303.746	-66.66
304.202	-93.66
304.658	-113.4
305.113	-56.8
305.569	-58.45
306.024	-91.89
306.479	-179.88
306.935	-115.01
307.39	-162.4
307.845	-155.43
308.301	-121.77
308.756	-111.01
309.211	-86.26
309.666	-68.14
310.121	-33.91
310.576	-63.88
311.031	-54.03
311.486	-98.17
311.94	-139.42
312.395	-179.63
312.85	-416.5
313.305	-3203.56
313.759	-11055.92
314.214	-847.13
314.668	-750.91
315.123	-636.22
315.577	-146.24
316.032	-127.86
316.486	-175.47
316.94	-102.17
317.394	-39.41
317.849	-14.78
318.303	-16.2
318.757	-17.15
319.211	-29.68
319.665	-11.19
320.119	-16.19
320.572	-62.57
321.026	-14.01
321.48	4.63
321.934	-20.75
322.387	-32.64
322.841	-30.97
323.295	31.74
323.748	-13.17
324.202	-3.14
324.655	14.55
325.108	67.09
325.562	68.23
326.015	32.95
326.468	17.48
326.921	44.87
327.374	51.39
327.827	78.65
328.28	36.95
328.733	45.14
329.186	50.79
329.639	49.65
330.092	15.36
330.545	29.99
330.997	38.6
331.45	75.01
331.903	106.61
332.355	119.26
332.808	67.76
333.26	56.77
333.713	69.29
334.165	17.74
334.617	-43.22
335.069	-98.36
335.522	-319.25
335.974	-347.32
336.426	-369.62
336.878	-374.91
337.33	-146.74
337.782	-136.05
338.234	-144.5
338.686	-203.99
339.137	-216.09
339.589	-195.98
340.041	-84.12
340.493	-67.94
340.944	-90.61
341.396	-83.92
341.847	-4.72
342.299	18.76
342.75	57.58
343.201	-9.45
343.653	-38.34
344.104	-93.23
344.555	-67.67
345.006	-200.64
345.457	-33.4
345.908	-46.59
346.359	-38.43
346.81	-57.78
347.261	-85.68
347.712	-117.32
348.163	-122.08
348.613	-43.51
349.064	-10.28
349.515	-13.29
349.965	23.72
350.416	-34.91
350.866	-22.62
351.317	-81.99
351.767	-108.89
352.217	-170.14
352.668	-102.04
353.118	-27.97
353.568	-191.48
354.018	-109.25
354.468	-84.04
354.918	-54.88
355.368	-20.32
355.818	-52.69
356.268	-72.77
356.718	431.66
357.168	273.71
357.617	112.62
358.067	30.51
358.517	86.74
358.966	67.29
359.416	154.81
359.865	30.27
360.315	-27.21
360.764	19.71
361.213	-2.71
361.663	-94.1
362.112	-181.46
362.561	-341.28
363.01	-230.89
363.459	-206.56
363.908	-233.61
364.357	-183.23
364.806	-289.84
365.255	-206.29
365.703	-164
366.152	-162.12
366.601	-86.45
367.05	-45.32
367.498	-13.19
367.947	-42.8
368.395	-49.27
368.844	-38.18
369.292	-96.62
369.74	-50.6
370.189	-112.12
370.637	-146.46
371.085	-128.05
371.533	-195.75
371.981	-221.56
372.429	-191.45
372.877	-182.51
373.325	-142.87
373.773	-171.82
374.221	-141.46
374.669	-202.85
375.116	-168.28
375.564	-179.3
376.012	-218.88
376.459	-162.45
376.907	-209.6
377.354	-272.62
377.801	-222.34
378.249	-227.45
378.696	-312.24
379.143	-390.41
379.591	-421.49
380.038	-642.89
380.485	-356.87
380.932	-393.18
381.379	-228.57
381.826	-51.34
382.273	-53.13
382.72	-89.8
383.166	-86.38
383.613	-29.6
384.06	-21.49
384.506	-21.07
384.953	-18.46
385.4	-40.94
385.846	-40.21
386.292	-68.07
386.739	-85.2
387.185	-87.18
387.631	-90.78
388.078	-62.41
388.524	-71.53
388.97	-68.71
389.416	-46.23
389.862	-37.76
390.308	-28.66
390.754	-11.78
391.2	-15.85
391.645	-20.87
392.091	8.39
392.537	23.95
392.983	6.9
393.428	34.79
393.874	34
394.319	46.3
394.765	53.44
395.21	40.78
395.655	39.78
396.101	49.42
396.546	56.24
396.991	37.2
397.436	36.54
397.881	28.45
398.326	11.72
398.771	22.76
399.216	11.52
399.661	6.16
400.106	14.74
400.551	17.26
400.995	17.8
401.44	16
401.885	15.83
402.329	12.45
402.774	13.86
403.218	26.17
403.663	22.35
404.107	23.76
404.551	24.92
404.995	21.82
405.44	16.43
405.884	8.84
406.328	1.98
406.772	1.25
407.216	0.86
407.66	2.08
408.104	-10.35
408.547	-11.01
408.991	-11.27
409.435	-11.99
409.879	-7.53
410.322	-6.63
410.766	-1.46
411.209	5.78
411.653	5.47
412.096	11.49
412.54	6.76
412.983	8.99
413.426	11.98
413.869	11.04
414.312	15.99
414.756	11.64
415.199	10.97
415.642	12.01
416.085	11.07
416.527	9.65
416.97	5.49
417.413	8.28
417.856	5.28
418.298	2.87
418.741	-0.01
419.184	-6.5
419.626	-12.28
420.069	-12.68
420.511	-12.9
420.953	-11.09
421.396	-9.1
421.838	-8.49
422.28	-7.27
422.722	-3.13
423.164	-5.36
423.606	-4.6
424.048	-4.9
424.49	-1.27
424.932	-1.68
425.374	-5.2
425.816	-8.01
426.258	-10.61
426.699	-12.35
427.141	-10.97
427.582	-14.67
428.024	-14.49
428.465	-14.54
428.907	-13.25
429.348	-12.64
429.789	-9.26
430.231	-4.47
430.672	-4.05
431.113	-1.87
431.554	-2.25
431.995	-6.37
432.436	-1.39
432.877	-1.1
433.318	2.5
433.759	3.28
434.2	3.43
434.64	1.93
435.081	0.14
435.522	-0.74
435.962	-1.61
436.403	1.42
436.843	0.79
437.284	-2.37
437.724	-4.22
438.164	-9.05
438.604	-9.54
439.045	-7.23
439.485	-4.89
439.925	-6.7
440.365	-6.82
440.805	-6.1
441.245	-6.63
441.685	-5
442.125	-6.32
442.564	-5.57
443.004	-3.37
443.444	-4.17
443.883	-4.23
444.323	-7.26
444.762	-8.74
445.202	-9.6
445.641	-7.49
446.081	-8.8
446.52	-7.38
446.959	-5.74
447.398	-2.99
447.837	-3.13
448.276	-2.98
448.716	-2.03
449.154	-3.72
449.593	-0.69
450.032	0.43
450.471	-1.27
450.91	-2.09
451.349	-0.8
451.787	-2.03
452.226	-3.64
452.664	-3.95
453.103	-4.16
453.541	-6.3
453.98	-2.99
454.418	-4.67
454.856	-2.5
455.295	-3.02
455.733	-1.51
456.171	-3.47
456.609	-1.56
457.047	-1.13
457.485	1.19
457.923	3.32
458.361	2.58
458.798	2.01
459.236	2.23
459.674	0.14
460.111	1.02
460.549	1.71
460.987	0.77
461.424	0.1
461.862	0.16
462.299	-0.23
462.736	0.2
463.173	1.34
463.611	4.4
464.048	6.07
464.485	7.34
464.922	6.45
465.359	4.63
465.796	13.97
466.233	14.37
466.67	16.12
467.106	17.11
467.543	15.17
467.98	13.35
468.416	10.41
468.853	9.34
469.29	7.97
469.726	6.99
470.162	7.65
470.599	0.73
471.035	-0.56
471.471	-1.2
471.907	-3.8
472.344	-3.6
472.78	-1.85
473.216	-2.33
473.652	-2.08
474.088	-3.14
474.523	-2.19
474.959	-3.19
475.395	-3.75
475.831	-2.8
476.266	-3.34
476.702	-2.95
477.138	-2.75
477.573	-2.9
478.008	-2.05
478.444	-1.82
478.879	0.33
479.314	0.84
479.75	1.55
480.185	1.94
480.62	1.72
481.055	1.88
481.49	2.88
481.925	3.38
482.36	5.57
482.795	4.25
483.229	3.41
483.664	3.07
484.099	3.08
484.534	3.64
484.968	3.6
485.403	3.33
485.837	2.05
486.271	1.46
486.706	1.37
487.14	-0.67
487.574	0.33
488.009	0.56
488.443	-0.04
488.877	0.62
489.311	-0.32
489.745	-0.08
490.179	0.11
490.613	2.69
491.046	1.98
491.48	1.95
491.914	2.77
492.348	2.21
492.781	2.23
493.215	2.05
493.648	0.95
494.082	1.06
494.515	1.43
494.948	2.15
495.382	0.18
495.815	0.72
496.248	1.01
496.681	0.04
497.114	-0.5
497.547	-0.42
497.98	1.01
498.413	2.21
498.846	2.94
499.279	2.28
499.711	1.72
500.144	1.52
500.577	2.37
501.009	1.89
501.442	2.69
501.874	3.23
502.306	2.91
502.739	4.65
503.171	4.03
503.603	3.98
504.036	3.71
504.468	3.89
504.9	4.14
505.332	3.51
505.764	3.84
506.196	3.26
506.627	3.64
507.059	3.88
507.491	0.9
507.923	0.87
508.354	0.92
508.786	1.51
509.217	1.54
509.649	1.94
510.08	1.52
510.512	2.36
510.943	2.81
511.374	2.94
511.805	2.94
512.237	2.98
512.668	2.34
513.099	1.16
513.53	0.38
513.961	0.45
514.391	0.07
514.822	1.83
515.253	0.93
515.684	1.06
516.114	1.2
516.545	1.67
516.975	1.62
517.406	1.57
517.836	2.51
518.267	3.28
518.697	4.08
519.127	3.82
519.558	2.69
519.988	2.46
520.418	1.37
520.848	0.33
521.278	-0.48
521.708	33.09
522.138	35
522.567	34.05
522.997	34.07
523.427	33.07
523.857	33.81
524.286	33.57
524.716	34.18
525.145	35.29
525.575	36.27
526.004	36.36
526.433	3.5
526.863	1.49
527.292	3.51
527.721	3.85
528.15	3.69
528.579	3.68
529.008	3.93
529.437	2.87
529.866	2.17
530.295	1.22
530.724	2.31
531.152	2.44
531.581	3.54
532.01	2.91
532.438	1.79
532.867	1.5
533.295	1.63
533.723	1.67
534.152	2.04
534.58	2.37
535.008	2.75
535.436	3.47
535.865	3.22
536.293	1.91
536.721	1.21
537.149	1.66
537.576	2.86
538.004	3.01
538.432	2.02
538.86	2.57
539.287	2.12
539.715	1.98
540.143	0.67
540.57	1.2
540.998	1.66
541.425	3.77
541.852	4.33
542.28	3.77
542.707	3.35
543.134	4.28
543.561	4.03
543.988	4.59
544.415	4.71
544.842	4.05
545.269	3.55
545.696	4.28
546.123	3.28
546.549	3.1
546.976	2.9
547.403	3.45
547.829	2.19
548.256	1.63
548.682	1.43
549.108	2.14
549.535	2.41
549.961	2.17
550.387	1.66
550.813	2.8
551.24	2.71
551.666	2.41
552.092	1.67
552.518	2.4
552.943	3.43
553.369	3.03
553.795	2.8
554.221	3.05
554.646	3.19
555.072	4.39
555.498	2.44
555.923	1.66
556.349	2.22
556.774	1.78
557.199	0.92
557.625	0.02
558.05	0.63
558.475	0.39
558.9	0.66
559.325	1.5
559.75	1.29
560.175	1.4
560.6	1.58
561.025	1.27
561.449	1.73
561.874	2.47
562.299	3.38
562.723	2.32
563.148	1.91
563.572	1.44
563.997	0.92
564.421	-0.68
564.846	-1.31
565.27	-1.04
565.694	-1.31
566.118	-1.32
566.542	-0.16
566.966	-0.21
567.39	0.44
567.814	0.84
568.238	1.11
568.662	0.9
569.086	1.72
569.509	1.2
569.933	2.17
570.357	2.3
570.78	2.31
571.204	2.95
571.627	2.53
572.05	2.26
572.474	3.54
572.897	3.49
573.32	4.48
573.743	3.92
574.166	5.97
574.589	5.03
575.012	5.39
575.435	5.55
575.858	4.64
576.281	4.88
576.704	4.53
577.126	2.98
577.549	2.73
577.972	0.9
578.394	1.06
578.817	2.04
579.239	2.44
579.661	2.8
580.084	3.3
580.506	3.36
580.928	2.96
581.35	4.04
581.772	4.76
582.194	4.89
582.616	5.22
583.038	4.64
583.46	2.46
583.882	2.21
584.303	0.54
584.725	-0.51
585.147	4.26
585.568	4.68
585.99	4.83
586.411	5.02
586.833	5.25
587.254	6.05
587.675	6.46
588.096	6.63
588.518	6.26
588.939	7.03
589.36	7.45
589.781	1.34
590.202	3.7
590.623	3.61
591.043	2.4
591.464	2.19
591.885	2.66
592.305	2.44
592.726	2.4
593.147	2.51
593.567	2.97
593.987	3.07
594.408	3.23
594.828	0.26
595.248	0.71
595.669	2.02
596.089	2.05
596.509	0.57
596.929	0.53
597.349	1.16
597.769	1.21
598.189	0.76
598.608	0.51
599.028	0.41
599.448	-0.24
599.867	-1.03
600.287	-1.88
600.706	-1.29
601.126	-0.19
601.545	0.94
601.965	0.39
602.384	0.39
602.803	0.68
603.222	1.43
603.641	1.33
604.061	2.77
604.48	2.8
604.898	2.85
605.317	2.36
605.736	2.41
606.155	2.47
606.574	2.27
606.992	1.92
607.411	1.91
607.829	0.53
608.248	0.26
608.666	-0.81
609.085	-0.41
609.503	-0.61
609.921	0.33
610.339	-0.16
610.758	-0.89
611.176	-0.86
611.594	0.05
612.012	-0.32
612.43	1
612.847	1.08
613.265	2.17
613.683	1.84
614.101	2.23
614.518	1.63
614.936	1.57
615.353	2.37
615.771	2.85
616.188	2.99
616.606	3.11
617.023	2.91
617.44	3.17
617.857	1.77
618.274	1.59
618.691	1.57
619.108	1.5
619.525	1.34
619.942	1.07
620.359	1.17
620.776	0.69
621.192	1.69
621.609	2.14
622.026	2.89
622.442	3.98
622.859	4.03
623.275	3.64
623.691	2.9
624.108	3.7
624.524	3.05
624.94	2.31
625.356	2.19
625.772	1.41
626.188	0.33
626.604	-0.74
627.02	-1.75
627.436	-1.88
627.852	-0.84
628.268	-0.37
628.683	-1.17
629.099	-1.04
629.514	-1.14
629.93	-1.19
630.345	-1.56
630.761	-1.67
631.176	-1.33
631.591	1.15
632.007	1.86
632.422	0.47
632.837	0.04
633.252	1.35
633.667	1.46
634.082	1.95
634.497	2.75
634.911	4.82
635.326	5.61
635.741	6.38
636.155	5.29
636.57	5.79
636.984	6.22
637.399	7.97
637.813	7.14
638.228	6.72
638.642	6
639.056	5.34
639.47	4.68
639.884	3.98
640.298	3.07
640.712	2.86
641.126	1.58
641.54	1.9
641.954	-0.92
642.368	-0.18
642.781	2.94
643.195	3.38
643.609	3.56
644.022	2.62
644.436	3.06
644.849	2.3
645.262	1.72
645.676	1.46
646.089	1.18
646.502	3.09
646.915	1.26
647.328	-0.8
647.741	-0.42
648.154	-0.29
648.567	2.21
648.98	1.94
649.393	2.16
649.805	2.33
650.218	2.41
650.631	2.58
651.043	2.17
651.456	3.62
651.868	3.15
652.28	1.9
652.693	1.25
653.105	-1.24
653.517	-1.51
653.929	-0.43
654.341	-0.02
654.753	0.49
655.165	-0.03
655.577	0.4
655.989	-0.01
656.401	-1.45
656.813	0.59
657.224	0.51
657.636	-0.84
658.047	0.82
658.459	0.64
658.87	-1.05
659.282	-1.08
659.693	-0.25
660.104	-0.41
660.515	-0.57
660.926	-0.06
661.338	-0.75
661.749	-1.43
662.159	1.27
662.57	-0.53
662.981	-0.83
663.392	-0.06
663.803	0.26
664.213	-0.13
664.624	-0.65
665.035	-1.18
665.445	-1.37
665.855	-0.27
666.266	1.33
666.676	0.18
667.086	0.24
667.497	1.01
667.907	1.41
668.317	0.61
668.727	4.14
669.137	3.26
669.547	3.27
669.956	2.94
670.366	2.18
670.776	1.6
671.186	0.89
671.595	1.26
672.005	-0.02
672.414	0.04
672.824	0.78
673.233	-2.87
673.642	-2.09
674.052	-1.57
674.461	0.17
674.87	-0.25
675.279	0.9
675.688	-0.08
676.097	1.37
676.506	2.52
676.915	1.37
677.323	1.01
677.732	1
678.141	0.44
678.549	-0.55
678.958	-2.53
679.366	-2.34
679.775	-4.04
680.183	-0.54
680.592	-1.7
681	-2.17
681.408	-1.35
681.816	-0.31
682.224	-0.34
682.632	1.46
683.04	2.78
683.448	3.78
683.856	3.79
684.264	4.83
684.671	1.94
685.079	1.24
685.487	0.83
685.894	0.32
686.302	-1.82
686.709	-1.79
687.116	-2.95
687.524	-3.3
687.931	-1.73
688.338	-1.31
688.745	-2.03
689.152	-2.59
689.559	-1.37
689.966	0.7
690.373	1.71
690.78	3.21
691.187	3.54
691.593	4.94
692	4.27
692.407	3.22
692.813	5.18
693.22	6.47
693.626	6.32
694.032	6.69
694.439	5.54
694.845	5.46
695.251	4.21
695.657	3.8
696.063	1.89
696.469	2.8
696.875	3.17
697.281	1.64
697.687	0.78
698.093	1.7
698.498	2.1
698.904	1.4
699.31	1.28
699.715	4.49
700.12	4.22
700.526	5.08
700.931	4.22
701.337	4.45
701.742	5.23
702.147	4.66
702.552	5.2
702.957	3.68
703.362	3.15
703.767	2.49
704.172	-0.35
704.577	-0.24
704.981	-1.25
705.386	-0.81
705.791	-1.39
706.195	-3.12
706.6	-2.61
707.004	-4.39
707.408	-4.61
707.813	-2.97
708.217	-1.99
708.621	-1.34
709.025	-1.92
709.43	0.46
709.834	0.98
710.237	1.48
710.641	1.61
711.045	2.92
711.449	5.11
711.853	9.27
712.256	7.92
712.66	8.09
713.064	8.15
713.467	9.75
713.87	8.98
714.274	8.96
714.677	9.54
715.08	11.18
715.484	10.97
715.887	13.11
716.29	8.81
716.693	10.71
717.096	10.59
717.499	10.86
717.901	10.39
718.304	9.42
718.707	8.58
719.109	7.23
719.512	4.11
719.915	6.3
720.317	2.52
720.719	0.71
721.122	-0.23
721.524	0.42
721.926	4.31
722.328	3.86
722.731	3.79
723.133	4.12
723.535	4.03
723.937	6.53
724.338	6.95
724.74	9.87
725.142	66.49
725.544	70.54
725.945	83.86
726.347	80.17
726.748	80.74
727.15	80.71
727.551	84.39
727.952	82.8
728.354	81.06
728.755	79.01
729.156	76.97
729.557	22.98
729.958	18.21
730.359	4.46
730.76	4.48
731.161	2.96
731.562	2.65
731.962	-1.78
732.363	-0.43
732.763	-0.63
733.164	-3.17
733.564	-2.91
733.965	-1.91
734.365	-1.03
734.766	-0.06
735.166	-0.68
735.566	1.99
735.966	2.86
736.366	4.39
736.766	4.69
737.166	4.17
737.566	6.26
737.966	6.32
738.365	6.35
738.765	7.99
739.165	7.48
739.564	7.94
739.964	5.93
740.363	5.09
740.763	3.74
741.162	4.45
741.561	5.17
741.96	5.05
742.36	3.55
742.759	3.85
743.158	1.69
743.557	0.87
743.955	-0.04
744.354	-0.56
744.753	-1.44
745.152	0.35
745.55	-0.79
745.949	0.04
746.348	-0.38
746.746	-1.18
747.144	1.02
747.543	1.11
747.941	-0.38
748.339	0.44
748.737	2.43
749.136	3.83
749.534	1.02
749.932	3.21
750.33	2.24
750.727	1.23
751.125	4.01
751.523	3.08
751.921	5.99
752.318	7.85
752.716	8.8
753.113	7.51
753.511	7.39
753.908	9.61
754.305	13.29
754.703	14.08
755.1	15.65
755.497	14.59
755.894	13.44
756.291	10.63
756.688	10.98
757.085	9.33
757.482	11.36
757.878	13.85
758.275	15.66
758.672	6.1
759.068	4.58
759.465	1.49
759.861	-3.21
760.258	-5.5
760.654	-6.2
761.05	-2.36
761.447	-1.23
761.843	-3.15
762.239	-5.12
762.635	-10.49
763.031	-11.39
763.427	-11.06
763.822	-9.52
764.218	-5.68
764.614	-4.76
765.01	-6.04
765.405	-6.95
765.801	-5.91
766.196	-5.38
766.592	-5.93
766.987	-3.75
767.382	-2.28
767.778	-2.22
768.173	-2.12
768.568	-2.36
768.963	-1.44
769.358	-0.05
769.753	1.1
770.148	1.31
770.542	1.41
770.937	1.24
771.332	1.66
771.726	0.42
772.121	5.26
772.515	5.25
772.91	5.55
773.304	5.47
773.699	5.94
774.093	4.28
774.487	4.27
774.881	3.59
775.275	4.07
775.669	2.64
776.063	2.54
776.457	-0.36
776.851	-0.49
777.245	-0.19
777.638	-0.67
778.032	-3.02
778.425	-2.1
778.819	0.69
779.212	3.47
779.606	5.51
779.999	5.16
780.392	7.49
780.786	5.53
781.179	6.41
781.572	7.07
781.965	7.31
782.358	9.22
782.751	8.2
783.143	5.64
783.536	4.6
783.929	2.42
784.322	2.69
784.714	0.84
785.107	2.19
785.499	3.83
785.891	4.53
786.284	5.19
786.676	4.92
787.068	8.61
787.46	9.21
787.852	7.92
788.245	7.33
788.636	6.84
789.028	10.22
789.42	10.95
789.812	10.2
790.204	8.06
790.595	10.41
790.987	9.95
791.378	8.83
791.77	6.02
792.161	4.19
792.553	4.73
792.944	5.5
793.335	2.26
793.726	2.78
794.117	5.09
794.508	4.72
794.899	0.13
795.29	-0.24
795.681	-2.48
796.072	-0.89
796.463	21.14
796.853	25.24
797.244	27.07
797.634	27.45
798.025	26.06
798.415	21.46
798.806	25.14
799.196	27.67
799.586	31.41
799.976	33.09
800.366	31.78
800.756	8.18
801.146	4.87
801.536	1.74
801.926	1.81
802.316	3.04
802.706	2.93
803.095	1.78
803.485	1.1
803.874	-2.16
804.264	-4.04
804.653	-1.24
805.043	3.32
805.432	6.43
805.821	10.97
806.21	12
806.599	12.56
806.988	14.29
807.377	11.44
807.766	9.63
808.155	9.49
808.544	9.4
808.933	9.21
809.321	10.85
809.71	4.86
810.098	1.84
810.487	-3.89
810.875	-9.51
811.264	-9.51
811.652	5.53
812.04	5.41
812.428	6.95
812.816	4.72
813.204	6.63
813.592	0.63
813.98	1.95
814.368	7.73
814.756	12.27
815.144	17.06
815.531	23
815.919	6.27
816.306	7.42
816.694	8.92
817.081	12.54
817.469	13.54
817.856	10.47
818.243	8.03
818.63	1.96
819.017	6.7
819.404	7.11
819.791	-0.63
820.178	-4.04
820.565	-0.16
820.952	4.27
821.339	5.33
821.725	4.21
822.112	11.24
822.498	14.66
822.885	15.3
823.271	10.79
823.657	4.11
824.044	11.16
824.43	13.24
824.816	21.3
825.202	17.82
825.588	17.97
825.974	17.71
826.36	15.35
826.746	12.58
827.132	13.57
827.517	20.43
827.903	22.77
828.289	26.55
828.674	25.25
829.06	16.5
829.445	11.77
829.83	5.14
830.216	3.9
830.601	8.67
830.986	21.43
831.371	20.15
831.756	23.67
832.141	34.28
832.526	28.64
832.911	31.89
833.295	30.38
833.68	33.03
834.065	36.96
834.449	34.2
834.834	34.07
835.218	27.8
835.603	29.63
835.987	19.94
836.371	14.02
836.755	14.2
837.139	8.2
837.524	7.99
837.908	5.11
838.291	8.19
838.675	5.96
839.059	0.66
839.443	-0.08
839.827	-3.25
840.21	-3.5
840.594	-2.78
840.977	-1.81
841.361	1.71
841.744	-1.43
842.127	0.39
842.511	-2.36
842.894	-3.78
843.277	-3.23
843.66	-7.9
844.043	-5.03
844.426	1.05
844.809	-3.45
845.191	-4.3
845.574	-4.27
845.957	-0.77
846.339	3.91
846.722	5.82
847.104	9.11
847.487	5.71
847.869	7.38
848.252	9.06
848.634	6.96
849.016	7.37
849.398	2.92
849.78	0.05
850.162	0.82
850.544	-2.8
850.926	-7.64
851.307	-10.34
851.689	-9.45
852.071	-11.58
852.452	-13.03
852.834	-16.64
853.215	-11.26
853.597	-9.89
853.978	-0.8
854.359	-1.49
854.741	0.31
855.122	0.46
855.503	0.08
855.884	1.33
856.265	1.73
856.646	-5.16
857.026	-0.26
857.407	-0.15
857.788	1.04
858.169	-8.81
858.549	0.42
858.93	-0.28
859.31	4.57
859.69	11.94
860.071	15.2
860.451	15.88
860.831	16.63
861.211	11.46
861.591	1.09
861.971	-0.44
862.351	2.09
862.731	-6.66
863.111	-7.56
863.491	-8.36
863.87	-15.28
864.25	-23.61
864.629	-15.04
865.009	-13.34
865.388	-6.87
865.768	-5.57
866.147	-4.66
866.526	-1.95
866.905	2.94
867.284	-5.19
867.663	-9.31
868.042	-12.6
868.421	-7.87
868.8	-15.07
869.179	-8.91
869.558	-12.42
869.936	-6.91
870.315	-10.79
870.693	-5.96
871.072	-11.48
871.45	-5.7
871.828	-0.6
872.207	8.59
872.585	10.91
872.963	8.91
873.341	10.69
873.719	17.29
874.097	14.32
874.475	13.38
874.853	7.51
875.23	13.03
875.608	13.19
875.986	16.03
876.363	13.74
876.741	19.45
877.118	30.47
877.495	34.67
877.873	32.21
878.25	35.85
878.627	40.21
879.004	38.92
879.381	32.03
879.758	35.1
880.135	26.38
880.512	24.9
880.889	13.81
881.265	4.81
881.642	-4.22
882.019	-5.69
882.395	5.75
882.772	12.28
883.148	17.19
883.524	16.66
883.901	15.38
884.277	14.4
884.653	14.89
885.029	26.83
885.405	38.93
885.781	38.05
886.157	32.83
886.532	20.04
886.908	10.94
887.284	6.04
887.659	9.22
888.035	9.43
888.411	11.29
888.786	12.22
889.161	5.13
889.537	-4.9
889.912	-6.02
890.287	-1.24
890.662	-0.3
891.037	-5.39
891.412	-2.59
891.787	-7.12
892.162	-3.82
892.536	0.22
892.911	2.82
893.286	-3.06
893.66	-0.46
894.035	4.5
894.409	-4.6
894.784	-0.42
895.158	3.9
895.532	6.12
895.906	13
896.281	13.74
896.655	12.95
897.029	12.09
897.402	13.58
897.776	6.84
898.15	5.97
898.524	14.59
898.898	17.18
899.271	33.65
899.645	30.79
900.018	21.64
900.392	22.9
900.765	18.85
901.138	15.76
901.511	9.34
901.884	23.03
902.258	21.52
902.631	27.68
903.003	22.21
903.376	5.27
903.749	4.46
904.122	5.9
904.495	-11.06
904.867	-18.81
905.24	-18.2
905.612	-13.77
905.985	-27.06
906.357	-31.6
906.729	-29.76
907.102	-16.95
907.474	-7.97
907.846	0.61
908.218	2.4
908.59	25.18
908.962	27.22
909.334	31.98
909.705	50.9
910.077	48.55
910.449	43.12
910.82	46.52
911.192	47.56
911.563	61.54
911.935	36.27
912.306	17.13
912.677	-9.13
913.048	6.2
913.419	10.17
913.79	-12
914.161	-19.93
914.532	5.04
914.903	-6.82
915.274	-10.04
915.645	-21.5
916.015	-16
916.386	-0.23
916.756	7.37
917.127	-12.71
917.497	-14.96
917.868	-14.51
918.238	-2.01
918.608	-9.89
918.978	-8.52
919.348	-17.77
919.718	-9.06
920.088	1.12
920.458	9.06
920.828	-9.02
921.198	1.46
921.567	-2.18
921.937	5.05
922.306	-6.08
922.676	-13.5
923.045	15.25
923.415	28.62
923.784	20.67
924.153	34.37
924.522	36.15
924.891	37.23
925.26	39.62
925.629	41.82
925.998	36.39
926.367	53.03
926.736	78.01
927.104	69.68
927.473	61.59
927.842	61.42
928.21	35.58
928.578	-2.79
928.947	3.96
929.315	5.89
929.683	15.31
930.051	29.15
930.42	-10.63
930.788	-20.21
931.156	-14.45
931.523	22.4
931.891	36.2
932.259	34.02
932.627	70.06
932.994	95.05
933.362	114.93
933.729	90.25
934.097	80.02
934.464	85.58
934.831	66.07
935.199	63.05
935.566	62.74
935.933	124.84
936.3	165.69
936.667	142.06
937.034	209.23
937.401	190.59
937.767	174.48
938.134	160.78
938.501	225.56
938.867	265.56
939.234	404.31
939.6	292.69
939.967	185.59
940.333	145.59
940.699	82.73
941.065	-19.52
941.431	-50.32
941.798	3.05
942.163	38.2
942.529	-8.41
942.895	-21.16
943.261	1.7
943.627	-6.32
943.992	-6.02
944.358	-17.99
944.723	37.91
945.089	29.72
945.454	39.28
945.82	16.54
946.185	-1.21
946.55	21.11
946.915	6.57
947.28	6.85
947.645	25.49
948.01	52.95
948.375	76.82
948.74	45.45
949.104	49.97
949.469	8.97
949.834	-41.19
950.198	80.98
950.562	100.36
950.927	103.26
951.291	116.21
951.655	75.84
952.02	-13.53
952.384	-16.78
952.748	16
953.112	60.54
953.476	81.83
953.839	77.61
954.203	81.38
954.567	66.35
954.931	69.47
955.294	60.33
955.658	66.96
956.021	166.56
956.385	181.93
956.748	179.25
957.111	-116.21
957.474	-259.83
957.837	-316.9
958.2	-397.77
958.563	-106
958.926	-22.77
959.289	-68.77
959.652	-97.88
960.015	-58.97
960.377	-59.76
960.74	-44.6
961.102	-104.37
961.465	65.59
961.827	480.25
962.189	902.27
962.552	679.95
962.914	462.2
963.276	303.42
963.638	255.6
964	233.11
964.362	163.56
964.724	127.15
965.085	108.06
965.447	78.05
965.809	-1.51
966.17	-28.5
966.532	-44.5
966.893	-26.88
967.255	-22.49
967.616	-37.25
967.977	-38.09
968.338	-50.57
968.699	-10.32
969.061	-11.81
969.421	-8.98
969.782	-23.53
970.143	10.57
970.504	46.71
970.865	53.08
971.225	75.59
971.586	84.04
971.946	110.76
972.307	89.36
972.667	67.97
973.027	82.1
973.388	61.18
973.748	61.58
974.108	57
974.468	-35.84
974.828	68.75
975.188	29.48
975.548	12.91
975.907	33.15
976.267	41.12
976.627	57.35
976.986	57.08
977.346	50.56
977.705	40.52
978.064	35.42
978.424	38.27
978.783	-18.01
979.142	-23.62
979.501	2.9
979.86	10.51
980.219	-3.9
980.578	-27.28
980.937	-59.3
981.296	-32.04
981.654	-35.93
982.013	-86.02
982.371	-56.23
982.73	8.73
983.088	28.39
983.447	-18.03
983.805	-7.97
984.163	114.93
984.521	11.79
984.879	-74.73
985.237	316.71
985.595	-79.85
985.953	-125.82
986.311	-179.8
986.669	-107.15
987.026	-117.63
987.384	-203.88
987.741	-276.87
988.099	-118.26
988.456	-79.44
988.814	-42.33
989.171	-39.4
989.528	-68.71
989.885	-69.13
990.242	-15.41
990.599	-70.84
990.956	-27.69
991.313	-6.03
991.67	-5.47
992.027	22.32
992.383	19.79
992.74	30.48
993.096	45.11
993.453	48.76
993.809	48.31
994.165	48.28
994.522	121.2
994.878	118.54
995.234	141.35
995.59	154.46
995.946	75.24
996.302	85.54
996.658	48.08
997.013	20.38
997.369	55.63
997.725	131.6
998.08	75.5
998.436	-82.8
998.791	-58.18
999.147	5.68
999.502	-13.59
999.857	-19.41
1000.212	-37.11
1000.567	56.53
1000.922	42.65
1001.277	5.92
1001.632	-15.34
1001.987	-17.33
1002.342	-1.45
1002.696	-8.16
1003.051	-2.55
1003.406	-2
1003.76	-5.57
1004.114	17.99
1004.469	15.2
1004.823	29.48
1005.177	30.66
1005.531	34.37
1005.885	56.63
1006.239	82.57
1006.593	112.38
1006.947	150.39
1007.301	105.01
1007.655	113.19
1008.008	77.11
1008.362	87.7
1008.715	95.12
1009.069	81.83
1009.422	203.52
1009.776	243.97
1010.129	133.66
1010.482	58.58
1010.835	-10.32
1011.188	-51.02
1011.541	-56
1011.894	737.19
1012.247	-1565.74
1012.6	-201.77
1012.952	-34.22
1013.305	-101.31
1013.657	-50.79
1014.01	-56.76
1014.362	-50.24
1014.715	23.34
1015.067	46.39
1015.419	40.91
1015.771	47.27
1016.123	61.01
1016.475	86.71
1016.827	73.49
1017.179	113.88
1017.531	96.98
1017.883	89.03
1018.234	154.3
1018.586	155.33
1018.938	187.69
1019.289	278.78
1019.64	294.4
1019.992	215.06
1020.343	194.8
1020.694	228.14
1021.045	177.49
1021.396	197.64
1021.747	249.59
1022.098	147.81
1022.449	109.15
1022.8	90.24
1023.151	79.14
1023.501	95.91
1023.852	102.54
1024.202	117.03
1024.553	83.76
1024.903	118.88
1025.253	148.71
1025.604	135.33
1025.954	177.84
1026.304	201.14
1026.654	204.18
1027.004	213.99
1027.354	274.1
1027.703	284.52
1028.053	201.63
1028.403	668.68
1028.753	574.6
1029.102	-93.54
1029.452	-3129.92
1029.801	-178.77
1030.15	-119
1030.499	-116.36
897.758	1880
901.051	1807.52
904.343	1841.07
907.636	1850.18
910.928	1905.29
914.22	1833.8
917.511	1838.07
920.803	1876.56
924.094	1867.7
927.384	1877.56
930.675	1840.48
933.965	1811.37
937.255	1844.76
940.544	1819.63
943.834	1804.45
947.123	1753.71
950.411	1833.17
953.7	1817.01
956.988	1809.6
960.276	1744.58
963.563	1780.56
966.851	1792.42
970.138	1824.82
973.424	1827.96
976.711	1782.18
979.997	1828.16
983.283	1862.32
986.568	1805.22
989.853	1789
993.138	1809.4
996.423	1890.34
999.708	1855.64
1002.992	1881.7
1006.275	1799.62
1009.559	1801.94
1012.842	1885.1
1016.125	1847.69
1019.408	1829.91
1022.69	1870.96
1025.972	1900.87
1029.254	1879.94
1032.536	1853.8
1035.817	1855.66
1039.098	1828.87
1042.379	1869.35
1045.659	1891.21
1048.939	1844.84
1052.219	1845.54
1055.498	1833.27
1058.778	1830.78
1062.057	1807.86
1065.335	1829.25
1068.614	1834.26
1071.892	1833.63
1075.17	1871.11
1078.447	1878.66
1081.724	1871.9
1085.001	1892.08
1088.278	1871.67
1091.554	1872.43
1094.83	1867.78
1098.106	1899.31
1101.382	1921.51
1104.657	1919.87
1107.932	1918.31
1111.206	1901.74
1114.481	1855.79
1117.755	1859.3
1121.029	1855.18
1124.302	1907.93
1127.575	1883.8
1130.848	1881.38
1134.121	1858.05
1137.393	1825.53
1140.665	1874.19
1143.937	1855.28
1147.208	1807.44
1150.48	1863.23
1153.75	1850.09
1157.021	1844.66
1160.291	1828.16
1163.561	1873.48
1166.831	1839.88
1170.101	1858.51
1173.37	1820.96
1176.639	1787.88
1179.907	1823.98
1183.176	1848.42
1186.444	1848.9
1189.711	1868.55
1192.979	1892.58
1196.246	1853.76
1199.513	1865.1
1202.78	1871.26
1206.046	1880.8
1209.312	1907.01
1212.578	1915.36
1215.843	1891.19
1219.108	1863.83
1222.373	1883.25
1225.638	1864.58
1228.902	1860.04
1232.166	1822.03
1235.43	1813.53
1238.693	1840.93
1241.956	1832.08
1245.219	1877.77
1248.482	1861.92
1251.744	1860.69
1255.006	1958.53
1258.268	1911.93
1261.529	1877.01
1264.79	1874.66
1268.051	1955.11
1271.312	1962.6
1274.572	1934.63
1277.832	1920.57
1281.092	1901.81
1284.351	1899.92
1287.61	1887.56
1290.869	1836.4
1294.128	1838.01
1297.386	1864.63
1300.644	1860.69
1303.902	1869.41
1307.159	1756.81
1310.416	1799.62
1313.673	1826.2
1316.93	1826.77
1320.186	1848.73
1323.442	1876.14
1326.697	1880.9
1329.953	1855.57
1333.208	1896.36
1336.463	1869.14
1339.717	1844.31
1342.972	1932.57
1346.226	1909.7
1349.479	1874.21
1352.733	1859.84
1355.986	1861.88
1359.238	1847.78
1362.491	1852.93
1365.743	1852.7
1368.995	1843.37
1372.247	1861.53
1375.498	1878.73
1378.749	1924.8
1382	1879.99
1385.251	1908.91
1388.501	1868.23
1391.751	1877.26
1395	1848.69
1398.25	1871.6
1401.499	1900.04
1404.748	1862.49
1407.996	1843.15
1411.244	1834.88
1414.492	1824.35
1417.74	1816.17
1420.987	1818.28
1424.234	1871.65
1427.481	1834.01
1430.728	1883.51
1433.974	1863.96
1437.22	1857.81
1440.465	1852.22
1443.711	1859.43
1446.956	1877.06
1450.201	1844.63
1453.445	1881.8
1456.689	1873.12
1459.933	1880.03
1463.177	1916.48
1466.42	1893.2
1469.663	1877.11
1472.906	1895.3
1476.148	1936.47
1479.391	1893.68
1482.633	1873.7
1485.874	1899.56
1489.115	1907.03
1492.356	1887.64
1495.597	1869.96
1498.838	1857.51
1502.078	1847.19
1505.318	1826.18
1508.557	1852.24
1511.797	1848.55
1515.036	1896.32
1518.274	1860.53
1521.513	1811.81
1524.751	1819.84
1527.989	1838.49
1531.227	1854.49
1534.464	1869.1
1537.701	1857.35
1540.938	1864.4
1544.174	1815.14
1547.41	1801.49
1550.646	1834.03
1553.882	1879.44
1557.117	1929.75
1560.352	1929.67
1563.587	1899.36
1566.821	1871.79
1570.055	1878.37
1573.289	1861.75
1576.523	1906
1579.756	1920.96
1582.989	1938.62
1586.222	1901.85
1589.454	1924.29
1592.686	1911.41
1595.918	1936.93
1599.15	1934.16
1602.381	1967.24
1605.612	1957.97
1608.843	2034.05
1612.073	1969.52
1615.303	1960.37
1618.533	1958.77
1621.762	1957.52
1624.992	1932.11
1628.221	1936.13
1631.449	1923.73
1634.678	1939.56
1637.906	1911.65
1641.134	1932.09
1644.361	1903.79
1647.588	1897.11
1650.815	1916.03
1654.042	1881.64
1657.269	1903.08
1660.495	1892.35
1663.72	1871.1
1666.946	1846.28
1670.171	1833.37
1673.396	1811.09
1676.621	1795.04
1679.845	1788.63
1683.069	1788.14
1686.293	1811.67
1689.517	1810.62
1692.74	1775.66
1695.963	1790.94
1699.185	1831.9
1702.408	1811.86
1705.63	1831.79
1708.852	1850.48
1712.073	1822.62
1715.294	1839.43
1718.515	1876.56
1721.736	1843.63
1724.956	1822.89
1728.176	1841.87
1731.396	1860.55
1734.616	1851.89
1737.835	1885.64
1741.054	1858.73
1744.272	1852.03
1747.491	1893.88
1750.709	1906.08
1753.927	1873.85
1757.144	1889.09
1760.361	1944.55
1763.578	1916.74
1766.795	1876.7
1770.011	1863.02
1773.227	1881.25
1776.443	1922.21
1779.658	1957.47
1782.874	1905.64
1786.089	1905.48
1789.303	1907.19
1792.518	1904.76
1795.732	1893.25
1798.945	1911.67
1802.159	1947.47
1805.372	1907.88
1808.585	1902.49
1811.797	1902.76
1815.01	1917.37
1818.222	1944.51
1821.434	1902.8
1824.645	1934.7
1827.856	1951.04
1831.067	1974.89
1834.278	1917.1
1837.488	1904.98
1840.698	2003.66
1843.908	1963.71
1847.117	1937.83
1850.326	1885.03
1853.535	1929.35
1856.744	1967.84
1859.952	1906.99
1863.16	1909.54
1866.368	1925.96
1869.575	2032.88
1872.782	1930.6
1875.989	1876.52
1879.196	1913.21
1882.402	1910.47
1885.608	1939.05
1888.814	1899.43
1892.019	1826.05
1895.224	1874.03
1898.429	1839.99
1901.634	1829.19
1904.838	1806.83
1908.042	1864.35
1911.246	1877.56
1914.449	1852.73
1917.652	1834.83
1920.855	1817.91
1924.058	1833.26
1927.26	1876.47
1930.462	1895.38
1933.664	1938.2
1936.865	1886.87
1940.066	1905.89
1943.267	1851.48
1946.467	1861.73
1949.668	1874.96
1952.868	1937.8
1956.067	1933.82
1959.267	1882.87
1962.466	1902.72
1965.665	1882.08
1968.863	1877.79
1972.061	1876.32
1975.259	1867.16
1978.457	1933.48
1981.654	1896.57
1984.852	1899.87
1988.048	1862.58
1991.245	1848.57
1994.441	1928.42
1997.637	1878.36
2000.833	1865.84
2004.028	1893.65
2007.223	1951.99
2010.418	1942.29
2013.613	1898.12
2016.807	1899.08
2020.001	1890.51
2023.194	1904.7
2026.388	1891.16
2029.581	1841.15
2032.774	1906.06
2035.966	1915.92
2039.158	1871.19
2042.35	1887.88
2045.542	1821.69
2048.733	1888.73
2051.924	1869.72
2055.115	1883.73
2058.306	1858.23
2061.496	1905.7
2064.686	1944.64
2067.875	1858.11
2071.065	1854.64
2074.254	1868.87
2077.442	1827.74
2080.631	1900.58
2083.819	1851.58
2087.007	1846.96
2090.195	1835.55
2093.382	1842
2096.569	1830.72
2099.756	1799.63
2102.942	1848.87
2106.128	1865
2109.314	1855.66
2112.5	1847.42
2115.685	1818.57
2118.87	1825.15
2122.055	1881.05
2125.239	1864.5
2128.424	1860.15
2131.608	1898.16
2134.791	1882.98
2137.974	1911.3
2141.157	1902.8
2144.34	1882.07
2147.523	1865.47
2150.705	1891.28
2153.887	1856.32
2157.068	1839.98
2160.25	1816
2163.431	1833.15
2166.611	1813.42
2169.792	1836.58
2172.972	1760.67
2176.152	1800.8
2179.331	1821.83
2182.511	1832.03
2185.69	1850.11
2188.868	1859.08
2192.047	1882.13
2195.225	1907.31
2198.403	1857.49
2201.58	1844.65
2204.758	1827.63
2207.935	1894.05
2211.111	1825.76
2214.288	1817.52
2217.464	1846.06
2220.64	1800.57
2223.815	1844.31
2226.991	1787.3
2230.166	1799.45
2233.34	1843.08
2236.515	1853.71
2239.689	1910.3
2242.863	1867.84
2246.036	1911.79
2249.209	1892.41
2252.382	1904.41
2255.555	1920.44
2258.727	1879.33
2261.9	1902.06
2265.071	1896.7
2268.243	1895.23
2271.414	1852.25
2274.585	1845.55
2277.756	1897.64
2280.926	1859.11
2284.096	1880.39
2287.266	1827.8
2290.436	1866.33
2293.605	1880.97
2296.774	1920.68
2299.942	1920.09
2303.111	1933.5
2306.279	1984.61
2309.447	1967.21
2312.614	1941.21
2315.781	1966.88
2318.948	1949.54
2322.115	1980.66
2325.281	1889.61
2328.447	1893.53
2331.613	1865.12
2334.779	1862.71
2337.944	1855.96
2341.109	1858.26
2344.274	1851.34
2347.438	1821.22
2350.602	1839.67
2353.766	1846.75
2356.929	1838.81
2360.092	1869.33
2363.255	1848.86
2366.418	1827.39
2369.58	1868.01
2372.742	1798.9
2375.904	1779.74
2379.066	1771.48
2382.227	1792.16
2385.388	1758.85
2388.548	1720.51
2391.709	1752.33
2394.869	1749.65
2398.029	1783.93
2401.188	1771.88
2404.347	1753.9
2407.506	1791.16
2410.665	1837
2413.823	1815.47
2416.981	1803.7
2420.139	1811.9
2423.296	1847.92
2426.453	1825.29
2429.61	1842.39
2432.767	1828
2435.923	1867.41
2439.079	1810.56
2442.235	1835.69
2445.391	1788.46
2448.546	1833.64
2451.701	1859.48
2454.855	1864.76
2458.009	1880.53
2461.163	1865.93
2464.317	1844.39
2467.471	1865.48
2470.624	1889.5
2473.777	1888.2
2476.929	1906.75
2480.082	1924.99
2483.234	1902.21
2486.385	1845.22
2489.537	1838.93
2492.688	1839.72
2495.839	1855.37
2498.989	1869.03
2502.14	1859.24
2505.29	1856.08
2508.439	1875.62
2511.589	1825.81
2514.738	1821.44
2517.887	1840.61
2521.035	1915.15
2524.183	1867.79
2527.331	1860.59
2530.479	1859.77
2533.627	1860.65
