Data from C_1_HIR_WI_4N_Splice17_11-41-43-505.txt Node
Date: Sat Mar 14 11:41:43 EDT 2020
User: sa697716
Spectrometer: FLMS03696
Trigger mode: 0
Integration Time (sec): 3.180400E-1
Scans to average: 20
Electric dark correction enabled: true
Nonlinearity correction enabled: true
Boxcar width: 5
XAxis mode: Wavelengths
Number of Pixels in Spectrum: 2048
>>>>>Begin Spectral Data<<<<<
187.83	-190618.47
188.298	1468.34
188.766	827.33
189.233	738.65
189.701	966.18
190.169	1375.37
190.636	501.56
191.104	411.92
191.571	78.41
192.039	9.66
192.506	24.94
192.974	354.94
193.441	-533.96
193.908	-65.55
194.375	3.91
194.842	44.14
195.31	103.79
195.777	123.71
196.244	227.03
196.711	124.88
197.177	106.74
197.644	82.4
198.111	115.22
198.578	103.49
199.045	55.53
199.511	13.95
199.978	-89.37
200.445	-41.27
200.911	-80.16
201.378	-152.67
201.844	-70.39
202.31	-156.85
202.777	-168.19
203.243	-96.86
203.709	-81.1
204.176	-86.3
204.642	-38.28
205.108	-7.57
205.574	-23.4
206.04	-42.27
206.506	-45.71
206.972	-79.42
207.438	-82.65
207.903	-115.32
208.369	-70.89
208.835	-50.61
209.301	-58.96
209.766	-88.91
210.232	-109.39
210.697	-138.05
211.163	-177.45
211.628	-299.52
212.094	-235.64
212.559	-194.66
213.024	-86.58
213.49	-105.98
213.955	-121.24
214.42	-142.11
214.885	-112.04
215.35	-71.93
215.815	8.66
216.28	24.56
216.745	28.41
217.21	63.46
217.675	14.75
218.14	7.67
218.604	-18.11
219.069	-21.45
219.534	18.19
219.998	5.88
220.463	-2.87
220.927	-92.71
221.392	-82.44
221.856	-58.71
222.32	-125.66
222.785	-107.94
223.249	-125.66
223.713	-95.51
224.177	-78.75
224.642	-176.93
225.106	-228.83
225.57	-252.92
226.034	-112.18
226.497	-158.77
226.961	-102.87
227.425	-69.46
227.889	-138.53
228.353	-150.84
228.816	-456.58
229.28	-412.97
229.744	-338.87
230.207	-141.12
230.671	-114.27
231.134	-323.88
231.597	-315.22
232.061	-388.64
232.524	-436.84
232.987	-277.67
233.45	-249.01
233.914	-212.67
234.377	-273.05
234.84	-235.23
235.303	-295.8
235.766	-330.93
236.229	-338.13
236.691	-240.58
237.154	-293.04
237.617	-190.76
238.08	-203.71
238.542	-234.12
239.005	-160.27
239.468	-139.91
239.93	-117.89
240.393	-103.49
240.855	-84.03
241.317	-100.49
241.78	-139.31
242.242	-120.21
242.704	-108.68
243.166	-85.61
243.629	-46.84
244.091	-49.21
244.553	-50.96
245.015	-39.58
245.477	-53.87
245.939	-98.66
246.4	-80.61
246.862	-76.76
247.324	-111.42
247.786	-159.05
248.247	-257.76
248.709	-398.24
249.17	-295.62
249.632	-196.95
250.093	-207.9
250.555	-184.4
251.016	-81.16
251.477	-65.16
251.939	-50.23
252.4	-72.12
252.861	-115.22
253.322	-69.13
253.783	-95.58
254.244	-153.82
254.705	-160.51
255.166	-182.4
255.627	-190.43
256.088	-260.92
256.549	-262.09
257.009	-229.91
257.47	-240.7
257.931	-188.97
258.391	-140.03
258.852	-136.55
259.312	-143.47
259.773	-200.89
260.233	-100.75
260.694	-44.72
261.154	-82.41
261.614	-25.19
262.074	-33.24
262.534	-25.81
262.994	-15.97
263.455	-41.45
263.915	-15.99
264.374	-11.93
264.834	-16.08
265.294	-58.45
265.754	-50.92
266.214	-38.26
266.673	-51.64
267.133	-64.6
267.593	-81.08
268.052	-89.61
268.512	-74.46
268.971	-17.37
269.431	1.32
269.89	12.56
270.349	29.67
270.809	15.69
271.268	21.85
271.727	-148.95
272.186	-129.09
272.645	-79.71
273.104	-110.61
273.563	-170.18
274.022	-241.09
274.481	-170.47
274.94	-115.47
275.399	-97.99
275.857	-139.11
276.316	-235.29
276.775	-183.55
277.233	-161.79
277.692	-115.17
278.15	-91.73
278.609	-36.52
279.067	-49.41
279.525	-44.91
279.984	-88
280.442	-100.03
280.9	-36.81
281.358	-11.4
281.816	-4.56
282.274	-10.81
282.732	-70.9
283.19	-80.19
283.648	-116.71
284.106	-123.58
284.564	-155.28
285.021	-124.64
285.479	-93.81
285.937	-116.94
286.394	-79.39
286.852	-94.76
287.309	-102.36
287.767	-54.42
288.224	-41.43
288.682	-53.11
289.139	-45.69
289.596	-33.28
290.053	-43.54
290.511	-86.64
290.968	-73.71
291.425	-142.87
291.882	-49.83
292.339	-21.34
292.796	-62.48
293.252	-81.48
293.709	-12.63
294.166	-9.81
294.623	-31.88
295.079	-54.68
295.536	-25.81
295.992	-19.44
296.449	-23.23
296.905	-15.11
297.362	14.77
297.818	14.85
298.274	33.35
298.731	1.52
299.187	6.63
299.643	19.46
300.099	40.55
300.555	35.02
301.011	34.65
301.467	125.95
301.923	74.38
302.379	44.95
302.835	35.3
303.291	20.01
303.746	26.95
304.202	-7.75
304.658	-17.95
305.113	-12.68
305.569	-19.2
306.024	-58.24
306.479	-156.77
306.935	-110.98
307.39	-159.7
307.845	-137.97
308.301	-94.76
308.756	-116.21
309.211	-87.03
309.666	-101.91
310.121	-83.54
310.576	-101.62
311.031	-117.24
311.486	-169.22
311.94	-192.13
312.395	-262.78
312.85	-568.77
313.305	-3824.47
313.759	-14861.58
314.214	-1175.35
314.668	-857.15
315.123	-707.57
315.577	-191.92
316.032	-160.15
316.486	-195.01
316.94	-92.75
317.394	-23.87
317.849	-4.68
318.303	-9.72
318.757	-0.94
319.211	-4.69
319.665	-2.91
320.119	-11.81
320.572	-49.39
321.026	-20.78
321.48	-4.54
321.934	-42.18
322.387	-52.99
322.841	-50.3
323.295	5.05
323.748	-48.52
324.202	-25.24
324.655	-14.38
325.108	42.1
325.562	67.23
326.015	44.04
326.468	32.68
326.921	48.29
327.374	51.1
327.827	77.49
328.28	44.33
328.733	67.13
329.186	41.64
329.639	39.24
330.092	15.96
330.545	11.57
330.997	30.73
331.45	58.72
331.903	81.97
332.355	86.33
332.808	60.43
333.26	59.3
333.713	34.2
334.165	8.17
334.617	-62.47
335.069	-139.4
335.522	-327.05
335.974	-426.05
336.426	-492.25
336.878	-377.53
337.33	-163.39
337.782	-170.6
338.234	-196.79
338.686	-246.31
339.137	-258.76
339.589	-238.66
340.041	-135.03
340.493	-112.13
340.944	-112.15
341.396	-110.97
341.847	-79.39
342.299	-63.77
342.75	-33.03
343.201	-72.99
343.653	-93.02
344.104	-140.64
344.555	-95.2
345.006	-228.51
345.457	-108.29
345.908	-96.36
346.359	-68.48
346.81	-52.31
347.261	-82.47
347.712	-132.73
348.163	-160.67
348.613	-106.71
349.064	-95.42
349.515	-73.6
349.965	-63.44
350.416	-109.74
350.866	-135.13
351.317	-190.61
351.767	-367.06
352.217	-489.55
352.668	-327
353.118	-283.48
353.568	-402.02
354.018	-258.15
354.468	-284.18
354.918	-157.43
355.368	-138.9
355.818	-175.13
356.268	-604.43
356.718	-1479.9
357.168	-331.85
357.617	-249.18
358.067	-297.03
358.517	-233.5
358.966	-246.65
359.416	-187.66
359.865	-302.72
360.315	-438.93
360.764	-207.75
361.213	-89.6
361.663	-140.79
362.112	-192.58
362.561	-284.21
363.01	-220.02
363.459	-184.05
363.908	-259.5
364.357	-176.5
364.806	-353.02
365.255	-247.06
365.703	-188.36
366.152	-193.34
366.601	-133.86
367.05	-74.96
367.498	-60.55
367.947	-74.61
368.395	-91.13
368.844	-72.51
369.292	-163.54
369.74	-82.04
370.189	-138.33
370.637	-185.51
371.085	-160.66
371.533	-223.57
371.981	-224.14
372.429	-148.74
372.877	-153.32
373.325	-119.99
373.773	-142.71
374.221	-120.25
374.669	-187.82
375.116	-139.2
375.564	-143.42
376.012	-161.8
376.459	-133.93
376.907	-187.33
377.354	-281.13
377.801	-214.98
378.249	-246.63
378.696	-288
379.143	-259.11
379.591	-214.09
380.038	-455.96
380.485	-296.01
380.932	-333.81
381.379	-152.18
381.826	-14.99
382.273	-26
382.72	-49.49
383.166	-29.55
383.613	-13.86
384.06	-32.99
384.506	-44
384.953	-21.67
385.4	-37.14
385.846	-32.57
386.292	-56.46
386.739	-79.91
387.185	-88.47
387.631	-88.51
388.078	-58.43
388.524	-71.84
388.97	-57.61
389.416	-49.89
389.862	-41.21
390.308	-33.55
390.754	-29.56
391.2	-44.61
391.645	-56.45
392.091	-18.78
392.537	-11.96
392.983	-43.96
393.428	-7.02
393.874	-19.14
394.319	7.86
394.765	21.11
395.21	13.24
395.655	15.16
396.101	24.08
396.546	30.73
396.991	5.85
397.436	7.35
397.881	9.35
398.326	-16.86
398.771	-10.03
399.216	-16.29
399.661	-26.67
400.106	-18.13
400.551	-17.16
400.995	-11.55
401.44	-8.83
401.885	-11.36
402.329	-11.94
402.774	-5.42
403.218	13.77
403.663	15.35
404.107	16.57
404.551	26.08
404.995	21.59
405.44	17.48
405.884	13.37
406.328	7.27
406.772	9.45
407.216	6.32
407.66	2.08
408.104	-7.32
408.547	-9.52
408.991	-10.48
409.435	-13.75
409.879	-9.6
410.322	-7.8
410.766	-3.5
411.209	0.94
411.653	2.65
412.096	7.14
412.54	6.37
412.983	6.57
413.426	10.5
413.869	7.19
414.312	10.12
414.756	7.54
415.199	6.31
415.642	6.48
416.085	5.34
416.527	2.83
416.97	-0.52
417.413	1.41
417.856	0.03
418.298	-1.17
418.741	-1.63
419.184	-4.33
419.626	-10.13
420.069	-7.88
420.511	-7.81
420.953	-3.54
421.396	-1.42
421.838	-1.18
422.28	0.08
422.722	0.19
423.164	-2.97
423.606	-2.77
424.048	-3.7
424.49	0.99
424.932	-2.06
425.374	-4.8
425.816	-9.66
426.258	-11.5
426.699	-9.99
427.141	-7.45
427.582	-9.04
428.024	-9.09
428.465	-9.81
428.907	-10.66
429.348	-12.52
429.789	-10.51
430.231	-6.39
430.672	-5.12
431.113	-4.75
431.554	-5.65
431.995	-9.33
432.436	-5.2
432.877	-3.4
433.318	1.76
433.759	1.22
434.2	0.09
434.64	-0.5
435.081	0.26
435.522	1.83
435.962	1.72
436.403	3.51
436.843	2.93
437.284	-0.44
437.724	-3.28
438.164	-8.75
438.604	-9.57
439.045	-5.2
439.485	-1.64
439.925	-3.12
440.365	-3.88
440.805	-2.9
441.245	-1.39
441.685	-1.83
442.125	-1.97
442.564	-1.28
443.004	0.43
443.444	1.32
443.883	0.38
444.323	-3.4
444.762	-7.13
445.202	-9.01
445.641	-7.63
446.081	-10.12
446.52	-9.51
446.959	-7.02
447.398	-4.48
447.837	-3.86
448.276	-4.22
448.716	-1.88
449.154	-3.83
449.593	-0.37
450.032	-0.14
450.471	-3.01
450.91	-3.18
451.349	-0.94
451.787	-2.15
452.226	-4.08
452.664	-4.67
453.103	-3.77
453.541	-7.24
453.98	-2.42
454.418	-2.84
454.856	0.26
455.295	2.05
455.733	2.57
456.171	2.11
456.609	3.59
457.047	4.29
457.485	6.72
457.923	7.6
458.361	6.88
458.798	5.29
459.236	3.67
459.674	1.53
460.111	2.14
460.549	2.3
460.987	0.78
461.424	-0.65
461.862	-0.23
462.299	-1.71
462.736	-1.03
463.173	0.1
463.611	3.26
464.048	5.71
464.485	7.28
464.922	5.91
465.359	5.62
465.796	14.71
466.233	15.9
466.67	18.05
467.106	20.34
467.543	19.25
467.98	19.09
468.416	16.78
468.853	14.81
469.29	12.5
469.726	12.49
470.162	11.6
470.599	4.28
471.035	2.43
471.471	0.7
471.907	-1.61
472.344	-2.42
472.78	-1.46
473.216	-2.7
473.652	-1.77
474.088	-1.35
474.523	-1.22
474.959	-1.76
475.395	-1.82
475.831	-0.97
476.266	-1.27
476.702	-1.29
477.138	-0.36
477.573	-0.74
478.008	0.01
478.444	0.74
478.879	2.55
479.314	2.72
479.75	2.82
480.185	2.74
480.62	2.88
481.055	2.92
481.49	3.75
481.925	3.63
482.36	5.65
482.795	4.41
483.229	3.59
483.664	2.65
484.099	2.78
484.534	3.6
484.968	4.47
485.403	4.25
485.837	3.93
486.271	3.12
486.706	3.06
487.14	1.47
487.574	2.58
488.009	2.82
488.443	2.71
488.877	3.38
489.311	3.08
489.745	2.51
490.179	2.85
490.613	5.12
491.046	4.8
491.48	4.46
491.914	5.02
492.348	4.73
492.781	4.62
493.215	4.48
493.648	3.49
494.082	3.52
494.515	3.77
494.948	4.57
495.382	2.77
495.815	3.15
496.248	4.36
496.681	4.05
497.114	3.45
497.547	3.86
497.98	4.9
498.413	6.48
498.846	6.88
499.279	7.03
499.711	5.77
500.144	5.63
500.577	6.54
501.009	5.45
501.442	5.59
501.874	6.75
502.306	6.3
502.739	8.83
503.171	8.56
503.603	8.66
504.036	8.12
504.468	8.67
504.9	8.88
505.332	8.42
505.764	9.17
506.196	9.37
506.627	9.04
507.059	9.36
507.491	5.79
507.923	5.44
508.354	5.98
508.786	6.27
509.217	6.86
509.649	7.23
510.08	7.17
510.512	7.85
510.943	7.95
511.374	8.25
511.805	7.62
512.237	8.01
512.668	7.8
513.099	6.66
513.53	6.69
513.961	6.73
514.391	6.58
514.822	8.11
515.253	8.1
515.684	8.06
516.114	8.17
516.545	9.35
516.975	9.13
517.406	9.28
517.836	9.06
518.267	9.58
518.697	10.1
519.127	10.11
519.558	8.94
519.988	8
520.418	7.45
520.848	7.12
521.278	7.41
521.708	39.82
522.138	40.84
522.567	41.12
522.997	41.34
523.427	41.04
523.857	41.46
524.286	41.78
524.716	42.64
525.145	43.8
525.575	44.76
526.004	43.76
526.433	12.67
526.863	11.76
527.292	13.32
527.721	14.14
528.15	13.71
528.579	13.95
529.008	14.22
529.437	13.89
529.866	13.68
530.295	12.83
530.724	14.55
531.152	14.97
531.581	16.19
532.01	16.19
532.438	15.25
532.867	14.89
533.295	15.42
533.723	15.83
534.152	16.37
534.58	16.87
535.008	17.65
535.436	18.26
535.865	18.32
536.293	17.1
536.721	16.17
537.149	16.38
537.576	17.74
538.004	17.96
538.432	16.7
538.86	17.17
539.287	16.24
539.715	15.87
540.143	14.33
540.57	14.13
540.998	14.18
541.425	15.94
541.852	15.98
542.28	15.22
542.707	14.44
543.134	15.33
543.561	14.93
543.988	15.4
544.415	14.98
544.842	14.91
545.269	15.25
545.696	16.42
546.123	15.93
546.549	16.48
546.976	17.3
547.403	17.3
547.829	16.89
548.256	16.34
548.682	16.31
549.108	17.66
549.535	17.74
549.961	16.84
550.387	15.94
550.813	16.49
551.24	16.38
551.666	15.45
552.092	15.8
552.518	15.72
552.943	16.94
553.369	16.81
553.795	16.26
554.221	17.16
554.646	17.43
555.072	18.94
555.498	17.51
555.923	16.6
556.349	16.64
556.774	16.46
557.199	16.42
557.625	15.05
558.05	15.8
558.475	15.59
558.9	14.53
559.325	15.09
559.75	14.53
560.175	14.93
560.6	14.88
561.025	14.81
561.449	14.8
561.874	14.31
562.299	15.4
562.723	14.31
563.148	14.32
563.572	14.43
563.997	14.21
564.421	13.02
564.846	12.47
565.27	12.91
565.694	12.93
566.118	12.83
566.542	14.12
566.966	13.63
567.39	14.06
567.814	14.13
568.238	14.51
568.662	13.57
569.086	13.77
569.509	12.82
569.933	14.03
570.357	13.95
570.78	13.93
571.204	14.04
571.627	13.58
572.05	13.45
572.474	13.92
572.897	14.05
573.32	15.35
573.743	15
574.166	16.09
574.589	14.63
575.012	14.64
575.435	13.85
575.858	13.43
576.281	13.35
576.704	12.76
577.126	11.61
577.549	10.74
577.972	9.76
578.394	9.91
578.817	12.15
579.239	12.14
579.661	12.37
580.084	13.9
580.506	14
580.928	13.99
581.35	14.38
581.772	14.68
582.194	14.91
582.616	14.05
583.038	12.56
583.46	10.11
583.882	10.13
584.303	9.15
584.725	8.17
585.147	12.16
585.568	12.5
585.99	12.91
586.411	13.33
586.833	13.53
587.254	14.3
587.675	15.54
588.096	15.28
588.518	15.27
588.939	16.1
589.36	15.9
589.781	10.23
590.202	12.87
590.623	11.98
591.043	10.45
591.464	9.88
591.885	10.32
592.305	9.38
592.726	9.22
593.147	8.88
593.567	8.95
593.987	8.88
594.408	8.68
594.828	4.83
595.248	5.72
595.669	7.28
596.089	7.23
596.509	6.65
596.929	6.94
597.349	7.17
597.769	7.12
598.189	6.41
598.608	6.45
599.028	6.8
599.448	6.86
599.867	6.35
600.287	5.27
600.706	5.56
601.126	5.75
601.545	7.05
601.965	7.02
602.384	6.79
602.803	6.76
603.222	7
603.641	6.53
604.061	7.32
604.48	7.15
604.898	7.06
605.317	6.49
605.736	6.36
606.155	6.5
606.574	6.32
606.992	6.08
607.411	6.41
607.829	5.12
608.248	5.47
608.666	4.7
609.085	4.86
609.503	4.95
609.921	5.32
610.339	5.24
610.758	3.95
611.176	4.08
611.594	5.01
612.012	4.92
612.43	6.11
612.847	5.75
613.265	7.25
613.683	7.39
614.101	7.83
614.518	7.47
614.936	7.7
615.353	8.06
615.771	8.52
616.188	7.99
616.606	7.56
617.023	7.79
617.44	8.1
617.857	6.33
618.274	5.49
618.691	5.67
619.108	5.73
619.525	5.16
619.942	5.79
620.359	5.54
620.776	5.29
621.192	6.11
621.609	6.24
622.026	6.54
622.442	7.38
622.859	6.98
623.275	6.12
623.691	5.65
624.108	6.17
624.524	5.13
624.94	5.13
625.356	5.42
625.772	4.46
626.188	3.54
626.604	3.62
627.02	3.18
627.436	3.93
627.852	5.29
628.268	5.66
628.683	4.94
629.099	5.16
629.514	4.45
629.93	4.56
630.345	4.21
630.761	2.76
631.176	2.2
631.591	3.54
632.007	3.89
632.422	2.38
632.837	2.56
633.252	3.07
633.667	3.11
634.082	3.28
634.497	3.46
634.911	5.71
635.326	7.33
635.741	7.46
636.155	6.07
636.57	6.15
636.984	6.78
637.399	8.07
637.813	7.9
638.228	7.56
638.642	7.48
639.056	7.12
639.47	5.96
639.884	5.85
640.298	5.83
640.712	6.5
641.126	6.42
641.54	5.83
641.954	2.77
642.368	2.9
642.781	5.77
643.195	5.73
643.609	6.18
644.022	6.1
644.436	5.16
644.849	4.59
645.262	3.9
645.676	2.82
646.089	2.4
646.502	4.72
646.915	3.29
647.328	1.9
647.741	1.9
648.154	1.85
648.567	3.81
648.98	4.92
649.393	4.83
649.805	6.04
650.218	6.63
650.631	7.8
651.043	6.84
651.456	8.17
651.868	6.76
652.28	5.67
652.693	4.47
653.105	3.21
653.517	1.76
653.929	1.43
654.341	0.73
654.753	1.8
655.165	0.85
655.577	0.78
655.989	0.72
656.401	-0.08
656.813	2.02
657.224	2.44
657.636	1.48
658.047	3.46
658.459	4.42
658.87	2.38
659.282	1.25
659.693	2.33
660.104	2.79
660.515	1.94
660.926	1.98
661.338	1.2
661.749	0.52
662.159	1.67
662.57	0.1
662.981	-0.09
663.392	0.58
663.803	-0.07
664.213	-1.04
664.624	-1.29
665.035	-1.4
665.445	-2
665.855	-1.18
666.266	-0.04
666.676	-1.43
667.086	-1.92
667.497	-1.29
667.907	-0.68
668.317	-0.73
668.727	2.51
669.137	2.24
669.547	2.17
669.956	2.79
670.366	1.82
670.776	2.17
671.186	2.09
671.595	1.97
672.005	0.65
672.414	1.44
672.824	3.03
673.233	-0.25
673.642	-0.3
674.052	0.81
674.461	2.42
674.87	2.41
675.279	2.42
675.688	1.35
676.097	3.84
676.506	4.22
676.915	3.13
677.323	2.4
677.732	2.71
678.141	2.02
678.549	1.48
678.958	-0.71
679.366	-1.34
679.775	-2.48
680.183	-0.61
680.592	-2.17
681	-2.83
681.408	-2.08
681.816	-1.84
682.224	-2.5
682.632	-0.38
683.04	-0.25
683.448	-0.01
683.856	0.93
684.264	1.08
684.671	-0.17
685.079	-1.32
685.487	-0.75
685.894	-1.86
686.302	-4.31
686.709	-3.5
687.116	-4.61
687.524	-3.59
687.931	-1.45
688.338	-0.81
688.745	-1.12
689.152	-1.2
689.559	0.49
689.966	1.9
690.373	2.69
690.78	4.26
691.187	4.02
691.593	5.34
692	5.2
692.407	5.16
692.813	7.21
693.22	7.89
693.626	7.15
694.032	8.02
694.439	7.83
694.845	7.28
695.251	7.31
695.657	8.08
696.063	6.37
696.469	5.99
696.875	6.16
697.281	4.51
697.687	4.58
698.093	5.63
698.498	5.39
698.904	3.71
699.31	3.96
699.715	6.67
700.12	6.37
700.526	7.88
700.931	7.45
701.337	7.63
701.742	8.76
702.147	9.45
702.552	10.54
702.957	10.04
703.362	11.34
703.767	12.09
704.172	10.08
704.577	9.61
704.981	8.37
705.386	9.24
705.791	9.8
706.195	8.57
706.6	7.86
707.004	6.51
707.408	6.75
707.813	7.64
708.217	8.43
708.621	8.78
709.025	9.13
709.43	12.15
709.834	12.49
710.237	12.22
710.641	12.36
711.045	13.65
711.449	15.55
711.853	19.69
712.256	19.56
712.66	18.34
713.064	18.58
713.467	20.49
713.87	18.86
714.274	19.25
714.677	19.83
715.08	21.26
715.484	21.47
715.887	23.47
716.29	19.05
716.693	19.51
717.096	21.35
717.499	22.06
717.901	20.51
718.304	20.67
718.707	19.61
719.109	18.88
719.512	17.19
719.915	19.47
720.317	18.45
720.719	17.76
721.122	17.56
721.524	18.62
721.926	23.07
722.328	23.21
722.731	22.61
723.133	23.59
723.535	23.11
723.937	23.69
724.338	23.61
724.74	24.74
725.142	77.74
725.544	81.88
725.945	94.27
726.347	90.13
726.748	91.03
727.15	91.84
727.551	95.03
727.952	93.97
728.354	92.84
728.755	92.53
729.156	90.46
729.557	38.82
729.958	34.01
730.359	21.73
730.76	21.42
731.161	21.58
731.562	19.99
731.962	16.17
732.363	18.81
732.763	20.28
733.164	18.34
733.564	18.92
733.965	20.53
734.365	20.73
734.766	20.56
735.166	21.05
735.566	21.99
735.966	23.75
736.366	25.32
736.766	23.92
737.166	23.14
737.566	23.05
737.966	22.47
738.365	23.23
738.765	24.49
739.165	25.16
739.564	24.67
739.964	22.73
740.363	21.17
740.763	18.93
741.162	20.43
741.561	19.72
741.96	20.72
742.36	19.75
742.759	19.47
743.158	18.37
743.557	17.35
743.955	17.39
744.354	17.84
744.753	18.44
745.152	20.91
745.55	19.72
745.949	20.12
746.348	20.16
746.746	19.53
747.144	22.04
747.543	21.4
747.941	20.97
748.339	20.48
748.737	21.36
749.136	21.8
749.534	19.88
749.932	21.54
750.33	21.64
750.727	20.73
751.125	22.72
751.523	20.49
751.921	24.2
752.318	25.18
752.716	27.59
753.113	26.74
753.511	26.55
753.908	28.21
754.305	31.04
754.703	31.44
755.1	33.33
755.497	32.91
755.894	32.55
756.291	30.4
756.688	29.93
757.085	27.93
757.482	30.1
757.878	34.91
758.275	35.05
758.672	27.79
759.068	27.42
759.465	24.05
759.861	24.27
760.258	22.58
760.654	22.05
761.05	22.34
761.447	21.08
761.843	18.96
762.239	15.64
762.635	12.7
763.031	12.05
763.427	11.19
763.822	13.54
764.218	12.92
764.614	13.93
765.01	12.44
765.405	13.69
765.801	16.63
766.196	15.6
766.592	13.98
766.987	17
767.382	18.54
767.778	20.83
768.173	19.72
768.568	20.22
768.963	21.66
769.358	23.03
769.753	24.13
770.148	23.43
770.542	23.69
770.937	23.53
771.332	22.87
771.726	21.59
772.121	24.52
772.515	25.88
772.91	25.6
773.304	24.55
773.699	24.07
774.093	22.99
774.487	22.58
774.881	21.94
775.275	23.49
775.669	22.57
776.063	23
776.457	20.58
776.851	20.1
777.245	20.7
777.638	21.49
778.032	21.37
778.425	22.8
778.819	26.3
779.212	30.44
779.606	30.6
779.999	29.49
780.392	31.14
780.786	29.78
781.179	30.35
781.572	31.08
781.965	31.33
782.358	32.21
782.751	29.41
783.143	25.9
783.536	24.19
783.929	22.32
784.322	23.5
784.714	21.25
785.107	22.2
785.499	22.8
785.891	24.35
786.284	23.93
786.676	22.61
787.068	27.22
787.46	29.5
787.852	26.88
788.245	26.8
788.636	25.17
789.028	28.05
789.42	28.69
789.812	28.22
790.204	26.66
790.595	29.15
790.987	30.32
791.378	27.74
791.77	25.35
792.161	25.55
792.553	26.4
792.944	27.88
793.335	24.46
793.726	24.52
794.117	26.85
794.508	23.72
794.899	21.27
795.29	20.68
795.681	19.84
796.072	19.74
796.463	38.95
796.853	43.19
797.244	44.36
797.634	46.87
798.025	45.68
798.415	41.24
798.806	45.97
799.196	47.8
799.586	50.25
799.976	52.76
800.366	52.38
800.756	32.46
801.146	29.66
801.536	27.75
801.926	26.07
802.316	28.13
802.706	30.14
803.095	28.62
803.485	26.81
803.874	24.4
804.264	20.78
804.653	23.12
805.043	25.8
805.432	24.62
805.821	27.89
806.21	29.87
806.599	25.66
806.988	25.11
807.377	20.81
807.766	20.79
808.155	20.6
808.544	22.21
808.933	20.42
809.321	22.83
809.71	21.33
810.098	20.67
810.487	17.89
810.875	18.95
811.264	19.09
811.652	31.82
812.04	31.11
812.428	33.04
812.816	30.04
813.204	34.4
813.592	26.2
813.98	28.1
814.368	30.18
814.756	32.36
815.144	35.04
815.531	41.03
815.919	29.25
816.306	29.07
816.694	25.46
817.081	29.3
817.469	29.03
817.856	30.11
818.243	25.31
818.63	20.62
819.017	21.05
819.404	21.64
819.791	14.75
820.178	10.19
820.565	13.03
820.952	26
821.339	27.05
821.725	27.88
822.112	31.67
822.498	35.95
822.885	33.18
823.271	32.94
823.657	27.44
824.044	30.63
824.43	34.27
824.816	42.28
825.202	34
825.588	34.29
825.974	33.72
826.36	32.58
826.746	33.12
827.132	35.37
827.517	37.62
827.903	39.4
828.289	43.17
828.674	42.69
829.06	38.85
829.445	34.72
829.83	31.41
830.216	29.17
830.601	30.92
830.986	38.14
831.371	41.43
831.756	45.44
832.141	53.96
832.526	51.31
832.911	51.3
833.295	46.44
833.68	47.14
834.065	52.3
834.449	49.83
834.834	50.35
835.218	46.07
835.603	45.56
835.987	39.63
836.371	35.07
836.755	36.72
837.139	34.8
837.524	29.9
837.908	27.14
838.291	24.09
838.675	22.78
839.059	20.92
839.443	14.39
839.827	8.86
840.21	6.67
840.594	5.97
840.977	5.36
841.361	6.39
841.744	5.72
842.127	8.17
842.511	8.79
842.894	6.22
843.277	6.46
843.66	8.59
844.043	15.21
844.426	21.09
844.809	15.64
845.191	10.02
845.574	10.55
845.957	15.45
846.339	23.18
846.722	22.72
847.104	19.78
847.487	13.69
847.869	16.98
848.252	17.78
848.634	16.29
849.016	19.27
849.398	20.18
849.78	18.4
850.162	21.54
850.544	14.42
850.926	11.18
851.307	13.66
851.689	20.16
852.071	14.11
852.452	12.44
852.834	8.46
853.215	10.2
853.597	10.28
853.978	19.83
854.359	17.07
854.741	21.22
855.122	20.15
855.503	20.38
855.884	18.75
856.265	23.06
856.646	16.33
857.026	20.98
857.407	22.9
857.788	23.64
858.169	11.28
858.549	17.76
858.93	17.76
859.31	20.26
859.69	28.05
860.071	31.09
860.451	31.2
860.831	36.41
861.211	32.48
861.591	27.43
861.971	21.97
862.351	24.41
862.731	14.87
863.111	14.54
863.491	18.94
863.87	11.99
864.25	5.63
864.629	9.31
865.009	1.35
865.388	6.13
865.768	4.32
866.147	13.28
866.526	18.26
866.905	21.29
867.284	10.74
867.663	5.27
868.042	0.88
868.421	-0.97
868.8	-5.64
869.179	1.74
869.558	-5.26
869.936	-1.45
870.315	-10.86
870.693	-6.62
871.072	-13.39
871.45	-10.32
871.828	-7.57
872.207	-1.84
872.585	1.14
872.963	-3.34
873.341	8.23
873.719	20.41
874.097	19.56
874.475	25.06
874.853	19.78
875.23	25.84
875.608	31.53
875.986	32.13
876.363	31.94
876.741	44.84
877.118	57.53
877.495	50.21
877.873	45.05
878.25	43.9
878.627	44.3
879.004	42.15
879.381	38.06
879.758	41.74
880.135	36.31
880.512	36.39
880.889	19.35
881.265	9.6
881.642	2.23
882.019	0.13
882.395	14.01
882.772	19.63
883.148	25.43
883.524	24.07
883.901	24.61
884.277	25.12
884.653	24.34
885.029	38.72
885.405	48.59
885.781	53.78
886.157	51.98
886.532	42.09
886.908	33.95
887.284	29.94
887.659	32.88
888.035	26.82
888.411	25.92
888.786	31.65
889.161	22.11
889.537	12.01
889.912	10.14
890.287	11.83
890.662	6.62
891.037	2.49
891.412	2.86
891.787	0.73
892.162	4.82
892.536	8.95
892.911	7.42
893.286	8.13
893.66	7.18
894.035	10.7
894.409	2.58
894.784	6.12
895.158	12.96
895.532	16.56
895.906	22.27
896.281	20.85
896.655	26.38
897.029	27.55
897.402	27.22
897.776	24.33
898.15	20.97
898.524	24.95
898.898	25.18
899.271	30.95
899.645	27.46
900.018	18.84
900.392	13.23
900.765	-0.64
901.138	-3.51
901.511	-8.66
901.884	14.29
902.258	20.46
902.631	29.66
903.003	29.02
903.376	20.94
903.749	18.71
904.122	18.14
904.495	16.06
904.867	13.16
905.24	14.95
905.612	8.65
905.985	-14.4
906.357	-23.5
906.729	-27.81
907.102	-10.08
907.474	-3.29
907.846	0.97
908.218	2.39
908.59	17.03
908.962	24.47
909.334	25.12
909.705	36.5
910.077	36.77
910.449	38.13
910.82	43.82
911.192	36.92
911.563	44.28
911.935	38.47
912.306	32.37
912.677	17.89
913.048	22.24
913.419	21.99
913.79	7.26
914.161	18.68
914.532	26.74
914.903	21.39
915.274	19.12
915.645	13.46
916.015	4.06
916.386	9.04
916.756	9.23
917.127	-6.64
917.497	6.28
917.868	13.19
918.238	3.47
918.608	-9.9
918.978	-17.86
919.348	-25.58
919.718	-29.36
920.088	-18.3
920.458	-13.23
920.828	-18.73
921.198	-17.79
921.567	-33.52
921.937	-14.15
922.306	-18.91
922.676	-26.93
923.045	7.63
923.415	22.38
923.784	10.7
924.153	21.46
924.522	24.63
924.891	25.65
925.26	37.76
925.629	34.35
925.998	32.89
926.367	40.94
926.736	62.3
927.104	42.72
927.473	25.19
927.842	39.89
928.21	12.04
928.578	-18.08
928.947	-9.6
929.315	-15.1
929.683	2.84
930.051	-4.88
930.42	2.19
930.788	-1.4
931.156	-5.24
931.523	32.47
931.891	45.89
932.259	72.68
932.627	111.04
932.994	128.73
933.362	128.09
933.729	96
934.097	89.72
934.464	79.25
934.831	60.03
935.199	49.24
935.566	41.79
935.933	-9.95
936.3	-37.13
936.667	-51.49
937.034	43.4
937.401	19.36
937.767	27.24
938.134	18.3
938.501	-3.83
938.867	31.5
939.234	37.6
939.6	-15.41
939.967	40.74
940.333	43.27
940.699	36.93
941.065	-53.92
941.431	-46.02
941.798	-18.25
942.163	33.95
942.529	31.56
942.895	-9.37
943.261	3.35
943.627	1.91
943.992	2.21
944.358	-10.59
944.723	41.06
945.089	29.81
945.454	16.74
945.82	-3.54
946.185	-14.41
946.55	-22.44
946.915	-2.92
947.28	-1.25
947.645	8.74
948.01	43.8
948.375	74.39
948.74	44.71
949.104	44.78
949.469	-0.72
949.834	-58.58
950.198	20.39
950.562	43.18
950.927	33.25
951.291	46.98
951.655	33.47
952.02	-29.48
952.384	-39.1
952.748	3.85
953.112	45.71
953.476	61.1
953.839	52.17
954.203	55.83
954.567	57.69
954.931	45.37
955.294	54.04
955.658	42.91
956.021	86.88
956.385	131.81
956.748	58.34
957.111	-248.65
957.474	-416.43
957.837	-469.16
958.2	-500.5
958.563	-178.88
958.926	-64.69
959.289	-135.55
959.652	-125.21
960.015	-106.88
960.377	-196.5
960.74	-255.5
961.102	-588.3
961.465	-300.2
961.827	299.43
962.189	468.89
962.552	360.09
962.914	200.09
963.276	124.36
963.638	127.17
964	95.25
964.362	80.13
964.724	73.22
965.085	90.11
965.447	66.39
965.809	-12.75
966.17	-9.93
966.532	-23.97
966.893	3.17
967.255	-8.3
967.616	-42.07
967.977	-3.63
968.338	4.95
968.699	20.4
969.061	13.9
969.421	9.72
969.782	-0.5
970.143	10.78
970.504	51.85
970.865	66.47
971.225	104.3
971.586	103.39
971.946	100.73
972.307	46.34
972.667	23.34
973.027	18.62
973.388	-2.76
973.748	18.36
974.108	17.36
974.468	-71.48
974.828	-4.22
975.188	-15.19
975.548	-10.37
975.907	15.26
976.267	41.66
976.627	51.06
976.986	52.48
977.346	35.71
977.705	41.67
978.064	35.43
978.424	35.97
978.783	-5.01
979.142	-17.4
979.501	-8.57
979.86	-4.76
980.219	-17.36
980.578	-34.03
980.937	-63.79
981.296	-29.31
981.654	-46.14
982.013	-126.58
982.371	-147.88
982.73	-129.92
983.088	-153.63
983.447	-129.31
983.805	-147.41
984.163	-374.05
984.521	-538.96
984.879	-799.87
985.237	1141.06
985.595	-495.35
985.953	-77.04
986.311	-105.9
986.669	-43.04
987.026	-51.1
987.384	-108.15
987.741	-185.34
988.099	-36.84
988.456	2.46
988.814	24.93
989.171	3.41
989.528	-46.63
989.885	-51.72
990.242	-21.51
990.599	-64.61
990.956	-52
991.313	-29.06
991.67	-17.65
992.027	13.49
992.383	12.86
992.74	30.57
993.096	42.17
993.453	43.94
993.809	38.33
994.165	44.22
994.522	112.96
994.878	136.44
995.234	162.42
995.59	162.04
995.946	82.38
996.302	95.27
996.658	74.69
997.013	51.46
997.369	121.89
997.725	180.33
998.08	108.36
998.436	-51.59
998.791	-112.33
999.147	-113.12
999.502	-74.76
999.857	-127
1000.212	-280.8
1000.567	-474.55
1000.922	-271.88
1001.277	-222.03
1001.632	-127.75
1001.987	-163.94
1002.342	-91.99
1002.696	-38
1003.051	-8.56
1003.406	-21.92
1003.76	-4.88
1004.114	2.65
1004.469	19.78
1004.823	12.74
1005.177	1.96
1005.531	-1.01
1005.885	17.17
1006.239	27.16
1006.593	19.64
1006.947	43.27
1007.301	25.19
1007.655	51.34
1008.008	45.21
1008.362	40.7
1008.715	86.71
1009.069	93.58
1009.422	224.66
1009.776	349.99
1010.129	210.76
1010.482	158.86
1010.835	71.78
1011.188	81.12
1011.541	-64.3
1011.894	947.88
1012.247	-1609.84
1012.6	-185.45
1012.952	-108.96
1013.305	-129.35
1013.657	-70.93
1014.01	-71.55
1014.362	-64.24
1014.715	-6.35
1015.067	22.57
1015.419	30.99
1015.771	48.8
1016.123	52.81
1016.475	62.14
1016.827	55.28
1017.179	67.66
1017.531	59.56
1017.883	47.93
1018.234	98.49
1018.586	101.34
1018.938	126.88
1019.289	171.93
1019.64	156.1
1019.992	128.46
1020.343	78.23
1020.694	118.9
1021.045	104.55
1021.396	100.61
1021.747	168.23
1022.098	78.32
1022.449	62.6
1022.8	53.38
1023.151	59.67
1023.501	68.81
1023.852	55.59
1024.202	96.78
1024.553	76.2
1024.903	112.82
1025.253	126.52
1025.604	116.26
1025.954	157.57
1026.304	154.82
1026.654	155.39
1027.004	206.5
1027.354	272
1027.703	323.62
1028.053	288.63
1028.403	727.42
1028.753	553.93
1029.102	126.81
1029.452	-2907.78
1029.801	-184.41
1030.15	-107.08
1030.499	-120.18
897.758	1821.64
901.051	1751.58
904.343	1783.57
907.636	1789.38
910.928	1841.5
914.22	1773.77
917.511	1777.59
920.803	1816.74
924.094	1807.65
927.384	1816.1
930.675	1783.06
933.965	1754.67
937.255	1786.6
940.544	1762.64
943.834	1752.18
947.123	1703.97
950.411	1778.67
953.7	1763.12
956.988	1756.06
960.276	1695.14
963.563	1727.16
966.851	1738.11
970.138	1769.58
973.424	1772.25
976.711	1726.41
979.997	1771.22
983.283	1804.12
986.568	1750.36
989.853	1734.22
993.138	1751.51
996.423	1827.88
999.708	1796.78
1002.992	1820.62
1006.275	1741.42
1009.559	1743.44
1012.842	1824.49
1016.125	1785.33
1019.408	1767.54
1022.69	1806.58
1025.972	1836.7
1029.254	1816.61
1032.536	1790.84
1035.817	1792.71
1039.098	1765.82
1042.379	1806.8
1045.659	1827.02
1048.939	1783.58
1052.219	1785.96
1055.498	1774.14
1058.778	1772.03
1062.057	1748.95
1065.335	1770.56
1068.614	1775.09
1071.892	1775.57
1075.17	1812.61
1078.447	1817.48
1081.724	1812.67
1085.001	1831.6
1088.278	1810.1
1091.554	1813.86
1094.83	1809.29
1098.106	1838.77
1101.382	1858.96
1104.657	1857.26
1107.932	1855.11
1111.206	1840.53
1114.481	1796.88
1117.755	1799
1121.029	1794.57
1124.302	1847.56
1127.575	1822.4
1130.848	1821.31
1134.121	1797.64
1137.393	1766.66
1140.665	1815
1143.937	1797.24
1147.208	1753.53
1150.48	1806.13
1153.75	1794.25
1157.021	1789.91
1160.291	1770.25
1163.561	1814.99
1166.831	1782.21
1170.101	1801.39
1173.37	1765.15
1176.639	1731.97
1179.907	1768.97
1183.176	1787.51
1186.444	1789.51
1189.711	1808.27
1192.979	1830.67
1196.246	1796.32
1199.513	1806.51
1202.78	1810.46
1206.046	1819.86
1209.312	1844.72
1212.578	1854.08
1215.843	1827.25
1219.108	1803.44
1222.373	1820.62
1225.638	1802.26
1228.902	1797.23
1232.166	1761.7
1235.43	1753.05
1238.693	1779.67
1241.956	1772.19
1245.219	1815.36
1248.482	1801.95
1251.744	1800.54
1255.006	1893.86
1258.268	1851.26
1261.529	1818.25
1264.79	1814.23
1268.051	1892.85
1271.312	1898.58
1274.572	1872.98
1277.832	1859.91
1281.092	1841.67
1284.351	1837.17
1287.61	1825.63
1290.869	1777.67
1294.128	1777.23
1297.386	1804.75
1300.644	1800.44
1303.902	1808.47
1307.159	1701
1310.416	1742.22
1313.673	1768.52
1316.93	1769.33
1320.186	1789.9
1323.442	1816.55
1326.697	1820.08
1329.953	1794.37
1333.208	1831.02
1336.463	1810.51
1339.717	1784.13
1342.972	1870.19
1346.226	1847.95
1349.479	1812.59
1352.733	1799.17
1355.986	1803.79
1359.238	1789.08
1362.491	1793.63
1365.743	1796.57
1368.995	1789.01
1372.247	1805.72
1375.498	1820.18
1378.749	1861.77
1382	1823.44
1385.251	1847.38
1388.501	1808.24
1391.751	1815.28
1395	1788.13
1398.25	1810.76
1401.499	1839.4
1404.748	1802.67
1407.996	1781.57
1411.244	1776.46
1414.492	1767.48
1417.74	1755.19
1420.987	1757.72
1424.234	1811.8
1427.481	1774.67
1430.728	1824.21
1433.974	1803.57
1437.22	1795.29
1440.465	1793.28
1443.711	1800.23
1446.956	1814.56
1450.201	1785.54
1453.445	1821.22
1456.689	1814.95
1459.933	1819.39
1463.177	1855.09
1466.42	1830.83
1469.663	1817.33
1472.906	1835.44
1476.148	1869.33
1479.391	1830.42
1482.633	1813.3
1485.874	1836.51
1489.115	1842.75
1492.356	1824.72
1495.597	1808.02
1498.838	1796.15
1502.078	1788.06
1505.318	1766.55
1508.557	1790.62
1511.797	1788.19
1515.036	1836.21
1518.274	1801.34
1521.513	1752.76
1524.751	1760.24
1527.989	1779.43
1531.227	1794.22
1534.464	1807.96
1537.701	1795.86
1540.938	1802.82
1544.174	1756.8
1547.41	1743.66
1550.646	1773.71
1553.882	1816.21
1557.117	1866.46
1560.352	1868.23
1563.587	1837.58
1566.821	1810.9
1570.055	1818.87
1573.289	1803.43
1576.523	1843.91
1579.756	1856.91
1582.989	1875.29
1586.222	1837.4
1589.454	1860.89
1592.686	1847.8
1595.918	1870.49
1599.15	1867.44
1602.381	1899.82
1605.612	1890.01
1608.843	1963.63
1612.073	1902.9
1615.303	1894.11
1618.533	1893.72
1621.762	1893.81
1624.992	1865.34
1628.221	1869.43
1631.449	1861.9
1634.678	1877.18
1637.906	1852.29
1641.134	1869.87
1644.361	1840.75
1647.588	1836.16
1650.815	1855.27
1654.042	1820.89
1657.269	1842.37
1660.495	1834.86
1663.72	1814.24
1666.946	1788.91
1670.171	1777.09
1673.396	1752.13
1676.621	1737.57
1679.845	1732.74
1683.069	1733.76
1686.293	1754.34
1689.517	1752.5
1692.74	1717.85
1695.963	1734.32
1699.185	1773.18
1702.408	1753.5
1705.63	1773.63
1708.852	1791.32
1712.073	1766.81
1715.294	1782.6
1718.515	1816.21
1721.736	1786.76
1724.956	1767.24
1728.176	1785.53
1731.396	1800.69
1734.616	1791.48
1737.835	1824.17
1741.054	1797.25
1744.272	1794.76
1747.491	1830.56
1750.709	1843.01
1753.927	1812.39
1757.144	1827.81
1760.361	1879.06
1763.578	1851.18
1766.795	1814.65
1770.011	1803.16
1773.227	1819.88
1776.443	1857.06
1779.658	1891.93
1782.874	1841.63
1786.089	1838.96
1789.303	1840.03
1792.518	1838.73
1795.732	1830.59
1798.945	1848.94
1802.159	1882.72
1805.372	1843.13
1808.585	1841.17
1811.797	1840.59
1815.01	1852.53
1818.222	1881.63
1821.434	1843.4
1824.645	1874.61
1827.856	1888.65
1831.067	1911.08
1834.278	1856.69
1837.488	1843.82
1840.698	1940.52
1843.908	1898.15
1847.117	1877.82
1850.326	1825.61
1853.535	1865.94
1856.744	1904.33
1859.952	1845.02
1863.16	1846.6
1866.368	1861.73
1869.575	1962.86
1872.782	1866.47
1875.989	1814.09
1879.196	1849.58
1882.402	1845.12
1885.608	1873.73
1888.814	1837.52
1892.019	1765.27
1895.224	1810.73
1898.429	1780.33
1901.634	1768.72
1904.838	1750.44
1908.042	1802.67
1911.246	1817.22
1914.449	1793.72
1917.652	1775.74
1920.855	1759.6
1924.058	1774.07
1927.26	1816.87
1930.462	1833.93
1933.664	1872.86
1936.865	1825.08
1940.066	1839.81
1943.267	1791.67
1946.467	1800.21
1949.668	1812.88
1952.868	1874.02
1956.067	1869.29
1959.267	1819.13
1962.466	1837.92
1965.665	1821.09
1968.863	1816.57
1972.061	1815.55
1975.259	1805.99
1978.457	1869.11
1981.654	1833.23
1984.852	1837.33
1988.048	1801.99
1991.245	1786.09
1994.441	1864.7
1997.637	1819.98
2000.833	1804.53
2004.028	1832
2007.223	1890.26
2010.418	1882.41
2013.613	1838.65
2016.807	1838.87
2020.001	1829.85
2023.194	1844.8
2026.388	1834.75
2029.581	1785.82
2032.774	1844.54
2035.966	1855.29
2039.158	1812.43
2042.35	1825.96
2045.542	1760.65
2048.733	1827.18
2051.924	1811.39
2055.115	1821.96
2058.306	1796.74
2061.496	1841.48
2064.686	1881.94
2067.875	1797.54
2071.065	1797.8
2074.254	1810.92
2077.442	1770.16
2080.631	1842.7
2083.819	1794.32
2087.007	1789.56
2090.195	1779.77
2093.382	1785.04
2096.569	1775.15
2099.756	1742.89
2102.942	1792.41
2106.128	1804.83
2109.314	1794.41
2112.5	1788.66
2115.685	1755.34
2118.87	1761.32
2122.055	1815.63
2125.239	1800.93
2128.424	1795.89
2131.608	1833.66
2134.791	1819.05
2137.974	1846.05
2141.157	1839.45
2144.34	1820.5
2147.523	1804.51
2150.705	1834.52
2153.887	1799.99
2157.068	1782.28
2160.25	1758.59
2163.431	1774.85
2166.611	1755.92
2169.792	1778.3
2172.972	1703.29
2176.152	1740.69
2179.331	1760.58
2182.511	1768.96
2185.69	1785.01
2188.868	1794.96
2192.047	1817.89
2195.225	1842.55
2198.403	1798.44
2201.58	1784.6
2204.758	1768.05
2207.935	1832.85
2211.111	1766.1
2214.288	1758.29
2217.464	1785.55
2220.64	1744.1
2223.815	1784.16
2226.991	1730.68
2230.166	1741.59
2233.34	1782.48
2236.515	1791.71
2239.689	1848.08
2242.863	1805.67
2246.036	1850.55
2249.209	1835.23
2252.382	1849.07
2255.555	1861.4
2258.727	1823.16
2261.9	1844.83
2265.071	1839.51
2268.243	1838.1
2271.414	1798.18
2274.585	1789.15
2277.756	1841.34
2280.926	1804.43
2284.096	1822.71
2287.266	1767.47
2290.436	1808.18
2293.605	1822.88
2296.774	1857.53
2299.942	1855.75
2303.111	1866.47
2306.279	1914.45
2309.447	1898.89
2312.614	1875.52
2315.781	1896.62
2318.948	1878.83
2322.115	1911.61
2325.281	1823.76
2328.447	1826.48
2331.613	1801.57
2334.779	1802.11
2337.944	1794.22
2341.109	1796.28
2344.274	1788.74
2347.438	1760.1
2350.602	1778.13
2353.766	1786.74
2356.929	1779
2360.092	1808.22
2363.255	1787.27
2366.418	1766.4
2369.58	1803.67
2372.742	1747.04
2375.904	1726.93
2379.066	1718.99
2382.227	1738.16
2385.388	1704.6
2388.548	1667.84
2391.709	1698.65
2394.869	1696.17
2398.029	1730.56
2401.188	1718.34
2404.347	1704.01
2407.506	1730.58
2410.665	1779.37
2413.823	1757.72
2416.981	1745.95
2420.139	1755.64
2423.296	1790
2426.453	1766.41
2429.61	1784.48
2432.767	1770.9
2435.923	1808.25
2439.079	1753.49
2442.235	1780.09
2445.391	1729.07
2448.546	1773.97
2451.701	1800.19
2454.855	1804.11
2458.009	1819.78
2461.163	1806.73
2464.317	1784.14
2467.471	1804.07
2470.624	1826.77
2473.777	1824.97
2476.929	1839.28
2480.082	1859.95
2483.234	1840.17
2486.385	1785.49
2489.537	1780.29
2492.688	1779.71
2495.839	1796.52
2498.989	1807.41
2502.14	1797.66
2505.29	1794.47
2508.439	1813.28
2511.589	1767.03
2514.738	1763.83
2517.887	1778.93
2521.035	1850.45
2524.183	1806.72
2527.331	1799.25
2530.479	1796.79
2533.627	1799.64
