Data from C_1_DIV_PA_2N_Splice17_12-01-04-029.txt Node
Date: Sat Mar 14 12:01:04 EDT 2020
User: sa697716
Spectrometer: FLMS03696
Trigger mode: 0
Integration Time (sec): 3.180400E-1
Scans to average: 20
Electric dark correction enabled: true
Nonlinearity correction enabled: true
Boxcar width: 5
XAxis mode: Wavelengths
Number of Pixels in Spectrum: 2048
>>>>>Begin Spectral Data<<<<<
187.83	-277581.31
188.298	2026.88
188.766	1078
189.233	963.27
189.701	1390.67
190.169	1794.24
190.636	668.06
191.104	502.78
191.571	35.63
192.039	-109.95
192.506	-122.6
192.974	292.22
193.441	-385.43
193.908	-2.36
194.375	26.41
194.842	41.26
195.31	12.23
195.777	111.21
196.244	326.86
196.711	459.91
197.177	607.89
197.644	877.87
198.111	1537.52
198.578	2156.9
199.045	1751.01
199.511	2879.73
199.978	3437.79
200.445	2920.87
200.911	3267.81
201.378	3667.58
201.844	3322.87
202.31	5737.81
202.777	6015.19
203.243	3352.8
203.709	3207.58
204.176	3807.56
204.642	3144.3
205.108	2912.29
205.574	2389.06
206.04	2189.42
206.506	2041.2
206.972	1921.14
207.438	1843.43
207.903	2090.51
208.369	1823.9
208.835	1822.73
209.301	1919.85
209.766	1970.98
210.232	1952.31
210.697	2416.27
211.163	2967.36
211.628	4482.78
212.094	3782.25
212.559	4635.86
213.024	2876.79
213.49	3496.93
213.955	3406.27
214.42	3312.15
214.885	3072.53
215.35	2963.21
215.815	2816.39
216.28	2979.08
216.745	2425.57
217.21	2606.57
217.675	2373.28
218.14	2655.53
218.604	2968.21
219.069	3361.12
219.534	3499.48
219.998	4055.19
220.463	4895.28
220.927	6054.01
221.392	5696.44
221.856	5765.3
222.32	7260.35
222.785	8997.86
223.249	11343.16
223.713	12681.04
224.177	12695.49
224.642	16338.54
225.106	20177.72
225.57	22109.23
226.034	16486.92
226.497	25132.45
226.961	22733.42
227.425	26524.38
227.889	29449.43
228.353	29528.89
228.816	61088.76
229.28	58628.05
229.744	49584.39
230.207	30216.21
230.671	29771.28
231.134	49315.24
231.597	57072.43
232.061	57223.65
232.524	56001.21
232.987	38689.95
233.45	34939.8
233.914	31430.64
234.377	32332.64
234.84	29675.86
235.303	35087.44
235.766	39335.46
236.229	40768.88
236.691	25736.37
237.154	29000.14
237.617	21861.06
238.08	22447.38
238.542	26309.94
239.005	18854.47
239.468	18736.44
239.93	17695.79
240.393	16111.08
240.855	14154.14
241.317	14519.52
241.78	17679.77
242.242	18302.7
242.704	19802.23
243.166	17280.13
243.629	15711.45
244.091	18144.93
244.553	19911.67
245.015	21422.87
245.477	27768.73
245.939	40778.42
246.4	43313.96
246.862	42179.83
247.324	39854.97
247.786	44628.01
248.247	58518.32
248.709	60581.18
249.17	45342.41
249.632	42805.65
250.093	49694.69
250.555	42960.75
251.016	26220.62
251.477	24930.98
251.939	26959.64
252.4	28312.94
252.861	33742.48
253.322	31449.69
253.783	37492.23
254.244	48648.38
254.705	38364.96
255.166	34175.52
255.627	33677.48
256.088	47510.66
256.549	50472.57
257.009	43512.89
257.47	52850.41
257.931	43050.78
258.391	32263.64
258.852	33254.42
259.312	34927.89
259.773	43180.56
260.233	36483.05
260.694	30791.73
261.154	34979.03
261.614	28067.5
262.074	25101.81
262.534	26082
262.994	24596.48
263.455	32799.76
263.915	27656.15
264.374	26060.86
264.834	28467.49
265.294	31575.08
265.754	32721.5
266.214	31005.8
266.673	29112.05
267.133	36771.78
267.593	36502.73
268.052	44698.43
268.512	38877.1
268.971	46861.98
269.431	51390.95
269.89	46065.82
270.349	69099.23
270.809	77081.32
271.268	69296.55
271.727	155464.61
272.186	100673.39
272.645	75607.47
273.104	54543.1
273.563	79072.99
274.022	62267.79
274.481	52962.24
274.94	40811.85
275.399	30357.5
275.857	35371.66
276.316	47852.42
276.775	42599.2
277.233	41941.15
277.692	39231.54
278.15	44446.95
278.609	45736.01
279.067	42341.1
279.525	39371.83
279.984	50865.54
280.442	61140.89
280.9	60240.97
281.358	39676.48
281.816	36988.02
282.274	36288.68
282.732	37540.16
283.19	37743.44
283.648	32601.21
284.106	34761.82
284.564	35385.9
285.021	32842.14
285.479	24494.4
285.937	22305.27
286.394	19574.84
286.852	20174.18
287.309	21227.24
287.767	20536.07
288.224	19523.23
288.682	21425.72
289.139	23538.5
289.596	21564.77
290.053	22449.06
290.511	28395.67
290.968	34506.59
291.425	46902.98
291.882	39061.31
292.339	34007.61
292.796	33768.86
293.252	31865.07
293.709	25362.01
294.166	22751.61
294.623	25192.82
295.079	24210.07
295.536	24353.63
295.992	22133.93
296.449	21915.61
296.905	22809.4
297.362	21899.36
297.818	23071.82
298.274	23962.33
298.731	24439.47
299.187	24225.34
299.643	26017.07
300.099	31482.51
300.555	34550.72
301.011	28902.58
301.467	27878.39
301.923	32691.97
302.379	31969.95
302.835	31432.32
303.291	31527.11
303.746	35934.93
304.202	45480.34
304.658	45724.51
305.113	30817.69
305.569	30227.49
306.024	32298.93
306.479	30797.78
306.935	25963.79
307.39	28416.09
307.845	26288.44
308.301	26486.07
308.756	25848.5
309.211	24910.01
309.666	25560.13
310.121	31732.44
310.576	32254.64
311.031	32001.9
311.486	36717.22
311.94	36738.09
312.395	49165.38
312.85	92402.75
313.305	454510.76
313.759	2352468.9
314.214	170425.28
314.668	135173.43
315.123	113749.82
315.577	40783.07
316.032	36299.04
316.486	45500.56
316.94	35884.5
317.394	24988.39
317.849	19444.67
318.303	18419.59
318.757	17395.55
319.211	19259.02
319.665	16862.47
320.119	17090.55
320.572	24527.53
321.026	22942.93
321.48	19102.28
321.934	20881.85
322.387	20955.61
322.841	22646.8
323.295	20342.12
323.748	23471.62
324.202	23806.21
324.655	28638.42
325.108	39986.28
325.562	28270.53
326.015	33585.47
326.468	25408.27
326.921	28439.77
327.374	26507.28
327.827	27574.3
328.28	31226.73
328.733	20918.65
329.186	18425.66
329.639	17547.98
330.092	14814.1
330.545	14129
330.997	14279.47
331.45	15609.13
331.903	18282.22
332.355	31519.03
332.808	30673.93
333.26	25347.97
333.713	27533.56
334.165	27750.38
334.617	37075.5
335.069	29982.65
335.522	54219.89
335.974	59974.86
336.426	54855.1
336.878	38046.26
337.33	19296.23
337.782	18867.7
338.234	23656.3
338.686	28318.15
339.137	33526.79
339.589	31619.12
340.041	24782.78
340.493	21294.55
340.944	21806.39
341.396	23506.83
341.847	19755.43
342.299	23314.34
342.75	28443.23
343.201	24893.91
343.653	28613.8
344.104	35241.67
344.555	27751.33
345.006	43256.68
345.457	33155.77
345.908	26388.39
346.359	24809.03
346.81	20224.42
347.261	21330.58
347.712	21035.52
348.163	22559.03
348.613	22867.47
349.064	21359.97
349.515	18708.07
349.965	19174.43
350.416	23102.93
350.866	25353
351.317	28714.16
351.767	47576.2
352.217	60149.81
352.668	49926.24
353.118	45720.18
353.568	44149.35
354.018	34925
354.468	36842.72
354.918	26472.84
355.368	23178.01
355.818	32787.6
356.268	94479.87
356.718	395859.87
357.168	98662.92
357.617	49636.49
358.067	55290.2
358.517	51756.96
358.966	60710.77
359.416	68074.31
359.865	73701.54
360.315	87814.67
360.764	41055.71
361.213	23011.68
361.663	21838.44
362.112	26957.64
362.561	43543.98
363.01	32887.17
363.459	27759.32
363.908	30124.55
364.357	25606.59
364.806	43330.3
365.255	29844.74
365.703	27373.09
366.152	27456.54
366.601	22310.43
367.05	18154.82
367.498	16502.33
367.947	17286.64
368.395	18004.49
368.844	15963.19
369.292	19324.58
369.74	13372.03
370.189	20546.22
370.637	24109.61
371.085	20832.82
371.533	25367.5
371.981	24478.88
372.429	23403.56
372.877	24423.28
373.325	20513.99
373.773	20975.9
374.221	18711.34
374.669	23253.38
375.116	20169.38
375.564	20407.48
376.012	22901.44
376.459	18939.76
376.907	22722.19
377.354	27568.89
377.801	25742.01
378.249	29628.43
378.696	37934.47
379.143	46065.31
379.591	49282.84
380.038	83360.51
380.485	60410.98
380.932	65454.38
381.379	59995.63
381.826	44186.31
382.273	31514.42
382.72	27694.92
383.166	27079.77
383.613	17608.8
384.06	15920.2
384.506	18462.03
384.953	13605.57
385.4	13721.24
385.846	12044.79
386.292	11790.4
386.739	11585.76
387.185	11483.74
387.631	11512.66
388.078	11173.32
388.524	11984.1
388.97	11085.91
389.416	9248.49
389.862	9852.7
390.308	9372.72
390.754	9520.28
391.2	10354.58
391.645	10622.79
392.091	10137.07
392.537	9812.71
392.983	9857.91
393.428	9689.17
393.874	10399.3
394.319	10451.3
394.765	9913.66
395.21	10186.78
395.655	9564.86
396.101	8959.11
396.546	8084.34
396.991	8179.06
397.436	7597.69
397.881	7352.88
398.326	6979.94
398.771	6605.18
399.216	5784.31
399.661	5218.62
400.106	5200.81
400.551	5325.58
400.995	4780.28
401.44	4732.28
401.885	4459.02
402.329	4509.81
402.774	4327.28
403.218	4187.42
403.663	4040.84
404.107	4157.2
404.551	4193.98
404.995	3856.87
405.44	3733.43
405.884	3797.68
406.328	3688.55
406.772	3685.24
407.216	3359.47
407.66	3257.49
408.104	3110.04
408.547	2922.28
408.991	2836.73
409.435	2734.26
409.879	2699.54
410.322	2661.9
410.766	2575.74
411.209	2450.09
411.653	2356.66
412.096	2312.84
412.54	2315.03
412.983	2297.64
413.426	2301.96
413.869	2302.96
414.312	2262.37
414.756	2182.77
415.199	2088.88
415.642	2028.57
416.085	2033.03
416.527	2022.5
416.97	2056.65
417.413	1954.85
417.856	1939.37
418.298	1924.1
418.741	1911.69
419.184	1913.24
419.626	1995.46
420.069	1995.65
420.511	2010.51
420.953	1969.83
421.396	1951.88
421.838	1907.21
422.28	1950.86
422.722	1958.92
423.164	1986.5
423.606	1958.51
424.048	1960.32
424.49	1866.21
424.932	1860.38
425.374	1838.65
425.816	1873.34
426.258	1910.8
426.699	1929.75
427.141	1906.03
427.582	1940.93
428.024	1937.06
428.465	1928.61
428.907	1879.56
429.348	1860.43
429.789	1862
430.231	1822.31
430.672	1848.11
431.113	1806.12
431.554	1781.42
431.995	1737.89
432.436	1671.29
432.877	1631.63
433.318	1600.99
433.759	1592.93
434.2	1591.97
434.64	1572.55
435.081	1575.48
435.522	1492.92
435.962	1435.66
436.403	1404.53
436.843	1423.53
437.284	1396.98
437.724	1359.42
438.164	1364.78
438.604	1334.78
439.045	1281.95
439.485	1227.48
439.925	1200.14
440.365	1169.38
440.805	1154.06
441.245	1136.93
441.685	1092.65
442.125	1083.66
442.564	1090.25
443.004	1062.35
443.444	1057.77
443.883	1058.53
444.323	1051.51
444.762	1054.75
445.202	1066.97
445.641	1082.83
446.081	1076.95
446.52	1084.43
446.959	1069.45
447.398	1038.73
447.837	1024.67
448.276	1005.33
448.716	1011.8
449.154	1018.65
449.593	989.23
450.032	983.05
450.471	965.03
450.91	962.12
451.349	956.92
451.787	952
452.226	965.11
452.664	963.36
453.103	962.39
453.541	958.48
453.98	952.64
454.418	958.8
454.856	941.87
455.295	937.19
455.733	943.45
456.171	947.96
456.609	948.85
457.047	948.36
457.485	959.02
457.923	960.58
458.361	947.66
458.798	950.7
459.236	948.01
459.674	954.62
460.111	960.49
460.549	951.76
460.987	949.09
461.424	946.16
461.862	942.18
462.299	930.43
462.736	928.11
463.173	932.19
463.611	921.98
464.048	920.39
464.485	928.09
464.922	919.22
465.359	915.18
465.796	898.53
466.233	891.35
466.67	881.78
467.106	878.93
467.543	870.14
467.98	857.86
468.416	836.76
468.853	829.85
469.29	805.04
469.726	796.24
470.162	774.93
470.599	767.12
471.035	759.51
471.471	742.6
471.907	737.42
472.344	732.95
472.78	734.02
473.216	742.5
473.652	732.44
474.088	729.31
474.523	725.46
474.959	730.29
475.395	722.41
475.831	717.13
476.266	717.68
476.702	714.25
477.138	704.76
477.573	701.51
478.008	696.61
478.444	697.66
478.879	701.31
479.314	702.65
479.75	701.2
480.185	704.65
480.62	709.07
481.055	712.34
481.49	716.16
481.925	725.6
482.36	736.8
482.795	757.37
483.229	777.73
483.664	794.2
484.099	797.37
484.534	807.9
484.968	813.36
485.403	814.64
485.837	812.81
486.271	809.88
486.706	809.4
487.14	799.62
487.574	784.49
488.009	775.29
488.443	766.73
488.877	770.58
489.311	771.19
489.745	778.1
490.179	783.06
490.613	793.85
491.046	797.19
491.48	799.21
491.914	796.09
492.348	797.97
492.781	798.98
493.215	796.66
493.648	794.88
494.082	796.34
494.515	791.49
494.948	794
495.382	794.26
495.815	793.91
496.248	793.85
496.681	801.49
497.114	807.67
497.547	811.8
497.98	817.82
498.413	816.57
498.846	818.85
499.279	819.74
499.711	816.58
500.144	810.77
500.577	812.37
501.009	814.95
501.442	815.98
501.874	808.43
502.306	801.18
502.739	799.22
503.171	803.11
503.603	796.66
504.036	794.98
504.468	790.06
504.9	790
505.332	786.04
505.764	779.37
506.196	774.15
506.627	775.17
507.059	775.5
507.491	771.97
507.923	759.97
508.354	760.38
508.786	758.01
509.217	761.05
509.649	761.28
510.08	764.32
510.512	766.08
510.943	766.32
511.374	763.77
511.805	767.22
512.237	769.66
512.668	781.24
513.099	788.96
513.53	796.6
513.961	799.5
514.391	810.09
514.822	821.27
515.253	834.3
515.684	841
516.114	849.77
516.545	853.65
516.975	859.84
517.406	861.2
517.836	853.9
518.267	850.95
518.697	854.99
519.127	850.01
519.558	847.6
519.988	842.45
520.418	841.39
520.848	845.15
521.278	844.28
521.708	865.8
522.138	868.76
522.567	881.69
522.997	890.73
523.427	894.63
523.857	900.83
524.286	902.92
524.716	908.49
525.145	916.1
525.575	919.48
526.004	924.29
526.433	901.6
526.863	899.87
527.292	893.66
527.721	895.55
528.15	897.13
528.579	896.15
529.008	901.33
529.437	911.65
529.866	917.18
530.295	925.15
530.724	931.58
531.152	943.88
531.581	950.57
532.01	959.05
532.438	962.23
532.867	969.22
533.295	979.43
533.723	981.24
534.152	980.26
534.58	980.14
535.008	972.04
535.436	973.43
535.865	978.43
536.293	986.12
536.721	994.24
537.149	1008.05
537.576	1010.17
538.004	1016.26
538.432	1020.18
538.86	1019.19
539.287	1023.57
539.715	1031.26
540.143	1031.35
540.57	1029.09
540.998	1026.38
541.425	1014.72
541.852	1003.93
542.28	1002.12
542.707	992.87
543.134	985.55
543.561	982.55
543.988	977.92
544.415	977.38
544.842	974.57
545.269	971.05
545.696	972.41
546.123	978.58
546.549	972.04
546.976	965.6
547.403	964.43
547.829	965.2
548.256	966.29
548.682	964.42
549.108	960.4
549.535	960.18
549.961	960.07
550.387	952.21
550.813	948.82
551.24	952.27
551.666	951.65
552.092	945.99
552.518	941.96
552.943	939.01
553.369	942.57
553.795	944.06
554.221	944
554.646	941.45
555.072	947.64
555.498	949.27
555.923	953.19
556.349	961.31
556.774	966.47
557.199	966.33
557.625	967.57
558.05	964.17
558.475	968.97
558.9	967.82
559.325	963.96
559.75	958.9
560.175	955.11
560.6	950.63
561.025	947.66
561.449	947.03
561.874	949.14
562.299	951.87
562.723	954.73
563.148	949.04
563.572	950.35
563.997	954.82
564.421	957.12
564.846	956.87
565.27	959.45
565.694	958.77
566.118	963.66
566.542	968.04
566.966	963.6
567.39	960.33
567.814	955.11
568.238	955.03
568.662	957.49
569.086	958.94
569.509	962.84
569.933	955.07
570.357	950.7
570.78	940.63
571.204	935.33
571.627	931.4
572.05	931.61
572.474	932.29
572.897	926.87
573.32	924.76
573.743	920.3
574.166	912.64
574.589	913.58
575.012	911.43
575.435	912.04
575.858	907.81
576.281	903.52
576.704	895.63
577.126	889.83
577.549	884.97
577.972	879.89
578.394	876.43
578.817	874.6
579.239	865.27
579.661	859.99
580.084	854.16
580.506	848.09
580.928	846.76
581.35	842.78
581.772	841.87
582.194	836.32
582.616	830.86
583.038	824.18
583.46	818.39
583.882	818.07
584.303	819.96
584.725	817.85
585.147	822.57
585.568	829.09
585.99	837.25
586.411	842.27
586.833	851.42
587.254	853.67
587.675	861.92
588.096	870
588.518	868.26
588.939	860.7
589.36	860.83
589.781	853.01
590.202	839.64
590.623	835.4
591.043	834.35
591.464	827.07
591.885	825.55
592.305	822.76
592.726	815.75
593.147	816.71
593.567	813.94
593.987	809.95
594.408	807.65
594.828	805.47
595.248	802.44
595.669	793.66
596.089	790.1
596.509	786.58
596.929	779.47
597.349	780.15
597.769	775.18
598.189	772.86
598.608	773.88
599.028	775.3
599.448	775.18
599.867	768.75
600.287	765.93
600.706	764.85
601.126	760.43
601.545	760.99
601.965	761.05
602.384	758.79
602.803	760.46
603.222	758.6
603.641	755.46
604.061	755.11
604.48	753.8
604.898	759.58
605.317	762.95
605.736	765.37
606.155	765.86
606.574	762.02
606.992	766.49
607.411	766.69
607.829	764.25
608.248	765.05
608.666	765.83
609.085	767.97
609.503	765.61
609.921	765.37
610.339	768.34
610.758	769.81
611.176	769.76
611.594	767.01
612.012	767.29
612.43	771.72
612.847	777.97
613.265	781.29
613.683	786.43
614.101	790.2
614.518	790.4
614.936	787.3
615.353	781.41
615.771	782.94
616.188	785.93
616.606	785.94
617.023	784.69
617.44	777.77
617.857	775.07
618.274	772.01
618.691	770.34
619.108	766.37
619.525	764.89
619.942	769.96
620.359	773.1
620.776	771.63
621.192	770.65
621.609	770.57
622.026	776.72
622.442	782.39
622.859	785.43
623.275	782.03
623.691	785.95
624.108	794.1
624.524	804.41
624.94	805.31
625.356	811.92
625.772	820.78
626.188	828.47
626.604	830.88
627.02	828.96
627.436	827.56
627.852	832.21
628.268	840.9
628.683	835.68
629.099	830.68
629.514	827.51
629.93	830.49
630.345	833.59
630.761	831.66
631.176	833.78
631.591	831.59
632.007	829.91
632.422	829.47
632.837	822.84
633.252	822.96
633.667	818.77
634.082	815.07
634.497	809.06
634.911	799.78
635.326	800.08
635.741	790.93
636.155	786.54
636.57	790.57
636.984	793.15
637.399	798.38
637.813	801.52
638.228	804.86
638.642	811.36
639.056	809.13
639.47	814.32
639.884	813.13
640.298	815.52
640.712	820.49
641.126	818.12
641.54	818.52
641.954	820.78
642.368	819.49
642.781	820.29
643.195	814.11
643.609	821.41
644.022	824.15
644.436	828.24
644.849	826.14
645.262	824.72
645.676	832.61
646.089	836.36
646.502	833.11
646.915	835.06
647.328	828.65
647.741	834.23
648.154	829.72
648.567	832.38
648.98	827.3
649.393	832.63
649.805	833.57
650.218	830.89
650.631	821.81
651.043	820.33
651.456	819.07
651.868	823.19
652.28	840.37
652.693	855.32
653.105	863.92
653.517	875.06
653.929	877.92
654.341	886.45
654.753	879.99
655.165	889.82
655.577	891.9
655.989	892.89
656.401	891.08
656.813	865.49
657.224	853.2
657.636	834.08
658.047	825.7
658.459	815.37
658.87	814.61
659.282	811.53
659.693	800.26
660.104	794.41
660.515	789.8
660.926	795.58
661.338	801.87
661.749	804.52
662.159	804.2
662.57	807.16
662.981	810.17
663.392	810
663.803	821.87
664.213	826.63
664.624	829.01
665.035	838.39
665.445	831.42
665.855	829.31
666.266	827.91
666.676	830.43
667.086	826.29
667.497	832.26
667.907	831.38
668.317	826.83
668.727	827.83
669.137	833.78
669.547	835.62
669.956	843.1
670.366	849.43
670.776	853.62
671.186	861.84
671.595	868.82
672.005	873.76
672.414	874.87
672.824	875.11
673.233	881.61
673.642	884.95
674.052	888.56
674.461	889.68
674.87	895.66
675.279	892.73
675.688	894.84
676.097	896.06
676.506	893.1
676.915	910.51
677.323	912.76
677.732	910.39
678.141	908.68
678.549	895.91
678.958	894.11
679.366	890.64
679.775	893.99
680.183	902.97
680.592	906.6
681	909.48
681.408	895.41
681.816	898.03
682.224	901.17
682.632	904.26
683.04	927.2
683.448	944.64
683.856	965.51
684.264	990.18
684.671	1008.14
685.079	1031.03
685.487	1055.51
685.894	1096.27
686.302	1121.2
686.709	1134
687.116	1150.58
687.524	1156.74
687.931	1154.73
688.338	1147.62
688.745	1134.22
689.152	1124.19
689.559	1123.57
689.966	1119.99
690.373	1100.88
690.78	1096.02
691.187	1107.45
691.593	1107.73
692	1105.28
692.407	1116.06
692.813	1135
693.22	1146.45
693.626	1158.5
694.032	1165.09
694.439	1189.59
694.845	1205.24
695.251	1231.44
695.657	1254.95
696.063	1297.71
696.469	1327.14
696.875	1355.79
697.281	1372.06
697.687	1393.44
698.093	1413.1
698.498	1455.29
698.904	1489.47
699.31	1540.31
699.715	1581.45
700.12	1638.94
700.526	1658.17
700.931	1708.25
701.337	1749.12
701.742	1780.62
702.147	1844.3
702.552	1879.13
702.957	1929.88
703.362	1958.24
703.767	1994.56
704.172	2036.83
704.577	2027.37
704.981	2077.85
705.386	2109.28
705.791	2127.49
706.195	2196.93
706.6	2225.12
707.004	2298.56
707.408	2301.9
707.813	2344.6
708.217	2362.06
708.621	2389.41
709.025	2481.86
709.43	2507.34
709.834	2575.93
710.237	2652.9
710.641	2672.57
711.045	2716.08
711.449	2741.63
711.853	2792.69
712.256	2853.03
712.66	2910.17
713.064	2998.6
713.467	3061.48
713.87	3178.72
714.274	3247.21
714.677	3366.56
715.08	3527.55
715.484	3700.2
715.887	3901.29
716.29	4101.56
716.693	4313.72
717.096	4552.76
717.499	4703.23
717.901	4766.17
718.304	4833.37
718.707	4896.04
719.109	4847.29
719.512	4859.38
719.915	4778.49
720.317	4763.42
720.719	4840.4
721.122	4847.85
721.524	4839.88
721.926	4837.77
722.328	4966.14
722.731	4994.38
723.133	5058.06
723.535	5276.79
723.937	5332.38
724.338	5419.18
724.74	5497.49
725.142	5467.5
725.544	5502.56
725.945	5562.39
726.347	5593.56
726.748	5623.73
727.15	5669.13
727.551	5661.26
727.952	5662.43
728.354	5662.38
728.755	5690.98
729.156	5676.04
729.557	5699.15
729.958	5599.42
730.359	5569.35
730.76	5574
731.161	5530.15
731.562	5526.43
731.962	5553.08
732.363	5506.84
732.763	5459.2
733.164	5517.39
733.564	5463.8
733.965	5380.59
734.365	5359.7
734.766	5407.76
735.166	5380.58
735.566	5337.82
735.966	5324.68
736.366	5331.48
736.766	5278.82
737.166	5326.75
737.566	5293.85
737.966	5281.43
738.365	5335.26
738.765	5342.32
739.165	5271.1
739.564	5255.44
739.964	5318
740.363	5279.07
740.763	5289.28
741.162	5285.99
741.561	5261.32
741.96	5220.09
742.36	5250.3
742.759	5264.47
743.158	5317.56
743.557	5345.28
743.955	5398.31
744.354	5356.31
744.753	5428.16
745.152	5389.04
745.55	5461.59
745.949	5461.13
746.348	5469.91
746.746	5495.92
747.144	5458.07
747.543	5437.17
747.941	5497.81
748.339	5422.79
748.737	5416.57
749.136	5412.1
749.534	5490.34
749.932	5460.78
750.33	5492.47
750.727	5560.74
751.125	5537.95
751.523	5521.51
751.921	5573.63
752.318	5536.36
752.716	5607.41
753.113	5627.64
753.511	5662.56
753.908	5667.44
754.305	5648.18
754.703	5722.15
755.1	5795.8
755.497	5868.17
755.894	6096.55
756.291	6313.79
756.688	6703.45
757.085	7221.71
757.482	7952.78
757.878	8745.12
758.275	9468.11
758.672	10467.54
759.068	11281.6
759.465	12440.46
759.861	13930.93
760.258	15659.71
760.654	16552.12
761.05	16430.12
761.447	15687.76
761.843	14604.09
762.239	13490.25
762.635	12986.89
763.031	12497.53
763.427	11799.74
763.822	11064.34
764.218	10339.65
764.614	9395.88
765.01	8765.3
765.405	8357.78
765.801	8049.62
766.196	7655.72
766.592	7437.9
766.987	7065.35
767.382	6813.87
767.778	6707.94
768.173	6554.21
768.568	6470.02
768.963	6325.12
769.358	6348.98
769.753	6293.74
770.148	6192.5
770.542	6195.33
770.937	6160.23
771.332	6269.31
771.726	6293.97
772.121	6222.66
772.515	6289.44
772.91	6272.92
773.304	6359.07
773.699	6281.91
774.093	6344.4
774.487	6413.45
774.881	6463.78
775.275	6456.34
775.669	6407.29
776.063	6459.35
776.457	6501.62
776.851	6414.28
777.245	6402.93
777.638	6439.01
778.032	6572.24
778.425	6531.88
778.819	6578.48
779.212	6525.98
779.606	6477.71
779.999	6502.14
780.392	6484.91
780.786	6582.16
781.179	6603.01
781.572	6654.3
781.965	6670.3
782.358	6603.98
782.751	6672.48
783.143	6617.3
783.536	6707.48
783.929	6758.11
784.322	6891.9
784.714	6931.1
785.107	6924.42
785.499	7013.29
785.891	6985.4
786.284	6964.3
786.676	7136.16
787.068	7111.62
787.46	7173.43
787.852	7196.84
788.245	7299.19
788.636	7332.98
789.028	7407.33
789.42	7454.58
789.812	7464.15
790.204	7584.23
790.595	7697
790.987	7460.78
791.378	7487.81
791.77	7645.71
792.161	7805.39
792.553	7872.04
792.944	7742.49
793.335	7667.22
793.726	7753.74
794.117	7859.77
794.508	8018.51
794.899	7988.75
795.29	8155.19
795.681	8225.15
796.072	8053.89
796.463	7824.83
796.853	7835.22
797.244	8023.03
797.634	8060.31
798.025	8063.88
798.415	8081.12
798.806	8187.46
799.196	8286.65
799.586	8345.12
799.976	8297.02
800.366	8570.13
800.756	8865.88
801.146	8821.8
801.536	8858.4
801.926	8948.5
802.316	8973.79
802.706	9054.22
803.095	8906.07
803.485	9024.64
803.874	9078.17
804.264	9390.45
804.653	9359.2
805.043	9528.72
805.432	9656.3
805.821	9652.98
806.21	9672.72
806.599	9811.52
806.988	9869.27
807.377	9993.36
807.766	10151.05
808.155	10483.81
808.544	10167.78
808.933	10185.07
809.321	10156.86
809.71	10509.95
810.098	10698.19
810.487	11244.88
810.875	11810.19
811.264	11826.22
811.652	12166.55
812.04	12328.8
812.428	12520.98
812.816	13417.78
813.204	13906.21
813.592	14556.94
813.98	14946.01
814.368	14834.1
814.756	15401.14
815.144	15302.14
815.531	15857.67
815.919	15775.56
816.306	16137.67
816.694	15770
817.081	15825.22
817.469	16233.74
817.856	16227.64
818.243	16538.21
818.63	16996.11
819.017	16492.25
819.404	16564.87
819.791	17004.02
820.178	17723.87
820.565	18014.59
820.952	19103.56
821.339	18527.99
821.725	18741.24
822.112	17879.08
822.498	17831.54
822.885	17982.68
823.271	17874.84
823.657	18368.75
824.044	18386.5
824.43	18477.3
824.816	18444.57
825.202	17935.94
825.588	19143.12
825.974	19164.72
826.36	19767.22
826.746	19818.91
827.132	20241.6
827.517	20214.49
827.903	19294.64
828.289	19337.83
828.674	18422.77
829.06	18307.94
829.445	18784.47
829.83	19216.8
830.216	19779.96
830.601	20211.65
830.986	19722.79
831.371	19568.18
831.756	20229.86
832.141	19719.48
832.526	19715.55
832.911	20061.37
833.295	19919.48
833.68	20469.75
834.065	19726.81
834.449	18656.86
834.834	18572.24
835.218	18574.04
835.603	18969.04
835.987	18721.27
836.371	19716.1
836.755	19594.64
837.139	20066.12
837.524	20364.26
837.908	20168.56
838.291	20243.85
838.675	20324.95
839.059	20574.87
839.443	20563.06
839.827	20302.97
840.21	20874.92
840.594	20705.61
840.977	20956.78
841.361	20927.38
841.744	21365.28
842.127	21175.75
842.511	21468.19
842.894	22174.22
843.277	22620.27
843.66	23262.33
844.043	23359.44
844.426	22404.61
844.809	22033.69
845.191	22064.92
845.574	21528.94
845.957	21097.55
846.339	20968.02
846.722	20344.77
847.104	20422.67
847.487	20225.69
847.869	20238.86
848.252	20562.93
848.634	20955.08
849.016	21262.43
849.398	21412.67
849.78	22417.61
850.162	22419.14
850.544	22914.55
850.926	23658.12
851.307	23556.32
851.689	23886.6
852.071	24424.56
852.452	24807.62
852.834	24785.25
853.215	25258.71
853.597	25438.59
853.978	25773.78
854.359	26317.64
854.741	25138.44
855.122	25017.78
855.503	24680.2
855.884	24844.74
856.265	24759.46
856.646	24895.81
857.026	24427.38
857.407	24350.28
857.788	24544.09
858.169	24881.6
858.549	23876.73
858.93	24610.84
859.31	24669.65
859.69	24918.78
860.071	24428.03
860.451	24179.95
860.831	23310.93
861.211	24674.85
861.591	25323.09
861.971	25285.8
862.351	25524.56
862.731	25998.97
863.111	26302.95
863.491	26688.52
863.87	27721.54
864.25	28145.02
864.629	27677.95
865.009	28274.99
865.388	29289.35
865.768	31380.5
866.147	31264.02
866.526	29531.41
866.905	29874.5
867.284	31557.66
867.663	29975.99
868.042	28722.2
868.421	28623.99
868.8	29101.9
869.179	29385.7
869.558	27671.22
869.936	25510.86
870.315	25964.3
870.693	26586.73
871.072	28663.7
871.45	27301.27
871.828	27655.52
872.207	29089.89
872.585	28657.92
872.963	29436.17
873.341	28427.99
873.719	28095.15
874.097	27766.06
874.475	28309.75
874.853	28977.27
875.23	27773.97
875.608	28933.19
875.986	31283.77
876.363	29912.71
876.741	30818.63
877.118	30051.66
877.495	31535.12
877.873	32059.62
878.25	33736.45
878.627	32352.25
879.004	32801.19
879.381	32652.4
879.758	31805.87
880.135	29628.34
880.512	31319.72
880.889	30505.78
881.265	30191.84
881.642	29942.88
882.019	30453.49
882.395	29827.96
882.772	31000.12
883.148	29652.05
883.524	29526.45
883.901	29352.23
884.277	29780.57
884.653	29598.64
885.029	30439.76
885.405	33691.58
885.781	33431.23
886.157	32055.29
886.532	32437.95
886.908	32420.39
887.284	36055.39
887.659	37240.41
888.035	38405.69
888.411	39401.89
888.786	39908.32
889.161	41279.51
889.537	40526.52
889.912	41826.57
890.287	41787.18
890.662	42873.52
891.037	42109.73
891.412	39276.78
891.787	38864.64
892.162	37496.91
892.536	38373.71
892.911	36946.21
893.286	36173.55
893.66	34708.43
894.035	35594.49
894.409	38757.17
894.784	37192.15
895.158	37800.1
895.532	40020.13
895.906	41120.22
896.281	42092.03
896.655	41417.48
897.029	47301.33
897.402	49257.43
897.776	54840.19
898.15	54648.87
898.524	54056.82
898.898	54774.59
899.271	61318.35
899.645	53105.95
900.018	51027.39
900.392	52908.54
900.765	53328.89
901.138	49389.78
901.511	48657.8
901.884	44677.68
902.258	41204.39
902.631	42582.44
903.003	49030.64
903.376	44251.54
903.749	49616.75
904.122	53095.98
904.495	58486.16
904.867	59265.03
905.24	51443.86
905.612	47886.63
905.985	48989.52
906.357	51237.44
906.729	48902.78
907.102	41753.31
907.474	40149.93
907.846	40420.82
908.218	39895.16
908.59	35240.46
908.962	34063.96
909.334	36691.29
909.705	38526.1
910.077	37401.52
910.449	38901.49
910.82	39993.19
911.192	44021.24
911.563	45740.32
911.935	48959.34
912.306	49043.1
912.677	50686.47
913.048	50167.13
913.419	54412.06
913.79	54769.44
914.161	58758.81
914.532	56179.99
914.903	51615.52
915.274	49005.69
915.645	48289.69
916.015	42464.13
916.386	40471.05
916.756	43057.28
917.127	44441.38
917.497	39689.43
917.868	43178.95
918.238	40989.78
918.608	42196.61
918.978	43077.7
919.348	45638.37
919.718	47169.66
920.088	45450.86
920.458	47230.98
920.828	49700.78
921.198	47101.26
921.567	50359.21
921.937	38989.99
922.306	39370.43
922.676	42438.96
923.045	35374.63
923.415	33583.31
923.784	30565.99
924.153	31422.27
924.522	31375.39
924.891	29482.44
925.26	31586.6
925.629	30819.88
925.998	35425.84
926.367	34567.12
926.736	32907.43
927.104	39237.92
927.473	42199.42
927.842	50993.98
928.21	50525.24
928.578	53135.25
928.947	50254.42
929.315	50535.99
929.683	59256.82
930.051	59727.06
930.42	69393.69
930.788	59300.63
931.156	58792.73
931.523	55083.82
931.891	50866.26
932.259	48829.97
932.627	56550.16
932.994	80047.55
933.362	66157.28
933.729	57440.73
934.097	54986.14
934.464	46517.64
934.831	53705.8
935.199	52988.27
935.566	51417.9
935.933	52081.84
936.3	63130.02
936.667	49162.07
937.034	44308.11
937.401	43845.43
937.767	37848.65
938.134	33683.96
938.501	47534.35
938.867	50640.28
939.234	85572.38
939.6	73016.94
939.967	80557.8
940.333	53900.78
940.699	45921.04
941.065	36887.27
941.431	48384.67
941.798	46654.45
942.163	61257.66
942.529	38269.92
942.895	35227.68
943.261	22802.37
943.627	29912.35
943.992	26192.13
944.358	26237.44
944.723	26290.05
945.089	25604.66
945.454	23620.98
945.82	25264.1
946.185	24253.74
946.55	28101.22
946.915	25240.12
947.28	29582.53
947.645	26040.12
948.01	24031.66
948.375	25033.76
948.74	30009.06
949.104	35025.47
949.469	50671.53
949.834	89429.53
950.198	84842.47
950.562	50819.59
950.927	42269.12
951.291	50895.09
951.655	43373.49
952.02	40726.35
952.384	30782.15
952.748	26798.08
953.112	26113.81
953.476	22680.92
953.839	20958.04
954.203	20736.43
954.567	25942.78
954.931	40886.64
955.294	34945.6
955.658	35131.32
956.021	59768.35
956.385	101392.7
956.748	149684.49
957.111	232105.69
957.474	260678.88
957.837	293831.06
958.2	222379.97
958.563	79955.37
958.926	54047.88
959.289	82079.53
959.652	91678.47
960.015	68752.69
960.377	98722.86
960.74	112612.75
961.102	194543.32
961.465	208748.49
961.827	111588.69
962.189	214175.68
962.552	148570.14
962.914	119058.11
963.276	77297.91
963.638	63906.41
964	63228.26
964.362	42721.67
964.724	41308.01
965.085	29447.96
965.447	24144.37
965.809	27547.08
966.17	27594.21
966.532	29854.88
966.893	27413.72
967.255	24925.73
967.616	29397.64
967.977	23540.47
968.338	25729.9
968.699	21133.47
969.061	21128.95
969.421	21273.33
969.782	23884.22
970.143	20174.63
970.504	20865.57
970.865	23700.64
971.225	24204.68
971.586	23694.12
971.946	33804.24
972.307	29314.6
972.667	38367.97
973.027	39529.9
973.388	47998.58
973.748	32633.27
974.108	35530.92
974.468	48140.93
974.828	37076.1
975.188	28566.76
975.548	26255.87
975.907	22045.66
976.267	24738.88
976.627	20778.91
976.986	21545.24
977.346	20535.04
977.705	19758.28
978.064	17995.47
978.424	14978.28
978.783	15511.08
979.142	17694.15
979.501	16910.58
979.86	17844.6
980.219	17190.73
980.578	22179.21
980.937	24829.86
981.296	22098.38
981.654	22755.72
982.013	35425.78
982.371	45973.61
982.73	43014.33
983.088	48733.14
983.447	52055.22
983.805	74516.59
984.163	155831.01
984.521	172817.93
984.879	253368.98
985.237	-412261.35
985.595	396600.39
985.953	98561.1
986.311	56902.44
986.669	32992.74
987.026	28481.23
987.384	38388.54
987.741	39718.21
988.099	28325.76
988.456	22587.2
988.814	21169.14
989.171	18387.44
989.528	18187.21
989.885	19185.93
990.242	15164.01
990.599	18884.86
990.956	15445.1
991.313	10785.31
991.67	8838.52
992.027	9364.52
992.383	8313.73
992.74	7280.36
993.096	7637.57
993.453	7908.96
993.809	8212.56
994.165	10944.4
994.522	9998.61
994.878	11017.71
995.234	13822.76
995.59	13649.35
995.946	12956.92
996.302	14797.21
996.658	17117.5
997.013	18873.9
997.369	22391.79
997.725	28602.8
998.08	18514.82
998.436	28669.51
998.791	39524
999.147	39443.55
999.502	43029.2
999.857	31276.58
1000.212	50906.22
1000.567	72544.31
1000.922	41864.4
1001.277	26572.14
1001.632	19729.23
1001.987	25472.75
1002.342	18250.84
1002.696	14585.59
1003.051	11628.87
1003.406	14093.66
1003.76	14025.5
1004.114	13848.94
1004.469	11633.79
1004.823	9620.27
1005.177	10414.5
1005.531	8245.28
1005.885	7324.9
1006.239	8270.09
1006.593	10375.23
1006.947	13903.53
1007.301	10453.51
1007.655	11418.44
1008.008	8386.46
1008.362	9418.62
1008.715	13473.78
1009.069	12198.12
1009.422	18359.48
1009.776	36751.69
1010.129	24384.41
1010.482	20421.93
1010.835	17277.22
1011.188	35882.45
1011.541	33717.75
1011.894	-205426.15
1012.247	604262.52
1012.6	40942.18
1012.952	25823.84
1013.305	13304.59
1013.657	9577
1014.01	9057.5
1014.362	7480.46
1014.715	6632.09
1015.067	5780.65
1015.419	5656.35
1015.771	5031.8
1016.123	4469.63
1016.475	4601.02
1016.827	4917.66
1017.179	5295.66
1017.531	5342.16
1017.883	5470.13
1018.234	5244.43
1018.586	6608.91
1018.938	6960.12
1019.289	9606.01
1019.64	10997.49
1019.992	10265.9
1020.343	9421.32
1020.694	7424.33
1021.045	6572.84
1021.396	7537.81
1021.747	8060.57
1022.098	9737.75
1022.449	7095.01
1022.8	6599.43
1023.151	4580.49
1023.501	4047.76
1023.852	4399.59
1024.202	4559.51
1024.553	5028.85
1024.903	4895.22
1025.253	4164.27
1025.604	3755.71
1025.954	4665.58
1026.304	5697.03
1026.654	6661.59
1027.004	9747.78
1027.354	15758.97
1027.703	14814.45
1028.053	19523.91
1028.403	28172.72
1028.753	41032.23
1029.102	56068.84
1029.452	289000.55
1029.801	12459.94
1030.15	8007.36
1030.499	6779.94
897.758	2231.65
901.051	2165.65
904.343	2199.75
907.636	2207.43
910.928	2270.75
914.22	2190.44
917.511	2196.01
920.803	2245.19
924.094	2243.9
927.384	2245.9
930.675	2212.47
933.965	2173.95
937.255	2203.12
940.544	2170.67
943.834	2171.1
947.123	2109.18
950.411	2197.36
953.7	2179.74
956.988	2161.65
960.276	2097.51
963.563	2147.9
966.851	2156.19
970.138	2199.84
973.424	2201.88
976.711	2156.79
979.997	2203.93
983.283	2248.93
986.568	2178.23
989.853	2171.33
993.138	2198.88
996.423	2284.5
999.708	2243.47
1002.992	2273.92
1006.275	2184.61
1009.559	2189.65
1012.842	2289.32
1016.125	2242.3
1019.408	2222.1
1022.69	2281.01
1025.972	2313.98
1029.254	2290.34
1032.536	2250.07
1035.817	2262.01
1039.098	2233.1
1042.379	2290.81
1045.659	2318.47
1048.939	2264.44
1052.219	2275.55
1055.498	2270.66
1058.778	2269.04
1062.057	2243.49
1065.335	2267.33
1068.614	2280.84
1071.892	2275.55
1075.17	2328.37
1078.447	2330.76
1081.724	2327.6
1085.001	2354.63
1088.278	2331.28
1091.554	2337.17
1094.83	2331.18
1098.106	2370.54
1101.382	2402.8
1104.657	2401.09
1107.932	2401.31
1111.206	2379.06
1114.481	2332.64
1117.755	2332.27
1121.029	2326.04
1124.302	2386.82
1127.575	2352.83
1130.848	2349.72
1134.121	2315.01
1137.393	2276.31
1140.665	2335.98
1143.937	2314.16
1147.208	2263.08
1150.48	2319.06
1153.75	2307.83
1157.021	2310.84
1160.291	2285.69
1163.561	2339.25
1166.831	2307.2
1170.101	2336.98
1173.37	2295.44
1176.639	2252.89
1179.907	2296.95
1183.176	2321
1186.444	2324.41
1189.711	2349.62
1192.979	2372.52
1196.246	2328.99
1199.513	2340.29
1202.78	2344.94
1206.046	2356.05
1209.312	2382.89
1212.578	2401.96
1215.843	2367.72
1219.108	2333.21
1222.373	2356.44
1225.638	2328.9
1228.902	2321.42
1232.166	2275.15
1235.43	2264.05
1238.693	2289.83
1241.956	2279.08
1245.219	2329.61
1248.482	2310.68
1251.744	2310.24
1255.006	2435.98
1258.268	2383.29
1261.529	2337.29
1264.79	2337.2
1268.051	2439.09
1271.312	2446.94
1274.572	2419.06
1277.832	2406.82
1281.092	2387.94
1284.351	2378.94
1287.61	2362.75
1290.869	2293.11
1294.128	2288.19
1297.386	2339.49
1300.644	2333.33
1303.902	2341.55
1307.159	2210.55
1310.416	2262.18
1313.673	2289.7
1316.93	2285.43
1320.186	2318.03
1323.442	2352.83
1326.697	2354.13
1329.953	2329.25
1333.208	2364.78
1336.463	2334.52
1339.717	2294.42
1342.972	2400.63
1346.226	2371.38
1349.479	2319.09
1352.733	2299.77
1355.986	2302.89
1359.238	2282.35
1362.491	2288.1
1365.743	2285.69
1368.995	2277.4
1372.247	2290.08
1375.498	2309.8
1378.749	2349.47
1382	2298.34
1385.251	2333.81
1388.501	2286.12
1391.751	2285.23
1395	2249.98
1398.25	2276.17
1401.499	2293.62
1404.748	2241.08
1407.996	2219.11
1411.244	2206.75
1414.492	2192.69
1417.74	2178.55
1420.987	2185.46
1424.234	2242.62
1427.481	2206.7
1430.728	2263.78
1433.974	2237.85
1437.22	2239.12
1440.465	2236.25
1443.711	2233.03
1446.956	2257.52
1450.201	2230.04
1453.445	2268.63
1456.689	2255.93
1459.933	2266.07
1463.177	2305.89
1466.42	2278.11
1469.663	2261.41
1472.906	2275.6
1476.148	2324.95
1479.391	2302.33
1482.633	2277.15
1485.874	2300.27
1489.115	2305.89
1492.356	2290.36
1495.597	2270.91
1498.838	2264.99
1502.078	2249.87
1505.318	2219.72
1508.557	2254.83
1511.797	2251.59
1515.036	2290.78
1518.274	2265.65
1521.513	2221.04
1524.751	2234.77
1527.989	2259.15
1531.227	2276.15
1534.464	2289.44
1537.701	2284.23
1540.938	2298.28
1544.174	2248.39
1547.41	2236.93
1550.646	2278.05
1553.882	2326.48
1557.117	2383.34
1560.352	2390.05
1563.587	2352.93
1566.821	2319.62
1570.055	2336.74
1573.289	2318.17
1576.523	2378.41
1579.756	2390.8
1582.989	2415.51
1586.222	2376.28
1589.454	2403.51
1592.686	2388.74
1595.918	2416.21
1599.15	2414.94
1602.381	2462.08
1605.612	2440.78
1608.843	2534.6
1612.073	2457.13
1615.303	2445.23
1618.533	2442.03
1621.762	2439.9
1624.992	2420.04
1628.221	2420.15
1631.449	2410.7
1634.678	2437.21
1637.906	2405.91
1641.134	2435.27
1644.361	2400.5
1647.588	2388.94
1650.815	2410.46
1654.042	2374.74
1657.269	2402.92
1660.495	2378.93
1663.72	2367.97
1666.946	2336.02
1670.171	2307.94
1673.396	2280.5
1676.621	2264.24
1679.845	2261.93
1683.069	2270.33
1686.293	2300.66
1689.517	2288.83
1692.74	2239.81
1695.963	2261.98
1699.185	2299.65
1702.408	2270.89
1705.63	2301.42
1708.852	2320.24
1712.073	2289.84
1715.294	2299.81
1718.515	2341.8
1721.736	2300.59
1724.956	2282.99
1728.176	2304.86
1731.396	2326.53
1734.616	2311.71
1737.835	2349.33
1741.054	2319.5
1744.272	2310.93
1747.491	2348.76
1750.709	2374.98
1753.927	2321.35
1757.144	2348.56
1760.361	2403.87
1763.578	2376.48
1766.795	2326.35
1770.011	2315.9
1773.227	2342.23
1776.443	2384.47
1779.658	2426.92
1782.874	2365.78
1786.089	2357.84
1789.303	2360.88
1792.518	2356.93
1795.732	2342.1
1798.945	2360.08
1802.159	2401.13
1805.372	2341.59
1808.585	2334.73
1811.797	2335.01
1815.01	2357.75
1818.222	2380.22
1821.434	2336.91
1824.645	2382.26
1827.856	2389.71
1831.067	2421.78
1834.278	2360.17
1837.488	2343.91
1840.698	2467.07
1843.908	2406.96
1847.117	2374.81
1850.326	2296.84
1853.535	2359.62
1856.744	2394.67
1859.952	2313.71
1863.16	2314.49
1866.368	2331.2
1869.575	2441.35
1872.782	2324.09
1875.989	2259.01
1879.196	2311.42
1882.402	2301.21
1885.608	2335.71
1888.814	2274.58
1892.019	2182.45
1895.224	2233.58
1898.429	2202.04
1901.634	2183.9
1904.838	2157.55
1908.042	2215.44
1911.246	2227.22
1914.449	2187.09
1917.652	2169.74
1920.855	2150.9
1924.058	2178.26
1927.26	2222.94
1930.462	2246.46
1933.664	2284.33
1936.865	2225.67
1940.066	2244.66
1943.267	2188.27
1946.467	2196.29
1949.668	2216.14
1952.868	2289.35
1956.067	2278.02
1959.267	2216.75
1962.466	2240.29
1965.665	2222.93
1968.863	2214.32
1972.061	2217.83
1975.259	2211.34
1978.457	2286.45
1981.654	2249.69
1984.852	2252.22
1988.048	2201.21
1991.245	2190.65
1994.441	2279.03
1997.637	2239.09
2000.833	2219.49
2004.028	2257.33
2007.223	2319.23
2010.418	2307.77
2013.613	2259.69
2016.807	2251.84
2020.001	2246.31
2023.194	2271.14
2026.388	2255.9
2029.581	2197.8
2032.774	2258.7
2035.966	2270.84
2039.158	2216.03
2042.35	2234.19
2045.542	2160.02
2048.733	2242.37
2051.924	2238.54
2055.115	2254.2
2058.306	2217.2
2061.496	2272.88
2064.686	2322.71
2067.875	2233.51
2071.065	2237.93
2074.254	2255.6
2077.442	2209.5
2080.631	2294.11
2083.819	2222.94
2087.007	2211.92
2090.195	2197.53
2093.382	2215.39
2096.569	2197.92
2099.756	2160.41
2102.942	2204.71
2106.128	2216
2109.314	2206.7
2112.5	2192.99
2115.685	2157.24
2118.87	2165.4
2122.055	2227.38
2125.239	2206.77
2128.424	2192.19
2131.608	2255.74
2134.791	2240.14
2137.974	2278.04
2141.157	2267.89
2144.34	2237.44
2147.523	2228.77
2150.705	2256.1
2153.887	2226.42
2157.068	2197.13
2160.25	2179.39
2163.431	2204.36
2166.611	2170.39
2169.792	2193.8
2172.972	2103.46
2176.152	2154.7
2179.331	2183.95
2182.511	2186.07
2185.69	2208.47
2188.868	2210.6
2192.047	2247.89
2195.225	2261.43
2198.403	2209.44
2201.58	2197.57
2204.758	2183.59
2207.935	2259.69
2211.111	2174.28
2214.288	2161.28
2217.464	2195.11
2220.64	2152.93
2223.815	2203.58
2226.991	2133.86
2230.166	2151.43
2233.34	2193.2
2236.515	2205.69
2239.689	2268.92
2242.863	2219.62
2246.036	2273.37
2249.209	2256.51
2252.382	2277.11
2255.555	2285.55
2258.727	2233.23
2261.9	2262.98
2265.071	2254.24
2268.243	2250.39
2271.414	2201.24
2274.585	2182.56
2277.756	2245.31
2280.926	2199.9
2284.096	2230.17
2287.266	2158.91
2290.436	2205.06
2293.605	2225.39
2296.774	2262.1
2299.942	2268.74
2303.111	2286.06
2306.279	2336.98
2309.447	2323.7
2312.614	2292.15
2315.781	2319.52
2318.948	2296.07
2322.115	2333.6
2325.281	2230.37
2328.447	2241.05
2331.613	2212.25
2334.779	2201.28
2337.944	2199
2341.109	2199.88
2344.274	2187.16
2347.438	2154.7
2350.602	2176.8
2353.766	2185.33
2356.929	2174.6
2360.092	2215.32
2363.255	2182.86
2366.418	2146.47
2369.58	2217.35
2372.742	2084.35
2375.904	2079.79
2379.066	2065.1
2382.227	2093.83
2385.388	2052.54
2388.548	2002.19
2391.709	2043.2
2394.869	2031.62
2398.029	2090.21
2401.188	2087.83
2404.347	2047.54
2407.506	2130.83
2410.665	2170.22
2413.823	2155.87
2416.981	2132.14
2420.139	2151.53
2423.296	2196.06
2426.453	2169.05
2429.61	2188.22
2432.767	2157.19
2435.923	2197.6
2439.079	2145.89
2442.235	2180.88
2445.391	2120.3
2448.546	2162.36
2451.701	2197.45
2454.855	2192.3
2458.009	2221.12
2461.163	2214
2464.317	2184.38
2467.471	2208.51
2470.624	2237.84
2473.777	2225.57
2476.929	2244
2480.082	2266.76
2483.234	2240.42
2486.385	2181.54
2489.537	2175.51
2492.688	2162.88
2495.839	2177.88
2498.989	2194.84
2502.14	2183.26
2505.29	2174.05
2508.439	2198.55
2511.589	2136.05
2514.738	2137.96
2517.887	2161.6
2521.035	2238.58
2524.183	2197.44
2527.331	2184.93
2530.479	2177.08
2533.627	2179.12
