Data from C_1_HIR_WI_4N_Splice17_11-41-37-570.txt Node
Date: Sat Mar 14 11:41:37 EDT 2020
User: sa697716
Spectrometer: FLMS03696
Trigger mode: 0
Integration Time (sec): 3.180400E-1
Scans to average: 20
Electric dark correction enabled: true
Nonlinearity correction enabled: true
Boxcar width: 5
XAxis mode: Wavelengths
Number of Pixels in Spectrum: 2048
>>>>>Begin Spectral Data<<<<<
187.83	-134907.24
188.298	966.97
188.766	582.41
189.233	528.13
189.701	690.31
190.169	1014.61
190.636	381.92
191.104	371.95
191.571	112.82
192.039	3.24
192.506	-31.26
192.974	337.97
193.441	-626.13
193.908	-156.77
194.375	-21.79
194.842	-32.64
195.31	63.06
195.777	110.81
196.244	312.81
196.711	393.25
197.177	486.26
197.644	681.54
198.111	1152.26
198.578	1596.83
199.045	1256.67
199.511	1996.74
199.978	2305.23
200.445	1906.53
200.911	2101.15
201.378	2308.75
201.844	2087.57
202.31	3447.63
202.777	3491.51
203.243	1908.52
203.709	1776.21
204.176	2105.95
204.642	1742.9
205.108	1618.17
205.574	1306.92
206.04	1186.31
206.506	1102.59
206.972	1016.95
207.438	981.44
207.903	1103.94
208.369	959.46
208.835	959.49
209.301	996.72
209.766	992.52
210.232	971.13
210.697	1192.17
211.163	1429.85
211.628	2126.76
212.094	1786.69
212.559	2206.97
213.024	1350.46
213.49	1622.28
213.955	1532.99
214.42	1450.86
214.885	1346.91
215.35	1283.25
215.815	1249.67
216.28	1310.93
216.745	1028.75
217.21	1059.32
217.675	894.87
218.14	952.72
218.604	973.87
219.069	1028.96
219.534	1013.59
219.998	1051.11
220.463	1135.81
220.927	1205.45
221.392	1026.29
221.856	976.13
222.32	1105.06
222.785	1286.19
223.249	1507.01
223.713	1587.8
224.177	1505.54
224.642	1751.6
225.106	2065.64
225.57	2186.65
226.034	1614.02
226.497	2379.84
226.961	2084.15
227.425	2384.15
227.889	2532.24
228.353	2434.85
228.816	4815.72
229.28	4509.91
229.744	3760.22
230.207	2307.84
230.671	2200.19
231.134	3397.96
231.597	3849.12
232.061	3674.69
232.524	3480.85
232.987	2343.11
233.45	2118.83
233.914	1869.49
234.377	1825.74
234.84	1630.85
235.303	1867.73
235.766	2041.23
236.229	2090.64
236.691	1280.79
237.154	1404.75
237.617	1047.6
238.08	1056.78
238.542	1185.76
239.005	854.76
239.468	858.14
239.93	804.66
240.393	722.26
240.855	641.74
241.317	644.97
241.78	758.94
242.242	811.35
242.704	913
243.166	802.13
243.629	758.28
244.091	881.83
244.553	963.41
245.015	1049.51
245.477	1343.7
245.939	1918.27
246.4	2033.68
246.862	2001.75
247.324	1836.17
247.786	1991.12
248.247	2544.34
248.709	2475.68
249.17	1839.4
249.632	1813
250.093	2140.18
250.555	1853.51
251.016	1159.01
251.477	1108.32
251.939	1202.21
252.4	1270.33
252.861	1481.78
253.322	1421.22
253.783	1688.42
254.244	2153.78
254.705	1629.78
255.166	1397.27
255.627	1348.14
256.088	1923.74
256.549	2060.31
257.009	1725.14
257.47	2042.72
257.931	1647.57
258.391	1226.01
258.852	1251.35
259.312	1297.57
259.773	1587.19
260.233	1396.5
260.694	1223.79
261.154	1356.87
261.614	1114.37
262.074	992.36
262.534	1040.79
262.994	988.73
263.455	1272.61
263.915	1083.36
264.374	1006.2
264.834	1088.54
265.294	1140.33
265.754	1156.97
266.214	1068.72
266.673	973.61
267.133	1196.18
267.593	1146.06
268.052	1368.73
268.512	1175.95
268.971	1465.49
269.431	1592.63
269.89	1407.98
270.349	2143.11
270.809	2365.83
271.268	2132.95
271.727	4670.76
272.186	3057.09
272.645	2292.6
273.104	1611.89
273.563	2370.22
274.022	1770.64
274.481	1549.52
274.94	1207.08
275.399	878.27
275.857	1011.96
276.316	1351.94
276.775	1220.67
277.233	1229.73
277.692	1202.4
278.15	1440.93
278.609	1515.33
279.067	1404.81
279.525	1335.11
279.984	1741.81
280.442	2122
280.9	2180.19
281.358	1470.94
281.816	1389.41
282.274	1368.84
282.732	1393.4
283.19	1385.41
283.648	1182.14
284.106	1293.65
284.564	1330.53
285.021	1255.51
285.479	972.85
285.937	870.12
286.394	798.43
286.852	824.33
287.309	876.83
287.767	894.87
288.224	878.63
288.682	984.03
289.139	1092.9
289.596	1000.3
290.053	1022.21
290.511	1252.19
290.968	1522.27
291.425	1994.1
291.882	1710.31
292.339	1500.33
292.796	1442.02
293.252	1318.44
293.709	1071.45
294.166	951.81
294.623	1043.41
295.079	992.31
295.536	1013.58
295.992	915.51
296.449	907.43
296.905	956.16
297.362	928.21
297.818	967.18
298.274	1023.39
298.731	1020.21
299.187	1016.67
299.643	1093.75
300.099	1341.01
300.555	1462.24
301.011	1237.62
301.467	1260.22
301.923	1398.94
302.379	1360.9
302.835	1355.58
303.291	1348.04
303.746	1542.64
304.202	1933.64
304.658	1947.4
305.113	1339.63
305.569	1322.18
306.024	1402.33
306.479	1271.52
306.935	1128.12
307.39	1217.66
307.845	1123.97
308.301	1170.5
308.756	1134.35
309.211	1109.89
309.666	1138.47
310.121	1440.62
310.576	1462.77
311.031	1459.6
311.486	1691.45
311.94	1650.85
312.395	2232.7
312.85	4173.97
313.305	19682.11
313.759	108228.65
314.214	7855.45
314.668	6228.16
315.123	5350.96
315.577	2002.34
316.032	1813.09
316.486	2263.35
316.94	1837.07
317.394	1285.93
317.849	1013.48
318.303	972.9
318.757	905.33
319.211	997.92
319.665	874.6
320.119	870.77
320.572	1199.74
321.026	1122.67
321.48	938.63
321.934	984.69
322.387	987.48
322.841	1078.86
323.295	1016.57
323.748	1141.27
324.202	1179.65
324.655	1456.41
325.108	2081.54
325.562	1514.63
326.015	1770.15
326.468	1358.09
326.921	1555.59
327.374	1501.25
327.827	1610.71
328.28	1783.74
328.733	1225.02
329.186	1084.12
329.639	1032.89
330.092	849.55
330.545	821
330.997	852.45
331.45	959.44
331.903	1161
332.355	1961.33
332.808	1870.8
333.26	1569.89
333.713	1717.54
334.165	1721.74
334.617	2272.08
335.069	1825.36
335.522	3262.16
335.974	3658.44
336.426	3244.96
336.878	2170.36
337.33	1121.65
337.782	1094.16
338.234	1416.78
338.686	1667.76
339.137	1997.74
339.589	1892.34
340.041	1529.28
340.493	1319.79
340.944	1347.4
341.396	1478.04
341.847	1278
342.299	1515.07
342.75	1897.71
343.201	1588.6
343.653	1834.19
344.104	2209.62
344.555	1735.64
345.006	2624.11
345.457	2041.94
345.908	1584.99
346.359	1496.02
346.81	1212.48
347.261	1264.7
347.712	1214.39
348.163	1303.52
348.613	1392.03
349.064	1316.8
349.515	1160.66
349.965	1210.82
350.416	1460.75
350.866	1615.75
351.317	1797.35
351.767	2972.85
352.217	3725.62
352.668	3162.23
353.118	2913.46
353.568	2651.73
354.018	2156.85
354.468	2321.99
354.918	1709.78
355.368	1489.65
355.818	2123.91
356.268	6110.02
356.718	26052.25
357.168	6662.57
357.617	3308.93
358.067	3675.1
358.517	3479.41
358.966	4097.43
359.416	4621.22
359.865	4966.58
360.315	5806.67
360.764	2750.5
361.213	1548.08
361.663	1434.23
362.112	1737.77
362.561	2824.16
363.01	2143.98
363.459	1808.46
363.908	1928.03
364.357	1674.59
364.806	2759.87
365.255	1938.28
365.703	1801.78
366.152	1851.55
366.601	1522.82
367.05	1269.69
367.498	1174.91
367.947	1225.85
368.395	1275.97
368.844	1150.78
369.292	1344.42
369.74	973.58
370.189	1482.05
370.637	1707.99
371.085	1461.31
371.533	1780.68
371.981	1690.73
372.429	1630.65
372.877	1704.92
373.325	1451.38
373.773	1480.51
374.221	1338.39
374.669	1629.5
375.116	1391.24
375.564	1419.64
376.012	1594.39
376.459	1337.23
376.907	1618.2
377.354	1938.53
377.801	1838.31
378.249	2171.54
378.696	2779.96
379.143	3409.35
379.591	3666.18
380.038	6453.13
380.485	4826.78
380.932	5289.66
381.379	5035.81
381.826	3822.26
382.273	2792.27
382.72	2491.32
383.166	2512.51
383.613	1702.28
384.06	1615.72
384.506	1952.44
384.953	1518.53
385.4	1608.09
385.846	1512.04
386.292	1564.37
386.739	1672.7
387.185	1810.61
387.631	2021.02
388.078	2191.91
388.524	2590.52
388.97	2601.49
389.416	2330.99
389.862	2605.87
390.308	2597.27
390.754	2816.99
391.2	3306.83
391.645	3704.3
392.091	3921.46
392.537	4128.96
392.983	4404.18
393.428	4560.16
393.874	5176.09
394.319	5637.61
394.765	5977.89
395.21	6943.92
395.655	7335.13
396.101	7657.68
396.546	7644.46
396.991	8488.42
397.436	8652.8
397.881	9218.24
398.326	9696.38
398.771	10073.5
399.216	9652.74
399.661	9396
400.106	9981.07
400.551	10834
400.995	10256.57
401.44	10623.5
401.885	10404.35
402.329	10918.16
402.774	10811.32
403.218	10738.56
403.663	10695.04
404.107	11335.64
404.551	11807.87
404.995	11256.65
405.44	11302.45
405.884	11936.89
406.328	11991.36
406.772	12339.94
407.216	11604.25
407.66	11644.72
408.104	11583.54
408.547	11283.24
408.991	11307.1
409.435	11233.4
409.879	11342.56
410.322	11449.25
410.766	11310.9
411.209	11021.71
411.653	10897.65
412.096	10957.35
412.54	11252.64
412.983	11409.29
413.426	11633.17
413.869	11857.77
414.312	11817.31
414.756	11622.92
415.199	11300.3
415.642	11147.43
416.085	11327.16
416.527	11408.87
416.97	11750.77
417.413	11250.64
417.856	11240.67
418.298	11204.02
418.741	11178.42
419.184	11206.97
419.626	11730.95
420.069	11761.83
420.511	11863.39
420.953	11661.79
421.396	11628.92
421.838	11432.83
422.28	11779.38
422.722	11918.54
423.164	12260.85
423.606	12212.08
424.048	12384.73
424.49	11888.66
424.932	11982.61
425.374	11967.78
425.816	12272.1
426.258	12471.22
426.699	12466.77
427.141	12032.05
427.582	12025.44
428.024	11839.03
428.465	11793.24
428.907	11608.2
429.348	11658.34
429.789	11790.2
430.231	11641.77
430.672	11910.85
431.113	11825.57
431.554	11975.12
431.995	12162.02
432.436	12134.65
432.877	12231.05
433.318	12257.39
433.759	12409.29
434.2	12560.57
434.64	12583.33
435.081	12769.15
435.522	12279.2
435.962	12047.65
436.403	11959
436.843	12317.02
437.284	12239.48
437.724	12062.96
438.164	12263.38
438.604	12105.2
439.045	11710.88
439.485	11305.46
439.925	11212.34
440.365	11072.12
440.805	11034.84
441.245	10950.15
441.685	10596.59
442.125	10572.16
442.564	10664.57
443.004	10409.66
443.444	10401.94
443.883	10444.52
444.323	10455.47
444.762	10572.41
445.202	10758.56
445.641	10944.38
446.081	10971.25
446.52	11066.11
446.959	10980.1
447.398	10748.74
447.837	10680.88
448.276	10543.89
448.716	10666.6
449.154	10774.69
449.593	10456.4
450.032	10369.45
450.471	10177.59
450.91	10139.67
451.349	10041.32
451.787	9952.63
452.226	10026.91
452.664	9953.28
453.103	9891.21
453.541	9814.12
453.98	9663.61
454.418	9657.78
454.856	9404.98
455.295	9314.27
455.733	9279.64
456.171	9263.18
456.609	9178.55
457.047	9088.53
457.485	9123.45
457.923	9064.2
458.361	8902.65
458.798	8921.91
459.236	8881.22
459.674	8974.31
460.111	9013.02
460.549	8945.52
460.987	8952.71
461.424	8955.35
461.862	8946.73
462.299	8841.92
462.736	8841.64
463.173	8901.59
463.611	8781.93
464.048	8780.32
464.485	8873.91
464.922	8841.51
465.359	8858.09
465.796	8647.88
466.233	8638.92
466.67	8581.89
467.106	8600.69
467.543	8597.91
467.98	8550.62
468.416	8439.18
468.853	8453.6
469.29	8264.25
469.726	8221.95
470.162	8041.42
470.599	8088.68
471.035	8057.77
471.471	7910.38
471.907	7922.33
472.344	7891.72
472.78	7896.67
473.216	7989.79
473.652	7865.91
474.088	7829.86
474.523	7756.59
474.959	7798.87
475.395	7690.47
475.831	7585.44
476.266	7579.5
476.702	7510.05
477.138	7366.41
477.573	7289.23
478.008	7195.92
478.444	7146.9
478.879	7118.41
479.314	7079.28
479.75	6997.21
480.185	6960.43
480.62	6947.17
481.055	6903.44
481.49	6856.04
481.925	6857.34
482.36	6835.66
482.795	6907.07
483.229	6976.28
483.664	6995.87
484.099	6909.21
484.534	6900.57
484.968	6864.64
485.403	6797.52
485.837	6717.58
486.271	6632.95
486.706	6579.37
487.14	6488.4
487.574	6353.11
488.009	6269.99
488.443	6190.02
488.877	6200.54
489.311	6180.27
489.745	6201.04
490.179	6205.98
490.613	6246.03
491.046	6254.61
491.48	6254.64
491.914	6211.74
492.348	6211.97
492.781	6204.45
493.215	6185.5
493.648	6179.9
494.082	6195.29
494.515	6162.07
494.948	6183.54
495.382	6199.05
495.815	6189.12
496.248	6183.67
496.681	6244.94
497.114	6291.97
497.547	6314.13
497.98	6346.59
498.413	6313.71
498.846	6317.06
499.279	6322.35
499.711	6301.69
500.144	6259.31
500.577	6267.12
501.009	6288.85
501.442	6286.32
501.874	6223.66
502.306	6189.31
502.739	6170.34
503.171	6235.69
503.603	6203.85
504.036	6210.61
504.468	6181.26
504.9	6190.13
505.332	6172.08
505.764	6130.4
506.196	6112.47
506.627	6137.59
507.059	6144.5
507.491	6144.44
507.923	6039.68
508.354	6051.35
508.786	6037.39
509.217	6064.4
509.649	6072.4
510.08	6102.81
510.512	6107.35
510.943	6105.14
511.374	6080.46
511.805	6103.8
512.237	6124.56
512.668	6219.03
513.099	6271.88
513.53	6305.67
513.961	6296.03
514.391	6341.32
514.822	6380.56
515.253	6445.83
515.684	6459.78
516.114	6495.85
516.545	6489.41
516.975	6507.73
517.406	6488.76
517.836	6411.62
518.267	6363.66
518.697	6370.3
519.127	6322.75
519.558	6291.26
519.988	6239.4
520.418	6218.02
520.848	6225.7
521.278	6196.8
521.708	6048.44
522.138	6037.98
522.567	6097.86
522.997	6126.8
523.427	6116.37
523.857	6105
524.286	6077.8
524.716	6074.66
525.145	6084.96
525.575	6071.54
526.004	6078.45
526.433	6140.54
526.863	6096.43
527.292	6015.77
527.721	6003.4
528.15	6004.1
528.579	5988.17
529.008	6004.98
529.437	6059.18
529.866	6075.7
530.295	6102.5
530.724	6104.01
531.152	6160.81
531.581	6173.51
532.01	6206.08
532.438	6208.48
532.867	6232.61
533.295	6268.11
533.723	6265.18
534.152	6236.71
534.58	6217.72
535.008	6148.83
535.436	6139.53
535.865	6153.4
536.293	6187.93
536.721	6221.48
537.149	6281.35
537.576	6264.95
538.004	6290.86
538.432	6306.52
538.86	6293.42
539.287	6312
539.715	6351.07
540.143	6362.99
540.57	6352.65
540.998	6348.35
541.425	6275.4
541.852	6223.59
542.28	6237.24
542.707	6203.1
543.134	6171.2
543.561	6170.18
543.988	6158.22
544.415	6172.83
544.842	6167.78
545.269	6153.38
545.696	6168.04
546.123	6231.59
546.549	6209.01
546.976	6174.85
547.403	6183.1
547.829	6201.98
548.256	6223.49
548.682	6223.57
549.108	6207.62
549.535	6219.84
549.961	6240
550.387	6205.33
550.813	6191.52
551.24	6223.99
551.666	6239.28
552.092	6215.35
552.518	6204.56
552.943	6187.73
553.369	6222.36
553.795	6248.44
554.221	6253.29
554.646	6245.72
555.072	6277.68
555.498	6297.33
555.923	6324.22
556.349	6368.83
556.774	6392.43
557.199	6392.1
557.625	6418.68
558.05	6395.64
558.475	6433.68
558.9	6429.67
559.325	6400.48
559.75	6386.12
560.175	6369.62
560.6	6356.35
561.025	6355.75
561.449	6366.37
561.874	6386.12
562.299	6392.78
562.723	6416.25
563.148	6373.27
563.572	6384.31
563.997	6416.22
564.421	6433.13
564.846	6429.32
565.27	6429.77
565.694	6413.66
566.118	6440.3
566.542	6454.21
566.966	6423.6
567.39	6394.93
567.814	6348.35
568.238	6339.9
568.662	6354.14
569.086	6360.67
569.509	6393.78
569.933	6349.61
570.357	6343.22
570.78	6292.17
571.204	6266.91
571.627	6258.96
572.05	6287.01
572.474	6319.48
572.897	6316.52
573.32	6326.47
573.743	6337.3
574.166	6307.44
574.589	6352.74
575.012	6363.11
575.435	6403.56
575.858	6415.22
576.281	6421.27
576.704	6410.62
577.126	6419.02
577.549	6425.51
577.972	6441.85
578.394	6446.4
578.817	6459.23
579.239	6436.71
579.661	6431.93
580.084	6409.52
580.506	6407.49
580.928	6441.05
581.35	6443.87
581.772	6466.9
582.194	6449
582.616	6429.52
583.038	6407.27
583.46	6402.83
583.882	6415.93
584.303	6466.12
584.725	6480.8
585.147	6482.86
585.568	6529.08
585.99	6570.44
586.411	6586.09
586.833	6639.81
587.254	6642.42
587.675	6705.89
588.096	6763.57
588.518	6745.02
588.939	6675.4
589.36	6670.7
589.781	6664.41
590.202	6548.24
590.623	6540.27
591.043	6561.15
591.464	6527.6
591.885	6524.79
592.305	6508.52
592.726	6454.42
593.147	6459.47
593.567	6436.14
593.987	6398.57
594.408	6369.37
594.828	6366.5
595.248	6323.4
595.669	6221.42
596.089	6177.58
596.509	6137.76
596.929	6058.75
597.349	6038.56
597.769	5973.58
598.189	5919.69
598.608	5900.77
599.028	5880.63
599.448	5858.16
599.867	5786.54
600.287	5758.13
600.706	5721.18
601.126	5662.78
601.545	5643.43
601.965	5630.39
602.384	5602.55
602.803	5610.42
603.222	5584.78
603.641	5559.44
604.061	5541.17
604.48	5528.91
604.898	5564.65
605.317	5591.73
605.736	5607.71
606.155	5601.23
606.574	5571.97
606.992	5603.45
607.411	5593.21
607.829	5578.27
608.248	5581.61
608.666	5591.38
609.085	5605.39
609.503	5585.76
609.921	5575.97
610.339	5602.25
610.758	5621.01
611.176	5620.01
611.594	5600.49
612.012	5607.68
612.43	5634.93
612.847	5679.79
613.265	5692.29
613.683	5725.93
614.101	5749.47
614.518	5756.12
614.936	5735.4
615.353	5692.47
615.771	5701.47
616.188	5724
616.606	5730.05
617.023	5724.17
617.44	5685.21
617.857	5688.76
618.274	5677.8
618.691	5668.78
619.108	5646.21
619.525	5634.88
619.942	5674.97
620.359	5694.59
620.776	5680.38
621.192	5663.16
621.609	5652.78
622.026	5678.12
622.442	5700.47
622.859	5714.24
623.275	5683.7
623.691	5706.38
624.108	5755.58
624.524	5820.37
624.94	5817.95
625.356	5859.27
625.772	5921.55
626.188	5976.33
626.604	5983.2
627.02	5963.09
627.436	5948.78
627.852	5973.21
628.268	6023.9
628.683	5985.14
629.099	5949.24
629.514	5936.64
629.93	5962.04
630.345	5989.79
630.761	5984.45
631.176	6013.69
631.591	5993.76
632.007	5981.91
632.422	5997.96
632.837	5968.2
633.252	5971.33
633.667	5948.7
634.082	5929.07
634.497	5893.52
634.911	5824.28
635.326	5837.56
635.741	5788.88
636.155	5782.09
636.57	5819.91
636.984	5853.62
637.399	5891.19
637.813	5936.22
638.228	5969.73
638.642	6035.56
639.056	6031.1
639.47	6085.16
639.884	6089.56
640.298	6108.01
640.712	6151.96
641.126	6142.32
641.54	6156.59
641.954	6199.31
642.368	6187.17
642.781	6187.35
643.195	6147.9
643.609	6203.93
644.022	6225.82
644.436	6256.12
644.849	6244.55
645.262	6229.19
645.676	6293.31
646.089	6305.97
646.502	6250.49
646.915	6263.26
647.328	6220.52
647.741	6250.32
648.154	6214.45
648.567	6216.91
648.98	6170.63
649.393	6206.17
649.805	6219.11
650.218	6206.3
650.631	6138.85
651.043	6136.64
651.456	6126.99
651.868	6156.8
652.28	6280.88
652.693	6367.77
653.105	6407.39
653.517	6452.15
653.929	6437.17
654.341	6466.42
654.753	6391
655.165	6449.97
655.577	6459.51
655.989	6466.08
656.401	6461.41
656.813	6271.65
657.224	6213.25
657.636	6121.99
658.047	6090.81
658.459	6052.39
658.87	6083.99
659.282	6089.02
659.693	6009.66
660.104	5970.75
660.515	5939.43
660.926	5987.04
661.338	6034.31
661.749	6051.23
662.159	6032.59
662.57	6065.42
662.981	6087.66
663.392	6079.26
663.803	6155.83
664.213	6193.91
664.624	6216.44
665.035	6288.37
665.445	6229.61
665.855	6207.47
666.266	6172.94
666.676	6194.6
667.086	6156.12
667.497	6172.28
667.907	6149.75
668.317	6098.12
668.727	6059.22
669.137	6084.16
669.547	6072.68
669.956	6105.31
670.366	6129.28
670.776	6146.72
671.186	6183.19
671.595	6205.25
672.005	6237.94
672.414	6218.73
672.824	6192.29
673.233	6251.35
673.642	6253.85
674.052	6260.47
674.461	6252.11
674.87	6279.05
675.279	6235.95
675.688	6241.31
676.097	6225.58
676.506	6179.09
676.915	6281.76
677.323	6285.89
677.732	6248.67
678.141	6225.1
678.549	6125.51
678.958	6101.88
679.366	6072.52
679.775	6094.2
680.183	6110.48
680.592	6120.56
681	6118.71
681.408	6015.58
681.816	6020.83
682.224	6030.77
682.632	6020.82
683.04	6152.76
683.448	6222.02
683.856	6289.16
684.264	6353.83
684.671	6398.68
685.079	6470.06
685.487	6551.86
685.894	6721.56
686.302	6803.59
686.709	6801.61
687.116	6840.06
687.524	6810.53
687.931	6758.32
688.338	6705.02
688.745	6651.23
689.152	6609.64
689.559	6602.93
689.966	6570.78
690.373	6432.11
690.78	6369.17
691.187	6395.3
691.593	6339.86
692	6262.58
692.407	6253.62
692.813	6280.64
693.22	6258.43
693.626	6254.92
694.032	6209.7
694.439	6249.76
694.845	6247.07
695.251	6290.07
695.657	6307.33
696.063	6415.8
696.469	6443.31
696.875	6453.17
697.281	6387.57
697.687	6337.24
698.093	6263.28
698.498	6276.1
698.904	6249.91
699.31	6292.21
699.715	6275.51
700.12	6332.84
700.526	6244.92
700.931	6278.11
701.337	6276.62
701.742	6248.42
702.147	6327.23
702.552	6300.25
702.957	6336.77
703.362	6299.15
703.767	6284.4
704.172	6295.02
704.577	6142.79
704.981	6167.8
705.386	6131.55
705.791	6056.03
706.195	6127.01
706.6	6080.86
707.004	6167.15
707.408	6057.67
707.813	6049.41
708.217	5975.38
708.621	5926.41
709.025	6036.25
709.43	5980.78
709.834	6027.92
710.237	6092.47
710.641	6017.46
711.045	6004.52
711.449	5940.28
711.853	5928.93
712.256	5940.85
712.66	5942.16
713.064	5993.93
713.467	5976.09
713.87	6040.27
714.274	5980.34
714.677	5989.85
715.08	6050.72
715.484	6099.74
715.887	6171.9
716.29	6229.52
716.693	6280.04
717.096	6359.07
717.499	6327.72
717.901	6223.55
718.304	6189.86
718.707	6210.39
719.109	6130.29
719.512	6150.06
719.915	6053.85
720.317	6043.7
720.719	6136.34
721.122	6137.39
721.524	6106.51
721.926	6064.56
722.328	6163.9
722.731	6103.37
723.133	6064.41
723.535	6199.71
723.937	6137.6
724.338	6117.78
724.74	6100.49
725.142	5963.52
725.544	5937.37
725.945	5941.49
726.347	5922.34
726.748	5897.09
727.15	5905.48
727.551	5855.04
727.952	5814.83
728.354	5776.34
728.755	5783.87
729.156	5758.35
729.557	5803.75
729.958	5710
730.359	5702.6
730.76	5737.27
731.161	5734.39
731.562	5765.27
731.962	5825.49
732.363	5805.57
732.763	5780.69
733.164	5860.32
733.564	5809.79
733.965	5716.37
734.365	5688.32
734.766	5725.99
735.166	5681.22
735.566	5606.55
735.966	5560.49
736.366	5542.99
736.766	5466.71
737.166	5500.19
737.566	5450.69
737.966	5419.11
738.365	5456.75
738.765	5441.13
739.165	5349.02
739.564	5314.93
739.964	5370.47
740.363	5322.9
740.763	5326.26
741.162	5314.35
741.561	5277.56
741.96	5224.52
742.36	5250.14
742.759	5259.98
743.158	5310.18
743.557	5328.27
743.955	5371.24
744.354	5313.1
744.753	5372.42
745.152	5316.26
745.55	5370.32
745.949	5353.65
746.348	5342.22
746.746	5345.64
747.144	5284.01
747.543	5242.89
747.941	5280.86
748.339	5184.13
748.737	5157.98
749.136	5131.44
749.534	5185.53
749.932	5135.98
750.33	5146.87
750.727	5194.63
751.125	5155.36
751.523	5126.51
751.921	5157.08
752.318	5105.17
752.716	5154.78
753.113	5156.21
753.511	5168.63
753.908	5152.08
754.305	5116.03
754.703	5164.48
755.1	5207.9
755.497	5246.76
755.894	5398.61
756.291	5481.78
756.688	5630.94
757.085	5768.4
757.482	5948.35
757.878	6063.62
758.275	6071.31
758.672	6208.25
759.068	6191.12
759.465	6287.99
759.861	6434.29
760.258	6586.73
760.654	6446.16
761.05	6113.34
761.447	5814.65
761.843	5575.93
762.239	5404.07
762.635	5462.57
763.031	5495.39
763.427	5407.24
763.822	5307.46
764.218	5228.57
764.614	5034.26
765.01	4971.87
765.405	4999.68
765.801	5052.07
766.196	5014.83
766.592	5056.87
766.987	4964.1
767.382	4923.54
767.778	4963.79
768.173	4941.74
768.568	4945.91
768.963	4879.42
769.358	4928.28
769.753	4908.52
770.148	4848.38
770.542	4861.2
770.937	4837.17
771.332	4921.65
771.726	4934.16
772.121	4864.45
772.515	4904.24
772.91	4883.06
773.304	4941.44
773.699	4871.47
774.093	4908.7
774.487	4947.08
774.881	4967.52
775.275	4947.65
775.669	4894.49
776.063	4921.42
776.457	4940.65
776.851	4856.8
777.245	4831.58
777.638	4843.95
778.032	4927.82
778.425	4878.38
778.819	4899.56
779.212	4846.8
779.606	4798.73
779.999	4800.46
780.392	4767.39
780.786	4817.1
781.179	4815.86
781.572	4834.78
781.965	4825.55
782.358	4757.65
782.751	4784.8
783.143	4721.88
783.536	4761.28
783.929	4768.6
784.322	4834.46
784.714	4827.44
785.107	4796.7
785.499	4824.51
785.891	4770.78
786.284	4717.28
786.676	4790.81
787.068	4734.24
787.46	4733.24
787.852	4712.6
788.245	4743
788.636	4727.54
789.028	4745.48
789.42	4740.87
789.812	4714.4
790.204	4754.33
790.595	4802.15
790.987	4631.4
791.378	4625.1
791.77	4698.75
792.161	4770.82
792.553	4781.39
792.944	4676.34
793.335	4600.07
793.726	4619.72
794.117	4658.74
794.508	4731.79
794.899	4688.75
795.29	4771.11
795.681	4790.75
796.072	4667.85
796.463	4516.55
796.853	4500.85
797.244	4582.62
797.634	4581
798.025	4558.75
798.415	4536.61
798.806	4564.28
799.196	4584.45
799.586	4576.12
799.976	4509.63
800.366	4614.88
800.756	4723.32
801.146	4656.89
801.536	4638.59
801.926	4653.19
802.316	4638.55
802.706	4654.66
803.095	4555.86
803.485	4593.2
803.874	4587.96
804.264	4716.71
804.653	4679.03
805.043	4743.37
805.432	4780.28
805.821	4749.15
806.21	4725.25
806.599	4750.9
806.988	4729.01
807.377	4735.59
807.766	4748.98
808.155	4848.27
808.544	4644.75
808.933	4584.74
809.321	4505.91
809.71	4586.65
810.098	4584.97
810.487	4718.34
810.875	4847.07
811.264	4741.92
811.652	4757.46
812.04	4697.05
812.428	4639.05
812.816	4824.36
813.204	4850.46
813.592	4912.3
813.98	4895.43
814.368	4727.25
814.756	4788.67
815.144	4653.64
815.531	4727.2
815.919	4619.13
816.306	4656.65
816.694	4492.93
817.081	4482.23
817.469	4590.89
817.856	4606.7
818.243	4707.39
818.63	4853.03
819.017	4709.79
819.404	4703.05
819.791	4775.03
820.178	4903.26
820.565	4923.55
820.952	5187.77
821.339	4992.99
821.725	5012.45
822.112	4732.01
822.498	4673.44
822.885	4659.88
823.271	4605.83
823.657	4740.83
824.044	4765.81
824.43	4818.16
824.816	4812.95
825.202	4654.67
825.588	4924.75
825.974	4875.55
826.36	4968.25
826.746	4918.99
827.132	4966.39
827.517	4894.46
827.903	4609.79
828.289	4569.66
828.674	4305.94
829.06	4243.01
829.445	4317.14
829.83	4384.59
830.216	4482.12
830.601	4556.51
830.986	4427.2
831.371	4372.2
831.756	4503.36
832.141	4377.26
832.526	4366.82
832.911	4429.99
833.295	4388.6
833.68	4504.65
834.065	4341.45
834.449	4101.12
834.834	4079.49
835.218	4075.19
835.603	4158.66
835.987	4091.79
836.371	4293.43
836.755	4253.66
837.139	4343.02
837.524	4391.71
837.908	4331.99
838.291	4329.6
838.675	4327.38
839.059	4356.75
839.443	4332.89
839.827	4251.31
840.21	4347.72
840.594	4288.21
840.977	4310.32
841.361	4281.99
841.744	4343.66
842.127	4287.55
842.511	4326.87
842.894	4446.82
843.277	4515.3
843.66	4613.3
844.043	4608.91
844.426	4407.26
844.809	4310.36
845.191	4300.2
845.574	4171.97
845.957	4068.8
846.339	4011.11
846.722	3852.77
847.104	3827.84
847.487	3753.09
847.869	3723.42
848.252	3751.03
848.634	3785.2
849.016	3807.62
849.398	3795.2
849.78	3937.67
850.162	3907.9
850.544	3954.48
850.926	4031.9
851.307	3961.84
851.689	3961.77
852.071	3995.49
852.452	4016.17
852.834	3970.17
853.215	4011.78
853.597	4014.21
853.978	4045.68
854.359	4103.6
854.741	3906.71
855.122	3894.23
855.503	3856.84
855.884	3904.21
856.265	3910.34
856.646	3926.73
857.026	3856.31
857.407	3840.92
857.788	3855.68
858.169	3887.67
858.549	3719.04
858.93	3821.65
859.31	3818.89
859.69	3845.4
860.071	3747.38
860.451	3690.66
860.831	3548.31
861.211	3729.17
861.591	3800.12
861.971	3772.94
862.351	3781.2
862.731	3810.48
863.111	3807.22
863.491	3812.48
863.87	3903.68
864.25	3909.74
864.629	3802.04
865.009	3837.68
865.388	3934.46
865.768	4169.92
866.147	4118.16
866.526	3865.92
866.905	3893.45
867.284	4100.28
867.663	3890.98
868.042	3727.55
868.421	3716.16
868.8	3768.87
869.179	3803.13
869.558	3575.92
869.936	3290.66
870.315	3337.03
870.693	3410.33
871.072	3660.36
871.45	3479.38
871.828	3512.76
872.207	3679.38
872.585	3605.29
872.963	3675.52
873.341	3535.03
873.719	3480.76
874.097	3426.92
874.475	3479.03
874.853	3538.19
875.23	3387.72
875.608	3516.32
875.986	3777.72
876.363	3597.3
876.741	3698.51
877.118	3604.88
877.495	3758.6
877.873	3799.25
878.25	3969.71
878.627	3784.15
879.004	3820.93
879.381	3770.61
879.758	3649.49
880.135	3385.93
880.512	3563.83
880.889	3442.22
881.265	3387.11
881.642	3338.54
882.019	3375.31
882.395	3304.14
882.772	3426.54
883.148	3263.16
883.524	3235.84
883.901	3205.85
884.277	3233.66
884.653	3193.12
885.029	3272.6
885.405	3610.93
885.781	3566.35
886.157	3402.22
886.532	3420.53
886.908	3396.12
887.284	3750.08
887.659	3854.03
888.035	3952.32
888.411	4032.27
888.786	4070.17
889.161	4192.63
889.537	4082.27
889.912	4183.56
890.287	4145.4
890.662	4213.66
891.037	4098.08
891.412	3787.24
891.787	3696.45
892.162	3525.24
892.536	3560.52
892.911	3371.18
893.286	3234.99
893.66	3041.68
894.035	3052.51
894.409	3244.02
894.784	3045.54
895.158	3021.07
895.532	3117.11
895.906	3133.2
896.281	3117.84
896.655	2996.7
897.029	3340.08
897.402	3408.25
897.776	3712.28
898.15	3638.09
898.524	3557.2
898.898	3545.43
899.271	3927.01
899.645	3381.88
900.018	3232.65
900.392	3349.24
900.765	3384.38
901.138	3158.27
901.511	3137.19
901.884	2932.25
902.258	2749.95
902.631	2882.12
903.003	3364.13
903.376	3075.33
903.749	3483.79
904.122	3753.88
904.495	4142.11
904.867	4184.01
905.24	3618.97
905.612	3338.22
905.985	3352.6
906.357	3442.29
906.729	3231.25
907.102	2717.51
907.474	2568.84
907.846	2538.46
908.218	2467.09
908.59	2170.72
908.962	2082.21
909.334	2228.58
909.705	2330.75
910.077	2253.74
910.449	2328.91
910.82	2377.34
911.192	2598.9
911.563	2696.26
911.935	2871.15
912.306	2855.93
912.677	2923.3
913.048	2879.87
913.419	3084.05
913.79	3061.42
914.161	3282.68
914.532	3143.29
914.903	2876.02
915.274	2718.16
915.645	2658.76
916.015	2333.36
916.386	2229.33
916.756	2370.33
917.127	2455.46
917.497	2219.06
917.868	2451.24
918.238	2352.12
918.608	2435.26
918.978	2521.13
919.348	2700.45
919.718	2824.26
920.088	2754.36
920.458	2900.96
920.828	3066.04
921.198	2925.05
921.567	3118.84
921.937	2417
922.306	2420.94
922.676	2600.81
923.045	2177.11
923.415	2073.05
923.784	1880.68
924.153	1930.96
924.522	1917.93
924.891	1800.07
925.26	1911.87
925.629	1852.91
925.998	2094.27
926.367	2025.46
926.736	1914.95
927.104	2220.45
927.473	2318.59
927.842	2725.98
928.21	2605.4
928.578	2631.04
928.947	2394.11
929.315	2318.64
929.683	2602.47
930.051	2508.99
930.42	2758.27
930.788	2228.44
931.156	2094.09
931.523	1900.16
931.891	1676.17
932.259	1540.13
932.627	1717.16
932.994	2319.97
933.362	1857.61
933.729	1558.06
934.097	1457.1
934.464	1219.65
934.831	1356.02
935.199	1328.07
935.566	1261.65
935.933	1267.09
936.3	1546.01
936.667	1198.6
937.034	1178.97
937.401	1171.33
937.767	1058.05
938.134	977.1
938.501	1422.39
938.867	1605.87
939.234	2790.63
939.6	2473.24
939.967	2860.23
940.333	1979.26
940.699	1760.27
941.065	1378.06
941.431	1847.41
941.798	1843.63
942.163	2453.69
942.529	1528.33
942.895	1391.77
943.261	925.38
943.627	1214.02
943.992	1067.86
944.358	1062.25
944.723	1083.21
945.089	1038.63
945.454	960.5
945.82	1005.89
946.185	950.68
946.55	1110.19
946.915	1015.88
947.28	1176.22
947.645	1043.86
948.01	971.46
948.375	1029.2
948.74	1211.54
949.104	1417.64
949.469	2002.72
949.834	3505.23
950.198	3477.15
950.562	2080.98
950.927	1713.56
951.291	2028.62
951.655	1676.79
952.02	1527.96
952.384	1164.68
952.748	1036.85
953.112	1040.6
953.476	918.75
953.839	847.88
954.203	829.5
954.567	1025.09
954.931	1576.12
955.294	1372.87
955.658	1404.64
956.021	2412.19
956.385	3951.25
956.748	5752.02
957.111	8551.1
957.474	9429.67
957.837	10491.58
958.2	7852.23
958.563	2888.06
958.926	2035.64
959.289	3072.85
959.652	3457.04
960.015	2631.54
960.377	3842.29
960.74	4405.39
961.102	7506.22
961.465	8245.92
961.827	4824.23
962.189	9248.56
962.552	6424.26
962.914	5126.34
963.276	3331.49
963.638	2771.87
964	2712.92
964.362	1887.98
964.724	1790.57
965.085	1339.53
965.447	1117.42
965.809	1197.93
966.17	1202.66
966.532	1304.76
966.893	1224.37
967.255	1135.01
967.616	1334.63
967.977	1094.9
968.338	1192.97
968.699	1040.16
969.061	1044.05
969.421	1070
969.782	1223.4
970.143	1073.63
970.504	1168.75
970.865	1338.89
971.225	1408.02
971.586	1408.82
971.946	1992.95
972.307	1732.57
972.667	2171.01
973.027	2242.93
973.388	2698.02
973.748	1848.03
974.108	1999.25
974.468	2560.34
974.828	2023.88
975.188	1525.94
975.548	1385.91
975.907	1182.15
976.267	1314.73
976.627	1152.85
976.986	1188.77
977.346	1120.48
977.705	1080.25
978.064	996.92
978.424	859.68
978.783	852.85
979.142	979.58
979.501	959.85
979.86	1048.33
980.219	1023.32
980.578	1299.21
980.937	1452.56
981.296	1318.05
981.654	1350.26
982.013	2054.75
982.371	2701.94
982.73	2616.22
983.088	2966.67
983.447	3175.85
983.805	4493.08
984.163	9439.81
984.521	10486.92
984.879	15571.72
985.237	-25649.62
985.595	25454.95
985.953	6351.26
986.311	3594.64
986.669	2071.95
987.026	1805.01
987.384	2383.85
987.741	2436.26
988.099	1802
988.456	1474.02
988.814	1407
989.171	1217.41
989.528	1165.43
989.885	1235.31
990.242	1013.38
990.599	1248.94
990.956	1014.36
991.313	727.92
991.67	610.78
992.027	691.31
992.383	619.54
992.74	552.08
993.096	591.61
993.453	626.93
993.809	646.75
994.165	853.75
994.522	842.69
994.878	944.82
995.234	1187.01
995.59	1185.02
995.946	1050.47
996.302	1197.41
996.658	1359.87
997.013	1506.58
997.369	1799.41
997.725	2379.58
998.08	1554.04
998.436	2251.37
998.791	3105.02
999.147	3142.05
999.502	3355
999.857	2459.29
1000.212	4052.84
1000.567	5899.25
1000.922	3400.13
1001.277	2173.13
1001.632	1593.16
1001.987	2036.82
1002.342	1457.49
1002.696	1196.18
1003.051	972.98
1003.406	1203.44
1003.76	1181.79
1004.114	1184.17
1004.469	1002.2
1004.823	832.01
1005.177	901.25
1005.531	717.81
1005.885	664.33
1006.239	772.64
1006.593	957.7
1006.947	1302.03
1007.301	983.66
1007.655	1081.97
1008.008	797.15
1008.362	891.42
1008.715	1282.56
1009.069	1174.42
1009.422	1869.42
1009.776	3727.09
1010.129	2471.65
1010.482	2113.26
1010.835	1712.33
1011.188	3562.91
1011.541	3309.08
1011.894	-19951.18
1012.247	58332.3
1012.6	3924.45
1012.952	2500.65
1013.305	1236.88
1013.657	907.05
1014.01	876.14
1014.362	700.69
1014.715	694.03
1015.067	620.15
1015.419	616.86
1015.771	565.69
1016.123	535.61
1016.475	560.43
1016.827	606.96
1017.179	684.39
1017.531	667.13
1017.883	673.92
1018.234	706.86
1018.586	870.03
1018.938	953.64
1019.289	1353.76
1019.64	1517.68
1019.992	1371.08
1020.343	1275.68
1020.694	1055.47
1021.045	910.49
1021.396	1049.8
1021.747	1164.91
1022.098	1343.36
1022.449	981.21
1022.8	906.77
1023.151	647.26
1023.501	607.08
1023.852	653.41
1024.202	684.94
1024.553	732.78
1024.903	749.74
1025.253	682.6
1025.604	611.65
1025.954	757.1
1026.304	890.52
1026.654	1024.95
1027.004	1466.76
1027.354	2267.65
1027.703	2255.7
1028.053	2960.57
1028.403	4535.56
1028.753	6376.99
1029.102	8137.74
1029.452	40633.88
1029.801	1730.18
1030.15	1149.99
1030.499	953.15
897.758	1823.87
901.051	1752.71
904.343	1784.24
907.636	1791.01
910.928	1841.55
914.22	1774.75
917.511	1778.44
920.803	1814.42
924.094	1805.81
927.384	1812.02
930.675	1780.69
933.965	1752.83
937.255	1786.02
940.544	1761.73
943.834	1749.94
947.123	1702.17
950.411	1775.46
953.7	1760.67
956.988	1752.03
960.276	1691.47
963.563	1724.67
966.851	1735.21
970.138	1765.73
973.424	1767.75
976.711	1722.93
979.997	1768.05
983.283	1801.08
986.568	1747.37
989.853	1730.39
993.138	1750.55
996.423	1827.27
999.708	1795.05
1002.992	1817.98
1006.275	1740.34
1009.559	1741.49
1012.842	1822.56
1016.125	1783.91
1019.408	1765.67
1022.69	1806.75
1025.972	1837.51
1029.254	1816.4
1032.536	1790.74
1035.817	1791.66
1039.098	1765.8
1042.379	1806.01
1045.659	1825.95
1048.939	1783.31
1052.219	1784.25
1055.498	1774.43
1058.778	1769
1062.057	1747.04
1065.335	1767.25
1068.614	1773.66
1071.892	1773.87
1075.17	1812.68
1078.447	1818.02
1081.724	1812.49
1085.001	1830.66
1088.278	1811.36
1091.554	1813.69
1094.83	1811.04
1098.106	1839.78
1101.382	1859.97
1104.657	1856.86
1107.932	1856.47
1111.206	1840.13
1114.481	1795.04
1117.755	1798.67
1121.029	1794.34
1124.302	1845.02
1127.575	1820.36
1130.848	1818.53
1134.121	1795.15
1137.393	1764.65
1140.665	1811.54
1143.937	1792.85
1147.208	1749.68
1150.48	1803.49
1153.75	1791.84
1157.021	1786.88
1160.291	1768.58
1163.561	1813.5
1166.831	1779.61
1170.101	1799.17
1173.37	1762.83
1176.639	1730.21
1179.907	1766.82
1183.176	1784.09
1186.444	1786.79
1189.711	1805.19
1192.979	1826.77
1196.246	1791.91
1199.513	1802.47
1202.78	1806.88
1206.046	1816.13
1209.312	1841.64
1212.578	1850.53
1215.843	1823.84
1219.108	1801.07
1222.373	1818.52
1225.638	1799.46
1228.902	1796.97
1232.166	1761.35
1235.43	1751.48
1238.693	1778.78
1241.956	1771.32
1245.219	1813.85
1248.482	1801.13
1251.744	1801.42
1255.006	1893.69
1258.268	1849.94
1261.529	1818.33
1264.79	1813.32
1268.051	1891.07
1271.312	1896.94
1274.572	1870.95
1277.832	1858.35
1281.092	1840.62
1284.351	1835.52
1287.61	1822.76
1290.869	1776.4
1294.128	1775.74
1297.386	1801.52
1300.644	1797.48
1303.902	1806.67
1307.159	1699.21
1310.416	1741.06
1313.673	1766.17
1316.93	1767.58
1320.186	1788.83
1323.442	1815.17
1326.697	1817.06
1329.953	1792.04
1333.208	1829.14
1336.463	1807.73
1339.717	1781.18
1342.972	1866.32
1346.226	1845.19
1349.479	1810.61
1352.733	1795.71
1355.986	1799.77
1359.238	1784.91
1362.491	1790.09
1365.743	1794.1
1368.995	1786.65
1372.247	1802.9
1375.498	1816.65
1378.749	1860.41
1382	1821.07
1385.251	1844.32
1388.501	1806.41
1391.751	1814.76
1395	1788.37
1398.25	1810.58
1401.499	1837.1
1404.748	1800.77
1407.996	1779.67
1411.244	1775.84
1414.492	1764.91
1417.74	1752.92
1420.987	1757.01
1424.234	1810.17
1427.481	1773.27
1430.728	1821.93
1433.974	1802.12
1437.22	1795.01
1440.465	1791.56
1443.711	1799.01
1446.956	1813.67
1450.201	1785
1453.445	1820.73
1456.689	1811.86
1459.933	1817.92
1463.177	1852.84
1466.42	1829.56
1469.663	1814.25
1472.906	1832.42
1476.148	1867.81
1479.391	1828.98
1482.633	1811.13
1485.874	1835.79
1489.115	1841.09
1492.356	1824.73
1495.597	1806.57
1498.838	1793.99
1502.078	1785.55
1505.318	1765.94
1508.557	1787.81
1511.797	1787.02
1515.036	1834.8
1518.274	1799.04
1521.513	1750.32
1524.751	1757.64
1527.989	1776.86
1531.227	1791.77
1534.464	1805.33
1537.701	1794.03
1540.938	1800.03
1544.174	1756.1
1547.41	1741.83
1550.646	1770.55
1553.882	1813.02
1557.117	1862.99
1560.352	1865.26
1563.587	1834.09
1566.821	1807.21
1570.055	1815.85
1573.289	1799.92
1576.523	1841.22
1579.756	1854.21
1582.989	1872.11
1586.222	1835.21
1589.454	1860.75
1592.686	1847.74
1595.918	1870.44
1599.15	1867.08
1602.381	1900.26
1605.612	1890.26
1608.843	1962.88
1612.073	1902.34
1615.303	1892.83
1618.533	1892.66
1621.762	1891.31
1624.992	1863.25
1628.221	1866.74
1631.449	1858.27
1634.678	1874.48
1637.906	1848.57
1641.134	1866.63
1644.361	1838.8
1647.588	1831.98
1650.815	1851.16
1654.042	1817.59
1657.269	1839.41
1660.495	1829.97
1663.72	1811.06
1666.946	1786.68
1670.171	1774.59
1673.396	1749.45
1676.621	1735.11
1679.845	1728.63
1683.069	1731.81
1686.293	1751.87
1689.517	1749.22
1692.74	1716.32
1695.963	1733.63
1699.185	1770.3
1702.408	1749.87
1705.63	1770.3
1708.852	1789.23
1712.073	1763.25
1715.294	1780.27
1718.515	1812.83
1721.736	1783.14
1724.956	1764.96
1728.176	1782.72
1731.396	1797.03
1734.616	1788.87
1737.835	1822
1741.054	1795.97
1744.272	1791.89
1747.491	1828.95
1750.709	1841.4
1753.927	1810.81
1757.144	1827.55
1760.361	1877.99
1763.578	1850.14
1766.795	1813.47
1770.011	1801.48
1773.227	1818.74
1776.443	1856.22
1779.658	1891.06
1782.874	1842.32
1786.089	1840.36
1789.303	1841.59
1792.518	1838.58
1795.732	1829.05
1798.945	1847.96
1802.159	1881.08
1805.372	1842.22
1808.585	1839.6
1811.797	1839.17
1815.01	1851.85
1818.222	1878.9
1821.434	1839.55
1824.645	1870.89
1827.856	1886.73
1831.067	1909.52
1834.278	1854.28
1837.488	1842.82
1840.698	1938.95
1843.908	1897.65
1847.117	1874.5
1850.326	1822.31
1853.535	1864.74
1856.744	1904
1859.952	1843.55
1863.16	1844.66
1866.368	1862.6
1869.575	1962.51
1872.782	1866.63
1875.989	1812.72
1879.196	1849.28
1882.402	1845.51
1885.608	1874.08
1888.814	1836.02
1892.019	1764.2
1895.224	1810.77
1898.429	1780.33
1901.634	1767.23
1904.838	1749.91
1908.042	1800.93
1911.246	1817.06
1914.449	1791.75
1917.652	1773.58
1920.855	1757.09
1924.058	1772.47
1927.26	1814.04
1930.462	1831.88
1933.664	1869.9
1936.865	1822.18
1940.066	1836.51
1943.267	1788.11
1946.467	1796.42
1949.668	1809.91
1952.868	1869.41
1956.067	1865.12
1959.267	1815.99
1962.466	1835.35
1965.665	1816.67
1968.863	1813.07
1972.061	1810.52
1975.259	1802.1
1978.457	1866.3
1981.654	1830.39
1984.852	1832.92
1988.048	1799.58
1991.245	1783.54
1994.441	1860.25
1997.637	1815.56
2000.833	1802.65
2004.028	1829.17
2007.223	1887.17
2010.418	1879.53
2013.613	1834.67
2016.807	1835.99
2020.001	1827.53
2023.194	1843.16
2026.388	1832.61
2029.581	1783.48
2032.774	1842.82
2035.966	1851.23
2039.158	1808.84
2042.35	1821.82
2045.542	1757.77
2048.733	1824.2
2051.924	1808.05
2055.115	1818.94
2058.306	1793
2061.496	1837.32
2064.686	1876.46
2067.875	1793.47
2071.065	1794.1
2074.254	1806.47
2077.442	1768.28
2080.631	1839.11
2083.819	1790.49
2087.007	1785.27
2090.195	1776.53
2093.382	1781.91
2096.569	1772.54
2099.756	1742.76
2102.942	1791.01
2106.128	1802.96
2109.314	1793.76
2112.5	1786.7
2115.685	1754.75
2118.87	1760.66
2122.055	1814.98
2125.239	1798.73
2128.424	1794.56
2131.608	1832.06
2134.791	1817.17
2137.974	1844.22
2141.157	1837.39
2144.34	1818.46
2147.523	1801.38
2150.705	1830.09
2153.887	1797.69
2157.068	1780.14
2160.25	1756.14
2163.431	1772.32
2166.611	1754.51
2169.792	1775.34
2172.972	1700.41
2176.152	1738.48
2179.331	1758.91
2182.511	1768.46
2185.69	1785.48
2188.868	1794.38
2192.047	1816.96
2195.225	1842.71
2198.403	1797.74
2201.58	1782.85
2204.758	1766.78
2207.935	1831.94
2211.111	1766.47
2214.288	1757.84
2217.464	1785.28
2220.64	1743.64
2223.815	1782.6
2226.991	1729.43
2230.166	1739.92
2233.34	1779.27
2236.515	1788.83
2239.689	1844.04
2242.863	1803.43
2246.036	1846.58
2249.209	1831.52
2252.382	1845.32
2255.555	1855.78
2258.727	1818.56
2261.9	1839.67
2265.071	1835.06
2268.243	1834.4
2271.414	1795.04
2274.585	1786.1
2277.756	1836.59
2280.926	1801.13
2284.096	1819.1
2287.266	1764.29
2290.436	1805.08
2293.605	1819.92
2296.774	1855.07
2299.942	1854.69
2303.111	1865.73
2306.279	1913.75
2309.447	1898.49
2312.614	1874.62
2315.781	1895.21
2318.948	1877.28
2322.115	1910.48
2325.281	1823.03
2328.447	1825.34
2331.613	1800.49
2334.779	1798.99
2337.944	1793.15
2341.109	1794.77
2344.274	1787.06
2347.438	1758.72
2350.602	1777.16
2353.766	1785.57
2356.929	1777.84
2360.092	1806.14
2363.255	1786.58
2366.418	1765.69
2369.58	1802.26
2372.742	1744.61
2375.904	1724.65
2379.066	1717.51
2382.227	1735.46
2385.388	1702.5
2388.548	1663.94
2391.709	1694.34
2394.869	1693.8
2398.029	1726.83
2401.188	1714.16
2404.347	1699.83
2407.506	1726.14
2410.665	1774.67
2413.823	1753.51
2416.981	1742.49
2420.139	1750.9
2423.296	1786.89
2426.453	1764.27
2429.61	1780.45
2432.767	1766.98
2435.923	1805.16
2439.079	1750.91
2442.235	1777.22
2445.391	1727.22
2448.546	1770.54
2451.701	1796.23
2454.855	1801.47
2458.009	1816.15
2461.163	1801.61
2464.317	1780.93
2467.471	1801.27
2470.624	1823.77
2473.777	1821.17
2476.929	1835.73
2480.082	1854.81
2483.234	1835.97
2486.385	1782.99
2489.537	1777.01
2492.688	1777.85
2495.839	1793.93
2498.989	1804.2
2502.14	1794.5
2505.29	1791.48
2508.439	1811.33
2511.589	1765.68
2514.738	1761.72
2517.887	1778.53
2521.035	1847.36
2524.183	1803.57
2527.331	1796.44
2530.479	1795.34
2533.627	1797.86
