Data from C_1_DEC_VA_2N_Splice17_11-58-00-012.txt Node
Date: Sat Mar 14 11:58:00 EDT 2020
User: sa697716
Spectrometer: FLMS03696
Trigger mode: 0
Integration Time (sec): 3.180400E-1
Scans to average: 20
Electric dark correction enabled: true
Nonlinearity correction enabled: true
Boxcar width: 5
XAxis mode: Wavelengths
Number of Pixels in Spectrum: 2048
>>>>>Begin Spectral Data<<<<<
187.83	-235159.95
188.298	1600.52
188.766	928.63
189.233	829.27
189.701	1135.19
190.169	1598.12
190.636	605.06
191.104	501.8
191.571	74.61
192.039	-95.21
192.506	-134.45
192.974	257.07
193.441	-445.98
193.908	-164.39
194.375	0.08
194.842	6.18
195.31	106.4
195.777	168.15
196.244	377.01
196.711	478.82
197.177	593.29
197.644	843.73
198.111	1450.57
198.578	1997.3
199.045	1627.9
199.511	2640.18
199.978	3116.93
200.445	2650.44
200.911	2934.26
201.378	3275.22
201.844	2953.26
202.31	5052.51
202.777	5273.6
203.243	2948.81
203.709	2830.55
204.176	3401.75
204.642	2819.77
205.108	2616.69
205.574	2122.65
206.04	1935.41
206.506	1813.88
206.972	1710.35
207.438	1650.35
207.903	1871.42
208.369	1630.96
208.835	1628.36
209.301	1696.01
209.766	1733.75
210.232	1723.26
210.697	2153.2
211.163	2652.21
211.628	4007.04
212.094	3364.56
212.559	4153.2
213.024	2593.73
213.49	3160.74
213.955	3088.27
214.42	3029.09
214.885	2823.54
215.35	2702.95
215.815	2582.81
216.28	2749.61
216.745	2235.14
217.21	2418.35
217.675	2207.23
218.14	2476.54
218.604	2767.33
219.069	3153.01
219.534	3298
219.998	3817.41
220.463	4628.8
220.927	5691.47
221.392	5351.89
221.856	5417.82
222.32	6821.35
222.785	8429.67
223.249	10615.96
223.713	11855.52
224.177	11866.31
224.642	15204.02
225.106	18733.55
225.57	20470.19
226.034	15224.97
226.497	23183.99
226.961	20913.98
227.425	24355.87
227.889	27001.11
228.353	26996.6
228.816	55756.91
229.28	53244.71
229.744	44978.98
230.207	27318.5
230.671	26898.1
231.134	44491.68
231.597	51243.16
232.061	51359.89
232.524	50094.88
232.987	34521.29
233.45	31070.03
233.914	27891.88
234.377	28593.93
234.84	26181.16
235.303	30896.74
235.766	34488.86
236.229	35672.29
236.691	22491.56
237.154	25272.25
237.617	19020.12
238.08	19511.05
238.542	22830.54
239.005	16306.73
239.468	16197.99
239.93	15270.08
240.393	13884.49
240.855	12185.06
241.317	12497.39
241.78	15214.03
242.242	15737.96
242.704	17008.33
243.166	14800.11
243.629	13471.73
244.091	15526.88
244.553	17005.94
245.015	18278.7
245.477	23651.09
245.939	34677.24
246.4	36782.13
246.862	35760.04
247.324	33710.26
247.786	37733.59
248.247	49479.57
248.709	51023.4
249.17	38191.17
249.632	36053.77
250.093	41854.44
250.555	36155.4
251.016	22066.12
251.477	20929.42
251.939	22594.17
252.4	23715.8
252.861	28222.29
253.322	26290.59
253.783	31315.13
254.244	40637.87
254.705	32029.94
255.166	28478.77
255.627	28032.23
256.088	39535.52
256.549	42007.31
257.009	36167.47
257.47	43910.18
257.931	35782.28
258.391	26815.14
258.852	27649.91
259.312	29004.84
259.773	35869.98
260.233	30326.68
260.694	25620.18
261.154	29094.48
261.614	23358.38
262.074	20910.86
262.534	21728.26
262.994	20479.6
263.455	27280.38
263.915	22973.41
264.374	21650.21
264.834	23633.64
265.294	26209.82
265.754	27149.9
266.214	25721.73
266.673	24110.56
267.133	30429.77
267.593	30208.55
268.052	36993.52
268.512	32191.2
268.971	38834.38
269.431	42564.47
269.89	38114.73
270.349	57113
270.809	63701.89
271.268	57263.16
271.727	128379.77
272.186	83127.78
272.645	62297.66
273.104	44906.58
273.563	65001.64
274.022	51116.15
274.481	43526.41
274.94	33525.17
275.399	24918.78
275.857	29011.47
276.316	39205.53
276.775	34927.77
277.233	34400.81
277.692	32208.6
278.15	36448.72
278.609	37484.38
279.067	34734.77
279.525	32263.87
279.984	41695.94
280.442	50114.39
280.9	49406.08
281.358	32528.98
281.816	30313.35
282.274	29721.72
282.732	30742.63
283.19	30892.54
283.648	26691.42
284.106	28438.89
284.564	28935.4
285.021	26815.8
285.479	20000.4
285.937	18191.1
286.394	15965.62
286.852	16443.74
287.309	17291.02
287.767	16688.12
288.224	15868.77
288.682	17420.98
289.139	19109.23
289.596	17472.22
290.053	18169.75
290.511	22923.26
290.968	27809.19
291.425	37725.94
291.882	31361.74
292.339	27275.9
292.796	27093.36
293.252	25541.15
293.709	20290.78
294.166	18192.38
294.623	20122.88
295.079	19289.87
295.536	19372.88
295.992	17592.33
296.449	17388.23
296.905	18074.89
297.362	17310.13
297.818	18210.06
298.274	18888.17
298.731	19228.8
299.187	19006.36
299.643	20388.98
300.099	24709.4
300.555	27110.69
301.011	22645.46
301.467	21842.98
301.923	25584.46
302.379	25018.29
302.835	24582.9
303.291	24618.12
303.746	28043.55
304.202	35505.85
304.658	35674.09
305.113	23995.54
305.569	23531.55
306.024	25123.32
306.479	23947.16
306.935	20181.42
307.39	22033.62
307.845	20336.88
308.301	20488.77
308.756	19968.55
309.211	19235.63
309.666	19682.41
310.121	24455
310.576	24833.23
311.031	24616.6
311.486	28203.93
311.94	28186.93
312.395	37756.84
312.85	71046.37
313.305	348972.07
313.759	1807098.22
314.214	130920.31
314.668	103899.44
315.123	87283.56
315.577	31290.55
316.032	27860.07
316.486	34956.59
316.94	27650.39
317.394	19259.83
317.849	14958.68
318.303	14179.32
318.757	13386.72
319.211	14796.42
319.665	12965.95
320.119	13120.26
320.572	18812.07
321.026	17576.27
321.48	14607.89
321.934	15900.42
322.387	15926.22
322.841	17208.01
323.295	15453.53
323.748	17792.33
324.202	18038.85
324.655	21667.75
325.108	30305.29
325.562	21398.14
326.015	25446.91
326.468	19237.6
326.921	21528.78
327.374	20062.73
327.827	20879.08
328.28	23628.69
328.733	15836.25
329.186	13925.77
329.639	13267.47
330.092	11173.35
330.545	10650.56
330.997	10746.34
331.45	11735.36
331.903	13767.56
332.355	23702.5
332.808	23048.48
333.26	19033.84
333.713	20683.8
334.165	20866.57
334.617	27845.8
335.069	22525.08
335.522	40725.87
335.974	45097.5
336.426	41181.97
336.878	28527.82
337.33	14457.55
337.782	14145.64
338.234	17699.97
338.686	21181.58
339.137	25097.35
339.589	23702.52
340.041	18557.59
340.493	15948.18
340.944	16284.68
341.396	17534.13
341.847	14725.18
342.299	17383.37
342.75	21186.66
343.201	18526.02
343.653	21321.01
344.104	26221.38
344.555	20603.15
345.006	32073.62
345.457	24527.58
345.908	19529.99
346.359	18407.45
346.81	15006.25
347.261	15801.61
347.712	15560.76
348.163	16665.01
348.613	16834.76
349.064	15705.64
349.515	13761.63
349.965	14132.63
350.416	17016.47
350.866	18684.25
351.317	21120.46
351.767	34970.08
352.217	44230.99
352.668	36629.08
353.118	33564.53
353.568	32390.43
354.018	25627.87
354.468	26978.89
354.918	19315.57
355.368	16918.62
355.818	23877.35
356.268	68699.18
356.718	287569.68
357.168	71417.28
357.617	35920.42
358.067	39984.07
358.517	37399.83
358.966	43833.09
359.416	49222.03
359.865	53310.58
360.315	63471.34
360.764	29645.33
361.213	16624.89
361.663	15726.92
362.112	19470.23
362.561	31408.46
363.01	23699.79
363.459	19976.17
363.908	21652.33
364.357	18385.81
364.806	31002.97
365.255	21333.71
365.703	19572.68
366.152	19586.5
366.601	15882.23
367.05	12883.48
367.498	11711.67
367.947	12222.89
368.395	12724.63
368.844	11275.79
369.292	13595.22
369.74	9410.93
370.189	14427.68
370.637	16877.3
371.085	14560.92
371.533	17736.56
371.981	17088.47
372.429	16283.51
372.877	16974.35
373.325	14206.04
373.773	14436.85
374.221	12843.73
374.669	15932.89
375.116	13764.83
375.564	13867.81
376.012	15501.8
376.459	12784.06
376.907	15270.43
377.354	18477.73
377.801	17230.24
378.249	19809.15
378.696	25330.31
379.143	30711.68
379.591	32740.37
380.038	55333.53
380.485	40045.31
380.932	43257.77
381.379	39621.54
381.826	29272.85
382.273	20811.61
382.72	18199.58
383.166	17730.39
383.613	11520.97
384.06	10397.74
384.506	12020.05
384.953	8862.91
385.4	8918.99
385.846	7834.66
386.292	7651.36
386.739	7466.18
387.185	7400.82
387.631	7420.63
388.078	7201.63
388.524	7715.94
388.97	7121.83
389.416	5948.54
389.862	6314.46
390.308	6003.64
390.754	6094.63
391.2	6614.5
391.645	6796.75
392.091	6509.44
392.537	6297.32
392.983	6334
393.428	6229.39
393.874	6700.66
394.319	6738.89
394.765	6404.84
395.21	6592.5
395.655	6181.12
396.101	5783.84
396.546	5224.05
396.991	5273.93
397.436	4904.22
397.881	4735.72
398.326	4492.39
398.771	4248.98
399.216	3718
399.661	3350.71
400.106	3339.46
400.551	3424.01
400.995	3078.5
401.44	3047.44
401.885	2860.71
402.329	2888.66
402.774	2769.51
403.218	2680.51
403.663	2580.64
404.107	2650.68
404.551	2668.7
404.995	2445.74
405.44	2354.07
405.884	2390.94
406.328	2312.06
406.772	2302.68
407.216	2095.92
407.66	2024.91
408.104	1922.4
408.547	1799.44
408.991	1739.42
409.435	1672.59
409.879	1646.51
410.322	1627.34
410.766	1566.46
411.209	1488.27
411.653	1431.86
412.096	1401.65
412.54	1402.33
412.983	1391.74
413.426	1395.17
413.869	1394.29
414.312	1366.5
414.756	1315.79
415.199	1252.64
415.642	1216.83
416.085	1218.67
416.527	1208.29
416.97	1226.66
417.413	1162.58
417.856	1148.8
418.298	1136.46
418.741	1126.9
419.184	1123.17
419.626	1168.95
420.069	1168.89
420.511	1175.38
420.953	1147.28
421.396	1137.15
421.838	1106.12
422.28	1130.18
422.722	1135.61
423.164	1150.48
423.606	1131.41
424.048	1131.56
424.49	1074.95
424.932	1067.75
425.374	1050.99
425.816	1070.24
426.258	1088.4
426.699	1100.53
427.141	1083.26
427.582	1098.35
428.024	1093.2
428.465	1085.2
428.907	1055.99
429.348	1041.77
429.789	1040.52
430.231	1020.58
430.672	1032.58
431.113	1006.37
431.554	992.2
431.995	968.04
432.436	932.97
432.877	911.07
433.318	897.58
433.759	892.81
434.2	895.21
434.64	886.72
435.081	886.91
435.522	839.25
435.962	808.4
436.403	790.89
436.843	801.58
437.284	784.11
437.724	762.56
438.164	761.76
438.604	746.54
439.045	719.26
439.485	688.98
439.925	673.87
440.365	657.47
440.805	647.81
441.245	638.77
441.685	615.48
442.125	610.87
442.564	613.63
443.004	600.94
443.444	597.56
443.883	596.45
444.323	592.13
444.762	594.1
445.202	603.62
445.641	616.26
446.081	612.94
446.52	616.86
446.959	612.45
447.398	599.25
447.837	591.8
448.276	582.87
448.716	589.96
449.154	595.09
449.593	580.84
450.032	578.07
450.471	566.82
450.91	567.41
451.349	568.4
451.787	565.09
452.226	572.92
452.664	572.26
453.103	573.21
453.541	572.51
453.98	571.96
454.418	576.23
454.856	567.8
455.295	566.97
455.733	570.52
456.171	572.26
456.609	574.11
457.047	574.55
457.485	584.02
457.923	585.24
458.361	577.32
458.798	578.55
459.236	576.53
459.674	580.39
460.111	583.81
460.549	580.17
460.987	577.88
461.424	574.46
461.862	570.63
462.299	560.93
462.736	561.27
463.173	562.47
463.611	558.64
464.048	558.38
464.485	562.27
464.922	556.25
465.359	551.34
465.796	545.38
466.233	542.6
466.67	538.74
467.106	538.5
467.543	532.36
467.98	526.91
468.416	512.53
468.853	507.36
469.29	492.16
469.726	487.42
470.162	475.66
470.599	469.15
471.035	464.06
471.471	453.37
471.907	450.2
472.344	446.87
472.78	447.11
473.216	451.9
473.652	447.38
474.088	446.29
474.523	444.62
474.959	448.31
475.395	443.39
475.831	439.84
476.266	440.86
476.702	439.68
477.138	434.74
477.573	432.6
478.008	431.16
478.444	432.99
478.879	436.95
479.314	438.88
479.75	438.31
480.185	440.05
480.62	444.95
481.055	446.41
481.49	449.83
481.925	456.41
482.36	464.39
482.795	476.15
483.229	488.76
483.664	499.04
484.099	500.02
484.534	507.66
484.968	513.2
485.403	514.25
485.837	514.77
486.271	513.26
486.706	513.43
487.14	507.67
487.574	500.2
488.009	495.95
488.443	492.01
488.877	498.02
489.311	500
489.745	506.31
490.179	511.5
490.613	521.58
491.046	526.53
491.48	530.99
491.914	533.36
492.348	538.49
492.781	542.46
493.215	544.41
493.648	546.53
494.082	551.73
494.515	552.67
494.948	560.69
495.382	565.8
495.815	570.65
496.248	577.13
496.681	588.49
497.114	599.45
497.547	609.11
497.98	621.66
498.413	628.8
498.846	639.11
499.279	648.3
499.711	653.37
500.144	656.74
500.577	667.95
501.009	679.38
501.442	689.76
501.874	693.67
502.306	699
502.739	709.01
503.171	724.63
503.603	730.65
504.036	743.35
504.468	752.72
504.9	766.89
505.332	776.78
505.764	784.65
506.196	794.9
506.627	812.11
507.059	827.23
507.491	838.42
507.923	840.68
508.354	858.8
508.786	870.82
509.217	890.43
509.649	907.55
510.08	929.7
510.512	949.62
510.943	968.04
511.374	982.99
511.805	1006.22
512.237	1029.38
512.668	1064.18
513.099	1093.98
513.53	1124.91
513.961	1150.28
514.391	1186.09
514.822	1221.5
515.253	1259.81
515.684	1288.49
516.114	1320.97
516.545	1345.67
516.975	1375.22
517.406	1396.47
517.836	1403.38
518.267	1414.62
518.697	1435.18
519.127	1443.34
519.558	1455.03
519.988	1463.23
520.418	1476.88
520.848	1498.84
521.278	1511.5
521.708	1529.49
522.138	1546.03
522.567	1580.92
522.997	1608.9
523.427	1627.05
523.857	1646.38
524.286	1659.93
524.716	1677.57
525.145	1699.91
525.575	1713.79
526.004	1731.42
526.433	1730.29
526.863	1732.43
527.292	1722.27
527.721	1729.51
528.15	1736.92
528.579	1739.42
529.008	1751.26
529.437	1776.47
529.866	1791.12
530.295	1808.41
530.724	1821.92
531.152	1851.23
531.581	1866.47
532.01	1886.26
532.438	1896.84
532.867	1913
533.295	1933.14
533.723	1940.33
534.152	1938.19
534.58	1939
535.008	1924.06
535.436	1927.29
535.865	1936
536.293	1953.11
536.721	1971.7
537.149	1999.39
537.576	2003.53
538.004	2018.18
538.432	2027.49
538.86	2027.11
539.287	2035.73
539.715	2050.29
540.143	2053.14
540.57	2049
540.998	2044.63
541.425	2019.66
541.852	1996.79
542.28	1995.73
542.707	1978.84
543.134	1964.3
543.561	1960.05
543.988	1951.45
544.415	1952.48
544.842	1946.52
545.269	1940.04
545.696	1942.14
546.123	1954.27
546.549	1943.64
546.976	1928.91
547.403	1927.05
547.829	1927.97
548.256	1929.48
548.682	1925.4
549.108	1915.38
549.535	1914.51
549.961	1915.25
550.387	1900.08
550.813	1894.96
551.24	1900.37
551.666	1901.04
552.092	1890.3
552.518	1882.76
552.943	1875.39
553.369	1882.55
553.795	1887.51
554.221	1887.28
554.646	1882.74
555.072	1893.23
555.498	1898.05
555.923	1906.88
556.349	1922.17
556.774	1929.89
557.199	1930.21
557.625	1935.53
558.05	1926.82
558.475	1937.19
558.9	1935.29
559.325	1925.81
559.75	1918.53
560.175	1910.21
560.6	1902.62
561.025	1898.29
561.449	1899.38
561.874	1904.34
562.299	1907.23
562.723	1915.52
563.148	1904.25
563.572	1907.39
563.997	1916.92
564.421	1921.83
564.846	1922.42
565.27	1925.21
565.694	1922.32
566.118	1933.81
566.542	1940.86
566.966	1932.72
567.39	1926.22
567.814	1913.46
568.238	1912.4
568.662	1917.24
569.086	1918.51
569.509	1924.89
569.933	1908.42
570.357	1899.47
570.78	1875.37
571.204	1861.08
571.627	1849.55
572.05	1847.55
572.474	1846.46
572.897	1831.43
573.32	1820.42
573.743	1808.65
574.166	1787.42
574.589	1785.91
575.012	1777.29
575.435	1775.43
575.858	1763.4
576.281	1750.56
576.704	1732.01
577.126	1716.97
577.549	1704.95
577.972	1694.31
578.394	1682.18
578.817	1673.47
579.239	1651.69
579.661	1636.66
580.084	1617.96
580.506	1602.97
580.928	1597.67
581.35	1585.17
581.772	1580.76
582.194	1565.11
582.616	1551.56
583.038	1536.25
583.46	1524.65
583.882	1520.89
584.303	1523.46
584.725	1518.48
585.147	1520.39
585.568	1529.24
585.99	1540.39
586.411	1544.47
586.833	1558.37
587.254	1558.66
587.675	1570.97
588.096	1581.67
588.518	1575.74
588.939	1557.76
589.36	1555.55
589.781	1543.58
590.202	1515.83
590.623	1506.62
591.043	1504.16
591.464	1490.44
591.885	1485.02
592.305	1478.99
592.726	1465.37
593.147	1465.85
593.567	1460.77
593.987	1451.45
594.408	1445.83
594.828	1442.04
595.248	1435.58
595.669	1416.67
596.089	1410.39
596.509	1405.02
596.929	1392.1
597.349	1393.31
597.769	1382.68
598.189	1375.6
598.608	1377.68
599.028	1378.58
599.448	1378.61
599.867	1364.65
600.287	1360.05
600.706	1355.06
601.126	1344.47
601.545	1342.77
601.965	1340.48
602.384	1334.9
602.803	1337.79
603.222	1332.18
603.641	1325.34
604.061	1321.17
604.48	1317.83
604.898	1324.65
605.317	1328.45
605.736	1329.78
606.155	1325.78
606.574	1315.19
606.992	1318.32
607.411	1311.24
607.829	1301.89
608.248	1297.71
608.666	1293.82
609.085	1290.78
609.503	1280.85
609.921	1273.37
610.339	1273.41
610.758	1271.78
611.176	1266.21
611.594	1257.09
612.012	1252.5
612.43	1254.86
612.847	1259.36
613.265	1259.44
613.683	1262.99
614.101	1262.7
614.518	1258.18
614.936	1247.71
615.353	1232.27
615.771	1227.81
616.188	1227.31
616.606	1223.05
617.023	1214.46
617.44	1200.93
617.857	1192.52
618.274	1182.85
618.691	1176.75
619.108	1166.3
619.525	1158.96
619.942	1163.45
620.359	1164.67
620.776	1158.17
621.192	1153.56
621.609	1150.33
622.026	1155.76
622.442	1161.11
622.859	1163.18
623.275	1155.88
623.691	1160.93
624.108	1171.68
624.524	1184.19
624.94	1184.41
625.356	1193.15
625.772	1205.13
626.188	1215.89
626.604	1216.01
627.02	1212.22
627.436	1210.71
627.852	1217.4
628.268	1227.87
628.683	1219.93
629.099	1211.39
629.514	1205.96
629.93	1209.3
630.345	1212.15
630.761	1208.52
631.176	1211.69
631.591	1205.6
632.007	1198.84
632.422	1195.01
632.837	1184.85
633.252	1181.03
633.667	1171.14
634.082	1162.48
634.497	1149.17
634.911	1129.96
635.326	1125.9
635.741	1107.39
636.155	1096.04
636.57	1096.03
636.984	1094.05
637.399	1093.16
637.813	1091.11
638.228	1087.1
638.642	1088.43
639.056	1076.84
639.47	1075.71
639.884	1064.76
640.298	1057.17
640.712	1053.39
641.126	1039.37
641.54	1029.07
641.954	1022.08
642.368	1008.48
642.781	1000.32
643.195	982.53
643.609	981.16
644.022	972.91
644.436	967.35
644.849	955.36
645.262	942.97
645.676	942.76
646.089	936.59
646.502	920.73
646.915	912.58
647.328	895.23
647.741	891.13
648.154	877.81
648.567	873.26
648.98	860.05
649.393	858.66
649.805	853.38
650.218	845.02
650.631	831.36
651.043	824.8
651.456	819.15
651.868	818.97
652.28	831.5
652.693	841.38
653.105	846.38
653.517	852.46
653.929	851.3
654.341	855.43
654.753	843.25
655.165	845.49
655.577	842.54
655.989	836.68
656.401	828.09
656.813	798.02
657.224	779.65
657.636	753.26
658.047	736.7
658.459	718.84
658.87	708.42
659.282	697.2
659.693	678.43
660.104	663.95
660.515	651.64
660.926	647.21
661.338	642.22
661.749	634.62
662.159	625.36
662.57	620.15
662.981	614.12
663.392	607.04
663.803	607.65
664.213	604.16
664.624	599.62
665.035	599.98
665.445	588.33
665.855	581.15
666.266	574.39
666.676	572.08
667.086	563.97
667.497	562.28
667.907	556.99
668.317	549.27
668.727	546.86
669.137	546.25
669.547	543.21
669.956	544.34
670.366	544.88
670.776	546.71
671.186	549.38
671.595	551.56
672.005	553.27
672.414	551.78
672.824	550.94
673.233	553.52
673.642	554.98
674.052	558.22
674.461	561.16
674.87	565.39
675.279	562.8
675.688	564.93
676.097	567.23
676.506	567.32
676.915	579.02
677.323	583.25
677.732	583.52
678.141	585.26
678.549	578.38
678.958	577.95
679.366	577.53
679.775	582.15
680.183	591.31
680.592	597.31
681	602.89
681.408	600.98
681.816	607.91
682.224	616.64
682.632	626.68
683.04	652.79
683.448	675.01
683.856	702.49
684.264	734.07
684.671	763.81
685.079	798.94
685.487	838.71
685.894	893.38
686.302	939.98
686.709	979.65
687.116	1024.92
687.524	1064.97
687.931	1101.94
688.338	1134.77
688.745	1162.37
689.152	1193.47
689.559	1237.64
689.966	1280.1
690.373	1303.48
690.78	1347.17
691.187	1408.41
691.593	1457.94
692	1502.69
692.407	1566.32
692.813	1641.99
693.22	1706.38
693.626	1772.41
694.032	1825.68
694.439	1906.12
694.845	1971.79
695.251	2049.81
695.657	2121.29
696.063	2225.86
696.469	2304.15
696.875	2376.34
697.281	2422.34
697.687	2475.44
698.093	2522.69
698.498	2605.54
698.904	2671.65
699.31	2765.77
699.715	2835.4
700.12	2935.8
700.526	2960.18
700.931	3039.74
701.337	3100.2
701.742	3141.16
702.147	3233.72
702.552	3271.31
702.957	3337.09
703.362	3362.17
703.767	3398.18
704.172	3444.89
704.577	3402.06
704.981	3456.26
705.386	3475.6
705.791	3470.82
706.195	3553.18
706.6	3568.12
707.004	3653.83
707.408	3626.43
707.813	3658.02
708.217	3648.71
708.621	3656.4
709.025	3761.84
709.43	3767.51
709.834	3833.11
710.237	3912.77
710.641	3900
711.045	3925.47
711.449	3923.85
711.853	3958.53
712.256	4006.18
712.66	4048.71
713.064	4130.84
713.467	4175.98
713.87	4296.88
714.274	4350.3
714.677	4467.29
715.08	4644.32
715.484	4827.29
715.887	5044.06
716.29	5258.26
716.693	5483.98
717.096	5742.71
717.499	5880.68
717.901	5911.03
718.304	5942.8
718.707	5972.51
719.109	5867.24
719.512	5833.16
719.915	5690.13
720.317	5634.6
720.719	5683.79
721.122	5653.14
721.524	5601.16
721.926	5558.95
722.328	5667.44
722.731	5659.1
723.133	5688.49
723.535	5894.69
723.937	5916.81
724.338	5974.64
724.74	6014.4
725.142	5934.13
725.544	5932.13
725.945	5958.01
726.347	5957.81
726.748	5952.81
727.15	5967.19
727.551	5929.54
727.952	5899.21
728.354	5871.39
728.755	5871.34
729.156	5831.58
729.557	5832.03
729.958	5702.31
730.359	5646.27
730.76	5626.09
731.161	5558.43
731.562	5535.89
731.962	5538.16
732.363	5471.14
732.763	5402.33
733.164	5443.19
733.564	5373.75
733.965	5273.01
734.365	5240.02
734.766	5271.41
735.166	5230.79
735.566	5176.36
735.966	5146.4
736.366	5144.15
736.766	5080.52
737.166	5113.07
737.566	5067.8
737.966	5039.43
738.365	5079.79
738.765	5070.83
739.165	4990.69
739.564	4963.13
739.964	5011.45
740.363	4962.45
740.763	4958.49
741.162	4943.93
741.561	4913.39
741.96	4865.05
742.36	4888.13
742.759	4895.77
743.158	4939.81
743.557	4957.34
743.955	5000.2
744.354	4951.5
744.753	5012.08
745.152	4967.51
745.55	5028.53
745.949	5020.37
746.348	5023.15
746.746	5035.4
747.144	4990.74
747.543	4965.08
747.941	5015.36
748.339	4940.37
748.737	4931.59
749.136	4923.13
749.534	4993.09
749.932	4962.12
750.33	4985.1
750.727	5042.97
751.125	5020.73
751.523	5003.61
751.921	5048.11
752.318	5012.4
752.716	5073.27
753.113	5087.23
753.511	5115.62
753.908	5112.44
754.305	5093.26
754.703	5158.93
755.1	5222.68
755.497	5283.63
755.894	5486.15
756.291	5676.47
756.688	6025.03
757.085	6490.59
757.482	7145.13
757.878	7851.99
758.275	8500.94
758.672	9388.05
759.068	10111.14
759.465	11135.28
759.861	12467.3
760.258	14007.45
760.654	14803.99
761.05	14680.43
761.447	14003.37
761.843	13036.97
762.239	12043.42
762.635	11587.07
763.031	11156.47
763.427	10535.18
763.822	9884.85
764.218	9237.4
764.614	8391.29
765.01	7826.23
765.405	7464.39
765.801	7187.66
766.196	6833.11
766.592	6636.18
766.987	6303.98
767.382	6079.25
767.778	5983.43
768.173	5845.41
768.568	5768.4
768.963	5637.8
769.358	5656.56
769.753	5605.52
770.148	5521.67
770.542	5520.47
770.937	5486.37
771.332	5584.77
771.726	5608.78
772.121	5542.8
772.515	5600.74
772.91	5585.57
773.304	5661.05
773.699	5590.84
774.093	5647.69
774.487	5704.49
774.881	5752.51
775.275	5748.06
775.669	5702.99
776.063	5746.54
776.457	5783.85
776.851	5704.35
777.245	5696.74
777.638	5733.9
778.032	5856.8
778.425	5816.51
778.819	5858.46
779.212	5808.65
779.606	5768.92
779.999	5788.62
780.392	5772.8
780.786	5861.21
781.179	5882.66
781.572	5924.18
781.965	5934.47
782.358	5873.64
782.751	5935.92
783.143	5884.91
783.536	5962.16
783.929	6004.76
784.322	6125.16
784.714	6150.72
785.107	6144.69
785.499	6218.18
785.891	6194.19
786.284	6177.71
786.676	6326.93
787.068	6304.55
787.46	6360.29
787.852	6382.07
788.245	6471.67
788.636	6500.38
789.028	6573.72
789.42	6609.91
789.812	6620.38
790.204	6722.36
790.595	6823.49
790.987	6616.01
791.378	6638.82
791.77	6774.71
792.161	6916.43
792.553	6974.53
792.944	6857.47
793.335	6787.64
793.726	6866.2
794.117	6961.05
794.508	7106.22
794.899	7073.7
795.29	7217.48
795.681	7274.94
796.072	7126.38
796.463	6931.19
796.853	6939.73
797.244	7103.36
797.634	7135.38
798.025	7134.23
798.415	7142.51
798.806	7232.86
799.196	7322.77
799.586	7379.91
799.976	7344.87
800.366	7585.68
800.756	7835.69
801.146	7790.19
801.536	7825.41
801.926	7903.44
802.316	7930.63
802.706	8005.48
803.095	7875.08
803.485	7979.8
803.874	8020.6
804.264	8288.97
804.653	8256.44
805.043	8409.37
805.432	8521.39
805.821	8516.06
806.21	8539.4
806.599	8660.84
806.988	8712.54
807.377	8829.02
807.766	8964.46
808.155	9258.91
808.544	8983.02
808.933	9001.07
809.321	8982.78
809.71	9297.98
810.098	9468.91
810.487	9952.81
810.875	10460.68
811.264	10484.15
811.652	10782.45
812.04	10936.13
812.428	11108.33
812.816	11908.73
813.204	12342.4
813.592	12913.08
813.98	13263.15
814.368	13161.99
814.756	13657.92
815.144	13568.83
815.531	14053.98
815.919	13977.85
816.306	14294.51
816.694	13966.7
817.081	14017.45
817.469	14375.08
817.856	14376.1
818.243	14647.81
818.63	15062.04
819.017	14619.62
819.404	14682.28
819.791	15073.66
820.178	15711.64
820.565	15969.38
820.952	16936.18
821.339	16422.79
821.725	16623.44
822.112	15844.09
822.498	15804.96
822.885	15933.68
823.271	15841.72
823.657	16273.22
824.044	16286.38
824.43	16365.69
824.816	16334.77
825.202	15884.23
825.588	16951.85
825.974	16958.47
826.36	17502.5
826.746	17540
827.132	17914.34
827.517	17893.48
827.903	17080.58
828.289	17119.11
828.674	16301.81
829.06	16189.33
829.445	16608.92
829.83	16979.29
830.216	17485.13
830.601	17860.78
830.986	17439.05
831.371	17305.57
831.756	17874.8
832.141	17439.17
832.526	17427.54
832.911	17727.53
833.295	17610.95
833.68	18096.32
834.065	17454.79
834.449	16506.41
834.834	16435.84
835.218	16431.43
835.603	16778.89
835.987	16568
836.371	17435.81
836.755	17336.89
837.139	17761.55
837.524	18017.85
837.908	17844.05
838.291	17908.6
838.675	17989.58
839.059	18213.97
839.443	18210.96
839.827	17977.25
840.21	18489
840.594	18333.3
840.977	18547.6
841.361	18529.04
841.744	18927.4
842.127	18761.7
842.511	19016.74
842.894	19631.49
843.277	20031.32
843.66	20602.87
844.043	20695.85
844.426	19852.05
844.809	19521.23
845.191	19567.06
845.574	19089.8
845.957	18717.78
846.339	18602.06
846.722	18056.52
847.104	18136.99
847.487	17951.89
847.869	17963.16
848.252	18251.52
848.634	18593.46
849.016	18877.17
849.398	18998.64
849.78	19885.22
850.162	19884.89
850.544	20319.56
850.926	20978.85
851.307	20884.24
851.689	21177.53
852.071	21648.17
852.452	21978.01
852.834	21950.7
853.215	22363.24
853.597	22531.71
853.978	22834.93
854.359	23300.42
854.741	22262.15
855.122	22141.77
855.503	21832.83
855.884	21981.28
856.265	21910.84
856.646	22038.17
857.026	21639.28
857.407	21567.2
857.788	21726.97
858.169	22028.57
858.549	21144.64
858.93	21805.18
859.31	21870
859.69	22087.19
860.071	21652.44
860.451	21427.11
860.831	20648.7
861.211	21842.43
861.591	22413.2
861.971	22379.96
862.351	22581.99
862.731	22984.55
863.111	23250.25
863.491	23591.19
863.87	24500.88
864.25	24865.56
864.629	24450.33
865.009	24988.26
865.388	25887.05
865.768	27731.22
866.147	27631.8
866.526	26100.4
866.905	26412.17
867.284	27898.13
867.663	26492.05
868.042	25395.91
868.421	25312.52
868.8	25735.12
869.179	25989.07
869.558	24474.84
869.936	22578.15
870.315	22970.88
870.693	23522.6
871.072	25359.6
871.45	24154.14
871.828	24454.8
872.207	25702.12
872.585	25311.66
872.963	25992.79
873.341	25097.63
873.719	24795.48
874.097	24488.96
874.475	24955.07
874.853	25530.41
875.23	24472.11
875.608	25493.07
875.986	27585.76
876.363	26391.48
876.741	27207.14
877.118	26530.17
877.495	27834.41
877.873	28310.63
878.25	29793.65
878.627	28592.04
879.004	28999.17
879.381	28863.94
879.758	28103.28
880.135	26169.25
880.512	27675.19
880.889	26935.44
881.265	26667.22
881.642	26456.52
882.019	26905.46
882.395	26350.67
882.772	27397.18
883.148	26209.62
883.524	26102.16
883.901	25957.87
884.277	26324.9
884.653	26152.5
885.029	26911.67
885.405	29798.94
885.781	29555.66
886.157	28334.6
886.532	28679.13
886.908	28652.26
887.284	31857.12
887.659	32909.66
888.035	33938.49
888.411	34829.56
888.786	35298.34
889.161	36519.18
889.537	35845.93
889.912	36992.21
890.287	36943.71
890.662	37907.6
891.037	37246.15
891.412	34743.06
891.787	34381.88
892.162	33175.12
892.536	33957.56
892.911	32690.12
893.286	31998.8
893.66	30717.82
894.035	31517.16
894.409	34340.1
894.784	32951.57
895.158	33493.43
895.532	35473.3
895.906	36442.45
896.281	37301.6
896.655	36701.73
897.029	41930.46
897.402	43668.96
897.776	48585.1
898.15	48393.19
898.524	47860.28
898.898	48520.72
899.271	54305.33
899.645	47035.58
900.018	45184.61
900.392	46863.81
900.765	47244.54
901.138	43720.17
901.511	43063
901.884	39548.4
902.258	36486.78
902.631	37691.86
903.003	43369.52
903.376	39144.29
903.749	43885.35
904.122	46984.14
904.495	51728.37
904.867	52407.41
905.24	45481.07
905.612	42332.96
905.985	43300.4
906.357	45273.65
906.729	43218.52
907.102	36906.12
907.474	35481.09
907.846	35713.14
908.218	35240.74
908.59	31127.92
908.962	30078.82
909.334	32390.49
909.705	34010.87
910.077	32987.68
910.449	34314.9
910.82	35292.99
911.192	38845.33
911.563	40357.75
911.935	43173.22
912.306	43223.69
912.677	44648.09
913.048	44200.31
913.419	47952.6
913.79	48224
914.161	51745.87
914.532	49495.36
914.903	45442.55
915.274	43143.06
915.645	42510.69
916.015	37425.01
916.386	35683.24
916.756	37978.06
917.127	39175.45
917.497	35019.38
917.868	38128.8
918.238	36202.43
918.608	37233.24
918.978	38010.32
919.348	40274.46
919.718	41617.32
920.088	40080.59
920.458	41609.85
920.828	43801.12
921.198	41527.23
921.567	44337.27
921.937	34337.92
922.306	34696.48
922.676	37412.17
923.045	31202.07
923.415	29629.37
923.784	26968.74
924.153	27729.58
924.522	27718.4
924.891	26039.21
925.26	27905.37
925.629	27247.68
925.998	31315.42
926.367	30545.2
926.736	29081.26
927.104	34655.92
927.473	37256.4
927.842	45003.56
928.21	44579.61
928.578	46868.25
928.947	44337.95
929.315	44596.01
929.683	52281.09
930.051	52707.32
930.42	61265.96
930.788	52401.89
931.156	52002.9
931.523	48754.39
931.891	45077.6
932.259	43287.88
932.627	50142.38
932.994	70930.71
933.362	58588.57
933.729	50907.53
934.097	48716.88
934.464	41202.05
934.831	47532.59
935.199	46850.78
935.566	45450.41
935.933	46007.46
936.3	55745.09
936.667	43428.79
937.034	39152.34
937.401	38754.19
937.767	33451.15
938.134	29794.6
938.501	42030.94
938.867	44774.18
939.234	75734.56
939.6	64587.82
939.967	71264.06
940.333	47681.56
940.699	40607.42
941.065	32624.03
941.431	42764.75
941.798	41237.73
942.163	54158.88
942.529	33820.45
942.895	31143.63
943.261	20142.43
943.627	26426.43
943.992	23122.45
944.358	23148.99
944.723	23207.7
945.089	22640.02
945.454	20917.15
945.82	22326.61
946.185	21450.98
946.55	24880.29
946.915	22322.6
947.28	26196.87
947.645	23067
948.01	21281.04
948.375	22181.79
948.74	26603.17
949.104	31000.65
949.469	44770.1
949.834	79169.78
950.198	75106.15
950.562	45019.31
950.927	37493.07
951.291	45114.84
951.655	38408.87
952.02	36128.46
952.384	27330.43
952.748	23784.57
953.112	23195.55
953.476	20185.03
953.839	18653.49
954.203	18463.58
954.567	23104.59
954.931	36400.09
955.294	31132.11
955.658	31306.36
956.021	53204.72
956.385	90303.96
956.748	133434.52
957.111	206904.51
957.474	232145.91
957.837	261790.87
958.2	197993.1
958.563	71155.48
958.926	48109.09
959.289	72999.08
959.652	81615.94
960.015	61298.49
960.377	87957.68
960.74	100269.81
961.102	173222.19
961.465	186034.7
961.827	99577.24
962.189	191174.03
962.552	132506.9
962.914	106282.29
963.276	69034.11
963.638	57057.13
964	56464.44
964.362	38169.23
964.724	36923.78
965.085	26344.54
965.447	21618.16
965.809	24637.7
966.17	24678.51
966.532	26716.28
966.893	24495.15
967.255	22290.74
967.616	26312.48
967.977	21051.5
968.338	22982.38
968.699	18862.66
969.061	18855.38
969.421	18963.93
969.782	21275.48
970.143	17963.46
970.504	18597.84
970.865	21154.29
971.225	21620.61
971.586	21160.68
971.946	30208.06
972.307	26224.26
972.667	34317.2
973.027	35349.68
973.388	42857.77
973.748	29155.1
974.108	31744.47
974.468	42957.74
974.828	33108.36
975.188	25466.36
975.548	23404.83
975.907	19639.09
976.267	22058.23
976.627	18543.52
976.986	19218.87
977.346	18339.86
977.705	17649.88
978.064	16070.12
978.424	13373.72
978.783	13834.75
979.142	15811.87
979.501	15114.39
979.86	15974.42
980.219	15377.11
980.578	19833.75
980.937	22239.52
981.296	19827.45
981.654	20398.61
982.013	31790.08
982.371	41267.48
982.73	38531.36
983.088	43574.01
983.447	46528.83
983.805	66535.07
984.163	138861.02
984.521	153999.35
984.879	225232.19
985.237	-365929.27
985.595	352786.02
985.953	87532.04
986.311	50532.93
986.669	29373.87
987.026	25342
987.384	34079.56
987.741	35207.56
988.099	25197.2
988.456	20053.64
988.814	18774.93
989.171	16325.05
989.528	16104.63
989.885	17006.31
990.242	13470.71
990.599	16765.8
990.956	13720.14
991.313	9596.7
991.67	7884.49
992.027	8349.31
992.383	7433.63
992.74	6532.55
993.096	6850.13
993.453	7091.38
993.809	7348.74
994.165	9796.07
994.522	8969.74
994.878	9900.33
995.234	12418.42
995.59	12256.78
995.946	11609.66
996.302	13257.93
996.658	15290.63
997.013	16846.45
997.369	19976.65
997.725	25583.61
998.08	16561.73
998.436	25568.72
998.791	35198.23
999.147	35137.92
999.502	38334.8
999.857	27839.03
1000.212	45279.11
1000.567	64647.63
1000.922	37334.76
1001.277	23737.47
1001.632	17646.6
1001.987	22724.42
1002.342	16293.71
1002.696	13032.6
1003.051	10412.99
1003.406	12572.75
1003.76	12527.19
1004.114	12351.76
1004.469	10370.08
1004.823	8581.2
1005.177	9267.5
1005.531	7337.67
1005.885	6504.46
1006.239	7344.29
1006.593	9201.32
1006.947	12275.11
1007.301	9245.01
1007.655	10063.37
1008.008	7391.03
1008.362	8311.13
1008.715	11858.78
1009.069	10793.04
1009.422	16182.92
1009.776	32497.2
1010.129	21552.79
1010.482	18021.11
1010.835	15270.79
1011.188	31728.89
1011.541	29925.83
1011.894	-183338.47
1012.247	538667.21
1012.6	36593.74
1012.952	23018.78
1013.305	11917.92
1013.657	8589.21
1014.01	8147.03
1014.362	6721
1014.715	5976.19
1015.067	5190.54
1015.419	5069.37
1015.771	4479.8
1016.123	3989.41
1016.475	4107.62
1016.827	4379.92
1017.179	4695.99
1017.531	4732
1017.883	4829.1
1018.234	4654.37
1018.586	5867.74
1018.938	6230.16
1019.289	8611.41
1019.64	9875.88
1019.992	9178.8
1020.343	8393.06
1020.694	6603.67
1021.045	5822.52
1021.396	6642.41
1021.747	7106.57
1022.098	8539.32
1022.449	6184.24
1022.8	5750.65
1023.151	3994.5
1023.501	3528.96
1023.852	3835.97
1024.202	3983.47
1024.553	4391.45
1024.903	4302.13
1025.253	3675.83
1025.604	3311.82
1025.954	4122.38
1026.304	5036.55
1026.654	5860.56
1027.004	8564.3
1027.354	13867.32
1027.703	13082.64
1028.053	17241
1028.403	25072.02
1028.753	36468.02
1029.102	49778.79
1029.452	256107.08
1029.801	11045.78
1030.15	7141.21
1030.499	6049.05
897.758	2212.43
901.051	2148.89
904.343	2181.61
907.636	2187.45
910.928	2249.65
914.22	2169.83
917.511	2174.96
920.803	2224.11
924.094	2224.01
927.384	2225.09
930.675	2188.68
933.965	2151.96
937.255	2178.72
940.544	2146.27
943.834	2150.74
947.123	2089.6
950.411	2180.61
953.7	2160.8
956.988	2144.34
960.276	2081.92
963.563	2131.24
966.851	2141.1
970.138	2183.79
973.424	2186.22
976.711	2140.72
979.997	2185.51
983.283	2230.77
986.568	2158.45
989.853	2149.72
993.138	2179.36
996.423	2264.07
999.708	2221.36
1002.992	2250.98
1006.275	2164.83
1009.559	2171.81
1012.842	2271.63
1016.125	2223.6
1019.408	2204.75
1022.69	2260.55
1025.972	2295.75
1029.254	2268.72
1032.536	2227.64
1035.817	2243.42
1039.098	2212.82
1042.379	2267.88
1045.659	2292.25
1048.939	2241.59
1052.219	2248.99
1055.498	2242.64
1058.778	2241.06
1062.057	2215.95
1065.335	2240.76
1068.614	2251.38
1071.892	2243.59
1075.17	2301.47
1078.447	2301.91
1081.724	2299.24
1085.001	2322.17
1088.278	2303.88
1091.554	2310.31
1094.83	2304.32
1098.106	2342.89
1101.382	2372.97
1104.657	2374.81
1107.932	2375.21
1111.206	2349.11
1114.481	2303.33
1117.755	2303.78
1121.029	2297.45
1124.302	2355.78
1127.575	2321.13
1130.848	2317.38
1134.121	2285.44
1137.393	2249.96
1140.665	2306.49
1143.937	2283.85
1147.208	2234.31
1150.48	2290.17
1153.75	2279.62
1157.021	2285.96
1160.291	2261.9
1163.561	2316.89
1166.831	2284.27
1170.101	2311.2
1173.37	2271.1
1176.639	2229.82
1179.907	2274.48
1183.176	2298.28
1186.444	2300.58
1189.711	2325.66
1192.979	2344.32
1196.246	2302.42
1199.513	2312.84
1202.78	2319.13
1206.046	2328.92
1209.312	2355.53
1212.578	2373.35
1215.843	2340.84
1219.108	2308.17
1222.373	2332.28
1225.638	2304
1228.902	2297.48
1232.166	2250.81
1235.43	2239.22
1238.693	2266.64
1241.956	2256.38
1245.219	2304.29
1248.482	2289.04
1251.744	2286.57
1255.006	2413.07
1258.268	2356.68
1261.529	2311.4
1264.79	2313.97
1268.051	2414.51
1271.312	2424.73
1274.572	2394.27
1277.832	2384.41
1281.092	2364.91
1284.351	2353.7
1287.61	2336.28
1290.869	2268.84
1294.128	2266.87
1297.386	2319.94
1300.644	2311.91
1303.902	2319.45
1307.159	2190.06
1310.416	2241.19
1313.673	2268.01
1316.93	2266.47
1320.186	2297.47
1323.442	2333.18
1326.697	2332.77
1329.953	2307.43
1333.208	2342.14
1336.463	2313.6
1339.717	2275.82
1342.972	2379.56
1346.226	2351.05
1349.479	2300.88
1352.733	2279.74
1355.986	2286.59
1359.238	2267.06
1362.491	2273.83
1365.743	2273.28
1368.995	2266.63
1372.247	2280.18
1375.498	2300.15
1378.749	2343.12
1382	2292.4
1385.251	2327.99
1388.501	2280.78
1391.751	2282.02
1395	2248.12
1398.25	2273.02
1401.499	2296.32
1404.748	2242.44
1407.996	2218.88
1411.244	2207.95
1414.492	2191.78
1417.74	2176.68
1420.987	2182.46
1424.234	2242.38
1427.481	2204.54
1430.728	2262.65
1433.974	2237.61
1437.22	2235.74
1440.465	2233.08
1443.711	2232.84
1446.956	2256.48
1450.201	2229.86
1453.445	2272.37
1456.689	2259.67
1459.933	2271.94
1463.177	2311.54
1466.42	2283.68
1469.663	2268.1
1472.906	2282.41
1476.148	2333.42
1479.391	2309.46
1482.633	2284.49
1485.874	2307.55
1489.115	2314.73
1492.356	2299.89
1495.597	2279.58
1498.838	2274.4
1502.078	2258.57
1505.318	2228.72
1508.557	2264.61
1511.797	2259.22
1515.036	2302.43
1518.274	2278.63
1521.513	2231.87
1524.751	2245
1527.989	2270.14
1531.227	2286.88
1534.464	2300.95
1537.701	2295.99
1540.938	2308.78
1544.174	2257.35
1547.41	2247.02
1550.646	2285.45
1553.882	2333.16
1557.117	2392.71
1560.352	2400.5
1563.587	2362.14
1566.821	2327.86
1570.055	2345.75
1573.289	2325.94
1576.523	2385.66
1579.756	2400.12
1582.989	2423.36
1586.222	2383.3
1589.454	2411.21
1592.686	2397.04
1595.918	2424.11
1599.15	2422.74
1602.381	2469.19
1605.612	2447.81
1608.843	2544.09
1612.073	2463.86
1615.303	2452.02
1618.533	2447.61
1621.762	2447.65
1624.992	2424.28
1628.221	2423.29
1631.449	2412.7
1634.678	2442.63
1637.906	2408.53
1641.134	2438.22
1644.361	2401.47
1647.588	2392.11
1650.815	2413.1
1654.042	2378.02
1657.269	2405.06
1660.495	2381.67
1663.72	2369.04
1666.946	2337.85
1670.171	2306.7
1673.396	2280.22
1676.621	2263.3
1679.845	2261.81
1683.069	2269.52
1686.293	2300.43
1689.517	2291.11
1692.74	2240.16
1695.963	2262.42
1699.185	2303.01
1702.408	2273.59
1705.63	2305.24
1708.852	2324.3
1712.073	2293.01
1715.294	2302.36
1718.515	2346.36
1721.736	2304.17
1724.956	2283.78
1728.176	2306.23
1731.396	2329.86
1734.616	2312.54
1737.835	2349.75
1741.054	2319.96
1744.272	2312.67
1747.491	2351.92
1750.709	2377.74
1753.927	2323.88
1757.144	2350.57
1760.361	2407.44
1763.578	2383.61
1766.795	2333.46
1770.011	2323.56
1773.227	2348.9
1776.443	2391.42
1779.658	2433.38
1782.874	2371.77
1786.089	2362.45
1789.303	2364.75
1792.518	2361.78
1795.732	2347.39
1798.945	2363.65
1802.159	2404.31
1805.372	2344.25
1808.585	2338.18
1811.797	2339.45
1815.01	2362.71
1818.222	2383.92
1821.434	2345.37
1824.645	2389.13
1827.856	2396.33
1831.067	2427.99
1834.278	2366.07
1837.488	2348.36
1840.698	2473.44
1843.908	2413.57
1847.117	2377.79
1850.326	2300.65
1853.535	2366.94
1856.744	2398.03
1859.952	2318.95
1863.16	2320.93
1866.368	2336.01
1869.575	2447.04
1872.782	2328.17
1875.989	2260.17
1879.196	2312.82
1882.402	2304.44
1885.608	2337.63
1888.814	2271.88
1892.019	2180.56
1895.224	2231.38
1898.429	2196.15
1901.634	2178.62
1904.838	2150.92
1908.042	2206.72
1911.246	2219.63
1914.449	2177.75
1917.652	2162.69
1920.855	2143.58
1924.058	2169
1927.26	2211.67
1930.462	2234.19
1933.664	2274.05
1936.865	2215.68
1940.066	2232.26
1943.267	2177.31
1946.467	2189.04
1949.668	2206.99
1952.868	2275
1956.067	2263.03
1959.267	2205.99
1962.466	2230.17
1965.665	2213.24
1968.863	2205.38
1972.061	2207.55
1975.259	2202.01
1978.457	2278.02
1981.654	2238.39
1984.852	2242.82
1988.048	2193.6
1991.245	2186.19
1994.441	2271.52
1997.637	2234.46
2000.833	2216.03
2004.028	2250.03
2007.223	2315.72
2010.418	2303.73
2013.613	2253.22
2016.807	2244.55
2020.001	2240.93
2023.194	2263.53
2026.388	2244.09
2029.581	2194.13
2032.774	2252.65
2035.966	2264.13
2039.158	2211.37
2042.35	2228.79
2045.542	2156.87
2048.733	2242.21
2051.924	2237.45
2055.115	2254.25
2058.306	2220.1
2061.496	2276.36
2064.686	2320.33
2067.875	2229.87
2071.065	2233.36
2074.254	2254.08
2077.442	2208.34
2080.631	2290.02
2083.819	2218.69
2087.007	2209.17
2090.195	2191.97
2093.382	2210.25
2096.569	2193.9
2099.756	2158.25
2102.942	2203.36
2106.128	2216.17
2109.314	2203.2
2112.5	2188.75
2115.685	2156.83
2118.87	2164.48
2122.055	2225.36
2125.239	2204.49
2128.424	2189.05
2131.608	2252.8
2134.791	2235.67
2137.974	2274.37
2141.157	2262.26
2144.34	2231.62
2147.523	2224.73
2150.705	2249.85
2153.887	2218.75
2157.068	2189.75
2160.25	2174.25
2163.431	2197.4
2166.611	2164.18
2169.792	2186.34
2172.972	2096.43
2176.152	2151.17
2179.331	2178.81
2182.511	2179.31
2185.69	2200.65
2188.868	2204.85
2192.047	2239.91
2195.225	2252.06
2198.403	2203.71
2201.58	2190.57
2204.758	2177.62
2207.935	2252.26
2211.111	2165.15
2214.288	2155.24
2217.464	2187.47
2220.64	2145.84
2223.815	2196.99
2226.991	2128.88
2230.166	2144.83
2233.34	2186.77
2236.515	2198.89
2239.689	2262.92
2242.863	2215.13
2246.036	2267.35
2249.209	2250.67
2252.382	2271.58
2255.555	2278.65
2258.727	2225.34
2261.9	2256.84
2265.071	2247.89
2268.243	2243.85
2271.414	2193.88
2274.585	2174.92
2277.756	2234.81
2280.926	2192.48
2284.096	2221.39
2287.266	2152.24
2290.436	2197.1
2293.605	2219.04
2296.774	2254.23
2299.942	2259.48
2303.111	2275.36
2306.279	2327.05
2309.447	2310.27
2312.614	2280.18
2315.781	2305.83
2318.948	2284.29
2322.115	2318.88
2325.281	2221.15
2328.447	2227.97
2331.613	2199.59
2334.779	2191.53
2337.944	2186.67
2341.109	2186.48
2344.274	2176.84
2347.438	2144.95
2350.602	2164.5
2353.766	2172.66
2356.929	2161.17
2360.092	2198.87
2363.255	2169.63
2366.418	2132.37
2369.58	2202
2372.742	2072.94
2375.904	2068.88
2379.066	2052.69
2382.227	2079.22
2385.388	2041.52
2388.548	1990.87
2391.709	2033.66
2394.869	2022.38
2398.029	2078.82
2401.188	2077.49
2404.347	2037.57
2407.506	2117.99
2410.665	2154.9
2413.823	2144.42
2416.981	2122.2
2420.139	2137.92
2423.296	2180.34
2426.453	2152.93
2429.61	2173.47
2432.767	2143.46
2435.923	2182.71
2439.079	2130.36
2442.235	2167.39
2445.391	2108.17
2448.546	2148.99
2451.701	2182.86
2454.855	2178.36
2458.009	2206.75
2461.163	2198.29
2464.317	2169.36
2467.471	2193.07
2470.624	2224.76
2473.777	2212.69
2476.929	2227.66
2480.082	2252.57
2483.234	2223.74
2486.385	2168.11
2489.537	2162.65
2492.688	2150.83
2495.839	2164.55
2498.989	2180.85
2502.14	2167.16
2505.29	2157.21
2508.439	2182.73
2511.589	2123.14
2514.738	2124.03
2517.887	2146.93
2521.035	2221.57
2524.183	2182.38
2527.331	2169.45
2530.479	2163.8
2533.627	2164.78
