Data from C_1_DEC_CT_2N_Splice17_11-46-01-727.txt Node
Date: Sat Mar 14 11:46:01 EDT 2020
User: sa697716
Spectrometer: FLMS03696
Trigger mode: 0
Integration Time (sec): 3.180400E-1
Scans to average: 20
Electric dark correction enabled: true
Nonlinearity correction enabled: true
Boxcar width: 5
XAxis mode: Wavelengths
Number of Pixels in Spectrum: 2048
>>>>>Begin Spectral Data<<<<<
187.83	-123974.57
188.298	1108.61
188.766	658.4
189.233	557.75
189.701	822.55
190.169	1100.61
190.636	433.9
191.104	334.28
191.571	37.99
192.039	-28.62
192.506	-21.75
192.974	371.41
193.441	-573.35
193.908	-141.2
194.375	-30.92
194.842	51.56
195.31	116.09
195.777	168.37
196.244	282.63
196.711	196.27
197.177	200.42
197.644	208.75
198.111	299.49
198.578	418.29
199.045	328.98
199.511	457.2
199.978	436.05
200.445	367.37
200.911	371.31
201.378	333.77
201.844	328.99
202.31	517.4
202.777	585.53
203.243	340.76
203.709	317.39
204.176	368.74
204.642	323.11
205.108	326.26
205.574	264.3
206.04	224.29
206.506	196.34
206.972	166.47
207.438	147.39
207.903	163.21
208.369	164.04
208.835	180.78
209.301	196.54
209.766	184.63
210.232	192.22
210.697	249.14
211.163	268.35
211.628	379.15
212.094	319.97
212.559	484.54
213.024	288.32
213.49	351.13
213.955	304
214.42	241.71
214.885	230.03
215.35	217.99
215.815	258.27
216.28	293.75
216.745	243.7
217.21	277.3
217.675	210.48
218.14	228.57
218.604	207.39
219.069	235.19
219.534	266.29
219.998	263.23
220.463	271.07
220.927	212.75
221.392	166.19
221.856	170.96
222.32	138.48
222.785	154.29
223.249	162.1
223.713	181.11
224.177	141.66
224.642	94.74
225.106	141.5
225.57	131.75
226.034	150.11
226.497	239.95
226.961	248.09
227.425	340.98
227.889	333.19
228.353	304.27
228.816	540.38
229.28	616.78
229.744	534.17
230.207	359.73
230.671	343.69
231.134	399.86
231.597	542.03
232.061	399
232.524	318.36
232.987	291.7
233.45	321.99
233.914	279.85
234.377	213.17
234.84	189.59
235.303	160.48
235.766	205.88
236.229	217.62
236.691	94.04
237.154	103.33
237.617	95.28
238.08	75.96
238.542	68.62
239.005	54.22
239.468	79.95
239.93	73.64
240.393	77.91
240.855	65.15
241.317	55.37
241.78	52.49
242.242	66.74
242.704	111.65
243.166	102.35
243.629	122.26
244.091	151.48
244.553	153.97
245.015	157.02
245.477	170.66
245.939	222.06
246.4	238.38
246.862	261.44
247.324	245.91
247.786	212.52
248.247	204.03
248.709	54.3
249.17	59.98
249.632	140.6
250.093	277.27
250.555	268.74
251.016	208.27
251.477	210.22
251.939	232.74
252.4	221.56
252.861	249.92
253.322	269.99
253.783	287.69
254.244	327.57
254.705	199.3
255.166	115.81
255.627	102.62
256.088	161.81
256.549	177.59
257.009	120.62
257.47	161.61
257.931	117.72
258.391	122.18
258.852	166.37
259.312	169.41
259.773	195.56
260.233	235.7
260.694	242.95
261.154	254.6
261.614	258.33
262.074	221.47
262.534	253.26
262.994	249.27
263.455	284.58
263.915	235.62
264.374	212.47
264.834	232.75
265.294	206.75
265.754	204.63
266.214	172.74
266.673	136.93
267.133	162.92
267.593	116.81
268.052	145.71
268.512	97.42
268.971	185.32
269.431	207.86
269.89	186.13
270.349	312.41
270.809	373.11
271.268	335.06
271.727	616.94
272.186	408.47
272.645	336.46
273.104	198.25
273.563	321.39
274.022	157.63
274.481	179.66
274.94	159.94
275.399	96.31
275.857	59.01
276.316	33.39
276.775	16.43
277.233	21.64
277.692	63.59
278.15	105.34
278.609	148.86
279.067	138.09
279.525	135.65
279.984	123.6
280.442	188.65
280.9	340.78
281.358	261.41
281.816	277.58
282.274	269.37
282.732	224.98
283.19	206.74
283.648	175.44
284.106	187.49
284.564	180.44
285.021	197.71
285.479	135.1
285.937	57.2
286.394	78.68
286.852	77.03
287.309	79.04
287.767	105.79
288.224	107.66
288.682	106.2
289.139	142.53
289.596	139.45
290.053	121.55
290.511	135.23
290.968	200.54
291.425	203.15
291.882	213.44
292.339	203.28
292.796	196.73
293.252	187.92
293.709	186.74
294.166	166.04
294.623	169.68
295.079	169.12
295.536	193.22
295.992	167.99
296.449	180.43
296.905	174.01
297.362	194.7
297.818	179.16
298.274	200.4
298.731	175.5
299.187	162.72
299.643	166.19
300.099	198.81
300.555	199.46
301.011	188.25
301.467	243.53
301.923	250.18
302.379	255.12
302.835	263.24
303.291	255.85
303.746	299.75
304.202	355.22
304.658	358.66
305.113	242.79
305.569	249.82
306.024	240.04
306.479	144.8
306.935	165.25
307.39	125.34
307.845	109.61
308.301	120.93
308.756	93.44
309.211	106.81
309.666	97.61
310.121	157.06
310.576	135.47
311.031	124.21
311.486	123.91
311.94	64.93
312.395	95.07
312.85	115.53
313.305	-372.51
313.759	3271.85
314.214	111.24
314.668	310.54
315.123	297.04
315.577	153.47
316.032	188.64
316.486	182.25
316.94	205.04
317.394	163.8
317.849	157.47
318.303	162.3
318.757	148.14
319.211	178.92
319.665	145.75
320.119	149.6
320.572	180.36
321.026	176.69
321.48	178.7
321.934	145.63
322.387	128.14
322.841	129.09
323.295	179.23
323.748	156.86
324.202	163.3
324.655	208.03
325.108	333.9
325.562	258.71
326.015	266.67
326.468	206.52
326.921	284.63
327.374	324.99
327.827	385.03
328.28	391.03
328.733	304.6
329.186	257.42
329.639	254.53
330.092	193.84
330.545	191.45
330.997	210.14
331.45	255.75
331.903	313.83
332.355	441.56
332.808	354.82
333.26	260.28
333.713	279.99
334.165	254.43
334.617	246.22
335.069	153.45
335.522	183.35
335.974	156.34
336.426	6.12
336.878	-121.44
337.33	-19.11
337.782	-13
338.234	49.67
338.686	31.08
339.137	74.29
339.589	113.95
340.041	122.51
340.493	106
340.944	105.03
341.396	137.7
341.847	150.91
342.299	209.89
342.75	297.01
343.201	186.07
343.653	230.69
344.104	238.18
344.555	173.45
345.006	112.02
345.457	226.85
345.908	175.47
346.359	196.89
346.81	159.72
347.261	124.09
347.712	96.36
348.163	76.47
348.613	117.19
349.064	143.71
349.515	140.5
349.965	177.17
350.416	158.86
350.866	161.29
351.317	112.81
351.767	214.67
352.217	293.65
352.668	246.99
353.118	326.59
353.568	209.77
354.018	180.2
354.468	176.95
354.918	171.97
355.368	151.71
355.818	220.69
356.268	631.39
356.718	3047.52
357.168	790.24
357.617	435.13
358.067	419.1
358.517	377.23
358.966	512.56
359.416	658.9
359.865	610.97
360.315	617.8
360.764	293.97
361.213	183.39
361.663	126.86
362.112	127.9
362.561	159.95
363.01	112.38
363.459	108.57
363.908	82.02
364.357	115.33
364.806	170.33
365.255	118.14
365.703	158.38
366.152	171.59
366.601	146.53
367.05	137.93
367.498	159.62
367.947	146.11
368.395	118.42
368.844	105.18
369.292	34.26
369.74	52.8
370.189	76.44
370.637	62.58
371.085	30.75
371.533	28.72
371.981	-0.79
372.429	-2.38
372.877	16.36
373.325	52.54
373.773	34.85
374.221	58.98
374.669	70.22
375.116	60.8
375.564	52.02
376.012	66.77
376.459	77.88
376.907	85.69
377.354	82.66
377.801	141.64
378.249	197.62
378.696	257.6
379.143	308.31
379.591	219.9
380.038	316.02
380.485	259.97
380.932	279.62
381.379	394.86
381.826	426.16
382.273	290.6
382.72	201.37
383.166	184.75
383.613	126.15
384.06	130.5
384.506	179.4
384.953	141.87
385.4	142.31
385.846	126.7
386.292	105.01
386.739	83.75
387.185	77.52
387.631	84
388.078	107.68
388.524	115.63
388.97	98.68
389.416	98
389.862	112.44
390.308	107.15
390.754	118.3
391.2	124.09
391.645	124.45
392.091	161.81
392.537	170.31
392.983	152.22
393.428	184.04
393.874	206.01
394.319	223.68
394.765	248.89
395.21	269.83
395.655	269.03
396.101	273.33
396.546	270.16
396.991	267.48
397.436	266.02
397.881	277.63
398.326	266.82
398.771	280.98
399.216	258.75
399.661	243.93
400.106	265.43
400.551	293.3
400.995	275.07
401.44	285.14
401.885	278.64
402.329	289.61
402.774	288.53
403.218	303.59
403.663	301.4
404.107	323.51
404.551	339.51
404.995	319.35
405.44	317.16
405.884	334.49
406.328	330.61
406.772	342.85
407.216	323.92
407.66	324.1
408.104	311.29
408.547	302.71
408.991	301.31
409.435	299.15
409.879	306.37
410.322	311.02
410.766	310.02
411.209	307.96
411.653	306.61
412.096	313.16
412.54	320.22
412.983	327.55
413.426	339.51
413.869	346.24
414.312	347.73
414.756	342.64
415.199	332.5
415.642	330.64
416.085	337.62
416.527	340.02
416.97	347.88
417.413	337.11
417.856	337.37
418.298	336.48
418.741	334.67
419.184	331.1
419.626	341.79
420.069	344.46
420.511	346.29
420.953	344.63
421.396	344.85
421.838	338.11
422.28	347.79
422.722	354.24
423.164	363.04
423.606	362.63
424.048	370.22
424.49	360.33
424.932	362.46
425.374	361.68
425.816	365.29
426.258	369.78
426.699	371.16
427.141	363.71
427.582	358.63
428.024	350.08
428.465	347.81
428.907	342.22
429.348	341.81
429.789	350.1
430.231	350.91
430.672	361.33
431.113	360.74
431.554	368.65
431.995	370.12
432.436	377.25
432.877	382.91
433.318	390.24
433.759	395.73
434.2	401.96
434.64	402.64
435.081	407.22
435.522	393.72
435.962	386.98
436.403	385.03
436.843	397.58
437.284	390.59
437.724	383.35
438.164	385.18
438.604	381.62
439.045	372.8
439.485	364.93
439.925	363.24
440.365	360.65
440.805	358.86
441.245	359.77
441.685	348.64
442.125	348.06
442.564	352.51
443.004	345.77
443.444	344.94
443.883	346.3
444.323	342.27
444.762	342.85
445.202	348.82
445.641	359.71
446.081	356.79
446.52	363.54
446.959	364.68
447.398	362.48
447.837	363.41
448.276	361.7
448.716	370.1
449.154	372.81
449.593	365.93
450.032	363.7
450.471	355.81
450.91	356.48
451.349	355.2
451.787	352.06
452.226	353.87
452.664	351.22
453.103	350.39
453.541	347.47
453.98	349.49
454.418	352.78
454.856	347.71
455.295	345.55
455.733	347.92
456.171	348.8
456.609	349.45
457.047	349.19
457.485	355.13
457.923	355.97
458.361	350.06
458.798	349.82
459.236	348.89
459.674	352.02
460.111	355.68
460.549	353.34
460.987	351.47
461.424	350.84
461.862	349.8
462.299	345.24
462.736	346.94
463.173	349.99
463.611	349.81
464.048	349.69
464.485	352.9
464.922	351.73
465.359	351.4
465.796	354.51
466.233	355.31
466.67	355.68
467.106	357.81
467.543	356.05
467.98	353.72
468.416	346.96
468.853	348.72
469.29	342.36
469.726	341.99
470.162	335.77
470.599	330.64
471.035	330.12
471.471	325.84
471.907	326.55
472.344	327.36
472.78	331.78
473.216	336.98
473.652	333.79
474.088	333.49
474.523	333.74
474.959	339
475.395	338.04
475.831	336.85
476.266	337.64
476.702	337.55
477.138	334.27
477.573	333.02
478.008	332.19
478.444	332.93
478.879	336.37
479.314	336.35
479.75	335.36
480.185	335.56
480.62	336.5
481.055	336.95
481.49	336.54
481.925	338.29
482.36	339.63
482.795	341.47
483.229	342.99
483.664	342.17
484.099	337.22
484.534	337.11
484.968	335.68
485.403	332.82
485.837	328
486.271	324.66
486.706	323.17
487.14	319.09
487.574	316.88
488.009	316.86
488.443	315.5
488.877	319.42
489.311	319.06
489.745	321.4
490.179	323.2
490.613	329.61
491.046	331.13
491.48	332.33
491.914	332.4
492.348	333.47
492.781	334.15
493.215	334.89
493.648	334.78
494.082	337.79
494.515	338.14
494.948	341.7
495.382	341.99
495.815	342.86
496.248	343.74
496.681	347.06
497.114	349.13
497.547	351.25
497.98	354.09
498.413	354.66
498.846	355.43
499.279	356.43
499.711	355.84
500.144	354.12
500.577	356.45
501.009	358.79
501.442	360.85
501.874	361
502.306	361.35
502.739	366.36
503.171	372.48
503.603	374.87
504.036	378.32
504.468	379.55
504.9	384.25
505.332	387.07
505.764	389.31
506.196	391.83
506.627	396.81
507.059	401.19
507.491	401.44
507.923	399.6
508.354	405.09
508.786	409.29
509.217	416.32
509.649	421.57
510.08	427.63
510.512	432.41
510.943	437.1
511.374	440.11
511.805	446.21
512.237	452.38
512.668	463.06
513.099	469.26
513.53	474.4
513.961	476.94
514.391	483.69
514.822	492.37
515.253	501.69
515.684	508.14
516.114	517.53
516.545	525.19
516.975	535.17
517.406	542.04
517.836	545.71
518.267	553.03
518.697	566.35
519.127	573.33
519.558	580.28
519.988	585.66
520.418	593.12
520.848	603.84
521.278	611.26
521.708	634.88
522.138	644.35
522.567	658.98
522.997	670.29
523.427	674.02
523.857	678.92
524.286	681.62
524.716	688.21
525.145	697.46
525.575	703.02
526.004	710.32
526.433	696.72
526.863	696.64
527.292	695.24
527.721	701.66
528.15	710.67
528.579	717.91
529.008	727.49
529.437	738.9
529.866	744.58
530.295	751.4
530.724	755.57
531.152	765.41
531.581	771.18
532.01	777.38
532.438	778.82
532.867	783.9
533.295	789.76
533.723	791.43
534.152	790.27
534.58	791.01
535.008	785.32
535.436	787.21
535.865	790.42
536.293	794.48
536.721	798.13
537.149	805.37
537.576	801.33
538.004	803.13
538.432	803.96
538.86	802.58
539.287	804.39
539.715	808.57
540.143	807.89
540.57	806.06
540.998	805.8
541.425	800.23
541.852	794.23
542.28	797.69
542.707	794.62
543.134	792.24
543.561	793.53
543.988	793.58
544.415	796.07
544.842	795.44
545.269	793.97
545.696	797.76
546.123	804.57
546.549	803.4
546.976	799.43
547.403	801.05
547.829	802.87
548.256	805.17
548.682	805.42
549.108	803.33
549.535	805.75
549.961	808.46
550.387	802.95
550.813	802.59
551.24	806.08
551.666	808.49
552.092	805.46
552.518	803.77
552.943	802.46
553.369	805.47
553.795	807.46
554.221	806.6
554.646	803.18
555.072	807.09
555.498	804.74
555.923	804.68
556.349	806.07
556.774	804.57
557.199	800.62
557.625	798.03
558.05	791.7
558.475	794
558.9	791.02
559.325	786.78
559.75	781.26
560.175	777.48
560.6	773.39
561.025	771.04
561.449	771.4
561.874	771.47
562.299	771
562.723	770.44
563.148	761.74
563.572	758.37
563.997	758.14
564.421	756.91
564.846	752.6
565.27	749.99
565.694	744.43
566.118	744.35
566.542	744.13
566.966	737.31
567.39	731
567.814	722.55
568.238	719.26
568.662	716.62
569.086	713.69
569.509	714.6
569.933	707.96
570.357	704.66
570.78	695.45
571.204	689.76
571.627	685.25
572.05	685.03
572.474	685.07
572.897	680.67
573.32	678.62
573.743	674.26
574.166	666.35
574.589	663.79
575.012	659.19
575.435	656.35
575.858	651.14
576.281	645.97
576.704	638.5
577.126	633.74
577.549	628.6
577.972	623.47
578.394	620.02
578.817	617.99
579.239	611.98
579.661	608
580.084	604.51
580.506	601.74
580.928	601.59
581.35	599.43
581.772	598.46
582.194	592.87
582.616	587.65
583.038	580.73
583.46	574.52
583.882	571.71
584.303	570.7
584.725	565.69
585.147	563.79
585.568	562.12
585.99	558.85
586.411	553.51
586.833	552.31
587.254	546.86
587.675	546.34
588.096	545.86
588.518	539.55
588.939	530.46
589.36	526.47
589.781	517.28
590.202	508.86
590.623	507.3
591.043	507.81
591.464	504.98
591.885	504.74
592.305	502.96
592.726	497.93
593.147	498.24
593.567	496.26
593.987	493.41
594.408	491.66
594.828	488.23
595.248	486.02
595.669	480.34
596.089	477.45
596.509	474.86
596.929	469.81
597.349	469.56
597.769	465.15
598.189	461.62
598.608	460.26
599.028	459.59
599.448	459.35
599.867	454.28
600.287	450.79
600.706	449.57
601.126	446.37
601.545	446.36
601.965	446.16
602.384	444.06
602.803	444.35
603.222	443.21
603.641	440.68
604.061	438.64
604.48	435.76
604.898	437.97
605.317	437.24
605.736	435.99
606.155	433.4
606.574	428.18
606.992	427.33
607.411	423.75
607.829	417.84
608.248	414.6
608.666	411.39
609.085	409.72
609.503	404.62
609.921	402.14
610.339	400.62
610.758	397.55
611.176	394.51
611.594	390.84
612.012	388.59
612.43	389.35
612.847	389.25
613.265	388
613.683	386.46
614.101	385.61
614.518	382.33
614.936	377.47
615.353	372.73
615.771	371.87
616.188	370.96
616.606	368.87
617.023	366.31
617.44	362.71
617.857	360.4
618.274	358.05
618.691	356.28
619.108	353.08
619.525	351.21
619.942	352.25
620.359	350.78
620.776	347.53
621.192	345.78
621.609	343.07
622.026	342.96
622.442	343.04
622.859	342.29
623.275	338.28
623.691	338.15
624.108	340.38
624.524	342.14
624.94	340.18
625.356	341.38
625.772	343.03
626.188	343.93
626.604	343.02
627.02	339.85
627.436	338.36
627.852	339.77
628.268	341.07
628.683	336.13
629.099	333.76
629.514	331.71
629.93	332.05
630.345	332.11
630.761	329.83
631.176	330.14
631.591	330.7
632.007	329.83
632.422	327.95
632.837	325.22
633.252	325.74
633.667	322.25
634.082	320.73
634.497	318.11
634.911	314.46
635.326	315.45
635.741	312.32
636.155	309.01
636.57	309.72
636.984	309.83
637.399	310.79
637.813	310.24
638.228	309.68
638.642	309.95
639.056	306.98
639.47	306.37
639.884	303.6
640.298	301.02
640.712	300.83
641.126	297.26
641.54	295.01
641.954	292.36
642.368	288.99
642.781	289.77
643.195	285.73
643.609	285.59
644.022	283.71
644.436	281.93
644.849	277.43
645.262	272.71
645.676	271.02
646.089	268.66
646.502	265.43
646.915	263.23
647.328	258
647.741	256.99
648.154	253.81
648.567	254.13
648.98	251.66
649.393	252.02
649.805	252.59
650.218	252.19
650.631	249.99
651.043	249.1
651.456	248.94
651.868	247.21
652.28	249.87
652.693	251.21
653.105	249
653.517	247.41
653.929	245.14
654.341	243.84
654.753	239.41
655.165	239.1
655.577	237.75
655.989	236.48
656.401	234.75
656.813	228.96
657.224	226.11
657.636	222.05
658.047	223.01
658.459	222.49
658.87	221.73
659.282	221.51
659.693	218.16
660.104	216.13
660.515	213.45
660.926	213.72
661.338	214.15
661.749	212.91
662.159	211.97
662.57	210.77
662.981	209.82
663.392	209.43
663.803	210.75
664.213	211.06
664.624	209.81
665.035	211.11
665.445	208.26
665.855	206.64
666.266	205.8
666.676	205.71
667.086	203.14
667.497	202.56
667.907	201.03
668.317	197.82
668.727	199.12
669.137	198.83
669.547	197.44
669.956	197.4
670.366	197.27
670.776	197.58
671.186	198.25
671.595	198.64
672.005	199.19
672.414	198.67
672.824	198.17
673.233	195.92
673.642	195.56
674.052	196.75
674.461	197.91
674.87	197.96
675.279	197.02
675.688	195.31
676.097	195.61
676.506	194.34
676.915	196.98
677.323	196.23
677.732	194.65
678.141	193.52
678.549	189.04
678.958	186.68
679.366	184.85
679.775	183.87
680.183	187.06
680.592	186.53
681	186.53
681.408	183.63
681.816	184.5
682.224	184.84
682.632	187.21
683.04	192.38
683.448	194.91
683.856	198.81
684.264	202.07
684.671	201.9
685.079	203.24
685.487	205.84
685.894	210.9
686.302	213.86
686.709	216.82
687.116	218.33
687.524	220.89
687.931	224.49
688.338	226.25
688.745	228.31
689.152	230.32
689.559	236.27
689.966	242.36
690.373	243.9
690.78	247.66
691.187	253.3
691.593	258.04
692	259.67
692.407	265.02
692.813	274.91
693.22	280.84
693.626	288.08
694.032	294.45
694.439	303.84
694.845	311.68
695.251	322.43
695.657	333.58
696.063	347.38
696.469	357.65
696.875	366.13
697.281	369.47
697.687	374.9
698.093	379.43
698.498	387.95
698.904	394.3
699.31	404.77
699.715	414.42
700.12	425.23
700.526	429.14
700.931	441.11
701.337	452.24
701.742	460.59
702.147	476.43
702.552	484.92
702.957	497.99
703.362	503.46
703.767	511.67
704.172	519.65
704.577	515.58
704.981	524.13
705.386	529.86
705.791	531.13
706.195	545.3
706.6	548.66
707.004	562.13
707.408	558.95
707.813	567.97
708.217	569.36
708.621	571.53
709.025	591.01
709.43	596.24
709.834	608.54
710.237	620.59
710.641	618.34
711.045	624.8
711.449	627.23
711.853	636.18
712.256	641.97
712.66	648.29
713.064	659.55
713.467	662.05
713.87	670.88
714.274	667.16
714.677	672.25
715.08	683.04
715.484	690.33
715.887	703.18
716.29	708.25
716.693	716.52
717.096	726.88
717.499	727.72
717.901	718.59
718.304	720.69
718.707	728.65
719.109	726.21
719.512	733.87
719.915	732.43
720.317	734.87
720.719	750.04
721.122	753.54
721.524	755.07
721.926	756.9
722.328	773.82
722.731	768.48
723.133	767.84
723.535	787.24
723.937	783.93
724.338	783.34
724.74	784.77
725.142	817.64
725.544	822.04
725.945	837.22
726.347	835.67
726.748	837.47
727.15	844.14
727.551	844.01
727.952	841.81
728.354	837.53
728.755	842.88
729.156	841.54
729.557	806.94
729.958	794.63
730.359	786.92
730.76	794.75
731.161	795.89
731.562	801.89
731.962	809.82
732.363	810.66
732.763	811.85
733.164	821.63
733.564	818.41
733.965	808.19
734.365	807.2
734.766	814.87
735.166	810.24
735.566	803.12
735.966	799.26
736.366	798.54
736.766	790.34
737.166	795.24
737.566	790.7
737.966	787.59
738.365	795.95
738.765	796.58
739.165	783.8
739.564	779.11
739.964	787.55
740.363	781.89
740.763	783.41
741.162	783.15
741.561	778.24
741.96	771.59
742.36	775.15
742.759	778.11
743.158	783.76
743.557	787.87
743.955	795.86
744.354	788.44
744.753	796.33
745.152	790.62
745.55	797.94
745.949	797.75
746.348	798.06
746.746	798.82
747.144	790.68
747.543	785.69
747.941	792.18
748.339	778.91
748.737	775.72
749.136	773.67
749.534	781.09
749.932	775.58
750.33	776.69
750.727	783.7
751.125	779.57
751.523	774.85
751.921	783.8
752.318	777.01
752.716	788.06
753.113	788.68
753.511	791.49
753.908	790.94
754.305	790.72
754.703	800.46
755.1	809.21
755.497	815.25
755.894	838.73
756.291	849.22
756.688	872.17
757.085	890.1
757.482	918.59
757.878	939.25
758.275	939.01
758.672	949.7
759.068	943.69
759.465	952.56
759.861	970.47
760.258	989.38
760.654	965.39
761.05	915.82
761.447	870.84
761.843	834.62
762.239	807.49
762.635	814.15
763.031	819.43
763.427	809.6
763.822	797.47
764.218	787.07
764.614	760.51
765.01	750.23
765.405	753.2
765.801	764.05
766.196	761.04
766.592	766.96
766.987	757.61
767.382	754.21
767.778	760.17
768.173	757.46
768.568	759.29
768.963	750.5
769.358	760.63
769.753	760.98
770.148	752.31
770.542	753
770.937	750.72
771.332	764.43
771.726	765.4
772.121	758.94
772.515	766.34
772.91	764.2
773.304	773.59
773.699	763.01
774.093	766.8
774.487	771.76
774.881	777.21
775.275	774.62
775.669	764.17
776.063	768.77
776.457	770.59
776.851	757.79
777.245	753.83
777.638	754.98
778.032	768.35
778.425	763.35
778.819	771.18
779.212	765.94
779.606	760.81
779.999	761.92
780.392	758.83
780.786	764.85
781.179	765.56
781.572	767.99
781.965	767.38
782.358	755.86
782.751	759.52
783.143	746.22
783.536	748.26
783.929	746.19
784.322	755.71
784.714	753.65
785.107	750.38
785.499	753.86
785.891	747.86
786.284	739.12
786.676	750.48
787.068	743.34
787.46	744.04
787.852	739.3
788.245	742.18
788.636	737.74
789.028	742.16
789.42	741.52
789.812	739.28
790.204	745.18
790.595	753.67
790.987	729.05
791.378	725.98
791.77	734.01
792.161	747.5
792.553	753.41
792.944	738.95
793.335	724.77
793.726	726.8
794.117	732.46
794.508	741.53
794.899	733.08
795.29	742.28
795.681	744.49
796.072	727.74
796.463	722.51
796.853	721.67
797.244	735.91
797.634	737.33
798.025	734.38
798.415	727.46
798.806	734.42
799.196	738.84
799.586	740.88
799.976	733.07
800.366	748.17
800.756	744.42
801.146	731.25
801.536	729.17
801.926	728.79
802.316	728.32
802.706	731.81
803.095	714.66
803.485	719.11
803.874	716.21
804.264	735.72
804.653	732.91
805.043	746.92
805.432	755.2
805.821	750.3
806.21	748.41
806.599	749.74
806.988	749.25
807.377	747.35
807.766	749.94
808.155	764.57
808.544	730.58
808.933	720.59
809.321	709.58
809.71	718.79
810.098	719.65
810.487	738.26
810.875	758.38
811.264	739.34
811.652	753.92
812.04	743.47
812.428	737.44
812.816	761.46
813.204	764.64
813.592	766.44
813.98	761.92
814.368	736.71
814.756	744.02
815.144	722.69
815.531	736.94
815.919	710.46
816.306	715.79
816.694	689.86
817.081	694.99
817.469	712.89
817.856	713.14
818.243	728.83
818.63	746.38
819.017	732.32
819.404	735.41
819.791	742.44
820.178	756.89
820.565	761.76
820.952	807.68
821.339	778.81
821.725	782
822.112	744.55
822.498	738.44
822.885	734.07
823.271	718.63
823.657	729.51
824.044	736.62
824.43	746.63
824.816	753.6
825.202	729.4
825.588	770.19
825.974	765.6
826.36	779.17
826.746	769.59
827.132	777.75
827.517	772.96
827.903	735.27
828.289	734.3
828.674	696.54
829.06	681.46
829.445	687.84
829.83	692.42
830.216	704.21
830.601	714.2
830.986	704.12
831.371	696.92
831.756	717.33
832.141	705.3
832.526	699.43
832.911	708.02
833.295	699.93
833.68	721.57
834.065	701.27
834.449	661.28
834.834	659.5
835.218	655.93
835.603	669.27
835.987	654.79
836.371	681.68
836.755	677.26
837.139	686.71
837.524	690.91
837.908	677.3
838.291	681.14
838.675	682.2
839.059	686.88
839.443	676.48
839.827	662.08
840.21	674.12
840.594	665.79
840.977	667.12
841.361	665.56
841.744	678.29
842.127	673.28
842.511	673.62
842.894	691.22
843.277	700.64
843.66	715.16
844.043	718.17
844.426	692.27
844.809	670.79
845.191	670.48
845.574	653.11
845.957	638.67
846.339	631.36
846.722	607.47
847.104	601.6
847.487	588.67
847.869	586.59
848.252	589.8
848.634	596.13
849.016	601.17
849.398	594.14
849.78	611.93
850.162	605.68
850.544	611.96
850.926	626.26
851.307	616.89
851.689	620.83
852.071	622.55
852.452	628.27
852.834	618.81
853.215	630.22
853.597	631.51
853.978	644.62
854.359	655.24
854.741	625.08
855.122	619.14
855.503	612.01
855.884	615.81
856.265	619.36
856.646	618.88
857.026	612.57
857.407	609.98
857.788	616.21
858.169	612.96
858.549	593.42
858.93	612.59
859.31	616.34
859.69	625.41
860.071	612.26
860.451	603.24
860.831	577.74
861.211	600.66
861.591	606.41
861.971	599.39
862.351	602.55
862.731	595.52
863.111	588.3
863.491	588.27
863.87	601.17
864.25	597.37
864.629	585.95
865.009	592.51
865.388	609.85
865.768	647.51
866.147	641.5
866.526	606.18
866.905	618.74
867.284	648.47
867.663	615.26
868.042	595.47
868.421	595.2
868.8	592.21
869.179	605.02
869.558	567.53
869.936	528.61
870.315	531.88
870.693	544.46
871.072	576.84
871.45	544.56
871.828	553.61
872.207	572.62
872.585	566.04
872.963	580.08
873.341	563.48
873.719	562.53
874.097	548.8
874.475	559.51
874.853	563.82
875.23	544.05
875.608	572.21
875.986	611.65
876.363	583.64
876.741	609.6
877.118	605.81
877.495	626.8
877.873	630.43
878.25	656.79
878.627	626.78
879.004	635.28
879.381	625.76
879.758	614.19
880.135	568.54
880.512	598.87
880.889	569.3
881.265	554.83
881.642	539.78
882.019	543.28
882.395	540.59
882.772	565
883.148	542.72
883.524	540.86
883.901	523.89
884.277	525.08
884.653	517.49
885.029	532.06
885.405	592.55
885.781	589.18
886.157	564.75
886.532	560.03
886.908	551.63
887.284	607.31
887.659	624.16
888.035	643.77
888.411	656.12
888.786	664.23
889.161	684.5
889.537	653.86
889.912	669.86
890.287	668.18
890.662	679.98
891.037	660.32
891.412	607.27
891.787	589.59
892.162	564.14
892.536	573.52
892.911	546.08
893.286	519.47
893.66	494.05
894.035	495.95
894.409	516.82
894.784	490.29
895.158	486.53
895.532	506.63
895.906	508.69
896.281	510.22
896.655	492.28
897.029	545.47
897.402	555.28
897.776	597.77
898.15	587.58
898.524	575.64
898.898	568.12
899.271	630.2
899.645	537.68
900.018	516.12
900.392	535.82
900.765	542.51
901.138	501.98
901.511	498.36
901.884	483.08
902.258	449.03
902.631	480.4
903.003	551.72
903.376	502.65
903.749	573.43
904.122	606.13
904.495	653.64
904.867	649.08
905.24	568.98
905.612	524.5
905.985	501.08
906.357	515.36
906.729	477.77
907.102	412.08
907.474	396.75
907.846	398.64
908.218	398.74
908.59	362.15
908.962	350.01
909.334	373.26
909.705	393.22
910.077	386.25
910.449	401.78
910.82	419.18
911.192	456.02
911.563	476.13
911.935	488.88
912.306	468.05
912.677	472.71
913.048	480.25
913.419	505.76
913.79	501.03
914.161	545.65
914.532	521.7
914.903	468.24
915.274	437.36
915.645	429.36
916.015	375.69
916.386	373.21
916.756	398.75
917.127	391.82
917.497	362.93
917.868	399.48
918.238	376.06
918.608	384.45
918.978	393.46
919.348	415.31
919.718	426.33
920.088	425.9
920.458	447.16
920.828	465.59
921.198	463.21
921.567	487.69
921.937	377.68
922.306	374.86
922.676	407.8
923.045	363.23
923.415	356.28
923.784	334.61
924.153	353.13
924.522	362.09
924.891	333.99
925.26	350.74
925.629	337.53
925.998	377.43
926.367	373.88
926.736	370.65
927.104	398.04
927.473	407.35
927.842	442.3
928.21	400.43
928.578	363.67
928.947	344.35
929.315	334.72
929.683	403.66
930.051	382.68
930.42	421.28
930.788	325.47
931.156	330.6
931.523	323.14
931.891	314.38
932.259	319.03
932.627	394.81
932.994	533.05
933.362	453.63
933.729	358.66
934.097	357.56
934.464	304.04
934.831	324.24
935.199	304.14
935.566	278.38
935.933	323.92
936.3	370.07
936.667	288.83
937.034	344.6
937.401	324.44
937.767	293.86
938.134	260.12
938.501	362.39
938.867	423.84
939.234	695.64
939.6	580.23
939.967	512.38
940.333	383.47
940.699	299.09
941.065	150.57
941.431	225.64
941.798	271.76
942.163	419.46
942.529	262.1
942.895	225.29
943.261	164.03
943.627	226.18
943.992	212.51
944.358	194.33
944.723	236.96
945.089	231.99
945.454	213.68
945.82	190.41
946.185	146.16
946.55	182.07
946.915	172.41
947.28	196.6
947.645	178.07
948.01	195.41
948.375	217.29
948.74	216.81
949.104	257.94
949.469	273.03
949.834	552.53
950.198	694.7
950.562	416.2
950.927	326.31
951.291	368
951.655	310.73
952.02	227.32
952.384	178.13
952.748	186.44
953.112	228.37
953.476	233.75
953.839	195.32
954.203	201.5
954.567	226.16
954.931	318.8
955.294	307.31
955.658	302.92
956.021	558.11
956.385	841.37
956.748	1169.88
957.111	1414.21
957.474	1346.96
957.837	1491.36
958.2	900.46
958.563	357.07
958.926	278.79
959.289	400.66
959.652	496.94
960.015	371.69
960.377	542.28
960.74	671.58
961.102	1117.6
961.465	1459.42
961.827	1307.26
962.189	2494.57
962.552	1816.23
962.914	1469.48
963.276	943.48
963.638	763.76
964	702.79
964.362	500.88
964.724	466.04
965.085	353.85
965.447	282.91
965.809	213.49
966.17	200.09
966.532	198.25
966.893	197.48
967.255	175.51
967.616	188.78
967.977	183.36
968.338	194.99
968.699	176.31
969.061	167.42
969.421	179.74
969.782	198.16
970.143	187.16
970.504	244.85
970.865	278.48
971.225	305.69
971.586	316.18
971.946	390.53
972.307	340.7
972.667	407.03
973.027	442.49
973.388	496.13
973.748	369.04
974.108	392.04
974.468	389.86
974.828	360.81
975.188	251.69
975.548	218.75
975.907	212.84
976.267	223.47
976.627	225.32
976.986	217.92
977.346	198.03
977.705	176.83
978.064	165.59
978.424	154.49
978.783	114.12
979.142	143.06
979.501	155.15
979.86	169.7
980.219	165.81
980.578	167.39
980.937	153.12
981.296	151.17
981.654	150.25
982.013	235.52
982.371	337.18
982.73	359.74
983.088	393.53
983.447	418.04
983.805	627.81
984.163	1279.1
984.521	1453.85
984.879	2179.92
985.237	-3653.25
985.595	4217.86
985.953	971.71
986.311	487.37
986.669	281.32
987.026	234.9
987.384	247.29
987.741	199.73
988.099	204.85
988.456	197.09
988.814	236.04
989.171	218.6
989.528	165.78
989.885	147.61
990.242	148.38
990.599	162.04
990.956	137.17
991.313	119.94
991.67	103.7
992.027	156.82
992.383	133.52
992.74	118.23
993.096	128.04
993.453	139.78
993.809	147.69
994.165	182.34
994.522	232.33
994.878	259.42
995.234	312.92
995.59	317.1
995.946	204.39
996.302	249.69
996.658	265.23
997.013	250.05
997.369	324.33
997.725	452.88
998.08	273.1
998.436	216.08
998.791	259.71
999.147	255.91
999.502	312.37
999.857	242.5
1000.212	347.02
1000.567	556.15
1000.922	432.32
1001.277	250.36
1001.632	186.19
1001.987	265.72
1002.342	237.74
1002.696	221.67
1003.051	206.55
1003.406	248.8
1003.76	239.41
1004.114	239.73
1004.469	221.02
1004.823	179.63
1005.177	185
1005.531	163.92
1005.885	161.19
1006.239	198.52
1006.593	266.18
1006.947	364.19
1007.301	262.05
1007.655	289.79
1008.008	220.07
1008.362	233.77
1008.715	314.34
1009.069	292.23
1009.422	490.05
1009.776	946.08
1010.129	563.78
1010.482	394.2
1010.835	278.65
1011.188	566.73
1011.541	530.3
1011.894	-3119.37
1012.247	10428.62
1012.6	744.29
1012.952	534.13
1013.305	209.08
1013.657	185.32
1014.01	184.94
1014.362	151.41
1014.715	193.47
1015.067	187.41
1015.419	187.78
1015.771	171.96
1016.123	163.95
1016.475	178.53
1016.827	189.71
1017.179	228.65
1017.531	202.49
1017.883	193.73
1018.234	259.72
1018.586	308.45
1018.938	365.53
1019.289	497.24
1019.64	522.96
1019.992	440.28
1020.343	385.82
1020.694	336.12
1021.045	282.2
1021.396	313.62
1021.747	379.37
1022.098	333.06
1022.449	226.21
1022.8	184.17
1023.151	145.6
1023.501	161.57
1023.852	179.08
1024.202	191.97
1024.553	195
1024.903	231.64
1025.253	246.05
1025.604	227.74
1025.954	294.13
1026.304	324.4
1026.654	386.54
1027.004	533.82
1027.354	827.53
1027.703	861.24
1028.053	1109.79
1028.403	1737.49
1028.753	2070.25
1029.102	2022.75
1029.452	7608.66
1029.801	249.4
1030.15	195.55
1030.499	102.92
897.758	1933.39
901.051	1860.47
904.343	1891.74
907.636	1900.8
910.928	1958.43
914.22	1886.15
917.511	1889.9
920.803	1931.71
924.094	1919.42
927.384	1928.4
930.675	1890.27
933.965	1858.25
937.255	1893.84
940.544	1869.09
943.834	1854.25
947.123	1801.83
950.411	1881.4
953.7	1866.18
956.988	1856.62
960.276	1792.56
963.563	1828.99
966.851	1843.6
970.138	1876.78
973.424	1877.93
976.711	1829.81
979.997	1877.77
983.283	1912.58
986.568	1854.3
989.853	1837.48
993.138	1857.01
996.423	1940.28
999.708	1906.49
1002.992	1931.09
1006.275	1847.41
1009.559	1849.84
1012.842	1937.25
1016.125	1896.71
1019.408	1879.06
1022.69	1921.45
1025.972	1954.66
1029.254	1933.59
1032.536	1907.31
1035.817	1905.38
1039.098	1880.16
1042.379	1922.1
1045.659	1943.7
1048.939	1899.04
1052.219	1900.59
1055.498	1886.5
1058.778	1883.5
1062.057	1859.04
1065.335	1879.67
1068.614	1885.96
1071.892	1887.71
1075.17	1925.61
1078.447	1932.56
1081.724	1927.06
1085.001	1943.59
1088.278	1924.61
1091.554	1927.36
1094.83	1920.84
1098.106	1953.49
1101.382	1975.74
1104.657	1972.14
1107.932	1971.6
1111.206	1955.38
1114.481	1910.2
1117.755	1909.57
1121.029	1907.04
1124.302	1962.15
1127.575	1934.75
1130.848	1935.46
1134.121	1909.02
1137.393	1878.66
1140.665	1927.09
1143.937	1908.53
1147.208	1856.93
1150.48	1913.44
1153.75	1904.77
1157.021	1894.9
1160.291	1874.88
1163.561	1923.88
1166.831	1889.95
1170.101	1912.26
1173.37	1868.43
1176.639	1836.06
1179.907	1871.49
1183.176	1896.83
1186.444	1896.34
1189.711	1915.64
1192.979	1944.73
1196.246	1905.03
1199.513	1914.85
1202.78	1919.78
1206.046	1927.83
1209.312	1958.15
1212.578	1969.05
1215.843	1944.52
1219.108	1915.91
1222.373	1937.73
1225.638	1917.09
1228.902	1911.98
1232.166	1873.04
1235.43	1864.69
1238.693	1891.51
1241.956	1882.29
1245.219	1930.51
1248.482	1913.02
1251.744	1910.7
1255.006	2012.74
1258.268	1961.11
1261.529	1926.81
1264.79	1922.58
1268.051	2004.78
1271.312	2012.27
1274.572	1985.49
1277.832	1973.25
1281.092	1950.81
1284.351	1946.89
1287.61	1936.22
1290.869	1882.32
1294.128	1885.47
1297.386	1913.25
1300.644	1909
1303.902	1920.98
1307.159	1805.97
1310.416	1848.52
1313.673	1874.78
1316.93	1877.41
1320.186	1900.57
1323.442	1927.26
1326.697	1934.03
1329.953	1908.04
1333.208	1948.39
1336.463	1922.23
1339.717	1893.03
1342.972	1984.86
1346.226	1962.04
1349.479	1924.25
1352.733	1909.22
1355.986	1912.05
1359.238	1897.56
1362.491	1903.06
1365.743	1904.2
1368.995	1898.03
1372.247	1914.7
1375.498	1931.99
1378.749	1978.62
1382	1935.27
1385.251	1963.78
1388.501	1922.77
1391.751	1931.02
1395	1900.51
1398.25	1924.69
1401.499	1954.08
1404.748	1913.84
1407.996	1894.04
1411.244	1886.98
1414.492	1875.14
1417.74	1863.89
1420.987	1867.78
1424.234	1923.16
1427.481	1884.1
1430.728	1937.57
1433.974	1913.25
1437.22	1906.65
1440.465	1903.49
1443.711	1911.91
1446.956	1927.58
1450.201	1895.98
1453.445	1933.94
1456.689	1926.44
1459.933	1932.53
1463.177	1968.96
1466.42	1943.9
1469.663	1928.68
1472.906	1946.94
1476.148	1983.45
1479.391	1943.3
1482.633	1923.86
1485.874	1949.16
1489.115	1957.69
1492.356	1934.1
1495.597	1916.69
1498.838	1906.48
1502.078	1896.51
1505.318	1875.71
1508.557	1900.64
1511.797	1898.34
1515.036	1945.05
1518.274	1910.67
1521.513	1858.28
1524.751	1865.46
1527.989	1887.13
1531.227	1902.71
1534.464	1918.17
1537.701	1905.64
1540.938	1912.33
1544.174	1862.66
1547.41	1849.76
1550.646	1883.64
1553.882	1928.77
1557.117	1982.75
1560.352	1983.47
1563.587	1950.94
1566.821	1922.74
1570.055	1930.63
1573.289	1912.08
1576.523	1955.91
1579.756	1973.16
1582.989	1990.52
1586.222	1952.68
1589.454	1975.83
1592.686	1961.84
1595.918	1986.48
1599.15	1985.38
1602.381	2019.18
1605.612	2007.69
1608.843	2087.87
1612.073	2023.27
1615.303	2012.32
1618.533	2011.26
1621.762	2008.1
1624.992	1982.37
1628.221	1986.65
1631.449	1978.02
1634.678	1992.71
1637.906	1964.08
1641.134	1986.92
1644.361	1955.98
1647.588	1948.87
1650.815	1968.69
1654.042	1931.99
1657.269	1957.12
1660.495	1945.8
1663.72	1924.19
1666.946	1897.24
1670.171	1884.38
1673.396	1858.28
1676.621	1842.41
1679.845	1835.32
1683.069	1835.66
1686.293	1859.84
1689.517	1858.38
1692.74	1821.28
1695.963	1836.17
1699.185	1878.8
1702.408	1857.57
1705.63	1878.33
1708.852	1902.08
1712.073	1871.45
1715.294	1890.67
1718.515	1928.21
1721.736	1893.53
1724.956	1873.81
1728.176	1892.45
1731.396	1912.5
1734.616	1901.29
1737.835	1936.79
1741.054	1908.03
1744.272	1900.22
1747.491	1942.07
1750.709	1954.15
1753.927	1920.85
1757.144	1940.46
1760.361	1995.28
1763.578	1968.01
1766.795	1928.07
1770.011	1916.29
1773.227	1933.37
1776.443	1975.9
1779.658	2011.85
1782.874	1957.59
1786.089	1956.8
1789.303	1958.37
1792.518	1953.57
1795.732	1943.92
1798.945	1961.01
1802.159	1997.36
1805.372	1956.16
1808.585	1953.47
1811.797	1954.21
1815.01	1967.29
1818.222	1996.62
1821.434	1953.65
1824.645	1988.06
1827.856	2003.35
1831.067	2028.05
1834.278	1968.9
1837.488	1956.59
1840.698	2058.49
1843.908	2015.1
1847.117	1989.8
1850.326	1937.23
1853.535	1980.86
1856.744	2022.13
1859.952	1958.56
1863.16	1963.06
1866.368	1978.3
1869.575	2087.86
1872.782	1983.12
1875.989	1925.83
1879.196	1962.5
1882.402	1960.37
1885.608	1989.91
1888.814	1951.3
1892.019	1874.39
1895.224	1923.43
1898.429	1887.86
1901.634	1877.72
1904.838	1855.73
1908.042	1914.57
1911.246	1929.18
1914.449	1905.78
1917.652	1882.89
1920.855	1865.66
1924.058	1880.54
1927.26	1927.11
1930.462	1945.45
1933.664	1987.89
1936.865	1935.67
1940.066	1954.2
1943.267	1899.21
1946.467	1905.63
1949.668	1920.07
1952.868	1986.26
1956.067	1981.44
1959.267	1928.59
1962.466	1948.31
1965.665	1929.47
1968.863	1925.6
1972.061	1921.12
1975.259	1913.46
1978.457	1980.67
1981.654	1945.35
1984.852	1949.45
1988.048	1911.95
1991.245	1895.7
1994.441	1979.39
1997.637	1928.09
2000.833	1914.43
2004.028	1942.93
2007.223	2003.45
2010.418	1996.18
2013.613	1947.36
2016.807	1948.55
2020.001	1939.53
2023.194	1954.07
2026.388	1941.66
2029.581	1888.72
2032.774	1954.33
2035.966	1965.11
2039.158	1921.95
2042.35	1937.75
2045.542	1865.6
2048.733	1938.49
2051.924	1920.68
2055.115	1932.22
2058.306	1906.18
2061.496	1957.35
2064.686	1996.65
2067.875	1907.06
2071.065	1903.87
2074.254	1917
2077.442	1877.66
2080.631	1952.9
2083.819	1901.3
2087.007	1895.62
2090.195	1885.65
2093.382	1891.87
2096.569	1878.96
2099.756	1846.91
2102.942	1899.41
2106.128	1917.18
2109.314	1904.16
2112.5	1896.2
2115.685	1862.16
2118.87	1868.66
2122.055	1925.53
2125.239	1908.83
2128.424	1904.9
2131.608	1944.79
2134.791	1930.8
2137.974	1960.48
2141.157	1950.53
2144.34	1931.51
2147.523	1913.4
2150.705	1944.94
2153.887	1909.15
2157.068	1892.53
2160.25	1865.67
2163.431	1882.2
2166.611	1860.8
2169.792	1884.77
2172.972	1804.61
2176.152	1843.27
2179.331	1866.27
2182.511	1877.59
2185.69	1895.15
2188.868	1904.92
2192.047	1929.32
2195.225	1956.73
2198.403	1905.52
2201.58	1893.14
2204.758	1876.89
2207.935	1945.28
2211.111	1876.46
2214.288	1866.36
2217.464	1895.73
2220.64	1849.5
2223.815	1892.12
2226.991	1832.34
2230.166	1845.81
2233.34	1891.13
2236.515	1901.99
2239.689	1958.45
2242.863	1914.65
2246.036	1963.57
2249.209	1942.42
2252.382	1955.6
2255.555	1972.19
2258.727	1930.47
2261.9	1954.31
2265.071	1948.16
2268.243	1945.95
2271.414	1902.63
2274.585	1894
2277.756	1948.93
2280.926	1908.44
2284.096	1932.51
2287.266	1875.3
2290.436	1918.35
2293.605	1933.13
2296.774	1974.13
2299.942	1969.11
2303.111	1985.46
2306.279	2035.24
2309.447	2020.36
2312.614	1992.06
2315.781	2015.87
2318.948	1997.11
2322.115	2030.86
2325.281	1933.61
2328.447	1937.13
2331.613	1911.52
2334.779	1912.82
2337.944	1903.53
2341.109	1907.66
2344.274	1900.02
2347.438	1870.95
2350.602	1889.54
2353.766	1898.31
2356.929	1889.13
2360.092	1921.29
2363.255	1901.84
2366.418	1877.52
2369.58	1921.25
2372.742	1843.98
2375.904	1826.6
2379.066	1816.4
2382.227	1837.79
2385.388	1801.65
2388.548	1762.65
2391.709	1797.47
2394.869	1795
2398.029	1828.84
2401.188	1817.05
2404.347	1795.45
2407.506	1839.42
2410.665	1884.97
2413.823	1864.22
2416.981	1851.75
2420.139	1861.23
2423.296	1896.61
2426.453	1871.03
2429.61	1889.49
2432.767	1875.43
2435.923	1917.75
2439.079	1861.48
2442.235	1887.85
2445.391	1835.56
2448.546	1880.78
2451.701	1908.65
2454.855	1915.66
2458.009	1932.1
2461.163	1917.11
2464.317	1894.82
2467.471	1917
2470.624	1937.9
2473.777	1937.92
2476.929	1955.81
2480.082	1977.04
2483.234	1955.39
2486.385	1896.31
2489.537	1889.4
2492.688	1892.99
2495.839	1907.13
2498.989	1920.75
2502.14	1910
2505.29	1907.26
2508.439	1925.77
2511.589	1876.42
2514.738	1868.82
2517.887	1888.42
2521.035	1964.39
2524.183	1916.46
2527.331	1905.05
2530.479	1906.71
2533.627	1906.67
