Data from C_1_DEC_ON_6N_Splice17_11-53-47-716.txt Node
Date: Sat Mar 14 11:53:47 EDT 2020
User: sa697716
Spectrometer: FLMS03696
Trigger mode: 0
Integration Time (sec): 3.180400E-1
Scans to average: 20
Electric dark correction enabled: true
Nonlinearity correction enabled: true
Boxcar width: 5
XAxis mode: Wavelengths
Number of Pixels in Spectrum: 2048
>>>>>Begin Spectral Data<<<<<
187.83	-254484.58
188.298	1796.07
188.766	959.53
189.233	867.73
189.701	1159.34
190.169	1567.64
190.636	639.24
191.104	541.47
191.571	68.38
192.039	-129.01
192.506	-83.37
192.974	429.97
193.441	-559.61
193.908	-221.52
194.375	-46.87
194.842	-54.89
195.31	-46.99
195.777	148.35
196.244	353.97
196.711	395.92
197.177	447.93
197.644	641.97
198.111	1077.23
198.578	1459.07
199.045	1192.04
199.511	1930.61
199.978	2270.75
200.445	1946.91
200.911	2107.38
201.378	2320.89
201.844	2084.42
202.31	3523.54
202.777	3653.72
203.243	2064.35
203.709	1969.96
204.176	2306.84
204.642	1899.3
205.108	1776.96
205.574	1445.62
206.04	1321.64
206.506	1246.54
206.972	1171.91
207.438	1129.34
207.903	1285.94
208.369	1130.64
208.835	1124.1
209.301	1188.33
209.766	1201.19
210.232	1180.45
210.697	1438.45
211.163	1760.28
211.628	2619.52
212.094	2200.11
212.559	2744.85
213.024	1689.46
213.49	2064.34
213.955	1991.03
214.42	1931.37
214.885	1810.33
215.35	1707.16
215.815	1659.33
216.28	1745.62
216.745	1392.94
217.21	1483.87
217.675	1308.4
218.14	1421.46
218.604	1503.48
219.069	1657.21
219.534	1688.9
219.998	1881.05
220.463	2206.86
220.927	2565.94
221.392	2322.14
221.856	2297.71
222.32	2768.72
222.785	3361.71
223.249	4164.79
223.713	4573.55
224.177	4504.73
224.642	5653.51
225.106	6885.45
225.57	7418.01
226.034	5502.06
226.497	8330.39
226.961	7488.87
227.425	8737.79
227.889	9597.57
228.353	9553.09
228.816	19610.26
229.28	18708.51
229.744	15720.84
230.207	9549.11
230.671	9393.55
231.134	15335.22
231.597	17683.03
232.061	17595.74
232.524	17054.45
232.987	11753.08
233.45	10562.32
233.914	9456.66
234.377	9604.53
234.84	8751.89
235.303	10264.73
235.766	11389.83
236.229	11804.82
236.691	7394.58
237.154	8282.71
237.617	6237.39
238.08	6341.31
238.542	7423.38
239.005	5313.16
239.468	5307.79
239.93	5009.98
240.393	4552.97
240.855	4018.26
241.317	4110.78
241.78	4997.42
242.242	5178.53
242.704	5622.89
243.166	4920.36
243.629	4482.68
244.091	5165.28
244.553	5653.48
245.015	6080.51
245.477	7848.56
245.939	11432.57
246.4	12106.04
246.862	11763.44
247.324	11083.28
247.786	12356.7
248.247	16126.62
248.709	16567.03
249.17	12413.98
249.632	11750.67
250.093	13664.15
250.555	11804.85
251.016	7254.88
251.477	6891.55
251.939	7452.97
252.4	7814.13
252.861	9273.5
253.322	8677.94
253.783	10290.27
254.244	13270.81
254.705	10396.87
255.166	9187.01
255.627	9076.59
256.088	12767.84
256.549	13557.15
257.009	11642.88
257.47	14101.58
257.931	11435.64
258.391	8542.91
258.852	8802.84
259.312	9229.74
259.773	11388.62
260.233	9643
260.694	8101.43
261.154	9137.77
261.614	7362.76
262.074	6560.48
262.534	6812.45
262.994	6436.73
263.455	8531.97
263.915	7195.27
264.374	6762.11
264.834	7365.7
265.294	8133.39
265.754	8417.17
266.214	7959.98
266.673	7427.19
267.133	9348.71
267.593	9241.35
268.052	11250.36
268.512	9777.92
268.971	11801.42
269.431	12902
269.89	11541.89
270.349	17301.96
270.809	19282.64
271.268	17321.19
271.727	38697.88
272.186	25062.64
272.645	18783.21
273.104	13519.7
273.563	19521.34
274.022	15243.39
274.481	12983.33
274.94	10001.09
275.399	7415.54
275.857	8588.65
276.316	11588.01
276.775	10282.44
277.233	10134.46
277.692	9520.63
278.15	10792.11
278.609	11149.05
279.067	10347.2
279.525	9639.62
279.984	12427.69
280.442	14969.07
280.9	14885.75
281.358	9833.51
281.816	9222.16
282.274	9042.08
282.732	9316.3
283.19	9388.79
283.648	8103.07
284.106	8634.54
284.564	8785.31
285.021	8190.68
285.479	6108.03
285.937	5513.15
286.394	4847.27
286.852	4993.92
287.309	5252.38
287.767	5112.49
288.224	4891.32
288.682	5376.07
289.139	5927.57
289.596	5445.66
290.053	5659.74
290.511	7131.29
290.968	8703.06
291.425	11805.7
291.882	9887.46
292.339	8612.18
292.796	8505.3
293.252	7985.51
293.709	6365.64
294.166	5712.92
294.623	6297.76
295.079	6037.68
295.536	6088.17
295.992	5535.46
296.449	5485.95
296.905	5683.99
297.362	5486.77
297.818	5782.55
298.274	6029.69
298.731	6130.36
299.187	6068.23
299.643	6532.23
300.099	7915.96
300.555	8698.77
301.011	7268.98
301.467	7063.44
301.923	8272.96
302.379	8067.57
302.835	7945.47
303.291	7964.99
303.746	9094.79
304.202	11508.49
304.658	11572.85
305.113	7797.34
305.569	7647.64
306.024	8155.86
306.479	7720.16
306.935	6536.02
307.39	7138.32
307.845	6614.85
308.301	6659.88
308.756	6489.21
309.211	6252.99
309.666	6424.85
310.121	8045.53
310.576	8174.24
311.031	8140.47
311.486	9337.56
311.94	9312.11
312.395	12488.97
312.85	23493.98
313.305	114974.64
313.759	601484.08
314.214	43656.86
314.668	34630.83
315.123	29138.94
315.577	10485.42
316.032	9329.2
316.486	11686.03
316.94	9252.05
317.394	6482.88
317.849	5058
318.303	4814.44
318.757	4532.74
319.211	5031.73
319.665	4410.51
320.119	4466.9
320.572	6399.02
321.026	5997.9
321.48	5006.83
321.934	5450.21
322.387	5440.51
322.841	5857.86
323.295	5293.3
323.748	6062.33
324.202	6138.02
324.655	7391.9
325.108	10357.43
325.562	7335.33
326.015	8732.75
326.468	6596.15
326.921	7397.41
327.374	6934.44
327.827	7265.22
328.28	8191.35
328.733	5515.85
329.186	4865.84
329.639	4634.4
330.092	3901.51
330.545	3728.04
330.997	3757.73
331.45	4127.9
331.903	4867.47
332.355	8318
332.808	8082.18
333.26	6687.24
333.713	7276.67
334.165	7346.1
334.617	9752.11
335.069	7836.97
335.522	14089.2
335.974	15678.58
336.426	14272.93
336.878	9828.52
337.33	5017.55
337.782	4893.88
338.234	6154.3
338.686	7337.22
339.137	8694.56
339.589	8246.63
340.041	6521.3
340.493	5611.47
340.944	5751.44
341.396	6192.66
341.847	5236.7
342.299	6192.67
342.75	7580.32
343.201	6600.85
343.653	7599.57
344.104	9279.04
344.555	7274.72
345.006	11208.92
345.457	8641.25
345.908	6819.59
346.359	6462.42
346.81	5253.82
347.261	5533.83
347.712	5417.98
348.163	5798.95
348.613	5930.44
349.064	5563.22
349.515	4881.79
349.965	5018.86
350.416	6018.2
350.866	6614.01
351.317	7451.58
351.767	12341.1
352.217	15518.55
352.668	12917.87
353.118	11843.77
353.568	11320.01
354.018	8979.29
354.468	9519.04
354.918	6851.13
355.368	6009.31
355.818	8505.37
356.268	24380.37
356.718	102345.77
357.168	25549.21
357.617	12846.48
358.067	14332.78
358.517	13452.34
358.966	15804.66
359.416	17757.62
359.865	19227.75
360.315	22939.97
360.764	10734.4
361.213	6045.28
361.663	5692.64
362.112	7036.91
362.561	11388.85
363.01	8616.88
363.459	7282.06
363.908	7853
364.357	6713.85
364.806	11311.47
365.255	7804.9
365.703	7179.57
366.152	7170.67
366.601	5855.5
367.05	4785.33
367.498	4357.45
367.947	4541.2
368.395	4717.39
368.844	4192.12
369.292	5025.51
369.74	3508.78
370.189	5374.84
370.637	6323.22
371.085	5502.92
371.533	6694.75
371.981	6447.21
372.429	6171.29
372.877	6454.01
373.325	5410.52
373.773	5512.01
374.221	4920.49
374.669	6089.87
375.116	5248.65
375.564	5280.2
376.012	5909.29
376.459	4894.41
376.907	5855.01
377.354	7091.8
377.801	6649.69
378.249	7706.25
378.696	9945.32
379.143	12087.34
379.591	12865.73
380.038	21973.65
380.485	16000.01
380.932	17321.7
381.379	15948.72
381.826	11818.98
382.273	8421.11
382.72	7355.19
383.166	7160.83
383.613	4641.53
384.06	4190.55
384.506	4879.31
384.953	3581.02
385.4	3600.47
385.846	3158.86
386.292	3074.37
386.739	3010.6
387.185	2975.96
387.631	2980.21
388.078	2917.13
388.524	3130.2
388.97	2898.76
389.416	2433.01
389.862	2589.92
390.308	2463.57
390.754	2515.04
391.2	2737.54
391.645	2813.74
392.091	2715.36
392.537	2638.02
392.983	2638.58
393.428	2620.89
393.874	2813.94
394.319	2841.32
394.765	2730.66
395.21	2816.22
395.655	2651.9
396.101	2491.15
396.546	2254.08
396.991	2277.85
397.436	2117.7
397.881	2058.13
398.326	1946.36
398.771	1852.13
399.216	1619.24
399.661	1457.58
400.106	1459.1
400.551	1502.86
400.995	1354.73
401.44	1345.19
401.885	1265.27
402.329	1282.36
402.774	1237.26
403.218	1209.97
403.663	1170.35
404.107	1207.61
404.551	1221.65
404.995	1124.43
405.44	1081.24
405.884	1099.82
406.328	1065.14
406.772	1064.91
407.216	979.58
407.66	945.95
408.104	895.34
408.547	841.9
408.991	822.05
409.435	792.66
409.879	789.22
410.322	783.95
410.766	764.66
411.209	731.15
411.653	707.94
412.096	698.46
412.54	699.84
412.983	699.02
413.426	705.01
413.869	701.74
414.312	695.35
414.756	668.87
415.199	641.18
415.642	624.05
416.085	628.62
416.527	623.57
416.97	629.76
417.413	599.99
417.856	591.63
418.298	584.68
418.741	580.14
419.184	574.03
419.626	595.92
420.069	596.42
420.511	598.78
420.953	588
421.396	584.18
421.838	571.14
422.28	585.23
422.722	594.16
423.164	603.18
423.606	596.9
424.048	598.86
424.49	571.85
424.932	567.64
425.374	558.17
425.816	563.93
426.258	573.89
426.699	580.5
427.141	574.08
427.582	579.69
428.024	576.6
428.465	573.62
428.907	560.26
429.348	554.55
429.789	557.63
430.231	550.23
430.672	561.9
431.113	549.4
431.554	544.96
431.995	530.37
432.436	514.65
432.877	506.67
433.318	500.97
433.759	498.1
434.2	498.22
434.64	493.58
435.081	495.32
435.522	469.47
435.962	455.61
436.403	446.09
436.843	452.46
437.284	441.69
437.724	427.73
438.164	424.72
438.604	417.22
439.045	403.47
439.485	387.72
439.925	379.49
440.365	369.81
440.805	364.46
441.245	361.01
441.685	350.69
442.125	348.88
442.564	351.2
443.004	347.22
443.444	347.84
443.883	348.84
444.323	346.09
444.762	345.98
445.202	351.51
445.641	358.88
446.081	356.23
446.52	358.75
446.959	357.95
447.398	352.2
447.837	347.95
448.276	341.18
448.716	345.99
449.154	349.18
449.593	345.18
450.032	344.18
450.471	337.88
450.91	338.09
451.349	339.37
451.787	337.52
452.226	341.19
452.664	341.46
453.103	341.79
453.541	339.48
453.98	340.98
454.418	341.73
454.856	338.07
455.295	338.02
455.733	342.5
456.171	344.6
456.609	344.83
457.047	345.53
457.485	351.54
457.923	353.84
458.361	350.08
458.798	350.69
459.236	349.82
459.674	352.45
460.111	354.12
460.549	350
460.987	347.44
461.424	345.7
461.862	344.96
462.299	339.73
462.736	339.93
463.173	341.77
463.611	340.62
464.048	341.47
464.485	344.79
464.922	341.72
465.359	340.52
465.796	342.36
466.233	342.86
466.67	342.2
467.106	343.72
467.543	341.14
467.98	336.48
468.416	327.46
468.853	323.87
469.29	314.23
469.726	311.05
470.162	302.7
470.599	294.72
471.035	290.44
471.471	281.87
471.907	277.27
472.344	274.33
472.78	276.27
473.216	278.96
473.652	276.23
474.088	275.03
474.523	274.24
474.959	276.61
475.395	274.46
475.831	274.43
476.266	275.98
476.702	275.67
477.138	273.2
477.573	271.11
478.008	269.96
478.444	272.19
478.879	276.01
479.314	277.23
479.75	278.23
480.185	278.78
480.62	279.98
481.055	281.61
481.49	284.69
481.925	288.78
482.36	295.45
482.795	302.8
483.229	310.62
483.664	316.59
484.099	317.94
484.534	321.95
484.968	325.17
485.403	325.83
485.837	325.67
486.271	324.6
486.706	325.43
487.14	321.4
487.574	317.64
488.009	314.33
488.443	312.39
488.877	317.19
489.311	319.14
489.745	323.95
490.179	328.66
490.613	336.35
491.046	340.25
491.48	343.8
491.914	345.77
492.348	350.2
492.781	354.39
493.215	356.71
493.648	358.69
494.082	363.79
494.515	366.72
494.948	374.01
495.382	378.22
495.815	384.21
496.248	390
496.681	399.92
497.114	407.97
497.547	416.81
497.98	427.43
498.413	434.56
498.846	443.19
499.279	451.52
499.711	457.03
500.144	461.78
500.577	471.06
501.009	480.66
501.442	490.54
501.874	496.31
502.306	501.87
502.739	510.91
503.171	524.33
503.603	530.91
504.036	541.38
504.468	549.66
504.9	562.63
505.332	571.89
505.764	580.86
506.196	590.15
506.627	605.01
507.059	618.45
507.491	629.79
507.923	633.77
508.354	649.74
508.786	661.21
509.217	678.01
509.649	693.06
510.08	711.42
510.512	728.57
510.943	744.02
511.374	757.3
511.805	776.99
512.237	794.21
512.668	822.13
513.099	845.04
513.53	869.48
513.961	888.98
514.391	916.06
514.822	944.39
515.253	974.65
515.684	997.49
516.114	1023.46
516.545	1043.61
516.975	1067.52
517.406	1084.32
517.836	1091.58
518.267	1101.36
518.697	1119.45
519.127	1127.18
519.558	1136.41
519.988	1142.06
520.418	1153.81
520.848	1169.82
521.278	1178.96
521.708	1189.89
522.138	1202.63
522.567	1228.81
522.997	1251.53
523.427	1265.34
523.857	1279.73
524.286	1290.14
524.716	1304.49
525.145	1321.6
525.575	1332.37
526.004	1344.7
526.433	1347.67
526.863	1348.72
527.292	1342.45
527.721	1346.93
528.15	1352.31
528.579	1353.85
529.008	1362.83
529.437	1380.43
529.866	1392.06
530.295	1405.85
530.724	1416.68
531.152	1438.55
531.581	1451.52
532.01	1465.28
532.438	1472.79
532.867	1486.17
533.295	1502.87
533.723	1509.1
534.152	1509.45
534.58	1509.1
535.008	1496.65
535.436	1499.3
535.865	1506.68
536.293	1519.15
536.721	1531.89
537.149	1553.3
537.576	1556.13
538.004	1565.78
538.432	1571.72
538.86	1569.72
539.287	1576.72
539.715	1588.88
540.143	1591.76
540.57	1589.33
540.998	1586.02
541.425	1568.44
541.852	1550.33
542.28	1548.5
542.707	1536.17
543.134	1524.94
543.561	1521.39
543.988	1514.19
544.415	1512.58
544.842	1508.03
545.269	1501.13
545.696	1502.06
546.123	1511.63
546.549	1503.08
546.976	1492.46
547.403	1490.82
547.829	1491.99
548.256	1493.78
548.682	1490.04
549.108	1484.58
549.535	1482.4
549.961	1482.71
550.387	1471.19
550.813	1466.81
551.24	1471.16
551.666	1470.76
552.092	1462.69
552.518	1457.31
552.943	1451.34
553.369	1456.6
553.795	1460.24
554.221	1460.57
554.646	1457.96
555.072	1466.46
555.498	1470.39
555.923	1478.11
556.349	1489.63
556.774	1496.06
557.199	1495.74
557.625	1499.99
558.05	1494.95
558.475	1502.36
558.9	1501.51
559.325	1494.16
559.75	1487.47
560.175	1480.35
560.6	1473.65
561.025	1470.56
561.449	1469.52
561.874	1472.82
562.299	1475.63
562.723	1479.76
563.148	1470.62
563.572	1472.87
563.997	1479.15
564.421	1481.75
564.846	1480.59
565.27	1481.75
565.694	1479.51
566.118	1487.74
566.542	1493.66
566.966	1487
567.39	1481.55
567.814	1472.56
568.238	1470.95
568.662	1474.3
569.086	1475.35
569.509	1479.86
569.933	1466.89
570.357	1459.39
570.78	1441.4
571.204	1429.8
571.627	1419.85
572.05	1417.62
572.474	1415.24
572.897	1403.86
573.32	1396.32
573.743	1387.42
574.166	1372.03
574.589	1371.14
575.012	1362.85
575.435	1360.4
575.858	1350.18
576.281	1339.42
576.704	1325.32
577.126	1313.46
577.549	1303.27
577.972	1293.79
578.394	1283.74
578.817	1276.77
579.239	1259.84
579.661	1248.68
580.084	1235.05
580.506	1223.08
580.928	1218.59
581.35	1208.3
581.772	1204.04
582.194	1191.64
582.616	1179.83
583.038	1167.92
583.46	1158.54
583.882	1153.82
584.303	1155.27
584.725	1150.54
585.147	1151.51
585.568	1158.48
585.99	1167.33
586.411	1170.95
586.833	1181.43
587.254	1181.75
587.675	1191.55
588.096	1199.81
588.518	1195.91
588.939	1182.06
589.36	1180.2
589.781	1171.75
590.202	1150.27
590.623	1141.47
591.043	1137.6
591.464	1126.83
591.885	1122.73
592.305	1116.9
592.726	1105.31
593.147	1105.42
593.567	1101.76
593.987	1094.98
594.408	1089.05
594.828	1086
595.248	1082.75
595.669	1069.47
596.089	1064.49
596.509	1060.29
596.929	1050.27
597.349	1050.09
597.769	1042.05
598.189	1036.02
598.608	1035.99
599.028	1037.99
599.448	1037.08
599.867	1026.58
600.287	1022.46
600.706	1017.71
601.126	1009.66
601.545	1007.9
601.965	1007.37
602.384	1003.43
602.803	1004.6
603.222	1001.25
603.641	995.55
604.061	992.53
604.48	988.68
604.898	993.53
605.317	995.87
605.736	995.89
606.155	993.14
606.574	984.99
606.992	986.56
607.411	981.85
607.829	974.28
608.248	970.31
608.666	967.77
609.085	966.24
609.503	959.17
609.921	954.64
610.339	954.99
610.758	952.04
611.176	946.69
611.594	939.47
612.012	935.95
612.43	935.84
612.847	938.9
613.265	938.35
613.683	939.96
614.101	940.17
614.518	934.39
614.936	925.58
615.353	914.62
615.771	911.13
616.188	909.8
616.606	906.22
617.023	900.49
617.44	889.28
617.857	882.34
618.274	874
618.691	867.48
619.108	860.72
619.525	855.88
619.942	859.74
620.359	861.43
620.776	857.37
621.192	853.94
621.609	852.15
622.026	855.69
622.442	859.83
622.859	861.83
623.275	857.4
623.691	860.68
624.108	868.39
624.524	877.02
624.94	876.36
625.356	883.2
625.772	891.17
626.188	898.94
626.604	900.35
627.02	896.12
627.436	895.23
627.852	899.44
628.268	907.82
628.683	901.67
629.099	896.52
629.514	892.34
629.93	893.46
630.345	896.53
630.761	894.47
631.176	896.01
631.591	893.16
632.007	888.69
632.422	884.81
632.837	875.78
633.252	873.39
633.667	865.18
634.082	858.15
634.497	848.78
634.911	834.29
635.326	829.09
635.741	816.23
636.155	807.16
636.57	806.65
636.984	805.37
637.399	805.02
637.813	801.7
638.228	798.73
638.642	799.38
639.056	790.32
639.47	788.21
639.884	780.74
640.298	773.69
640.712	769.92
641.126	757.77
641.54	749.86
641.954	743.01
642.368	733.71
642.781	725.97
643.195	712.34
643.609	709.7
644.022	703.35
644.436	697.13
644.849	687.44
645.262	676.94
645.676	675.67
646.089	669.55
646.502	658.34
646.915	651.07
647.328	638.85
647.741	635.2
648.154	624.4
648.567	621.29
648.98	611.06
649.393	608.09
649.805	605.27
650.218	598.62
650.631	587.8
651.043	582.53
651.456	578.39
651.868	576.66
652.28	584.67
652.693	591.33
653.105	592.77
653.517	597.19
653.929	596.85
654.341	597.45
654.753	589.1
655.165	590.75
655.577	587.21
655.989	582.52
656.401	574.91
656.813	553.16
657.224	540.14
657.636	520.22
658.047	508.47
658.459	494.65
658.87	486.45
659.282	477.33
659.693	465.28
660.104	455
660.515	444.49
660.926	439.98
661.338	435.11
661.749	427.89
662.159	421.71
662.57	415.61
662.981	411.17
663.392	404.98
663.803	405
664.213	400.4
664.624	394.89
665.035	393.11
665.445	385.09
665.855	379.33
666.266	374.73
666.676	372.05
667.086	365.8
667.497	363.32
667.907	359.72
668.317	353.23
668.727	352.57
669.137	352.39
669.547	351.15
669.956	351.94
670.366	352.06
670.776	351.77
671.186	352.61
671.595	355.53
672.005	356.91
672.414	356.44
672.824	356.48
673.233	356.36
673.642	357.34
674.052	359.98
674.461	361.73
674.87	365.22
675.279	365.84
675.688	366.89
676.097	368.44
676.506	368.82
676.915	376.74
677.323	378.64
677.732	378.59
678.141	378.87
678.549	374.61
678.958	375.56
679.366	375.64
679.775	378.64
680.183	386.85
680.592	390.76
681	395.16
681.408	394.02
681.816	400.9
682.224	408.15
682.632	418.01
683.04	436.12
683.448	451.56
683.856	472.28
684.264	495.63
684.671	516.59
685.079	544.26
685.487	573.57
685.894	614.3
686.302	649.19
686.709	681.2
687.116	717.69
687.524	750.38
687.931	780.11
688.338	807.16
688.745	830.76
689.152	858.57
689.559	894.63
689.966	931.5
690.373	955.05
690.78	990.43
691.187	1039.86
691.593	1080.01
692	1117.06
692.407	1169.74
692.813	1230.41
693.22	1281.7
693.626	1333.18
694.032	1376.01
694.439	1440.08
694.845	1489.71
695.251	1553.39
695.657	1610
696.063	1690.15
696.469	1751.77
696.875	1809.75
697.281	1847.86
697.687	1890.85
698.093	1930.47
698.498	1995.56
698.904	2044.47
699.31	2119.9
699.715	2174.4
700.12	2251.99
700.526	2274.97
700.931	2335.55
701.337	2382.11
701.742	2414.29
702.147	2486.97
702.552	2516.84
702.957	2569.97
703.362	2593.46
703.767	2620.61
704.172	2657.01
704.577	2625.77
704.981	2667.63
705.386	2686.69
705.791	2685.65
706.195	2749.63
706.6	2764.3
707.004	2830.59
707.408	2810
707.813	2835.66
708.217	2831.53
708.621	2836.89
709.025	2917.93
709.43	2922.68
709.834	2973.38
710.237	3035.53
710.641	3025.84
711.045	3045.13
711.449	3046.79
711.853	3074.87
712.256	3111
712.66	3144.5
713.064	3209.71
713.467	3247.88
713.87	3341.43
714.274	3385.72
714.677	3474.91
715.08	3611.25
715.484	3751.91
715.887	3920.56
716.29	4085.71
716.693	4260.7
717.096	4461.9
717.499	4574.42
717.901	4599.44
718.304	4626.94
718.707	4649.54
719.109	4570.57
719.512	4544.56
719.915	4434.04
720.317	4390.19
720.719	4429.35
721.122	4407.48
721.524	4368.61
721.926	4335.54
722.328	4417.76
722.731	4410.84
723.133	4433.29
723.535	4595.44
723.937	4616.97
724.338	4662.49
724.74	4696.53
725.142	4642.94
725.544	4643.39
725.945	4666.19
726.347	4663.86
726.748	4660.51
727.15	4673.34
727.551	4642.37
727.952	4618.06
728.354	4594.31
728.755	4594.84
729.156	4560.72
729.557	4554.3
729.958	4454.15
730.359	4407.06
730.76	4391.43
731.161	4342.64
731.562	4321.6
731.962	4325.88
732.363	4272.62
732.763	4222.15
733.164	4252.41
733.564	4196.56
733.965	4117.53
734.365	4088.98
734.766	4114.12
735.166	4082.89
735.566	4036.69
735.966	4016.4
736.366	4013.24
736.766	3963.09
737.166	3987.34
737.566	3955.47
737.966	3936.38
738.365	3968.89
738.765	3963.83
739.165	3901.14
739.564	3879.33
739.964	3916.98
740.363	3878.05
740.763	3874.68
741.162	3865.34
741.561	3838.16
741.96	3800.92
742.36	3816.14
742.759	3819.65
743.158	3851.39
743.557	3864.48
743.955	3897.98
744.354	3860.26
744.753	3907.17
745.152	3874.44
745.55	3919.84
745.949	3917.22
746.348	3917.29
746.746	3932.61
747.144	3900.43
747.543	3882.11
747.941	3921.12
748.339	3861.23
748.737	3856.03
749.136	3849.9
749.534	3903.23
749.932	3880.96
750.33	3900.19
750.727	3945.43
751.125	3924.51
751.523	3910.61
751.921	3946.94
752.318	3918.81
752.716	3969.66
753.113	3980.04
753.511	4001.35
753.908	4000.76
754.305	3986.87
754.703	4037.04
755.1	4088.5
755.497	4138.84
755.894	4296.07
756.291	4443.88
756.688	4715.92
757.085	5077.1
757.482	5590.19
757.878	6146.9
758.275	6652.89
758.672	7346.24
759.068	7908.12
759.465	8711.51
759.861	9748.63
760.258	10956.78
760.654	11576.63
761.05	11488.55
761.447	10961.13
761.843	10198.7
762.239	9417.39
762.635	9063.34
763.031	8725.76
763.427	8237.67
763.822	7725.2
764.218	7216.76
764.614	6558.08
765.01	6118
765.405	5832.52
765.801	5618.06
766.196	5343.66
766.592	5191
766.987	4929.87
767.382	4753.09
767.778	4682.14
768.173	4576.34
768.568	4516.8
768.963	4412.49
769.358	4428.75
769.753	4390.32
770.148	4324.35
770.542	4322.37
770.937	4293.72
771.332	4369.55
771.726	4386.9
772.121	4335.67
772.515	4379.89
772.91	4365.41
773.304	4422.65
773.699	4368.32
774.093	4410.92
774.487	4453.93
774.881	4492
775.275	4490.2
775.669	4454.93
776.063	4490.15
776.457	4516.5
776.851	4452.99
777.245	4449.52
777.638	4479.24
778.032	4574.6
778.425	4544.88
778.819	4581.54
779.212	4546.48
779.606	4513.64
779.999	4531.16
780.392	4519.61
780.786	4588.82
781.179	4605.86
781.572	4639.84
781.965	4649.42
782.358	4598.12
782.751	4646.96
783.143	4604.73
783.536	4663.94
783.929	4698.6
784.322	4790.69
784.714	4812.01
785.107	4809.41
785.499	4870.34
785.891	4854.64
786.284	4840.64
786.676	4958.76
787.068	4938.7
787.46	4980
787.852	4992.63
788.245	5064.48
788.636	5088.72
789.028	5146.52
789.42	5179.17
789.812	5185.25
790.204	5263.3
790.595	5346.34
790.987	5185.38
791.378	5206.83
791.77	5315.59
792.161	5429.16
792.553	5474.06
792.944	5383.18
793.335	5326.2
793.726	5389.12
794.117	5465.6
794.508	5576.72
794.899	5546.05
795.29	5660.85
795.681	5706.93
796.072	5588.46
796.463	5437.8
796.853	5444.98
797.244	5576.67
797.634	5601.79
798.025	5595.98
798.415	5602.65
798.806	5677.07
799.196	5750.44
799.586	5793.44
799.976	5762.36
800.366	5950.75
800.756	6148.15
801.146	6112.52
801.536	6135.48
801.926	6199.81
802.316	6222.73
802.706	6283.57
803.095	6184.64
803.485	6266.5
803.874	6298.15
804.264	6508.79
804.653	6488.82
805.043	6603.44
805.432	6696.88
805.821	6694.89
806.21	6713.61
806.599	6811.19
806.988	6844.2
807.377	6927.8
807.766	7031.07
808.155	7262.91
808.544	7049.86
808.933	7056.81
809.321	7041.39
809.71	7282.35
810.098	7411.23
810.487	7781.28
810.875	8172.57
811.264	8191.52
811.652	8426.08
812.04	8546.61
812.428	8681.39
812.816	9300.48
813.204	9647.92
813.592	10098.32
813.98	10363.83
814.368	10287.12
814.756	10682.93
815.144	10612.99
815.531	10992.85
815.919	10933.61
816.306	11180.17
816.694	10921.89
817.081	10965.06
817.469	11240.87
817.856	11237.85
818.243	11461.54
818.63	11778.98
819.017	11431.41
819.404	11478.57
819.791	11782.04
820.178	12277.53
820.565	12481.88
820.952	13243.16
821.339	12843.94
821.725	12994.02
822.112	12386.78
822.498	12355.12
822.885	12459.24
823.271	12378.23
823.657	12720.84
824.044	12734.1
824.43	12799.31
824.816	12765.57
825.202	12410.98
825.588	13235.98
825.974	13252.49
826.36	13677.1
826.746	13699.45
827.132	14001.68
827.517	13990.87
827.903	13348.29
828.289	13376.26
828.674	12745.97
829.06	12674.53
829.445	13001.42
829.83	13301.46
830.216	13691.3
830.601	13993.55
830.986	13668.14
831.371	13553.18
831.756	14010.98
832.141	13670.71
832.526	13675.89
832.911	13911.47
833.295	13814.07
833.68	14200.5
834.065	13689.28
834.449	12943.55
834.834	12887.16
835.218	12888.69
835.603	13167.45
835.987	12996.55
836.371	13680.59
836.755	13592
837.139	13912.52
837.524	14111.85
837.908	13968.65
838.291	14024.77
838.675	14081.6
839.059	14248.79
839.443	14239.27
839.827	14052.84
840.21	14446.75
840.594	14324.9
840.977	14503.91
841.361	14497.87
841.744	14809.3
842.127	14682.88
842.511	14889.01
842.894	15384.61
843.277	15698.92
843.66	16141.23
844.043	16218.6
844.426	15557.33
844.809	15299.55
845.191	15317.39
845.574	14939.57
845.957	14640.72
846.339	14550.26
846.722	14118.65
847.104	14173.21
847.487	14031.78
847.869	14046.47
848.252	14266.2
848.634	14538.07
849.016	14760.66
849.398	14863.68
849.78	15558.3
850.162	15563.45
850.544	15907.29
850.926	16421.21
851.307	16350.36
851.689	16584.09
852.071	16951.81
852.452	17221.95
852.834	17198.52
853.215	17524.55
853.597	17653.78
853.978	17889.38
854.359	18256.09
854.741	17438.55
855.122	17359.14
855.503	17117.17
855.884	17229.34
856.265	17178.2
856.646	17269.29
857.026	16957.41
857.407	16898.56
857.788	17026.56
858.169	17258.3
858.549	16569.52
858.93	17084.59
859.31	17118.56
859.69	17286.89
860.071	16951.05
860.451	16769.36
860.831	16164.17
861.211	17106.23
861.591	17553.55
861.971	17526.7
862.351	17684.56
862.731	18001.49
863.111	18214.91
863.491	18480.58
863.87	19194.2
864.25	19478.83
864.629	19157.35
865.009	19572.13
865.388	20268.06
865.768	21724.96
866.147	21645.16
866.526	20457.39
866.905	20695.74
867.284	21848.89
867.663	20754.28
868.042	19898.2
868.421	19830.95
868.8	20163.87
869.179	20371.45
869.558	19178.31
869.936	17674.6
870.315	17985.08
870.693	18410.55
871.072	19857.36
871.45	18915.82
871.828	19157.62
872.207	20138.97
872.585	19832.72
872.963	20364.56
873.341	19667.23
873.719	19451.37
874.097	19214.77
874.475	19583.69
874.853	20043.19
875.23	19203.29
875.608	20007.88
875.986	21628.16
876.363	20686.84
876.741	21318.94
877.118	20795.06
877.495	21818.54
877.873	22180.66
878.25	23345.73
878.627	22395.24
879.004	22711.15
879.381	22605.61
879.758	22014.76
880.135	20512.77
880.512	21685.1
880.889	21118.23
881.265	20899.51
881.642	20714.2
882.019	21066.4
882.395	20641.17
882.772	21456.45
883.148	20517.39
883.524	20439.13
883.901	20320.86
884.277	20626.19
884.653	20506.61
885.029	21088.11
885.405	23348.58
885.781	23172.93
886.157	22212.21
886.532	22482.68
886.908	22481.06
887.284	25003.72
887.659	25828.73
888.035	26631.17
888.411	27307.32
888.786	27663.89
889.161	28625.13
889.537	28095.68
889.912	29005.82
890.287	28967.21
890.662	29715.11
891.037	29172.25
891.412	27191.34
891.787	26912.1
892.162	25977.48
892.536	26591.08
892.911	25589.56
893.286	25058.97
893.66	24060.5
894.035	24666.12
894.409	26870.42
894.784	25789.44
895.158	26222.71
895.532	27789.9
895.906	28546.27
896.281	29217.84
896.655	28744.24
897.029	32849.56
897.402	34196.47
897.776	38071.88
898.15	37933.71
898.524	37517.95
898.898	37997.88
899.271	42541.15
899.645	36827.21
900.018	35360.74
900.392	36680.56
900.765	36979.92
901.138	34215.71
901.511	33702.9
901.884	30929.27
902.258	28518.9
902.631	29463.54
903.003	33924.8
903.376	30596.22
903.749	34324.69
904.122	36763.15
904.495	40439.13
904.867	40948.44
905.24	35539.08
905.612	33077.19
905.985	33797.84
906.357	35341.93
906.729	33733.5
907.102	28810.22
907.474	27712.37
907.846	27879.59
908.218	27495.21
908.59	24307.82
908.962	23513.45
909.334	25332.55
909.705	26603.61
910.077	25844.15
910.449	26910.83
910.82	27653.64
911.192	30421.93
911.563	31605.85
911.935	33820.81
912.306	33883.07
912.677	34990.58
913.048	34633.21
913.419	37562.04
913.79	37779.52
914.161	40502.59
914.532	38722.4
914.903	35599.75
915.274	33818.79
915.645	33308.23
916.015	29327.05
916.386	27941.65
916.756	29738.29
917.127	30650.99
917.497	27399.91
917.868	29824.73
918.238	28328.34
918.608	29133.64
918.978	29735.69
919.348	31490.89
919.718	32557.71
920.088	31369.3
920.458	32600.28
920.828	34294.76
921.198	32521.88
921.567	34726.59
921.937	26901.8
922.306	27177.51
922.676	29301.65
923.045	24448.77
923.415	23220.21
923.784	21143.11
924.153	21725.35
924.522	21696.39
924.891	20402.75
925.26	21859.62
925.629	21341.36
925.998	24521.75
926.367	23946.61
926.736	22800.36
927.104	27145.6
927.473	29174.26
927.842	35208
928.21	34876.84
928.578	36679.75
928.947	34669.82
929.315	34891.98
929.683	40924.32
930.051	41257.1
930.42	47852.72
930.788	40910.6
931.156	40607.82
931.523	38074.15
931.891	35181.27
932.259	33767.73
932.627	39163.2
932.994	55406.71
933.362	45791.4
933.729	39765.78
934.097	38054.73
934.464	32191.67
934.831	37132.25
935.199	36595.36
935.566	35487.11
935.933	35908.26
936.3	43523.08
936.667	33854.42
937.034	30515.57
937.401	30149.24
937.767	26020.6
938.134	23169.71
938.501	32717.82
938.867	34892.22
939.234	58997.33
939.6	50395.61
939.967	55682.09
940.333	37289.36
940.699	31781.76
941.065	25565.36
941.431	33566.57
941.798	32373.08
942.163	42508.19
942.529	26539.43
942.895	24429.14
943.261	15805.44
943.627	20698.7
943.992	18118.72
944.358	18117.58
944.723	18149.45
945.089	17662.85
945.454	16327.43
945.82	17430.99
946.185	16768.44
946.55	19431.56
946.915	17424.56
947.28	20434.22
947.645	17982.7
948.01	16596.27
948.375	17330.49
948.74	20753.38
949.104	24202.96
949.469	34960.93
949.834	61649.3
950.198	58333.88
950.562	34952.63
950.927	29134.52
951.291	35096.59
951.655	29918.38
952.02	28090.12
952.384	21242.28
952.748	18523.13
953.112	18079.97
953.476	15709.11
953.839	14542.93
954.203	14409.64
954.567	18022.47
954.931	28356.33
955.294	24263.75
955.658	24426.34
956.021	41532.23
956.385	70358.13
956.748	103708.09
957.111	160887.2
957.474	180570.76
957.837	203357.63
958.2	153678.43
958.563	55337.9
958.926	37424.65
959.289	56821.2
959.652	63367.64
960.015	47538.88
960.377	68176.59
960.74	77818.16
961.102	134266.09
961.465	144219.02
961.827	77317.78
962.189	148540.26
962.552	102822.14
962.914	82476.99
963.276	53445.6
963.638	44193.69
964	43788.75
964.362	29627.27
964.724	28632.16
965.085	20423.4
965.447	16740.9
965.809	19055.11
966.17	19061.3
966.532	20651.32
966.893	18958.74
967.255	17241.54
967.616	20341.24
967.977	16274.67
968.338	17783.53
968.699	14629.56
969.061	14629.73
969.421	14719.77
969.782	16519.26
970.143	13950.71
970.504	14464.87
970.865	16428.72
971.225	16811.65
971.586	16461.34
971.946	23480.26
972.307	20387.25
972.667	26612.46
973.027	27354.96
973.388	33205.33
973.748	22601.99
974.108	24666.95
974.468	33309.24
974.828	25698.38
975.188	19775.01
975.548	18175.95
975.907	15262.53
976.267	17100.46
976.627	14385.77
976.986	14932.84
977.346	14229.01
977.705	13685.75
978.064	12437.99
978.424	10351.41
978.783	10690.07
979.142	12196.6
979.501	11651.25
979.86	12321.78
980.219	11869.94
980.578	15323.92
980.937	17154.13
981.296	15290.13
981.654	15738.37
982.013	24509.67
982.371	31786.79
982.73	29648.62
983.088	33561.69
983.447	35815.55
983.805	51225.03
984.163	107235.69
984.521	118872.88
984.879	174385.27
985.237	-283512.7
985.595	273125.34
985.953	67781.79
986.311	39162.3
986.669	22784.15
987.026	19658.16
987.384	26463.94
987.741	27314.45
988.099	19486.2
988.456	15554.45
988.814	14542.61
989.171	12638.81
989.528	12461.88
989.885	13162.14
990.242	10411.7
990.599	12970.53
990.956	10628.9
991.313	7435.87
991.67	6110.73
992.027	6487
992.383	5752.88
992.74	5050.82
993.096	5300.17
993.453	5503.2
993.809	5701.86
994.165	7615.2
994.522	6969.35
994.878	7668.87
995.234	9619.51
995.59	9487.97
995.946	8985.59
996.302	10248.04
996.658	11843.63
997.013	13065.52
997.369	15496.5
997.725	19834.46
998.08	12852.14
998.436	19835.5
998.791	27313.22
999.147	27300.43
999.502	29829.33
999.857	21654.07
1000.212	35267.91
1000.567	50220.58
1000.922	28932.67
1001.277	18369.89
1001.632	13619.28
1001.987	17525.75
1002.342	12552.37
1002.696	10059.42
1003.051	8030.29
1003.406	9701.48
1003.76	9638.79
1004.114	9499.39
1004.469	7985.53
1004.823	6605.51
1005.177	7140.22
1005.531	5676.85
1005.885	5029.58
1006.239	5697.37
1006.593	7138.44
1006.947	9528.19
1007.301	7140.92
1007.655	7792.46
1008.008	5706.78
1008.362	6415.05
1008.715	9164.74
1009.069	8316.85
1009.422	12520.08
1009.776	25097.05
1010.129	16640.84
1010.482	13900.68
1010.835	11769.32
1011.188	24494.19
1011.541	23013.39
1011.894	-141410.16
1012.247	415982.81
1012.6	28238.8
1012.952	17791.54
1013.305	9152.03
1013.657	6599.51
1014.01	6233.69
1014.362	5140.32
1014.715	4573.23
1015.067	3979.49
1015.419	3894.88
1015.771	3447.22
1016.123	3068.04
1016.475	3157.07
1016.827	3365.43
1017.179	3629.21
1017.531	3651.07
1017.883	3736.16
1018.234	3628.28
1018.586	4553.17
1018.938	4830.03
1019.289	6656.52
1019.64	7624.75
1019.992	7083.99
1020.343	6500.06
1020.694	5109.65
1021.045	4511.11
1021.396	5168.38
1021.747	5525.94
1022.098	6599.01
1022.449	4800.19
1022.8	4455.84
1023.151	3097.55
1023.501	2742.2
1023.852	2987.67
1024.202	3087.34
1024.553	3398.66
1024.903	3319.91
1025.253	2822.92
1025.604	2538.56
1025.954	3145.96
1026.304	3849.99
1026.654	4496.33
1027.004	6645.71
1027.354	10758.53
1027.703	10192.25
1028.053	13432.4
1028.403	19753.7
1028.753	28581.25
1029.102	39035.62
1029.452	200940.26
1029.801	8664.99
1030.15	5590.83
1030.499	4732.29
897.758	2154.03
901.051	2090.57
904.343	2123.13
907.636	2130.14
910.928	2191.41
914.22	2111.73
917.511	2114.61
920.803	2163.92
924.094	2161
927.384	2164.21
930.675	2130.53
933.965	2094.66
937.255	2121.5
940.544	2090.94
943.834	2087.01
947.123	2027.67
950.411	2116.5
953.7	2098.62
956.988	2082.39
960.276	2018.71
963.563	2066.74
966.851	2074.41
970.138	2115.32
973.424	2118.42
976.711	2070.94
979.997	2121.88
983.283	2163.91
986.568	2094.69
989.853	2085.81
993.138	2112.79
996.423	2196.9
999.708	2156.05
1002.992	2185.81
1006.275	2108.99
1009.559	2113.71
1012.842	2212.1
1016.125	2162.65
1019.408	2144.94
1022.69	2196.85
1025.972	2231.94
1029.254	2206.49
1032.536	2170.03
1035.817	2179.88
1039.098	2150.3
1042.379	2192.31
1045.659	2219.17
1048.939	2170.46
1052.219	2177.66
1055.498	2169.8
1058.778	2169.43
1062.057	2143.17
1065.335	2165.81
1068.614	2176.6
1071.892	2172.04
1075.17	2225.82
1078.447	2228.45
1081.724	2222.33
1085.001	2245.28
1088.278	2224.69
1091.554	2230.24
1094.83	2223.51
1098.106	2259.51
1101.382	2288.68
1104.657	2290.62
1107.932	2289.16
1111.206	2266.75
1114.481	2222.33
1117.755	2221.51
1121.029	2214.83
1124.302	2273.64
1127.575	2240.93
1130.848	2239.45
1134.121	2209.98
1137.393	2174.03
1140.665	2229.01
1143.937	2207.63
1147.208	2155.4
1150.48	2212.15
1153.75	2200.23
1157.021	2204.25
1160.291	2180.44
1163.561	2231.8
1166.831	2199.84
1170.101	2226
1173.37	2185.92
1176.639	2143.03
1179.907	2189.2
1183.176	2213.17
1186.444	2212.63
1189.711	2238.79
1192.979	2260.53
1196.246	2218.34
1199.513	2230.42
1202.78	2235.71
1206.046	2244.98
1209.312	2271.82
1212.578	2289.37
1215.843	2257.52
1219.108	2223.03
1222.373	2247.76
1225.638	2221.48
1228.902	2213.37
1232.166	2170.48
1235.43	2162.36
1238.693	2187.22
1241.956	2176.99
1245.219	2224.61
1248.482	2209.28
1251.744	2205.99
1255.006	2325.04
1258.268	2273.5
1261.529	2230.2
1264.79	2231.02
1268.051	2328.1
1271.312	2333.12
1274.572	2303.83
1277.832	2294.48
1281.092	2275.87
1284.351	2265.63
1287.61	2249.74
1290.869	2188.39
1294.128	2185.38
1297.386	2232.26
1300.644	2226.42
1303.902	2232.86
1307.159	2103.94
1310.416	2155.35
1313.673	2182.33
1316.93	2179.18
1320.186	2210.37
1323.442	2243.22
1326.697	2244.52
1329.953	2220.42
1333.208	2256.33
1336.463	2225.83
1339.717	2192.3
1342.972	2299.93
1346.226	2269.91
1349.479	2219.42
1352.733	2201.66
1355.986	2207.79
1359.238	2188.59
1362.491	2194.77
1365.743	2191.14
1368.995	2183.32
1372.247	2199.05
1375.498	2217.05
1378.749	2257.55
1382	2210.35
1385.251	2245.65
1388.501	2195.86
1391.751	2196.75
1395	2165.58
1398.25	2190.41
1401.499	2213.92
1404.748	2164.27
1407.996	2143.46
1411.244	2132.49
1414.492	2117.66
1417.74	2102.89
1420.987	2108.49
1424.234	2169.47
1427.481	2130.37
1430.728	2184.86
1433.974	2160.56
1437.22	2158.94
1440.465	2155.5
1443.711	2153.91
1446.956	2176.12
1450.201	2149.22
1453.445	2190.01
1456.689	2177.88
1459.933	2189.36
1463.177	2228.48
1466.42	2203.87
1469.663	2186.67
1472.906	2201.95
1476.148	2249.46
1479.391	2221.55
1482.633	2198.02
1485.874	2221.42
1489.115	2227.23
1492.356	2213.15
1495.597	2192.35
1498.838	2184.55
1502.078	2168.58
1505.318	2140.79
1508.557	2174.15
1511.797	2168.56
1515.036	2213.88
1518.274	2186.45
1521.513	2138.21
1524.751	2150.76
1527.989	2170.97
1531.227	2189.56
1534.464	2203.78
1537.701	2198.09
1540.938	2210.46
1544.174	2158.52
1547.41	2149.47
1550.646	2185.85
1553.882	2235.18
1557.117	2291.7
1560.352	2296.38
1563.587	2262.02
1566.821	2229.05
1570.055	2244.69
1573.289	2225.18
1576.523	2282.23
1579.756	2298.23
1582.989	2320.61
1586.222	2279.94
1589.454	2308.71
1592.686	2295.5
1595.918	2325.58
1599.15	2321.79
1602.381	2366.37
1605.612	2348.31
1608.843	2441.12
1612.073	2363.12
1615.303	2350.49
1618.533	2348.99
1621.762	2346.15
1624.992	2320.43
1628.221	2320.65
1631.449	2309.06
1634.678	2334.69
1637.906	2302.07
1641.134	2326.15
1644.361	2292.54
1647.588	2283.28
1650.815	2303.41
1654.042	2268.87
1657.269	2297.14
1660.495	2275.37
1663.72	2262.09
1666.946	2233.86
1670.171	2208.62
1673.396	2180.3
1676.621	2166.39
1679.845	2161.36
1683.069	2169.4
1686.293	2199.12
1689.517	2189.34
1692.74	2142.15
1695.963	2164.42
1699.185	2204.65
1702.408	2176.16
1705.63	2204.14
1708.852	2224.65
1712.073	2195.42
1715.294	2207.77
1718.515	2248.7
1721.736	2208.44
1724.956	2188.21
1728.176	2210.31
1731.396	2232.82
1734.616	2217.88
1737.835	2253.56
1741.054	2227.18
1744.272	2218.26
1747.491	2257.61
1750.709	2278.55
1753.927	2228.77
1757.144	2254.67
1760.361	2311.6
1763.578	2287.66
1766.795	2235.92
1770.011	2225.91
1773.227	2249.97
1776.443	2290.33
1779.658	2333.62
1782.874	2272.95
1786.089	2268.19
1789.303	2270.69
1792.518	2266.27
1795.732	2251.72
1798.945	2267.08
1802.159	2307.95
1805.372	2251.89
1808.585	2246.06
1811.797	2246.04
1815.01	2265.57
1818.222	2289.37
1821.434	2249.84
1824.645	2292.77
1827.856	2302.37
1831.067	2333.46
1834.278	2271.66
1837.488	2256.79
1840.698	2376.67
1843.908	2319.87
1847.117	2289.12
1850.326	2217.14
1853.535	2276.23
1856.744	2308.33
1859.952	2234.62
1863.16	2236.03
1866.368	2247.7
1869.575	2358.48
1872.782	2243.08
1875.989	2176.06
1879.196	2224.68
1882.402	2216.16
1885.608	2249.13
1888.814	2191.61
1892.019	2104.56
1895.224	2151.25
1898.429	2117.99
1901.634	2104.59
1904.838	2079.94
1908.042	2136.33
1911.246	2151.07
1914.449	2114.63
1917.652	2097.91
1920.855	2078.93
1924.058	2101
1927.26	2144.78
1930.462	2166.15
1933.664	2205.69
1936.865	2148.92
1940.066	2165.04
1943.267	2109.96
1946.467	2119.37
1949.668	2138.55
1952.868	2204.34
1956.067	2195.6
1959.267	2139.22
1962.466	2161.3
1965.665	2143.39
1968.863	2137.63
1972.061	2141.55
1975.259	2133.05
1978.457	2209.14
1981.654	2169.32
1984.852	2170.71
1988.048	2125.71
1991.245	2114.87
1994.441	2202.73
1997.637	2162.6
2000.833	2144.54
2004.028	2179.45
2007.223	2239.89
2010.418	2228.76
2013.613	2180.65
2016.807	2175.86
2020.001	2169.96
2023.194	2192.91
2026.388	2176.53
2029.581	2120.02
2032.774	2182.06
2035.966	2195.31
2039.158	2140.9
2042.35	2159.95
2045.542	2088.93
2048.733	2168.25
2051.924	2159.72
2055.115	2176.31
2058.306	2140.96
2061.496	2198.21
2064.686	2244.36
2067.875	2151.46
2071.065	2154.37
2074.254	2173.24
2077.442	2127.29
2080.631	2208.84
2083.819	2141.34
2087.007	2135.87
2090.195	2120.15
2093.382	2137.58
2096.569	2119.26
2099.756	2084.13
2102.942	2131.77
2106.128	2144.23
2109.314	2132.26
2112.5	2119.78
2115.685	2087.92
2118.87	2095.32
2122.055	2153.65
2125.239	2135.55
2128.424	2122.56
2131.608	2181.95
2134.791	2166.53
2137.974	2201.73
2141.157	2190.49
2144.34	2164.58
2147.523	2154.16
2150.705	2179.8
2153.887	2147.32
2157.068	2121.23
2160.25	2100.39
2163.431	2123.14
2166.611	2092.72
2169.792	2114.52
2172.972	2031.41
2176.152	2079.08
2179.331	2105.47
2182.511	2107.77
2185.69	2129.72
2188.868	2135.68
2192.047	2169.84
2195.225	2188.8
2198.403	2137.09
2201.58	2123.46
2204.758	2108.61
2207.935	2180.24
2211.111	2101.52
2214.288	2089.06
2217.464	2125.25
2220.64	2080.19
2223.815	2128.63
2226.991	2063.47
2230.166	2077.89
2233.34	2120.31
2236.515	2133.4
2239.689	2197.87
2242.863	2149.15
2246.036	2198.89
2249.209	2182.26
2252.382	2199.31
2255.555	2209.51
2258.727	2160.68
2261.9	2187.83
2265.071	2180.46
2268.243	2177.83
2271.414	2127.24
2274.585	2111.28
2277.756	2170.75
2280.926	2128.98
2284.096	2161.07
2287.266	2090.18
2290.436	2136.28
2293.605	2155.1
2296.774	2191.95
2299.942	2195.71
2303.111	2210.93
2306.279	2263.59
2309.447	2248.44
2312.614	2218.37
2315.781	2244.18
2318.948	2219.96
2322.115	2258.03
2325.281	2158.98
2328.447	2167.3
2331.613	2136.94
2334.779	2130.31
2337.944	2125.09
2341.109	2127.17
2344.274	2116.55
2347.438	2084.31
2350.602	2104.27
2353.766	2111.75
2356.929	2101.31
2360.092	2138.6
2363.255	2109.72
2366.418	2078.23
2369.58	2141.92
2372.742	2024.6
2375.904	2015.7
2379.066	2000.84
2382.227	2027.64
2385.388	1990.55
2388.548	1943.7
2391.709	1983.37
2394.869	1973.88
2398.029	2025.82
2401.188	2021.47
2404.347	1987.05
2407.506	2060.48
2410.665	2101.04
2413.823	2087.97
2416.981	2067.14
2420.139	2083.46
2423.296	2123.23
2426.453	2097.08
2429.61	2116.15
2432.767	2090.45
2435.923	2131.24
2439.079	2075.65
2442.235	2107.86
2445.391	2049.36
2448.546	2090.67
2451.701	2122.83
2454.855	2120.05
2458.009	2147.16
2461.163	2134.58
2464.317	2109.52
2467.471	2134.2
2470.624	2159.76
2473.777	2151.53
2476.929	2169.42
2480.082	2193.14
2483.234	2166.54
2486.385	2110.25
2489.537	2102.77
2492.688	2091.42
2495.839	2112.29
2498.989	2124.81
2502.14	2109.97
2505.29	2106.15
2508.439	2127.47
2511.589	2069.52
2514.738	2069.16
2517.887	2091.84
2521.035	2166.93
2524.183	2126.55
2527.331	2117.03
2530.479	2109.27
2533.627	2111.57
