Data from C_1_DIV_PA_2N_Splice17_12-00-58-092.txt Node
Date: Sat Mar 14 12:00:58 EDT 2020
User: sa697716
Spectrometer: FLMS03696
Trigger mode: 0
Integration Time (sec): 3.180400E-1
Scans to average: 20
Electric dark correction enabled: true
Nonlinearity correction enabled: true
Boxcar width: 5
XAxis mode: Wavelengths
Number of Pixels in Spectrum: 2048
>>>>>Begin Spectral Data<<<<<
187.83	-264841.76
188.298	1893.89
188.766	1042.94
189.233	922.29
189.701	1245.2
190.169	1722.87
190.636	644.1
191.104	567.37
191.571	108.16
192.039	-42.04
192.506	-22.65
192.974	446.54
193.441	-822.85
193.908	-114.07
194.375	-26.48
194.842	-20.91
195.31	17.66
195.777	118.29
196.244	325.29
196.711	354.77
197.177	428.8
197.644	605.05
198.111	1028.25
198.578	1429.35
199.045	1115.22
199.511	1781.2
199.978	2067.63
200.445	1772.21
200.911	1953.98
201.378	2149.36
201.844	1973.85
202.31	3316.9
202.777	3427.93
203.243	1878.08
203.709	1779.26
204.176	2117.82
204.642	1751.13
205.108	1629.12
205.574	1306.58
206.04	1163.14
206.506	1081.79
206.972	999.19
207.438	976.45
207.903	1098.06
208.369	988.59
208.835	979.29
209.301	1027.17
209.766	1049.55
210.232	1031.35
210.697	1275.55
211.163	1562.53
211.628	2358.58
212.094	1968.96
212.559	2415.25
213.024	1500.7
213.49	1831.84
213.955	1768.55
214.42	1685.33
214.885	1561.85
215.35	1493.09
215.815	1456.44
216.28	1555.32
216.745	1234.13
217.21	1320.17
217.675	1165.66
218.14	1288.18
218.604	1382.59
219.069	1546.96
219.534	1600.3
219.998	1797.86
220.463	2122.96
220.927	2517.69
221.392	2314.75
221.856	2345.8
222.32	2886.96
222.785	3578.58
223.249	4453.11
223.713	4929.26
224.177	4924.95
224.642	6265.7
225.106	7704.46
225.57	8423.37
226.034	6299.4
226.497	9662.73
226.961	8744.01
227.425	10246.49
227.889	11376
228.353	11371.35
228.816	23421.09
229.28	22481.81
229.744	18974.05
230.207	11599.44
230.671	11454.8
231.134	18881.53
231.597	21745.88
232.061	21666.22
232.524	21107.68
232.987	14536.11
233.45	13161.78
233.914	11874.12
234.377	12126.73
234.84	11154.3
235.303	13183.39
235.766	14730.45
236.229	15271.1
236.691	9621.55
237.154	10835.12
237.617	8200.97
238.08	8421.74
238.542	9865.62
239.005	7061.33
239.468	7038.68
239.93	6645.3
240.393	6047.55
240.855	5316.33
241.317	5456.08
241.78	6640.55
242.242	6895.27
242.704	7467.96
243.166	6522.27
243.629	5940.9
244.091	6867.46
244.553	7552.51
245.015	8143.4
245.477	10522.87
245.939	15458.12
246.4	16396.29
246.862	15962.41
247.324	15078.2
247.786	16862.13
248.247	22085.25
248.709	22855.64
249.17	17143
249.632	16217.46
250.093	18892.4
250.555	16357.67
251.016	10017.1
251.477	9535.72
251.939	10331.01
252.4	10855.36
252.861	12948.32
253.322	12085.68
253.783	14372.67
254.244	18627.29
254.705	14676.24
255.166	13022.21
255.627	12869.52
256.088	18199.38
256.549	19376.62
257.009	16689.55
257.47	20262.24
257.931	16514.33
258.391	12396.63
258.852	12805.64
259.312	13464.47
259.773	16658.69
260.233	14139.13
260.694	11941.16
261.154	13558.72
261.614	10940.24
262.074	9818.35
262.534	10239.49
262.994	9673.54
263.455	12909.37
263.915	10925.78
264.374	10303.39
264.834	11281.65
265.294	12507.32
265.754	12997.19
266.214	12315.88
266.673	11530.93
267.133	14573.46
267.593	14448.72
268.052	17699.89
268.512	15379.61
268.971	18556.98
269.431	20398.02
269.89	18276.75
270.349	27467.3
270.809	30690.99
271.268	27651.81
271.727	62131.94
272.186	40281.66
272.645	30271.57
273.104	21861.35
273.563	31708.51
274.022	24956.26
274.481	21315.06
274.94	16454.9
275.399	12234.91
275.857	14242.63
276.316	19249.19
276.775	17143.44
277.233	16916.45
277.692	15900.32
278.15	18026.24
278.609	18619.46
279.067	17266.09
279.525	16020.8
279.984	20714.23
280.442	24906.69
280.9	24638.7
281.358	16282.33
281.816	15216.63
282.274	14885.35
282.732	15375.43
283.19	15478.96
283.648	13353.15
284.106	14235.23
284.564	14516.36
285.021	13497.76
285.479	10080.49
285.937	9150.01
286.394	8039.47
286.852	8276.44
287.309	8731.69
287.767	8448.15
288.224	8048.97
288.682	8859.12
289.139	9765.95
289.596	8967.67
290.053	9341.82
290.511	11810.35
290.968	14375.92
291.425	19547.07
291.882	16313.26
292.339	14247.26
292.796	14152.7
293.252	13339.55
293.709	10628.1
294.166	9521.08
294.623	10516.4
295.079	10079.91
295.536	10152.61
295.992	9225.33
296.449	9134.85
296.905	9502.16
297.362	9126.86
297.818	9613.63
298.274	10005.45
298.731	10197.5
299.187	10105
299.643	10875.79
300.099	13187.49
300.555	14498.97
301.011	12151.39
301.467	11752.62
301.923	13782.18
302.379	13488.37
302.835	13276.48
303.291	13312.31
303.746	15182.12
304.202	19233.68
304.658	19342.8
305.113	13025.26
305.569	12755.77
306.024	13601.97
306.479	12924.32
306.935	10917.96
307.39	11909.57
307.845	11020.91
308.301	11115.55
308.756	10846.13
309.211	10481.04
309.666	10738.86
310.121	13364.68
310.576	13578.77
311.031	13472.88
311.486	15450.65
311.94	15430.29
312.395	20659.11
312.85	38864.2
313.305	190713.97
313.759	989039.12
314.214	71648.41
314.668	56864.65
315.123	47966.18
315.577	17262
316.032	15404.75
316.486	19312.89
316.94	15295.19
317.394	10667.09
317.849	8287.94
318.303	7846.66
318.757	7425.48
319.211	8229.3
319.665	7219.63
320.119	7301.01
320.572	10476.59
321.026	9795.19
321.48	8158.93
321.934	8888.07
322.387	8912.34
322.841	9648.76
323.295	8713.71
323.748	10016.64
324.202	10135.8
324.655	12177.97
325.108	17089.75
325.562	12083.98
326.015	14370.73
326.468	10897.59
326.921	12203.83
327.374	11430.8
327.827	11912.23
328.28	13514.11
328.733	9099.77
329.186	8013.41
329.639	7650.07
330.092	6431.7
330.545	6144.76
330.997	6203.83
331.45	6788.76
331.903	7969.21
332.355	13693.81
332.808	13324.35
333.26	10988.76
333.713	11905.87
334.165	12009.64
334.617	16000.14
335.069	12934.77
335.522	23298.54
335.974	25814.27
336.426	23561.38
336.878	16321.56
337.33	8283.1
337.782	8105.88
338.234	10162.54
338.686	12146.69
339.137	14376.37
339.589	13581.32
340.041	10668.44
340.493	9209.98
340.944	9463.33
341.396	10224.13
341.847	8637.4
342.299	10228.4
342.75	12494.67
343.201	10926.13
343.653	12617.46
344.104	15554.83
344.555	12258.86
345.006	19052.77
345.457	14639.29
345.908	11654.78
346.359	10981.13
346.81	8933.16
347.261	9408.43
347.712	9264.95
348.163	9938.87
348.613	10097.24
349.064	9456.55
349.515	8299.49
349.965	8534.82
350.416	10278.97
350.866	11287.13
351.317	12780.72
351.767	21179.66
352.217	26790.47
352.668	22331.06
353.118	20505.07
353.568	19724.76
354.018	15605.16
354.468	16474.98
354.918	11832.87
355.368	10365.19
355.818	14635.98
356.268	42140.93
356.718	177204.87
357.168	44282.56
357.617	22213.78
358.067	24772.33
358.517	23317.25
358.966	27436.06
359.416	30839.96
359.865	33440.9
360.315	39840.37
360.764	18671.58
361.213	10471.32
361.663	9903.39
362.112	12184.55
362.561	19712.01
363.01	14863.59
363.459	12528.28
363.908	13530.27
364.357	11527.46
364.806	19499.48
365.255	13431.38
365.703	12313.61
366.152	12355.67
366.601	10015.12
367.05	8180.41
367.498	7455.77
367.947	7799.14
368.395	8121.98
368.844	7230.45
369.292	8695.16
369.74	6025.53
370.189	9231.48
370.637	10844.49
371.085	9362.22
371.533	11455.05
371.981	11040.61
372.429	10568.1
372.877	11031.61
373.325	9256.08
373.773	9439.54
374.221	8448.28
374.669	10476.07
375.116	9055.36
375.564	9163.95
376.012	10302.45
376.459	8539.4
376.907	10228.35
377.354	12378.28
377.801	11591.84
378.249	13348.81
378.696	17124.68
379.143	20807.06
379.591	22330.73
380.038	38068.58
380.485	27592.02
380.932	29788.34
381.379	27347.46
381.826	20208.77
382.273	14434.2
382.72	12651.76
383.166	12425.49
383.613	8087.4
384.06	7309.15
384.506	8487.89
384.953	6267.31
385.4	6330.29
385.846	5599.3
386.292	5486.52
386.739	5416.46
387.185	5383.07
387.631	5437.19
388.078	5315.64
388.524	5734.02
388.97	5347.55
389.416	4502.24
389.862	4818.57
390.308	4599.21
390.754	4713.82
391.2	5162.73
391.645	5359.74
392.091	5228.52
392.537	5138.02
392.983	5207.9
393.428	5189.78
393.874	5630.89
394.319	5758.23
394.765	5611.9
395.21	5961.29
395.655	5777.75
396.101	5601.79
396.546	5231.57
396.991	5444.67
397.436	5240.39
397.881	5264.22
398.326	5211.23
398.771	5140.02
399.216	4680.48
399.661	4366.53
400.106	4485.54
400.551	4719.94
400.995	4348.14
401.44	4400.95
401.885	4218.02
402.329	4333.87
402.774	4218.24
403.218	4131.56
403.663	4042.92
404.107	4211.78
404.551	4312.68
404.995	4030.66
405.44	3967.27
405.884	4104.06
406.328	4046.59
406.772	4104.2
407.216	3800.45
407.66	3746.5
408.104	3648.14
408.547	3487.68
408.991	3443.02
409.435	3373.31
409.879	3376.31
410.322	3373.51
410.766	3299.4
411.209	3182.63
411.653	3109.03
412.096	3093.81
412.54	3144.07
412.983	3161.24
413.426	3205.34
413.869	3246.03
414.312	3213.08
414.756	3128.07
415.199	3022.09
415.642	2967.68
416.085	2998.05
416.527	3002.88
416.97	3078.18
417.413	2939.23
417.856	2929.56
418.298	2911.65
418.741	2899.04
419.184	2903.93
419.626	3035.81
420.069	3039.6
420.511	3064.03
420.953	3007.67
421.396	2996.13
421.838	2941.15
422.28	3024.47
422.722	3053.42
423.164	3133.81
423.606	3112.51
424.048	3145.11
424.49	3015.69
424.932	3034.08
425.374	3022.19
425.816	3090.7
426.258	3141.2
426.699	3146.61
427.141	3053.9
427.582	3059.77
428.024	3007.92
428.465	2991.32
428.907	2943.74
429.348	2952.54
429.789	2984.61
430.231	2945.85
430.672	3017.47
431.113	2991.04
431.554	3019.31
431.995	3047.06
432.436	3034.07
432.877	3061.81
433.318	3073.96
433.759	3112.37
434.2	3150.96
434.64	3154.23
435.081	3202.96
435.522	3079.95
435.962	3018.88
436.403	2996.61
436.843	3083.52
437.284	3062.01
437.724	3014.54
438.164	3056.9
438.604	3012.53
439.045	2923.62
439.485	2834.45
439.925	2817.52
440.365	2790.21
440.805	2791.35
441.245	2785
441.685	2706.47
442.125	2710.56
442.564	2745.04
443.004	2694.13
443.444	2706.2
443.883	2727.14
444.323	2737.76
444.762	2778.23
445.202	2842.77
445.641	2907.38
446.081	2920.53
446.52	2967.3
446.959	2963.12
447.398	2919.88
447.837	2924.93
448.276	2912.63
448.716	2969.72
449.154	3014.05
449.593	2937.01
450.032	2924.18
450.471	2880.96
450.91	2888.72
451.349	2875.42
451.787	2863.15
452.226	2902.6
452.664	2895.79
453.103	2891.48
453.541	2890.06
453.98	2875.51
454.418	2905.76
454.856	2858.62
455.295	2853.91
455.733	2871.3
456.171	2888.61
456.609	2885.98
457.047	2884.32
457.485	2917.47
457.923	2917.52
458.361	2880.85
458.798	2900.06
459.236	2900.42
459.674	2938.3
460.111	2966.1
460.549	2949.72
460.987	2958.97
461.424	2970.99
461.862	2970.32
462.299	2942.65
462.736	2953.93
463.173	2977.26
463.611	2944.38
464.048	2943.99
464.485	2980.12
464.922	2975.54
465.359	2987.24
465.796	2938.05
466.233	2938.31
466.67	2929.93
467.106	2943.59
467.543	2945.71
467.98	2939.38
468.416	2908.09
468.853	2929.2
469.29	2881.98
469.726	2882.48
470.162	2836.52
470.599	2861.97
471.035	2872.51
471.471	2842.04
471.907	2866.41
472.344	2875.14
472.78	2896.78
473.216	2951.39
473.652	2924.12
474.088	2927.07
474.523	2924.9
474.959	2964.24
475.395	2945.42
475.831	2925.33
476.266	2943.03
476.702	2937.56
477.138	2905.97
477.573	2901.33
478.008	2891.64
478.444	2902.46
478.879	2919.03
479.314	2926.22
479.75	2913.86
480.185	2920.72
480.62	2938.62
481.055	2939.8
481.49	2940
481.925	2956.88
482.36	2959.96
482.795	2992.18
483.229	3016.96
483.664	3023.57
484.099	2988.11
484.534	2992.26
484.968	2984.32
485.403	2966.92
485.837	2940.73
486.271	2916.78
486.706	2915.08
487.14	2895.72
487.574	2865.24
488.009	2858.41
488.443	2847.98
488.877	2874.6
489.311	2880.7
489.745	2907.14
490.179	2921.53
490.613	2958.09
491.046	2974.96
491.48	2984.82
491.914	2974.87
492.348	2985.16
492.781	2990.32
493.215	2992.73
493.648	3000.67
494.082	3022.46
494.515	3015.13
494.948	3032.8
495.382	3044.04
495.815	3043.62
496.248	3044.35
496.681	3076.57
497.114	3101.66
497.547	3113.44
497.98	3129.11
498.413	3111.22
498.846	3109.87
499.279	3113.43
499.711	3108.36
500.144	3092.71
500.577	3100.84
501.009	3112.98
501.442	3115.68
501.874	3092.2
502.306	3084.18
502.739	3089.4
503.171	3134.11
503.603	3132.16
504.036	3145.61
504.468	3136.34
504.9	3145.25
505.332	3142.63
505.764	3130.01
506.196	3130.29
506.627	3149.88
507.059	3158.11
507.491	3159.17
507.923	3111.77
508.354	3122.57
508.786	3121.93
509.217	3144.51
509.649	3154.77
510.08	3174.42
510.512	3178.46
510.943	3175.9
511.374	3160.22
511.805	3173.01
512.237	3182.59
512.668	3228.29
513.099	3246.24
513.53	3249.51
513.961	3226.58
514.391	3236.12
514.822	3246.07
515.253	3270.37
515.684	3269.5
516.114	3284.16
516.545	3282.15
516.975	3294.87
517.406	3290.9
517.836	3263.68
518.267	3258.08
518.697	3287.4
519.127	3285.53
519.558	3289.07
519.988	3280.82
520.418	3287.14
520.848	3310.34
521.278	3310.19
521.708	3273.23
522.138	3278.57
522.567	3319.78
522.997	3339.95
523.427	3330.5
523.857	3320.48
524.286	3302.42
524.716	3300.6
525.145	3312.29
525.575	3307.15
526.004	3313.48
526.433	3322.26
526.863	3301.07
527.292	3262.72
527.721	3266.23
528.15	3283.04
528.579	3292.05
529.008	3314.46
529.437	3351.57
529.866	3360.59
530.295	3374.09
530.724	3374.38
531.152	3404.21
531.581	3414.08
532.01	3435.23
532.438	3440.07
532.867	3454.48
533.295	3474.58
533.723	3474.12
534.152	3462.92
534.58	3461.21
535.008	3430.92
535.436	3433.34
535.865	3447.35
536.293	3469.1
536.721	3486.77
537.149	3514.59
537.576	3498.9
538.004	3508.39
538.432	3517.06
538.86	3510.81
539.287	3523.72
539.715	3547.79
540.143	3554.7
540.57	3551.16
540.998	3552.24
541.425	3522.28
541.852	3503.72
542.28	3522.76
542.707	3512.9
543.134	3505.01
543.561	3514.69
543.988	3514.52
544.415	3528.32
544.842	3530.29
545.269	3529.63
545.696	3545.79
546.123	3585.51
546.549	3580.69
546.976	3568.83
547.403	3581.59
547.829	3598.52
548.256	3617.67
548.682	3626.08
549.108	3624.88
549.535	3639.25
549.961	3657.08
550.387	3643.02
550.813	3642.56
551.24	3666.42
551.666	3683.16
552.092	3678.12
552.518	3677.1
552.943	3672.58
553.369	3694.51
553.795	3712.72
554.221	3720.02
554.646	3717.18
555.072	3739.71
555.498	3749.3
555.923	3763.7
556.349	3785.47
556.774	3795.04
557.199	3791.8
557.625	3805.48
558.05	3795.67
558.475	3819.71
558.9	3819.97
559.325	3805.16
559.75	3798.28
560.175	3792.9
560.6	3788.44
561.025	3794.78
561.449	3805.51
561.874	3824.99
562.299	3831.3
562.723	3842.46
563.148	3818.52
563.572	3826.18
563.997	3848.05
564.421	3862.22
564.846	3861.49
565.27	3865.03
565.694	3855.25
566.118	3875.67
566.542	3887.04
566.966	3873.77
567.39	3862.03
567.814	3836.07
568.238	3833.76
568.662	3845.9
569.086	3855.17
569.509	3880.24
569.933	3859.95
570.357	3861.33
570.78	3834.58
571.204	3823.47
571.627	3819.83
572.05	3838.77
572.474	3859
572.897	3853.29
573.32	3854.87
573.743	3850.62
574.166	3826.26
574.589	3842.5
575.012	3837.71
575.435	3845.16
575.858	3837.13
576.281	3827.52
576.704	3810.31
577.126	3805.81
577.549	3803.82
577.972	3804.72
578.394	3802.67
578.817	3806.08
579.239	3787.54
579.661	3783.87
580.084	3775.54
580.506	3773.94
580.928	3792.62
581.35	3792.26
581.772	3806.4
582.194	3793.73
582.616	3780
583.038	3760.66
583.46	3753.25
583.882	3759.9
584.303	3784.61
584.725	3786.14
585.147	3784.51
585.568	3802.42
585.99	3813.02
586.411	3803.29
586.833	3819.44
587.254	3810.18
587.675	3841.53
588.096	3868.77
588.518	3851.1
588.939	3807.46
589.36	3803.95
589.781	3800.96
590.202	3748.47
590.623	3759.7
591.043	3790.89
591.464	3788.28
591.885	3801.48
592.305	3803.44
592.726	3784.1
593.147	3803.83
593.567	3805.41
593.987	3799.37
594.408	3796.63
594.828	3805.52
595.248	3795.07
595.669	3752.68
596.089	3744.2
596.509	3738.46
596.929	3710.95
597.349	3715.88
597.769	3690.06
598.189	3671.87
598.608	3672.86
599.028	3673.14
599.448	3671.32
599.867	3641.43
600.287	3634.95
600.706	3626.6
601.126	3603.96
601.545	3603.44
601.965	3605.66
602.384	3598.21
602.803	3613.07
603.222	3605.3
603.641	3596.16
604.061	3592.27
604.48	3586.24
604.898	3611.49
605.317	3627.65
605.736	3635.8
606.155	3628.47
606.574	3606.41
606.992	3621.46
607.411	3609.26
607.829	3592.22
608.248	3588.33
608.666	3589.21
609.085	3591.39
609.503	3572.54
609.921	3560.54
610.339	3570.64
610.758	3577
611.176	3570.31
611.594	3553.08
612.012	3554.17
612.43	3569.39
612.847	3592.11
613.265	3594.78
613.683	3610.88
614.101	3621.65
614.518	3619.54
614.936	3603.05
615.353	3573.8
615.771	3577.41
616.188	3590.63
616.606	3592.77
617.023	3587.39
617.44	3565.53
617.857	3567.69
618.274	3562.57
618.691	3557.18
619.108	3544.95
619.525	3535.95
619.942	3560.01
620.359	3570.47
620.776	3560.24
621.192	3548.35
621.609	3539.5
622.026	3551.34
622.442	3560.39
622.859	3564.4
623.275	3542.64
623.691	3554.33
624.108	3583.49
624.524	3619.18
624.94	3613.19
625.356	3635.49
625.772	3667.55
626.188	3698.03
626.604	3697.99
627.02	3684.03
627.436	3673.48
627.852	3687.82
628.268	3716.85
628.683	3689.89
629.099	3667.68
629.514	3661.19
629.93	3675.69
630.345	3695.19
630.761	3693.53
631.176	3713.96
631.591	3704.88
632.007	3700.86
632.422	3712.51
632.837	3696.67
633.252	3702.8
633.667	3690.66
634.082	3682.71
634.497	3663.67
634.911	3624.75
635.326	3636.32
635.741	3609.96
636.155	3608.53
636.57	3635.34
636.984	3656.44
637.399	3684.09
637.813	3714.08
638.228	3738.43
638.642	3780.4
639.056	3779.71
639.47	3813.5
639.884	3818.4
640.298	3831.71
640.712	3860.54
641.126	3858.06
641.54	3870.45
641.954	3898.99
642.368	3896.68
642.781	3900.2
643.195	3876.56
643.609	3911.28
644.022	3923.45
644.436	3939.57
644.849	3926.79
645.262	3915.86
645.676	3950.53
646.089	3954.99
646.502	3915.16
646.915	3917.9
647.328	3887.56
647.741	3907.01
648.154	3886.55
648.567	3892.92
648.98	3864.74
649.393	3892.12
649.805	3901.09
650.218	3895.11
650.631	3857.26
651.043	3859.94
651.456	3854.65
651.868	3872.08
652.28	3946.11
652.693	3992.4
653.105	4002.2
653.517	4015.54
653.929	3990.97
654.341	3996.21
654.753	3940.17
655.165	3965.89
655.577	3962.14
655.989	3960.37
656.401	3952.83
656.813	3833.45
657.224	3799.4
657.636	3748.84
658.047	3737.68
658.459	3722.04
658.87	3745.84
659.282	3749.25
659.693	3697.77
660.104	3670.14
660.515	3645.49
660.926	3666.74
661.338	3689.84
661.749	3691.19
662.159	3672.14
662.57	3684.03
662.981	3685.72
663.392	3669.66
663.803	3705.61
664.213	3719.12
664.624	3721.17
665.035	3753.02
665.445	3707.57
665.855	3683.69
666.266	3655.47
666.676	3657.54
667.086	3624.25
667.497	3624.02
667.907	3601.25
668.317	3561.18
668.727	3529.1
669.137	3533.96
669.547	3518.54
669.956	3529.99
670.366	3536.65
670.776	3539.16
671.186	3552.81
671.595	3558.07
672.005	3570.09
672.414	3554.18
672.824	3534.31
673.233	3563.35
673.642	3562.31
674.052	3561.28
674.461	3552.02
674.87	3561.99
675.279	3533.12
675.688	3531.23
676.097	3519.87
676.506	3490.94
676.915	3545.62
677.323	3543.2
677.732	3518.73
678.141	3502.52
678.549	3444.12
678.958	3429.83
679.366	3412.01
679.775	3422.3
680.183	3435.23
680.592	3441.86
681	3442.11
681.408	3383.1
681.816	3388.94
682.224	3397.32
682.632	3396.16
683.04	3476.76
683.448	3515.32
683.856	3549.92
684.264	3579.67
684.671	3597.41
685.079	3631.56
685.487	3676
685.894	3772.78
686.302	3818.84
686.709	3820.23
687.116	3844.78
687.524	3831.16
687.931	3815.1
688.338	3805.44
688.745	3801.25
689.152	3805.45
689.559	3827.64
689.966	3832
690.373	3774.99
690.78	3762.44
691.187	3801.26
691.593	3791.28
692	3770.87
692.407	3789.69
692.813	3831.56
693.22	3842.35
693.626	3861.43
694.032	3860.94
694.439	3915.54
694.845	3942.15
695.251	3997.89
695.657	4035.17
696.063	4133.54
696.469	4182.72
696.875	4217.77
697.281	4201.47
697.687	4197.26
698.093	4174.63
698.498	4208.14
698.904	4213.91
699.31	4267.56
699.715	4284.16
700.12	4352.68
700.526	4320.72
700.931	4368.63
701.337	4399.6
701.742	4408.58
702.147	4493.14
702.552	4504.33
702.957	4558.7
703.362	4562.43
703.767	4578.44
704.172	4611.24
704.577	4523.92
704.981	4564.99
705.386	4560.61
705.791	4525.73
706.195	4602.95
706.6	4592.77
707.004	4677.84
707.408	4617.41
707.813	4632.74
708.217	4598.13
708.621	4582
709.025	4690.25
709.43	4670.59
709.834	4730.08
710.237	4800.32
710.641	4759.33
711.045	4767.91
711.449	4741.71
711.853	4754.34
712.256	4781.99
712.66	4804.24
713.064	4866.75
713.467	4873.46
713.87	4949.51
714.274	4927.54
714.677	4963.16
715.08	5045.41
715.484	5118.2
715.887	5215.99
716.29	5303.3
716.693	5390.38
717.096	5499.82
717.499	5512.05
717.901	5456.61
718.304	5449.71
718.707	5484.2
719.109	5429.19
719.512	5458.64
719.915	5383.49
720.317	5381.28
720.719	5472.49
721.122	5483.91
721.524	5472.42
721.926	5454.76
722.328	5565.65
722.731	5541.63
723.133	5537.66
723.535	5693.79
723.937	5669.54
724.338	5684.77
724.74	5698.05
725.142	5612.78
725.544	5611.43
725.945	5636.98
726.347	5638.9
726.748	5636.36
727.15	5659.24
727.551	5627.77
727.952	5606.36
728.354	5583.95
728.755	5600.68
729.156	5586.07
729.557	5619.86
729.958	5533.27
730.359	5526.05
730.76	5561.62
731.161	5558.1
731.562	5587.63
731.962	5647.67
732.363	5628.23
732.763	5605.75
733.164	5686.59
733.564	5641.82
733.965	5556.65
734.365	5532.61
734.766	5577.9
735.166	5539.56
735.566	5476.16
735.966	5442.61
736.366	5434.26
736.766	5368.15
737.166	5409.41
737.566	5370.06
737.966	5347.2
738.365	5397.78
738.765	5395.86
739.165	5311.65
739.564	5285.7
739.964	5345.1
740.363	5305.96
740.763	5316.05
741.162	5311.26
741.561	5280.37
741.96	5232.01
742.36	5264.23
742.759	5276.41
743.158	5329.23
743.557	5352.71
743.955	5401.44
744.354	5352.49
744.753	5415.32
745.152	5365.53
745.55	5427.48
745.949	5418.76
746.348	5418.51
746.746	5431.8
747.144	5378.31
747.543	5347.83
747.941	5395.5
748.339	5310.62
748.737	5292.52
749.136	5277.18
749.534	5342.71
749.932	5303.39
750.33	5323.14
750.727	5381.07
751.125	5348.12
751.523	5330.61
751.921	5375.03
752.318	5335.61
752.716	5397.76
753.113	5411.66
753.511	5435.15
753.908	5430.72
754.305	5404
754.703	5468.81
755.1	5527.7
755.497	5584.1
755.894	5768.14
756.291	5901.89
756.688	6135.53
757.085	6399.46
757.482	6753.87
757.878	7081.39
758.275	7302.15
758.672	7702.83
759.068	7932.94
759.465	8356.73
759.861	8916.66
760.258	9549.49
760.654	9695.04
761.05	9398.09
761.447	8951.7
761.843	8458.3
762.239	8003.5
762.635	7910.4
763.031	7795.95
763.427	7533.78
763.822	7246.49
764.218	6980.81
764.614	6555.84
765.01	6331.3
765.405	6238.39
765.801	6193.52
766.196	6056.53
766.592	6032.24
766.987	5858.65
767.382	5759.79
767.778	5765.71
768.173	5709.61
768.568	5692.45
768.963	5607.67
769.358	5658.63
769.753	5637.68
770.148	5568.24
770.542	5582.9
770.937	5559.34
771.332	5662.63
771.726	5689.65
772.121	5617.27
772.515	5673.19
772.91	5656.89
773.304	5732.3
773.699	5662.16
774.093	5715.06
774.487	5767.31
774.881	5803.03
775.275	5789.32
775.669	5736
776.063	5773.16
776.457	5807.21
776.851	5718.95
777.245	5697.01
777.638	5720.58
778.032	5828.6
778.425	5778.03
778.819	5812.63
779.212	5759.14
779.606	5708.37
779.999	5715.65
780.392	5685.92
780.786	5754.72
781.179	5761.22
781.572	5794.52
781.965	5791.77
782.358	5718.13
782.751	5759.05
783.143	5690.91
783.536	5746.23
783.929	5770.84
784.322	5869.04
784.714	5877.35
785.107	5852.82
785.499	5898
785.891	5847.83
786.284	5802.57
786.676	5911.22
787.068	5858.11
787.46	5879.53
787.852	5870.11
788.245	5923.26
788.636	5917.79
789.028	5953.95
789.42	5964.02
789.812	5949.64
790.204	6016.91
790.595	6086.88
790.987	5887.54
791.378	5898.49
791.77	6003.74
792.161	6113.69
792.553	6148.72
792.944	6031.99
793.335	5948.41
793.726	5996.09
794.117	6060.95
794.508	6171.82
794.899	6130.76
795.29	6244.98
795.681	6281.76
796.072	6137.74
796.463	5954.27
796.853	5944.61
797.244	6068.53
797.634	6081.95
798.025	6062.31
798.415	6054.42
798.806	6107.65
799.196	6159.56
799.586	6172.08
799.976	6108.93
800.366	6278.49
800.756	6456.5
801.146	6390.83
801.536	6390.22
801.926	6430.47
802.316	6431.63
802.706	6468.92
803.095	6345.21
803.485	6410.55
803.874	6429.19
804.264	6627.17
804.653	6587.89
805.043	6688.05
805.432	6759.47
805.821	6735.44
806.21	6721.59
806.599	6789.25
806.988	6788.83
807.377	6840.19
807.766	6897.15
808.155	7074.15
808.544	6815.08
808.933	6768.8
809.321	6698.62
809.71	6867.67
810.098	6921.48
810.487	7200.81
810.875	7470.49
811.264	7394.27
811.652	7503.97
812.04	7503.44
812.428	7508.27
812.816	7922.2
813.204	8093.05
813.592	8332.61
813.98	8431.77
814.368	8261.32
814.756	8472.99
815.144	8330.65
815.531	8552.8
815.919	8441.96
816.306	8590.26
816.694	8356.94
817.081	8370.97
817.469	8581.13
817.856	8594.09
818.243	8774.66
818.63	9030.22
819.017	8768.61
819.404	8791.53
819.791	8982.54
820.178	9297.69
820.565	9395.16
820.952	9928.74
821.339	9594.14
821.725	9669.9
822.112	9184.54
822.498	9120.73
822.885	9160.35
823.271	9080.77
823.657	9328.85
824.044	9354.7
824.43	9423.63
824.816	9412.09
825.202	9138.15
825.588	9712.95
825.974	9680.37
826.36	9934.39
826.746	9907.69
827.132	10063.63
827.517	10001.65
827.903	9496.64
828.289	9480.31
828.674	8997.65
829.06	8911.37
829.445	9107.28
829.83	9284.38
830.216	9532.47
830.601	9723.98
830.986	9476.73
831.371	9385.72
831.756	9687.99
832.141	9441.64
832.526	9422.59
832.911	9576.36
833.295	9499.79
833.68	9766.15
834.065	9427.46
834.449	8914.93
834.834	8873.45
835.218	8870.58
835.603	9062.25
835.987	8939.14
836.371	9400.98
836.755	9338.5
837.139	9553.86
837.524	9680.77
837.908	9565.76
838.291	9586.46
838.675	9606.37
839.059	9706.89
839.443	9689.87
839.827	9545.76
840.21	9790.96
840.594	9687.63
840.977	9782.02
841.361	9745.68
841.744	9931.93
842.127	9829.71
842.511	9946.45
842.894	10256.62
843.277	10447.05
843.66	10715.89
844.043	10742.27
844.426	10281.68
844.809	10094.27
845.191	10093.95
845.574	9836.29
845.957	9624.86
846.339	9544.05
846.722	9229.76
847.104	9238.65
847.487	9111.96
847.869	9087.29
848.252	9201.63
848.634	9358.93
849.016	9466.74
849.398	9504.52
849.78	9917.11
850.162	9891.98
850.544	10075.27
850.926	10360.35
851.307	10265.23
851.689	10369.05
852.071	10556.45
852.452	10691.41
852.834	10646.33
853.215	10823.83
853.597	10873.15
853.978	11005.13
854.359	11212.5
854.741	10703.92
855.122	10651.02
855.503	10523.47
855.884	10607.5
856.265	10594.33
856.646	10652.17
857.026	10450.47
857.407	10410.48
857.788	10471.67
858.169	10590.19
858.549	10151.49
858.93	10458.57
859.31	10473.27
859.69	10557.3
860.071	10330.92
860.451	10203.83
860.831	9818.12
861.211	10369.52
861.591	10616.14
861.971	10585.8
862.351	10666.2
862.731	10824.83
863.111	10906.29
863.491	11031.2
863.87	11411.69
864.25	11542.2
864.629	11322.54
865.009	11535.28
865.388	11917.5
865.768	12739.75
866.147	12661.57
866.526	11938.28
866.905	12070.53
867.284	12741.59
867.663	12102.57
868.042	11615.16
868.421	11580.29
868.8	11754.49
869.179	11864.59
869.558	11169.69
869.936	10297.55
870.315	10484.56
870.693	10730.45
871.072	11563.08
871.45	11007.38
871.828	11132.05
872.207	11681.35
872.585	11489.77
872.963	11792.06
873.341	11379.77
873.719	11236.31
874.097	11088.29
874.475	11278.25
874.853	11523.4
875.23	11024.51
875.608	11476.45
875.986	12408.86
876.363	11859.88
876.741	12219.94
877.118	11909.26
877.495	12484.49
877.873	12676.52
878.25	13314.15
878.627	12764.79
879.004	12928.93
879.381	12859.13
879.758	12503.3
880.135	11631.47
880.512	12286.63
880.889	11940.74
881.265	11800.17
881.642	11678.48
882.019	11872.25
882.395	11633.54
882.772	12084.07
883.148	11551.68
883.524	11489.85
883.901	11410.72
884.277	11560.45
884.653	11466.55
885.029	11790.01
885.405	13049.53
885.781	12935.8
886.157	12375.94
886.532	12507.2
886.908	12487.32
887.284	13871.27
887.659	14313.97
888.035	14740.63
888.411	15108.22
888.786	15305.81
889.161	15817.41
889.537	15496.65
889.912	15979.16
890.287	15942.03
890.662	16320.47
891.037	15990.82
891.412	14875.75
891.787	14692.52
892.162	14158.55
892.536	14441.45
892.911	13847.89
893.286	13503.82
893.66	12911.41
894.035	13179.89
894.409	14285.64
894.784	13668.46
895.158	13839.55
895.532	14602.52
895.906	14932.49
896.281	15199.75
896.655	14898.34
897.029	16956.56
897.402	17597.48
897.776	19521.23
898.15	19401.16
898.524	19136
898.898	19322.61
899.271	21576.56
899.645	18655.56
900.018	17895.36
900.392	18563
900.765	18720.4
901.138	17344.42
901.511	17095.27
901.884	15739.94
902.258	14551.92
902.631	15077.68
903.003	17391.01
903.376	15729.9
903.749	17673.16
904.122	18938.74
904.495	20853.7
904.867	21097.57
905.24	18297.63
905.612	17010.92
905.985	17342
906.357	18077.96
906.729	17201.85
907.102	14649.44
907.474	14040.91
907.846	14087.73
908.218	13876.71
908.59	12248.02
908.962	11826.82
909.334	12716.58
909.705	13336.75
910.077	12940.21
910.449	13458.46
910.82	13830.9
911.192	15206.2
911.563	15779.17
911.935	16858.47
912.306	16857.82
912.677	17373.65
913.048	17207.39
913.419	18636.49
913.79	18728.54
914.161	20042.62
914.532	19153.68
914.903	17585.05
915.274	16680.86
915.645	16437
916.015	14467.64
916.386	13794.43
916.756	14704.8
917.127	15138.66
917.497	13541.66
917.868	14761.15
918.238	14039.24
918.608	14447.21
918.978	14768.62
919.348	15661.06
919.718	16216.72
920.088	15644.83
920.458	16288.01
920.828	17127.68
921.198	16266.01
921.567	17385.39
921.937	13457.99
922.306	13583.82
922.676	14651.13
923.045	12222.52
923.415	11610.43
923.784	10564.97
924.153	10860.29
924.522	10839.72
924.891	10188.82
925.26	10901.37
925.629	10631.74
925.998	12193.24
926.367	11896.14
926.736	11318.51
927.104	13427.71
927.473	14379.57
927.842	17307.47
928.21	17037
928.578	17811.62
928.947	16775.16
929.315	16794.7
929.683	19588.45
930.051	19645.52
930.42	22655.76
930.788	19244.02
931.156	18996.86
931.523	17748.15
931.891	16316.96
932.259	15634.19
932.627	18047.56
932.994	25369.07
933.362	20927.5
933.729	18121.45
934.097	17290.73
934.464	14604.19
934.831	16803.28
935.199	16556.54
935.566	16015.04
935.933	16164.72
936.3	19549.88
936.667	15223.9
937.034	13822.6
937.401	13654.78
937.767	11795.13
938.134	10540.78
938.501	14902.04
938.867	15932.59
939.234	27040.07
939.6	23139.08
939.967	25694.73
940.333	17298.86
940.699	14769.6
941.065	11800.65
941.431	15498.06
941.798	14993.91
942.163	19683.24
942.529	12292.77
942.895	11305.13
943.261	7312.21
943.627	9594.02
943.992	8383.14
944.358	8373.33
944.723	8405.65
945.089	8185.98
945.454	7573.23
945.82	8063.72
946.185	7746.55
946.55	8984.44
946.915	8074.86
947.28	9473.1
947.645	8354.31
948.01	7728.71
948.375	8061.34
948.74	9637.32
949.104	11248.46
949.469	16177.05
949.834	28603.33
950.198	27213.86
950.562	16297.86
950.927	13546.95
951.291	16223.57
951.655	13791.53
952.02	12911.35
952.384	9777.28
952.748	8539.83
953.112	8355.91
953.476	7275.01
953.839	6720.03
954.203	6648.44
954.567	8315.18
954.931	13054.34
955.294	11208.6
955.658	11265.5
956.021	19148.58
956.385	32359.36
956.748	47740.34
957.111	73769.79
957.474	82787.57
957.837	93288.16
958.2	70462.51
958.563	25349.68
958.926	17193.38
959.289	26070.53
959.652	29163.78
960.015	21943.09
960.377	31495.68
960.74	35897.33
961.102	62018.82
961.465	66675.06
961.827	36004.23
962.189	69038.34
962.552	47963.76
962.914	38433.72
963.276	24982.86
963.638	20714.17
964	20494.88
964.362	13899.6
964.724	13423.94
965.085	9586.66
965.447	7881.39
965.809	8923.2
966.17	8952.51
966.532	9697.12
966.893	8927.4
967.255	8133.86
967.616	9597.54
967.977	7706.12
968.338	8423.37
968.699	6962.8
969.061	6958.34
969.421	7026.05
969.782	7894.7
970.143	6682.14
970.504	6950.72
970.865	7930.06
971.225	8139.38
971.586	7963.2
971.946	11336.94
972.307	9817.55
972.667	12805.8
973.027	13225.38
973.388	15985.36
973.748	10891.95
974.108	11867.43
974.468	15977.12
974.828	12310.51
975.188	9449.11
975.548	8670.74
975.907	7283.59
976.267	8179.81
976.627	6879.94
976.986	7117.93
977.346	6793.98
977.705	6535.9
978.064	5945.39
978.424	4963.78
978.783	5109.93
979.142	5812.44
979.501	5580.43
979.86	5928.71
980.219	5725.59
980.578	7379.22
980.937	8271.55
981.296	7372.34
981.654	7594.31
982.013	11810.21
982.371	15313.94
982.73	14348.14
983.088	16296.82
983.447	17408.18
983.805	24848.93
984.163	52001.68
984.521	57651.86
984.879	84575.67
985.237	-137959.35
985.595	133326.21
985.953	33106.79
986.311	19125.87
986.669	11118.25
987.026	9597.39
987.384	12907.91
987.741	13320.73
988.099	9545.08
988.456	7647.37
988.814	7185.6
989.171	6258.05
989.528	6128.61
989.885	6476.63
990.242	5156.81
990.599	6424.02
990.956	5258.2
991.313	3667.6
991.67	3025.72
992.027	3239.01
992.383	2886.03
992.74	2535.54
993.096	2664.26
993.453	2778.69
993.809	2884.23
994.165	3836.18
994.522	3548.26
994.878	3914.59
995.234	4930.25
995.59	4851.34
995.946	4525.37
996.302	5157.34
996.658	5947.17
997.013	6528.88
997.369	7785.45
997.725	10009.65
998.08	6471.46
998.436	9857.77
998.791	13628.89
999.147	13614.1
999.502	14830.93
999.857	10855.88
1000.212	17643.76
1000.567	25158.69
1000.922	14576.57
1001.277	9226.78
1001.632	6870.75
1001.987	8831.63
1002.342	6352.46
1002.696	5089.14
1003.051	4062.42
1003.406	4953.59
1003.76	4900.07
1004.114	4864.02
1004.469	4098.7
1004.823	3393.77
1005.177	3651.18
1005.531	2885.78
1005.885	2582.82
1006.239	2924.54
1006.593	3678.95
1006.947	4934.68
1007.301	3672.75
1007.655	4019.53
1008.008	2953.24
1008.362	3313.56
1008.715	4729.07
1009.069	4296.08
1009.422	6533.46
1009.776	13006.2
1010.129	8609.88
1010.482	7141.87
1010.835	6004.83
1011.188	12549.11
1011.541	11850.54
1011.894	-72123.37
1012.247	212826.21
1012.6	14470.17
1012.952	9222.95
1013.305	4705.33
1013.657	3444.02
1014.01	3280.68
1014.362	2712.83
1014.715	2463.01
1015.067	2155.82
1015.419	2096.31
1015.771	1868.53
1016.123	1670.24
1016.475	1719.01
1016.827	1819.66
1017.179	1973.99
1017.531	1970.77
1017.883	2008.49
1018.234	1984.94
1018.586	2501.73
1018.938	2674.85
1019.289	3715.86
1019.64	4204.06
1019.992	3929.99
1020.343	3600.2
1020.694	2890.98
1021.045	2545.09
1021.396	2887.99
1021.747	3115.88
1022.098	3672.31
1022.449	2664.83
1022.8	2464.75
1023.151	1728.56
1023.501	1560.43
1023.852	1681.52
1024.202	1760.15
1024.553	1915.08
1024.903	1888.63
1025.253	1661.68
1025.604	1500.07
1025.954	1874.24
1026.304	2264.76
1026.654	2662.06
1027.004	3915.76
1027.354	6247.63
1027.703	5963.02
1028.053	7757.72
1028.403	11154.44
1028.753	15976.44
1029.102	20980.42
1029.452	105553.79
1029.801	4460.26
1030.15	2865.44
1030.499	2361.95
897.758	2236.96
901.051	2172.21
904.343	2204.78
907.636	2210.82
910.928	2274.11
914.22	2193.55
917.511	2197.68
920.803	2247.57
924.094	2246.91
927.384	2249.4
930.675	2213.99
933.965	2175.53
937.255	2204.07
940.544	2172.11
943.834	2174.01
947.123	2112.06
950.411	2200.22
953.7	2181.64
956.988	2163.83
960.276	2100.79
963.563	2149.54
966.851	2159.27
970.138	2202.55
973.424	2203.08
976.711	2157.82
979.997	2204.12
983.283	2249.55
986.568	2178.92
989.853	2171.91
993.138	2198.87
996.423	2282.81
999.708	2243.17
1002.992	2272.4
1006.275	2183.65
1009.559	2189.28
1012.842	2287.38
1016.125	2240.73
1019.408	2218.87
1022.69	2279.51
1025.972	2312.47
1029.254	2288.73
1032.536	2248.09
1035.817	2259.98
1039.098	2231.32
1042.379	2287.24
1045.659	2316.21
1048.939	2265.18
1052.219	2274.39
1055.498	2271.86
1058.778	2268.4
1062.057	2244.68
1065.335	2268.64
1068.614	2281.24
1071.892	2276.44
1075.17	2330.62
1078.447	2333.44
1081.724	2328.83
1085.001	2354.66
1088.278	2331.98
1091.554	2337.61
1094.83	2331.79
1098.106	2368.94
1101.382	2399.65
1104.657	2398.71
1107.932	2400.11
1111.206	2377.35
1114.481	2331.1
1117.755	2330.72
1121.029	2324.07
1124.302	2386.32
1127.575	2350.59
1130.848	2347.1
1134.121	2314.18
1137.393	2276.66
1140.665	2336.39
1143.937	2312.43
1147.208	2260.85
1150.48	2318.24
1153.75	2308.86
1157.021	2312.31
1160.291	2286.13
1163.561	2340.33
1166.831	2309.25
1170.101	2338.38
1173.37	2298.51
1176.639	2255.12
1179.907	2301.95
1183.176	2324.22
1186.444	2326.7
1189.711	2348.61
1192.979	2371.53
1196.246	2330.07
1199.513	2342.84
1202.78	2346.04
1206.046	2356.29
1209.312	2382.06
1212.578	2401.75
1215.843	2364.87
1219.108	2332.64
1222.373	2355.89
1225.638	2330.78
1228.902	2323.46
1232.166	2276.89
1235.43	2262.5
1238.693	2289.53
1241.956	2280.15
1245.219	2328.63
1248.482	2311.26
1251.744	2311.7
1255.006	2438.62
1258.268	2385.21
1261.529	2338.31
1264.79	2339.24
1268.051	2438.37
1271.312	2450.24
1274.572	2421.46
1277.832	2408.58
1281.092	2390.68
1284.351	2380.44
1287.61	2364.25
1290.869	2293.67
1294.128	2289.46
1297.386	2341.99
1300.644	2333.94
1303.902	2345.25
1307.159	2210.37
1310.416	2262.23
1313.673	2289.4
1316.93	2287.27
1320.186	2319.31
1323.442	2352.81
1326.697	2353.88
1329.953	2328.99
1333.208	2363.69
1336.463	2334.22
1339.717	2292.75
1342.972	2401.9
1346.226	2371.3
1349.479	2319.48
1352.733	2297.89
1355.986	2302.5
1359.238	2282.97
1362.491	2288.71
1365.743	2286.54
1368.995	2277.39
1372.247	2292.39
1375.498	2312.63
1378.749	2351.86
1382	2301.17
1385.251	2336.53
1388.501	2290.23
1391.751	2288.96
1395	2253.44
1398.25	2279.83
1401.499	2298.29
1404.748	2246.09
1407.996	2221.35
1411.244	2207.98
1414.492	2192.79
1417.74	2179.35
1420.987	2185.51
1424.234	2241.66
1427.481	2205.99
1430.728	2263.61
1433.974	2237.02
1437.22	2237.89
1440.465	2235.2
1443.711	2231.56
1446.956	2257.14
1450.201	2230.45
1453.445	2269.57
1456.689	2256.62
1459.933	2267.7
1463.177	2307.03
1466.42	2278.28
1469.663	2263.13
1472.906	2276.81
1476.148	2326.09
1479.391	2304.31
1482.633	2277.74
1485.874	2300.37
1489.115	2305.64
1492.356	2291.58
1495.597	2271.22
1498.838	2264.48
1502.078	2249.34
1505.318	2218.25
1508.557	2252.95
1511.797	2250.3
1515.036	2288.48
1518.274	2264.98
1521.513	2221.15
1524.751	2233.51
1527.989	2257.4
1531.227	2274.71
1534.464	2289.2
1537.701	2283.42
1540.938	2296.57
1544.174	2248.96
1547.41	2237.18
1550.646	2277.34
1553.882	2325.35
1557.117	2382.59
1560.352	2390.65
1563.587	2354.1
1566.821	2320.53
1570.055	2337.39
1573.289	2318.92
1576.523	2379.58
1579.756	2392.03
1582.989	2415.88
1586.222	2377.48
1589.454	2404.25
1592.686	2389.2
1595.918	2417.15
1599.15	2415.2
1602.381	2462.5
1605.612	2440.78
1608.843	2534.79
1612.073	2457.02
1615.303	2444.98
1618.533	2440.68
1621.762	2440.69
1624.992	2421.32
1628.221	2420.57
1631.449	2410.52
1634.678	2438.1
1637.906	2406.54
1641.134	2434.94
1644.361	2401.43
1647.588	2390.04
1650.815	2410.1
1654.042	2376.77
1657.269	2404.26
1660.495	2379.87
1663.72	2369.67
1666.946	2337.54
1670.171	2308.29
1673.396	2281.06
1676.621	2266.56
1679.845	2263.66
1683.069	2271.29
1686.293	2302.06
1689.517	2290.03
1692.74	2239.93
1695.963	2262.74
1699.185	2300.39
1702.408	2270.91
1705.63	2300.59
1708.852	2320.07
1712.073	2290.1
1715.294	2299.76
1718.515	2342.69
1721.736	2301.36
1724.956	2282.35
1728.176	2304.06
1731.396	2326.97
1734.616	2311.26
1737.835	2349.5
1741.054	2321.18
1744.272	2311.91
1747.491	2349.55
1750.709	2376.41
1753.927	2322.88
1757.144	2349.28
1760.361	2405.69
1763.578	2379.42
1766.795	2327.05
1770.011	2317.67
1773.227	2343.33
1776.443	2386.68
1779.658	2427.79
1782.874	2367.65
1786.089	2359.32
1789.303	2362.12
1792.518	2359.44
1795.732	2345.56
1798.945	2362.14
1802.159	2403
1805.372	2343.27
1808.585	2337.2
1811.797	2336.25
1815.01	2360.34
1818.222	2381.94
1821.434	2338.19
1824.645	2384.56
1827.856	2392.65
1831.067	2421.24
1834.278	2362.32
1837.488	2345.92
1840.698	2469.45
1843.908	2408.7
1847.117	2375.7
1850.326	2297.5
1853.535	2360.73
1856.744	2395.02
1859.952	2314.28
1863.16	2314.57
1866.368	2332.3
1869.575	2441.84
1872.782	2326.15
1875.989	2258.73
1879.196	2315.04
1882.402	2303.5
1885.608	2339.02
1888.814	2276.35
1892.019	2185.58
1895.224	2236.19
1898.429	2203.72
1901.634	2187.21
1904.838	2160.2
1908.042	2216.85
1911.246	2228.96
1914.449	2185.33
1917.652	2172.32
1920.855	2151.53
1924.058	2178.82
1927.26	2222.96
1930.462	2246.24
1933.664	2284.82
1936.865	2226.1
1940.066	2244.11
1943.267	2187.74
1946.467	2198.03
1949.668	2218.4
1952.868	2288.76
1956.067	2278.04
1959.267	2217.32
1962.466	2240.91
1965.665	2223.39
1968.863	2214.24
1972.061	2218.78
1975.259	2212.19
1978.457	2288.56
1981.654	2251.87
1984.852	2253.8
1988.048	2202.96
1991.245	2192.24
1994.441	2281.83
1997.637	2241.99
2000.833	2222.7
2004.028	2260.31
2007.223	2320.66
2010.418	2309.5
2013.613	2260.72
2016.807	2251.5
2020.001	2246.07
2023.194	2270.7
2026.388	2255.93
2029.581	2198.13
2032.774	2258.42
2035.966	2270.22
2039.158	2215.1
2042.35	2233.48
2045.542	2158.73
2048.733	2242.33
2051.924	2237.56
2055.115	2254.89
2058.306	2218.67
2061.496	2273.13
2064.686	2323.65
2067.875	2233.58
2071.065	2238.96
2074.254	2257.9
2077.442	2210.67
2080.631	2295.71
2083.819	2223.78
2087.007	2213.3
2090.195	2197.96
2093.382	2217.29
2096.569	2200.38
2099.756	2161.03
2102.942	2206.43
2106.128	2217.25
2109.314	2207.08
2112.5	2194.55
2115.685	2160.01
2118.87	2167.59
2122.055	2231.31
2125.239	2209.59
2128.424	2192.11
2131.608	2256.55
2134.791	2241.58
2137.974	2280.19
2141.157	2269.51
2144.34	2238.2
2147.523	2231.75
2150.705	2257.99
2153.887	2227.29
2157.068	2198.05
2160.25	2179.63
2163.431	2205.88
2166.611	2172.36
2169.792	2194.39
2172.972	2105.43
2176.152	2156.53
2179.331	2186.04
2182.511	2185.91
2185.69	2208.3
2188.868	2211.58
2192.047	2247.86
2195.225	2263.49
2198.403	2210.69
2201.58	2199.37
2204.758	2185.52
2207.935	2260.17
2211.111	2175.49
2214.288	2161.44
2217.464	2195.91
2220.64	2155.28
2223.815	2206.56
2226.991	2135.62
2230.166	2152.58
2233.34	2195.96
2236.515	2207.01
2239.689	2271.07
2242.863	2221.92
2246.036	2274.68
2249.209	2261.85
2252.382	2280.75
2255.555	2286.72
2258.727	2234.39
2261.9	2266.22
2265.071	2257.57
2268.243	2252.29
2271.414	2203.94
2274.585	2185.65
2277.756	2246.8
2280.926	2202.69
2284.096	2231.56
2287.266	2161.64
2290.436	2207.75
2293.605	2228.3
2296.774	2264.42
2299.942	2268.96
2303.111	2286.52
2306.279	2337.55
2309.447	2322.86
2312.614	2293.1
2315.781	2318.86
2318.948	2294.74
2322.115	2331.82
2325.281	2230.82
2328.447	2240.59
2331.613	2210.88
2334.779	2201.45
2337.944	2198.66
2341.109	2198.65
2344.274	2188.08
2347.438	2154.93
2350.602	2177.39
2353.766	2186.96
2356.929	2175.64
2360.092	2214.62
2363.255	2182.94
2366.418	2147.9
2369.58	2218.81
2372.742	2086.42
2375.904	2081.58
2379.066	2066.18
2382.227	2092.69
2385.388	2052.83
2388.548	2000.8
2391.709	2043.67
2394.869	2032.36
2398.029	2091.73
2401.188	2088.68
2404.347	2048.11
2407.506	2132.03
2410.665	2169.72
2413.823	2156.37
2416.981	2133.97
2420.139	2153.09
2423.296	2197.72
2426.453	2169.26
2429.61	2189.94
2432.767	2156.8
2435.923	2197.14
2439.079	2145.65
2442.235	2182.04
2445.391	2123.27
2448.546	2164.11
2451.701	2200.39
2454.855	2193.81
2458.009	2221.99
2461.163	2214.35
2464.317	2187.1
2467.471	2211.98
2470.624	2240.4
2473.777	2230.02
2476.929	2245.57
2480.082	2269.11
2483.234	2242.77
2486.385	2183.42
2489.537	2177.88
2492.688	2165.82
2495.839	2180.66
2498.989	2195.6
2502.14	2184.03
2505.29	2177.11
2508.439	2199.72
2511.589	2137.67
2514.738	2138.01
2517.887	2162.27
2521.035	2238.2
2524.183	2198.55
2527.331	2185.86
2530.479	2179.39
2533.627	2180.43
