Data from C_2_DIV_WI_4N_Splice17_12-18-58-484.txt Node
Date: Sat Mar 14 12:18:58 EDT 2020
User: sa697716
Spectrometer: FLMS03696
Trigger mode: 0
Integration Time (sec): 3.180400E-1
Scans to average: 20
Electric dark correction enabled: true
Nonlinearity correction enabled: true
Boxcar width: 5
XAxis mode: Wavelengths
Number of Pixels in Spectrum: 2048
>>>>>Begin Spectral Data<<<<<
187.83	-310005.31
188.298	2300.72
188.766	1241.67
189.233	1060.21
189.701	1527.07
190.169	2128.63
190.636	803.74
191.104	648.7
191.571	94.62
192.039	-48.26
192.506	-57.84
192.974	461.23
193.441	-621.32
193.908	-2.06
194.375	-39.24
194.842	9.25
195.31	45.59
195.777	133.77
196.244	346.2
196.711	464.16
197.177	591.52
197.644	840.06
198.111	1458.24
198.578	2059.14
199.045	1624.26
199.511	2675.31
199.978	3163.17
200.445	2698.96
200.911	2984.64
201.378	3374.82
201.844	3053.18
202.31	5204.09
202.777	5441.2
203.243	3026.23
203.709	2851.71
204.176	3422.92
204.642	2811.53
205.108	2628.31
205.574	2146.93
206.04	1963.09
206.506	1831.68
206.972	1727.51
207.438	1671.32
207.903	1905.59
208.369	1678.68
208.835	1687.72
209.301	1777.08
209.766	1822.73
210.232	1815.62
210.697	2253.28
211.163	2801.6
211.628	4235.69
212.094	3579.54
212.559	4429.34
213.024	2742.26
213.49	3358.87
213.955	3271.6
214.42	3187.28
214.885	3000.99
215.35	2860.03
215.815	2754.66
216.28	2923.6
216.745	2399.31
217.21	2593.69
217.675	2386.42
218.14	2696.33
218.604	3020.15
219.069	3477.11
219.534	3674.83
219.998	4289.97
220.463	5256.1
220.927	6533
221.392	6189.48
221.856	6281.47
222.32	7953.84
222.785	9864.21
223.249	12476.61
223.713	13957.07
224.177	13995.01
224.642	17985.12
225.106	22177.89
225.57	24243.92
226.034	18014.17
226.497	27416.25
226.961	24786.5
227.425	28859.45
227.889	32025.84
228.353	32086.21
228.816	66269.78
229.28	63394.39
229.744	53565.44
230.207	32544.8
230.671	32031.45
231.134	53064.1
231.597	61259.46
232.061	61261.9
232.524	59791.65
232.987	41153.22
233.45	36946.86
233.914	33140.97
234.377	33979.83
234.84	31076.7
235.303	36644.08
235.766	40836.05
236.229	42126.14
236.691	26484.53
237.154	29721.83
237.617	22338.54
238.08	22876.41
238.542	26816.54
239.005	19146.39
239.468	19001.14
239.93	17884.32
240.393	16251.72
240.855	14261.1
241.317	14609.19
241.78	17774.34
242.242	18382.83
242.704	19842.51
243.166	17261.69
243.629	15638.13
244.091	18008.66
244.553	19708.98
245.015	21171.89
245.477	27342.87
245.939	40055.11
246.4	42447.38
246.862	41184.09
247.324	38768.87
247.786	43318.55
248.247	56770.6
248.709	58628.41
249.17	43814.73
249.632	41187.45
250.093	47678.86
250.555	41132.05
251.016	25059.83
251.477	23742.52
251.939	25606.43
252.4	26819.36
252.861	31890.66
253.322	29625.58
253.783	35239.16
254.244	45682.36
254.705	35993.95
255.166	31989.96
255.627	31493.74
256.088	44338.41
256.549	47054.47
257.009	40533.11
257.47	49189.39
257.931	39998.41
258.391	29943.03
258.852	30802.53
259.312	32284.68
259.773	39831.78
260.233	33647.66
260.694	28359.7
261.154	32176.81
261.614	25817.73
262.074	23078.27
262.534	23961.16
262.994	22573.57
263.455	30089.53
263.915	25350.44
264.374	23868.18
264.834	26075.59
265.294	28889.77
265.754	29910.67
266.214	28296.37
266.673	26514.14
267.133	33435.61
267.593	33143.22
268.052	40539.37
268.512	35201.8
268.971	42394.53
269.431	46452.32
269.89	41562.95
270.349	62247.19
270.809	69390.03
271.268	62421.4
271.727	139868.56
272.186	90566.92
272.645	67908.7
273.104	48970.68
273.563	70958
274.022	55809.96
274.481	47439.29
274.94	36536.63
275.399	27173
275.857	31608.73
276.316	42697.78
276.775	37985
277.233	37395.43
277.692	34996.5
278.15	39564.24
278.609	40615.53
279.067	37562.95
279.525	34893.75
279.984	45077.14
280.442	54093.47
280.9	53311.34
281.358	35040.69
281.816	32627.52
282.274	31917.98
282.732	32949.45
283.19	33102.96
283.648	28578.02
284.106	30427.75
284.564	30941.94
285.021	28682.23
285.479	21378.93
285.937	19445.59
286.394	17056.97
286.852	17555.31
287.309	18447.72
287.767	17818.8
288.224	16927.18
288.682	18576.51
289.139	20385.34
289.596	18638.44
290.053	19332.35
290.511	24368.74
290.968	29527.84
291.425	40008.92
291.882	33269.15
292.339	28901.56
292.796	28655.76
293.252	27000.72
293.709	21408.45
294.166	19185.39
294.623	21197.62
295.079	20336.17
295.536	20422.61
295.992	18521.57
296.449	18323.7
296.905	19031.91
297.362	18254.73
297.818	19174.9
298.274	19871.97
298.731	20257.15
299.187	20011.12
299.643	21448.08
300.099	25911.8
300.555	28377.56
301.011	23701.85
301.467	22821.99
301.923	26690.34
302.379	26062.8
302.835	25591.31
303.291	25613.46
303.746	29099.28
304.202	36745.54
304.658	36864.59
305.113	24799.01
305.569	24292.4
306.024	25881.28
306.479	24632.6
306.935	20755.95
307.39	22649.64
307.845	20922.07
308.301	21075.84
308.756	20529.41
309.211	19769.34
309.666	20244.03
310.121	25107.35
310.576	25488.3
311.031	25289.37
311.486	28954.92
311.94	28943.83
312.395	38675.25
312.85	72630.88
313.305	355772.3
313.759	1843914.22
314.214	133649.52
314.668	105845.39
315.123	89000.23
315.577	31913.21
316.032	28356.11
316.486	35485.81
316.94	27962
317.394	19461.33
317.849	15131.33
318.303	14317.37
318.757	13475.36
319.211	14877.12
319.665	13025.33
320.119	13161.94
320.572	18846.75
321.026	17582.94
321.48	14631.9
321.934	15939.25
322.387	15948
322.841	17195.95
323.295	15442.55
323.748	17774.65
324.202	18021.3
324.655	21638.18
325.108	30208.03
325.562	21316.84
326.015	25316.91
326.468	19118.88
326.921	21394.21
327.374	19960.62
327.827	20777.58
328.28	23521.86
328.733	15772.55
329.186	13852.27
329.639	13173.75
330.092	11111.49
330.545	10577.88
330.997	10676.62
331.45	11658.92
331.903	13661.71
332.355	23474.14
332.808	22797.06
333.26	18805.82
333.713	20408.31
334.165	20593.62
334.617	27488.06
335.069	22162.01
335.522	40081.95
335.974	44382.39
336.426	40542.96
336.878	28034.94
337.33	14209.7
337.782	13886.83
338.234	17372.69
338.686	20791.38
339.137	24607.94
339.589	23224.97
340.041	18221.36
340.493	15658.34
340.944	15997.8
341.396	17240.41
341.847	14503.85
342.299	17097.09
342.75	20797.24
343.201	18151.85
343.653	20845.99
344.104	25590.23
344.555	20098.74
345.006	31211.36
345.457	23884.06
345.908	18974.36
346.359	17834.61
346.81	14514.22
347.261	15289.75
347.712	15064.15
348.163	16164.6
348.613	16336.58
349.064	15236.11
349.515	13311.08
349.965	13670.2
350.416	16437.57
350.866	18032.99
351.317	20375.36
351.767	33698.84
352.217	42567.46
352.668	35353.35
353.118	32366.31
353.568	31210.54
354.018	24690.52
354.468	26102.59
354.918	18734.5
355.368	16402.69
355.818	23189.9
356.268	66711.99
356.718	279272.81
357.168	69537.67
357.617	34871.94
358.067	38773.13
358.517	36311.97
358.966	42522.87
359.416	47641.29
359.865	51403.68
360.315	61164.53
360.764	28504.95
361.213	15976.94
361.663	15121.41
362.112	18650.02
362.561	30109.64
363.01	22748.35
363.459	19168.51
363.908	20763.33
364.357	17648.63
364.806	29809.04
365.255	20515.17
365.703	18811.94
366.152	18854.99
366.601	15294.44
367.05	12423.09
367.498	11293.58
367.947	11780.4
368.395	12256.76
368.844	10875.57
369.292	13093.16
369.74	9067.3
370.189	13895.33
370.637	16310.37
371.085	14082.42
371.533	17194.19
371.981	16584.2
372.429	15846.16
372.877	16530.51
373.325	13857.06
373.773	14154.6
374.221	12641.81
374.669	15729.82
375.116	13621.24
375.564	13785.87
376.012	15465.15
376.459	12799.69
376.907	15354.16
377.354	18622.8
377.801	17472.38
378.249	20176.62
378.696	25816.77
379.143	31412.38
379.591	33607.51
380.038	57105.51
380.485	41410.87
380.932	44857.85
381.379	41144.45
381.826	30408.72
382.273	21708.51
382.72	19045.49
383.166	18631.38
383.613	12140.19
384.06	10984.28
384.506	12748.84
384.953	9407.41
385.4	9491.9
385.846	8348.94
386.292	8176.99
386.739	8025.73
387.185	7959.73
387.631	7982.93
388.078	7765.79
388.524	8331.64
388.97	7727.1
389.416	6467.64
389.862	6884.22
390.308	6547.08
390.754	6668.29
391.2	7249.68
391.645	7445.89
392.091	7143.27
392.537	6922.02
392.983	6946.5
393.428	6852.73
393.874	7343.82
394.319	7380.5
394.765	7006.44
395.21	7210.35
395.655	6757.28
396.101	6331.59
396.546	5713.68
396.991	5753.02
397.436	5334.15
397.881	5150.45
398.326	4873.03
398.771	4600.56
399.216	4020.29
399.661	3621.34
400.106	3596.59
400.551	3671.78
400.995	3284.04
401.44	3239.4
401.885	3038.62
402.329	3055.39
402.774	2916.64
403.218	2806.31
403.663	2698.21
404.107	2765.14
404.551	2771.56
404.995	2537.5
405.44	2438.12
405.884	2463.58
406.328	2375.37
406.772	2359.05
407.216	2145.95
407.66	2071.93
408.104	1964.2
408.547	1833.41
408.991	1763.07
409.435	1691.27
409.879	1659.96
410.322	1631.89
410.766	1572.84
411.209	1491.08
411.653	1427.05
412.096	1395.33
412.54	1390.46
412.983	1378.96
413.426	1378.97
413.869	1375.36
414.312	1345.62
414.756	1293.56
415.199	1233.05
415.642	1194.13
416.085	1192.47
416.527	1182.82
416.97	1199.84
417.413	1138.06
417.856	1120.16
418.298	1102
418.741	1091.34
419.184	1085.99
419.626	1127.46
420.069	1123.48
420.511	1128.83
420.953	1104.79
421.396	1091.2
421.838	1059.95
422.28	1081.52
422.722	1088.27
423.164	1104.6
423.606	1086.42
424.048	1083.31
424.49	1028.45
424.932	1022.25
425.374	1003.12
425.816	1018.9
426.258	1034.3
426.699	1040.27
427.141	1023.27
427.582	1035.22
428.024	1028.42
428.465	1020.4
428.907	993.93
429.348	981.67
429.789	982.86
430.231	963.67
430.672	974.65
431.113	955.14
431.554	943.36
431.995	918.99
432.436	887.19
432.877	867.1
433.318	852.51
433.759	849.39
434.2	848.94
434.64	838.84
435.081	840.71
435.522	796.52
435.962	767.71
436.403	752.58
436.843	763.91
437.284	747.25
437.724	727.7
438.164	729.88
438.604	715.04
439.045	689.5
439.485	662.23
439.925	647.34
440.365	631.01
440.805	622.67
441.245	613.24
441.685	589.84
442.125	586.73
442.564	590.7
443.004	577.66
443.444	577.37
443.883	578.95
444.323	574.2
444.762	577.11
445.202	585.33
445.641	596.43
446.081	594.68
446.52	601.95
446.959	598.5
447.398	584.35
447.837	579.16
448.276	568.45
448.716	573.83
449.154	579.37
449.593	566.69
450.032	566.69
450.471	556.44
450.91	557.67
451.349	557.55
451.787	555.27
452.226	565.7
452.664	565.1
453.103	567.54
453.541	568.32
453.98	568.39
454.418	574.01
454.856	566.78
455.295	567.34
455.733	572.9
456.171	574.61
456.609	577.05
457.047	576.19
457.485	586.13
457.923	587.46
458.361	579.37
458.798	581.11
459.236	578.92
459.674	581.57
460.111	584.32
460.549	577.61
460.987	576.6
461.424	573.15
461.862	571.24
462.299	562.07
462.736	560.84
463.173	562.27
463.611	557.34
464.048	556.68
464.485	560.86
464.922	555.76
465.359	552.81
465.796	547.55
466.233	544.05
466.67	539.1
467.106	538.05
467.543	533.2
467.98	526.95
468.416	512.32
468.853	507.55
469.29	492.36
469.726	485.74
470.162	473.09
470.599	464.22
471.035	459.31
471.471	447.83
471.907	444.58
472.344	441.71
472.78	443.24
473.216	448.59
473.652	443.17
474.088	441.05
474.523	440.4
474.959	444.24
475.395	440.45
475.831	437.79
476.266	440.29
476.702	438.29
477.138	432.57
477.573	429.24
478.008	427.82
478.444	429.21
478.879	433.22
479.314	434.85
479.75	433.68
480.185	435.88
480.62	439.45
481.055	442.24
481.49	446.07
481.925	453.17
482.36	461.51
482.795	473.83
483.229	486.8
483.664	498.15
484.099	499.93
484.534	509.22
484.968	514.72
485.403	516.37
485.837	515.8
486.271	515.7
486.706	516.94
487.14	512.15
487.574	504.95
488.009	501.14
488.443	497.26
488.877	503.04
489.311	504.9
489.745	511.43
490.179	517.35
490.613	528.03
491.046	532.97
491.48	538.26
491.914	541
492.348	546.27
492.781	551.75
493.215	555.17
493.648	558.52
494.082	564.84
494.515	567.52
494.948	575.53
495.382	581.21
495.815	587.11
496.248	594.01
496.681	606.41
497.114	619.4
497.547	630.4
497.98	644.66
498.413	653.3
498.846	665.48
499.279	676.16
499.711	683.85
500.144	689.81
500.577	703.56
501.009	717.25
501.442	730.2
501.874	735.6
502.306	741.25
502.739	752.08
503.171	769.71
503.603	777.03
504.036	790.01
504.468	800.13
504.9	816.01
505.332	826.86
505.764	835.66
506.196	847.22
506.627	865.11
507.059	883.11
507.491	896.27
507.923	898.72
508.354	917.26
508.786	932.01
509.217	954.56
509.649	973.77
510.08	997.02
510.512	1017.53
510.943	1037.81
511.374	1054.07
511.805	1078.63
512.237	1103.69
512.668	1141.85
513.099	1174.44
513.53	1207.41
513.961	1232.8
514.391	1268.99
514.822	1306.87
515.253	1348.01
515.684	1377.27
516.114	1413.4
516.545	1439.13
516.975	1469.05
517.406	1490.13
517.836	1496.45
518.267	1505.35
518.697	1527.68
519.127	1535.11
519.558	1545.1
519.988	1551.38
520.418	1565.78
520.848	1584.85
521.278	1597.2
521.708	1603.08
522.138	1619.09
522.567	1653.06
522.997	1683.27
523.427	1701.34
523.857	1721.98
524.286	1735.31
524.716	1753.86
525.145	1775.45
525.575	1789.01
526.004	1805.43
526.433	1814.24
526.863	1815.77
527.292	1807.87
527.721	1815.02
528.15	1822.11
528.579	1822.06
529.008	1834.59
529.437	1860.03
529.866	1874.98
530.295	1894.69
530.724	1908.8
531.152	1939.65
531.581	1955.12
532.01	1973.46
532.438	1983.68
532.867	2000.23
533.295	2022.44
533.723	2030.57
534.152	2028.99
534.58	2029.63
535.008	2012.66
535.436	2014.35
535.865	2024.05
536.293	2041.84
536.721	2061.21
537.149	2088.85
537.576	2092.4
538.004	2107.35
538.432	2116.03
538.86	2114.82
539.287	2123.23
539.715	2139.64
540.143	2144.12
540.57	2139.45
540.998	2135.34
541.425	2108.84
541.852	2085.5
542.28	2084.96
542.707	2065.39
543.134	2049.24
543.561	2043.96
543.988	2035.2
544.415	2034.36
544.842	2027.91
545.269	2018.85
545.696	2020.12
546.123	2034.52
546.549	2023.2
546.976	2007.42
547.403	2007.23
547.829	2009.61
548.256	2011.08
548.682	2006.04
549.108	1997.18
549.535	1996.69
549.961	2000
550.387	1985.43
550.813	1979.07
551.24	1985.04
551.666	1986.06
552.092	1974.21
552.518	1966.74
552.943	1960.58
553.369	1969.76
553.795	1975.3
554.221	1975.86
554.646	1970.37
555.072	1981.04
555.498	1985.47
555.923	1995.63
556.349	2011.44
556.774	2022.05
557.199	2022.69
557.625	2027.81
558.05	2020.18
558.475	2030.14
558.9	2028.46
559.325	2019.74
559.75	2012.97
560.175	2005.32
560.6	1997.26
561.025	1993.59
561.449	1994.11
561.874	2000.6
562.299	2004.88
562.723	2011.36
563.148	2000.49
563.572	2004.32
563.997	2014.21
564.421	2019.8
564.846	2019.09
565.27	2021.22
565.694	2018.56
566.118	2028.97
566.542	2035.02
566.966	2026.49
567.39	2020.81
567.814	2007.6
568.238	2004.8
568.662	2009.27
569.086	2009.57
569.509	2017.75
569.933	2000.71
570.357	1991.01
570.78	1967.62
571.204	1951.42
571.627	1939.81
572.05	1936.82
572.474	1934.62
572.897	1921.13
573.32	1911.94
573.743	1900.41
574.166	1879.04
574.589	1878.45
575.012	1869.09
575.435	1866.56
575.858	1855.91
576.281	1843.12
576.704	1825.01
577.126	1811.29
577.549	1798.49
577.972	1786.71
578.394	1773.57
578.817	1762.73
579.239	1741.26
579.661	1725.78
580.084	1707.95
580.506	1692.93
580.928	1686.68
581.35	1674.17
581.772	1669.02
582.194	1652.72
582.616	1638.56
583.038	1623.1
583.46	1612.29
583.882	1607.98
584.303	1611.68
584.725	1606.38
585.147	1606.99
585.568	1617.22
585.99	1629.81
586.411	1636.3
586.833	1651.48
587.254	1652.78
587.675	1667.21
588.096	1680.44
588.518	1673.78
588.939	1655.04
589.36	1651.18
589.781	1640.04
590.202	1609.13
590.623	1597.58
591.043	1594.02
591.464	1580.7
591.885	1574.94
592.305	1568.56
592.726	1552.64
593.147	1553.63
593.567	1546.99
593.987	1538.99
594.408	1532.34
594.828	1530.77
595.248	1524.62
595.669	1504.26
596.089	1496.28
596.509	1488.87
596.929	1473.55
597.349	1473.77
597.769	1462.8
598.189	1455.42
598.608	1456.31
599.028	1459.59
599.448	1458.91
599.867	1445.24
600.287	1440.06
600.706	1434.53
601.126	1424.48
601.545	1422.74
601.965	1421.01
602.384	1414.6
602.803	1417.4
603.222	1411.65
603.641	1403.07
604.061	1397.34
604.48	1392.19
604.898	1399.72
605.317	1403.88
605.736	1405.7
606.155	1402.58
606.574	1392.41
606.992	1397.58
607.411	1391.64
607.829	1382.42
608.248	1378.27
608.666	1375.77
609.085	1374.17
609.503	1364.69
609.921	1357.17
610.339	1357.5
610.758	1355.26
611.176	1349.7
611.594	1339.18
612.012	1334.85
612.43	1337.65
612.847	1342.54
613.265	1342.38
613.683	1347.02
614.101	1346.5
614.518	1341.61
614.936	1330.41
615.353	1314.36
615.771	1309.68
616.188	1308.49
616.606	1303.8
617.023	1295.19
617.44	1279.71
617.857	1271.62
618.274	1260.16
618.691	1253.15
619.108	1243.45
619.525	1236.24
619.942	1241.69
620.359	1244.3
620.776	1238.32
621.192	1234.26
621.609	1230.58
622.026	1237.08
622.442	1242.07
622.859	1245.21
623.275	1238
623.691	1242.81
624.108	1254.08
624.524	1268.3
624.94	1266.44
625.356	1276.6
625.772	1288.41
626.188	1299.58
626.604	1301.36
627.02	1296.18
627.436	1293.81
627.852	1300.05
628.268	1311.14
628.683	1301.22
629.099	1291.48
629.514	1287.02
629.93	1289.32
630.345	1292.62
630.761	1288.17
631.176	1290.79
631.591	1285.31
632.007	1278.4
632.422	1275.44
632.837	1262.99
633.252	1259.18
633.667	1248.69
634.082	1238.55
634.497	1224.63
634.911	1205.5
635.326	1201.07
635.741	1181.43
636.155	1169.97
636.57	1169.59
636.984	1167.02
637.399	1166.55
637.813	1163.06
638.228	1159.37
638.642	1160.43
639.056	1147.25
639.47	1142.75
639.884	1130.62
640.298	1122.18
640.712	1117.9
641.126	1101.96
641.54	1089.72
641.954	1081
642.368	1067.63
642.781	1056.87
643.195	1036.63
643.609	1033.91
644.022	1025.98
644.436	1019.18
644.849	1004.38
645.262	989.55
645.676	987.98
646.089	981.51
646.502	965.38
646.915	956.91
647.328	937.36
647.741	933.34
648.154	919.15
648.567	914.23
648.98	900.46
649.393	898.4
649.805	893.78
650.218	884.54
650.631	869.16
651.043	862.23
651.456	856.24
651.868	856.52
652.28	869.82
652.693	879.24
653.105	882.39
653.517	889.85
653.929	888.9
654.341	891.65
654.753	881.12
655.165	884.26
655.577	879.31
655.989	872.7
656.401	863
656.813	830.04
657.224	811.35
657.636	784.83
658.047	766.25
658.459	748.03
658.87	737.36
659.282	724.41
659.693	704.94
660.104	690.4
660.515	675.54
660.926	671.03
661.338	665.84
661.749	656.98
662.159	647.5
662.57	640.45
662.981	632.92
663.392	624.29
663.803	623.81
664.213	618.71
664.624	612.64
665.035	612.46
665.445	599.02
665.855	591.25
666.266	583.27
666.676	578.57
667.086	569.76
667.497	567.2
667.907	560.49
668.317	552
668.727	548.48
669.137	546.76
669.547	544.13
669.956	545.54
670.366	545.98
670.776	547.1
671.186	549.38
671.595	552.02
672.005	553.41
672.414	553.4
672.824	552.43
673.233	554.53
673.642	557.16
674.052	560.11
674.461	561.7
674.87	565.21
675.279	563.98
675.688	564.82
676.097	566.83
676.506	566.04
676.915	577.17
677.323	580.03
677.732	580.6
678.141	581.36
678.549	574.74
678.958	575.21
679.366	575.45
679.775	580.41
680.183	591.38
680.592	598.09
681	605.34
681.408	603.75
681.816	613.18
682.224	623.34
682.632	636.04
683.04	663.98
683.448	688.6
683.856	718.75
684.264	753.33
684.671	786.49
685.079	824.7
685.487	869.37
685.894	928.07
686.302	979.36
686.709	1024.58
687.116	1075.54
687.524	1119.99
687.931	1161.83
688.338	1199.16
688.745	1233.43
689.152	1270.05
689.559	1319.33
689.966	1367.22
690.373	1396.88
690.78	1443.13
691.187	1511.18
691.593	1565.97
692	1614.01
692.407	1682.64
692.813	1763.53
693.22	1831.26
693.626	1900.55
694.032	1957.19
694.439	2038.87
694.845	2103.84
695.251	2188.44
695.657	2260.75
696.063	2368.93
696.469	2451.84
696.875	2528.63
697.281	2577.13
697.687	2631.74
698.093	2679.52
698.498	2765.38
698.904	2835.21
699.31	2934.07
699.715	3002.76
700.12	3106.31
700.526	3132.19
700.931	3212.53
701.337	3272.84
701.742	3312.55
702.147	3407.66
702.552	3445.94
702.957	3515.51
703.362	3541.76
703.767	3578.2
704.172	3628.15
704.577	3582.04
704.981	3636.77
705.386	3657.93
705.791	3654.96
706.195	3741.71
706.6	3754.4
707.004	3844.13
707.408	3816.65
707.813	3849.92
708.217	3840.69
708.621	3847.37
709.025	3958.33
709.43	3963.23
709.834	4033.69
710.237	4113.5
710.641	4100.52
711.045	4127.47
711.449	4124.38
711.853	4156.82
712.256	4204.74
712.66	4249.6
713.064	4335.46
713.467	4383.39
713.87	4509.46
714.274	4561.02
714.677	4684.57
715.08	4864.55
715.484	5054.93
715.887	5282.67
716.29	5504.67
716.693	5736.51
717.096	6004.78
717.499	6153.89
717.901	6186.11
718.304	6218.51
718.707	6248.65
719.109	6136.53
719.512	6106.06
719.915	5957.25
720.317	5897.91
720.719	5949.24
721.122	5920.66
721.524	5863.33
721.926	5815.34
722.328	5925.49
722.731	5915.27
723.133	5949.75
723.535	6166.7
723.937	6190.12
724.338	6251.91
724.74	6295.19
725.142	6211.12
725.544	6211.69
725.945	6243.16
726.347	6242.31
726.748	6237.45
727.15	6255.77
727.551	6213.17
727.952	6182.17
728.354	6152.76
728.755	6153.2
729.156	6112.45
729.557	6115.83
729.958	5978.73
730.359	5920.45
730.76	5900.6
731.161	5835.04
731.562	5807.82
731.962	5813.42
732.363	5742.26
732.763	5669.36
733.164	5710.23
733.564	5632.67
733.965	5525.16
734.365	5488.8
734.766	5522.12
735.166	5481.35
735.566	5420.5
735.966	5394.36
736.366	5386.28
736.766	5319.93
737.166	5354.18
737.566	5307.2
737.966	5278.56
738.365	5322.31
738.765	5313.28
739.165	5229.47
739.564	5196.79
739.964	5247.66
740.363	5194.32
740.763	5193.68
741.162	5176.38
741.561	5142.15
741.96	5090.82
742.36	5114.9
742.759	5118.86
743.158	5162.77
743.557	5177.81
743.955	5220.87
744.354	5169.37
744.753	5230.89
745.152	5185.77
745.55	5249.58
745.949	5241.29
746.348	5243.6
746.746	5260.24
747.144	5220.06
747.543	5197.07
747.941	5251.3
748.339	5174.71
748.737	5167.55
749.136	5160.74
749.534	5232.44
749.932	5201.32
750.33	5227.37
750.727	5291.69
751.125	5266.8
751.523	5248.77
751.921	5295.31
752.318	5258.1
752.716	5325.8
753.113	5340.91
753.511	5368.9
753.908	5367.1
754.305	5347.64
754.703	5416.58
755.1	5482.21
755.497	5546.84
755.894	5758.43
756.291	5957.26
756.688	6323.9
757.085	6809.85
757.482	7493.77
757.878	8238.92
758.275	8916.7
758.672	9847.83
759.068	10607.99
759.465	11688.63
759.861	13085.27
760.258	14704.09
760.654	15535.94
761.05	15406.93
761.447	14701.16
761.843	13685.39
762.239	12636.37
762.635	12161.3
763.031	11707
763.427	11051.16
763.822	10366.57
764.218	9686.54
764.614	8799.07
765.01	8208.92
765.405	7826.34
765.801	7534.52
766.196	7160.88
766.592	6953.88
766.987	6604.02
767.382	6368.91
767.778	6269.45
768.173	6122.74
768.568	6040.66
768.963	5903.56
769.358	5925.16
769.753	5871.92
770.148	5779.13
770.542	5778.88
770.937	5743.31
771.332	5846.25
771.726	5865.36
772.121	5793.02
772.515	5852.65
772.91	5836.47
773.304	5913.52
773.699	5839.64
774.093	5900.21
774.487	5960.65
774.881	6008.72
775.275	6006.52
775.669	5960.6
776.063	6011.21
776.457	6054.52
776.851	5975.55
777.245	5968.6
777.638	6008.08
778.032	6135.09
778.425	6096.47
778.819	6145
779.212	6101.9
779.606	6058.4
779.999	6079.94
780.392	6061.53
780.786	6152.8
781.179	6172.38
781.572	6220.22
781.965	6231.38
782.358	6170.67
782.751	6233.88
783.143	6181.09
783.536	6263.32
783.929	6309.56
784.322	6436.67
784.714	6471.19
785.107	6464.57
785.499	6548.28
785.891	6523.55
786.284	6502.62
786.676	6658.65
787.068	6636.78
787.46	6695.93
787.852	6713.3
788.245	6809.47
788.636	6843.83
789.028	6921.95
789.42	6969.84
789.812	6973.75
790.204	7079.82
790.595	7193.07
790.987	6973.42
791.378	6996.06
791.77	7138.07
792.161	7288.04
792.553	7348.71
792.944	7223.23
793.335	7143.65
793.726	7220.03
794.117	7319.03
794.508	7468.72
794.899	7432.35
795.29	7588.42
795.681	7652.35
796.072	7494.38
796.463	7288.88
796.853	7297.94
797.244	7469.56
797.634	7506.32
798.025	7503.9
798.415	7520.2
798.806	7618.44
799.196	7710.82
799.586	7767.33
799.976	7724.47
800.366	7973.08
800.756	8241.65
801.146	8194.61
801.536	8226.57
801.926	8306.68
802.316	8339.54
802.706	8419.71
803.095	8284.52
803.485	8397.77
803.874	8438.71
804.264	8728.13
804.653	8701.39
805.043	8858.96
805.432	8984.15
805.821	8989.94
806.21	9016.87
806.599	9142.8
806.988	9188.31
807.377	9306.17
807.766	9447.58
808.155	9760.32
808.544	9473.25
808.933	9492.86
809.321	9466.78
809.71	9788.53
810.098	9961.09
810.487	10470.05
810.875	11002.65
811.264	11034.32
811.652	11353.36
812.04	11517.62
812.428	11698.89
812.816	12546.73
813.204	13008.3
813.592	13625.31
813.98	14004.88
814.368	13899.26
814.756	14434.58
815.144	14350.02
815.531	14860.83
815.919	14782.09
816.306	15114.79
816.694	14784.15
817.081	14832.75
817.469	15216.78
817.856	15214.1
818.243	15509.32
818.63	15952.81
819.017	15479.49
819.404	15553.08
819.791	15975.26
820.178	16658.59
820.565	16939.43
820.952	17964.29
821.339	17421.14
821.725	17621.9
822.112	16806.84
822.498	16760.16
822.885	16894.04
823.271	16793.39
823.657	17246.39
824.044	17246.62
824.43	17323.41
824.816	17288.36
825.202	16800.38
825.588	17919.25
825.974	17937.52
826.36	18495.66
826.746	18535.15
827.132	18928.39
827.517	18902.24
827.903	18039.89
828.289	18082.95
828.674	17224.26
829.06	17115.06
829.445	17558.46
829.83	17952.66
830.216	18485.17
830.601	18891.48
830.986	18438.65
831.371	18287.36
831.756	18890.92
832.141	18415.14
832.526	18414.31
832.911	18727.2
833.295	18597.42
833.68	19120.45
834.065	18431.1
834.449	17420.17
834.834	17331.88
835.218	17330.26
835.603	17703.58
835.987	17478.53
836.371	18392.99
836.755	18271.3
837.139	18710.45
837.524	18968.58
837.908	18759.95
838.291	18832.35
838.675	18912.05
839.059	19149.12
839.443	19137.44
839.827	18887.97
840.21	19412.83
840.594	19253.47
840.977	19480.82
841.361	19460.47
841.744	19871.79
842.127	19706.22
842.511	19981.11
842.894	20640.37
843.277	21065.32
843.66	21655.62
844.043	21749.88
844.426	20865.05
844.809	20524.69
845.191	20566.04
845.574	20059.3
845.957	19665.84
846.339	19544.01
846.722	18962.75
847.104	19038.71
847.487	18844.01
847.869	18867
848.252	19176.86
848.634	19543.18
849.016	19837.55
849.398	19982.5
849.78	20922.3
850.162	20931.74
850.544	21390.19
850.926	22085.2
851.307	21985.39
851.689	22303.58
852.071	22797.82
852.452	23155.72
852.834	23137.01
853.215	23572.63
853.597	23729.6
853.978	24059.57
854.359	24560.89
854.741	23470.46
855.122	23361.44
855.503	23041.42
855.884	23177.5
856.265	23104.41
856.646	23234.27
857.026	22799.02
857.407	22727.15
857.788	22910.81
858.169	23227.54
858.549	22296.8
858.93	22989.15
859.31	23050.27
859.69	23281.06
860.071	22844.3
860.451	22608.72
860.831	21790.97
861.211	23075.31
861.591	23682.85
861.971	23656.55
862.351	23867.58
862.731	24289.96
863.111	24580.42
863.491	24948.6
863.87	25916.67
864.25	26291.28
864.629	25856.18
865.009	26420.35
865.388	27350.46
865.768	29316.56
866.147	29183.18
866.526	27562.29
866.905	27893.04
867.284	29459.64
867.663	27955.69
868.042	26789.09
868.421	26694.18
868.8	27148.85
869.179	27409.3
869.558	25812.67
869.936	23783.37
870.315	24215.13
870.693	24806.3
871.072	26737.34
871.45	25461.83
871.828	25791.84
872.207	27117.85
872.585	26723.68
872.963	27437.45
873.341	26479.71
873.719	26158.51
874.097	25848.76
874.475	26331.16
874.853	26925.12
875.23	25814.61
875.608	26896.43
875.986	29078.6
876.363	27809.74
876.741	28648.83
877.118	27936.28
877.495	29314.59
877.873	29804.78
878.25	31339.35
878.627	30068.96
879.004	30502.99
879.381	30352.14
879.758	29558.76
880.135	27525.54
880.512	29096.4
880.889	28329.59
881.265	28028.26
881.642	27808.35
882.019	28284.13
882.395	27721.87
882.772	28819.41
883.148	27552.91
883.524	27440.72
883.901	27277.58
884.277	27683.14
884.653	27507.65
885.029	28294.71
885.405	31322.78
885.781	31082.5
886.157	29816.19
886.532	30187.25
886.908	30179.19
887.284	33575.83
887.659	34686.85
888.035	35768.43
888.411	36710.48
888.786	37207.68
889.161	38496.36
889.537	37800.16
889.912	39000.75
890.287	38955.88
890.662	39963.26
891.037	39241.7
891.412	36601.5
891.787	36236.72
892.162	34977.41
892.536	35798.76
892.911	34456.28
893.286	33742.49
893.66	32380.25
894.035	33220.04
894.409	36183.91
894.784	34726.53
895.158	35319.56
895.532	37408.75
895.906	38426.72
896.281	39330.65
896.655	38701.09
897.029	44222.08
897.402	46051.27
897.776	51284.95
898.15	51105.82
898.524	50548.34
898.898	51224.74
899.271	57325.53
899.645	49649.02
900.018	47683.88
900.392	49460.95
900.765	49847.73
901.138	46130.68
901.511	45448.43
901.884	41732.09
902.258	38499.87
902.631	39775.62
903.003	45765.83
903.376	41286.13
903.749	46307.36
904.122	49578.02
904.495	54594.28
904.867	55306.11
905.24	48015.31
905.612	44689.7
905.985	45688.89
906.357	47752.66
906.729	45566.52
907.102	38929.26
907.474	37456.64
907.846	37690.24
908.218	37195.74
908.59	32856.89
908.962	31776.26
909.334	34236.19
909.705	35949.44
910.077	34911.72
910.449	36344.21
910.82	37386.72
911.192	41120.71
911.563	42702.1
911.935	45667.63
912.306	45723.81
912.677	47214.21
913.048	46693.52
913.419	50646.25
913.79	50930.27
914.161	54559.92
914.532	52147.93
914.903	47902.91
915.274	45508.06
915.645	44845.66
916.015	39474.86
916.386	37629.34
916.756	40032.3
917.127	41292.65
917.497	36890.42
917.868	40134.9
918.238	38157.22
918.608	39240.3
918.978	40048.09
919.348	42437.55
919.718	43855.72
920.088	42255.72
920.458	43908.82
920.828	46214.64
921.198	43844.46
921.567	46823.44
921.937	36271.17
922.306	36617.29
922.676	39488.95
923.045	32936.35
923.415	31254.34
923.784	28450.79
924.153	29248.08
924.522	29213.68
924.891	27456.09
925.26	29394.53
925.629	28691.46
925.998	32976.99
926.367	32197.86
926.736	30668.52
927.104	36540.15
927.473	39316.65
927.842	47508.16
928.21	47057.88
928.578	49488.38
928.947	46809.22
929.315	47109.7
929.683	55276.86
930.051	55756.13
930.42	64721.79
930.788	55355.54
931.156	54939.94
931.523	51457.73
931.891	47558.35
932.259	45670.57
932.627	52916.35
932.994	74914.39
933.362	61871.55
933.729	53706.22
934.097	51386.57
934.464	43495.07
934.831	50167.15
935.199	49472.2
935.566	47988.58
935.933	48692.75
936.3	58964.7
936.667	45891.49
937.034	41360.79
937.401	40951.96
937.767	35389.19
938.134	31531.65
938.501	44523.62
938.867	47499.27
939.234	80276.8
939.6	68537.69
939.967	75331.79
940.333	50494.18
940.699	43006.53
941.065	34548.9
941.431	45300.78
941.798	43633.69
942.163	57272.01
942.529	35747.87
942.895	32860.31
943.261	21260.91
943.627	27911.44
943.992	24454.23
944.358	24473.46
944.723	24579.22
945.089	23955.24
945.454	22143.12
945.82	23620.26
946.185	22707.01
946.55	26303.7
946.915	23616.06
947.28	27710.85
947.645	24382.47
948.01	22502.35
948.375	23484.49
948.74	28134.47
949.104	32802.71
949.469	47440.6
949.834	83938.94
950.198	79541.67
950.562	47642
950.927	39690.13
951.291	47733.19
951.655	40656.69
952.02	38220.48
952.384	28888.33
952.748	25145.23
953.112	24512.87
953.476	21281.81
953.839	19673.24
954.203	19483.09
954.567	24389.76
954.931	38412.35
955.294	32883.63
955.658	33077.36
956.021	56240.72
956.385	95353.08
956.748	140767.12
957.111	218459.03
957.474	245525.5
957.837	276782.79
958.2	209436.32
958.563	75321.28
958.926	50911.66
959.289	77303.16
959.652	86392.53
960.015	64843.16
960.377	93080.42
960.74	106199.57
961.102	183407.29
961.465	196819.52
961.827	105110.96
962.189	201653.61
962.552	139855.81
962.914	112130.09
963.276	72731.38
963.638	60149.68
964	59485.35
964.362	40220.9
964.724	38895.37
965.085	27724.29
965.447	22748.89
965.809	25974.39
966.17	25996.25
966.532	28119.41
966.893	25778.34
967.255	23436.54
967.616	27675.87
967.977	22168.14
968.338	24207.19
968.699	19883.29
969.061	19881.8
969.421	20008.59
969.782	22476.37
970.143	19007.34
970.504	19670.74
970.865	22392.56
971.225	22908.72
971.586	22400.48
971.946	31948.41
972.307	27748.68
972.667	36264.95
973.027	37352.85
973.388	45290.26
973.748	30766.71
974.108	33479.03
974.468	45337.4
974.828	34892.22
975.188	26855.31
975.548	24668.73
975.907	20715.8
976.267	23225.07
976.627	19513.56
976.986	20224.83
977.346	19277.76
977.705	18565.39
978.064	16902.88
978.424	14065.31
978.783	14567.56
979.142	16619.49
979.501	15894.36
979.86	16783.63
980.219	16166.24
980.578	20859.52
980.937	23370.44
981.296	20833.23
981.654	21431.8
982.013	33357.96
982.371	43285.05
982.73	40412.29
983.088	45751.88
983.447	48844.49
983.805	69809
984.163	145894.18
984.521	162170.04
984.879	237668.95
985.237	-386749.43
985.595	372647.89
985.953	92678.54
986.311	53554.81
986.669	31109.29
987.026	26873.09
987.384	36211.98
987.741	37489.21
988.099	26785.44
988.456	21293.66
988.814	19952.22
989.171	17342.29
989.528	17135.15
989.885	18087.3
990.242	14303.68
990.599	17835.37
990.956	14579.13
991.313	10173.41
991.67	8346.64
992.027	8850.31
992.383	7880.25
992.74	6905.03
993.096	7232.33
993.453	7494.18
993.809	7779.99
994.165	10382.69
994.522	9488.25
994.878	10468.02
995.234	13146.84
995.59	12993.55
995.946	12298.44
996.302	14019.58
996.658	16233.55
997.013	17898.32
997.369	21217.8
997.725	27095.46
998.08	17551.83
998.436	27139.27
998.791	37381.13
999.147	37334.23
999.502	40667.94
999.857	29603.56
1000.212	48286.43
1000.567	68811.52
1000.922	39708.43
1001.277	25185.75
1001.632	18718.63
1001.987	24052.33
1002.342	17246.04
1002.696	13811.78
1003.051	11014.38
1003.406	13314.35
1003.76	13237.65
1004.114	13040.42
1004.469	10935.61
1004.823	9043.13
1005.177	9777.8
1005.531	7755.34
1005.885	6881.97
1006.239	7763.32
1006.593	9720.43
1006.947	12998.46
1007.301	9786.19
1007.655	10679.14
1008.008	7847.26
1008.362	8826.2
1008.715	12601.18
1009.069	11415.6
1009.422	17118.44
1009.776	34389.31
1010.129	22842.36
1010.482	19124.74
1010.835	16182.52
1011.188	33626.64
1011.541	31668.51
1011.894	-193333.86
1012.247	568168.69
1012.6	38718.63
1012.952	24481.35
1013.305	12649.55
1013.657	9130.82
1014.01	8616.55
1014.362	7098.11
1014.715	6291.81
1015.067	5467.94
1015.419	5329.19
1015.771	4720.54
1016.123	4192.43
1016.475	4309.77
1016.827	4587.13
1017.179	4929
1017.531	4974
1017.883	5110.27
1018.234	4932.44
1018.586	6226.95
1018.938	6590.79
1019.289	9114.8
1019.64	10441.32
1019.992	9739.74
1020.343	8940.02
1020.694	7091.06
1021.045	6264.7
1021.396	7121.41
1021.747	7624.84
1022.098	9146.72
1022.449	6655.1
1022.8	6190.9
1023.151	4319.52
1023.501	3827.34
1023.852	4168.45
1024.202	4294.33
1024.553	4703.51
1024.903	4583.21
1025.253	3933.6
1025.604	3538.4
1025.954	4403.39
1026.304	5366.53
1026.654	6263.5
1027.004	9156.63
1027.354	14816.17
1027.703	13943.82
1028.053	18416.09
1028.403	26758.86
1028.753	38871.35
1029.102	53016.48
1029.452	273112.41
1029.801	11840.52
1030.15	7658.35
1030.499	6496.79
897.758	2500.89
901.051	2453.36
904.343	2485.07
907.636	2489.12
910.928	2551.53
914.22	2465.82
917.511	2473.25
920.803	2531.08
924.094	2543.08
927.384	2530.55
930.675	2497.39
933.965	2453.57
937.255	2468.85
940.544	2435.74
943.834	2399.35
947.123	2339.37
950.411	2429.88
953.7	2404.24
956.988	2377.84
960.276	2319
963.563	2389.77
966.851	2389.43
970.138	2441.56
973.424	2435.83
976.711	2391.14
979.997	2491.45
983.283	2531.57
986.568	2447.21
989.853	2457.99
993.138	2484.97
996.423	2565.69
999.708	2508.64
1002.992	2560.09
1006.275	2425.71
1009.559	2455.58
1012.842	2563.48
1016.125	2501.01
1019.408	2482.81
1022.69	2559.6
1025.972	2580.8
1029.254	2557.19
1032.536	2500.02
1035.817	2523.35
1039.098	2476.19
1042.379	2590
1045.659	2600.86
1048.939	2537.8
1052.219	2553.58
1055.498	2560.47
1058.778	2549.78
1062.057	2534.07
1065.335	2554.1
1068.614	2570.22
1071.892	2555.11
1075.17	2628.11
1078.447	2617.83
1081.724	2610.59
1085.001	2645.4
1088.278	2622.74
1091.554	2633.54
1094.83	2628.73
1098.106	2656.15
1101.382	2696.53
1104.657	2700.55
1107.932	2700.43
1111.206	2664.99
1114.481	2625.01
1117.755	2626.66
1121.029	2611.85
1124.302	2664.7
1127.575	2622.37
1130.848	2614.54
1134.121	2575.61
1137.393	2531.32
1140.665	2592.24
1143.937	2569.12
1147.208	2525.58
1150.48	2568.53
1153.75	2556.48
1157.021	2578.75
1160.291	2552.56
1163.561	2597.65
1166.831	2582.98
1170.101	2615.59
1173.37	2586.38
1176.639	2536.18
1179.907	2588.28
1183.176	2599.74
1186.444	2607.57
1189.711	2635.7
1192.979	2649.64
1196.246	2605.83
1199.513	2622.5
1202.78	2619.96
1206.046	2630.01
1209.312	2652.62
1212.578	2675.77
1215.843	2633.64
1219.108	2607.89
1222.373	2628.81
1225.638	2592.56
1228.902	2580.52
1232.166	2546.72
1235.43	2528.88
1238.693	2551.89
1241.956	2547.03
1245.219	2591.52
1248.482	2579.28
1251.744	2573.53
1255.006	2712.54
1258.268	2668.48
1261.529	2616.03
1264.79	2619.69
1268.051	2720.28
1271.312	2735.66
1274.572	2703.01
1277.832	2692.7
1281.092	2682.25
1284.351	2661.17
1287.61	2643.12
1290.869	2567.33
1294.128	2546.53
1297.386	2625.69
1300.644	2616.29
1303.902	2625.49
1307.159	2489.13
1310.416	2543.24
1313.673	2566.84
1316.93	2553.91
1320.186	2594.77
1323.442	2635.69
1326.697	2627.17
1329.953	2611.52
1333.208	2637.75
1336.463	2616.99
1339.717	2562.46
1342.972	2687.48
1346.226	2661.53
1349.479	2600.32
1352.733	2572.84
1355.986	2592.82
1359.238	2568.42
1362.491	2571.26
1365.743	2572.84
1368.995	2568.19
1372.247	2580.29
1375.498	2603.7
1378.749	2624.25
1382	2581.18
1385.251	2630.09
1388.501	2588.86
1391.751	2575.75
1395	2545.22
1398.25	2576.48
1401.499	2591.49
1404.748	2521.29
1407.996	2507.33
1411.244	2495.14
1414.492	2477.19
1417.74	2453.91
1420.987	2463.37
1424.234	2520.49
1427.481	2493.22
1430.728	2552.85
1433.974	2525.99
1437.22	2537.1
1440.465	2538.32
1443.711	2513.13
1446.956	2543.86
1450.201	2528.14
1453.445	2572.73
1456.689	2550.67
1459.933	2561.8
1463.177	2599.38
1466.42	2570.27
1469.663	2550.15
1472.906	2548.83
1476.148	2609.08
1479.391	2593.41
1482.633	2559.79
1485.874	2571.64
1489.115	2564.15
1492.356	2568.73
1495.597	2546.78
1498.838	2549.89
1502.078	2524.05
1505.318	2481.77
1508.557	2522.1
1511.797	2511.74
1515.036	2556.21
1518.274	2548.07
1521.513	2517.49
1524.751	2536.18
1527.989	2549.35
1531.227	2565.28
1534.464	2561.64
1537.701	2576.84
1540.938	2595.04
1544.174	2544.49
1547.41	2542.36
1550.646	2580
1553.882	2621.23
1557.117	2677.16
1560.352	2688.61
1563.587	2649.16
1566.821	2610.19
1570.055	2640.55
1573.289	2611.79
1576.523	2683.05
1579.756	2692.1
1582.989	2711.9
1586.222	2674.05
1589.454	2708.86
1592.686	2684.9
1595.918	2712.4
1599.15	2702.48
1602.381	2770.1
1605.612	2733.14
1608.843	2829.84
1612.073	2743.89
1615.303	2730.08
1618.533	2722.57
1621.762	2723.73
1624.992	2707.52
1628.221	2698.91
1631.449	2684.92
1634.678	2732.61
1637.906	2690.66
1641.134	2727
1644.361	2688.69
1647.588	2675.71
1650.815	2695.57
1654.042	2668.14
1657.269	2699.48
1660.495	2656.95
1663.72	2669.64
1666.946	2636.51
1670.171	2589.87
1673.396	2564.41
1676.621	2546.32
1679.845	2559.66
1683.069	2579.3
1686.293	2617.25
1689.517	2595.94
1692.74	2530.65
1695.963	2558.15
1699.185	2581.2
1702.408	2551.36
1705.63	2589.87
1708.852	2604.27
1712.073	2582.23
1715.294	2572.45
1718.515	2626.95
1721.736	2579.29
1724.956	2564.52
1728.176	2589.57
1731.396	2613.77
1734.616	2599.85
1737.835	2632.21
1741.054	2608.1
1744.272	2600.77
1747.491	2630.47
1750.709	2676.52
1753.927	2593.91
1757.144	2633.08
1760.361	2682.42
1763.578	2668.88
1766.795	2611.55
1770.011	2613.66
1773.227	2649.72
1776.443	2688.62
1779.658	2729.41
1782.874	2672.29
1786.089	2653.86
1789.303	2656.19
1792.518	2656.02
1795.732	2644.3
1798.945	2655.69
1802.159	2704.75
1805.372	2616.23
1808.585	2603.62
1811.797	2603.14
1815.01	2645.71
1818.222	2652.41
1821.434	2629.53
1824.645	2683.21
1827.856	2676.11
1831.067	2709.04
1834.278	2661.19
1837.488	2643.61
1840.698	2785.82
1843.908	2716.67
1847.117	2680.91
1850.326	2577.75
1853.535	2666.83
1856.744	2684.13
1859.952	2600.38
1863.16	2604.09
1866.368	2622.4
1869.575	2724
1872.782	2611.72
1875.989	2546.85
1879.196	2619.1
1882.402	2608.22
1885.608	2646.17
1888.814	2560.91
1892.019	2459.69
1895.224	2510.48
1898.429	2487.89
1901.634	2466.9
1904.838	2444.46
1908.042	2489.96
1911.246	2500.89
1914.449	2441.36
1917.652	2436.42
1920.855	2418.13
1924.058	2458.83
1927.26	2499.22
1930.462	2525.51
1933.664	2550.66
1936.865	2493.32
1940.066	2503.4
1943.267	2449.6
1946.467	2462.6
1949.668	2487.03
1952.868	2552.94
1956.067	2533.78
1959.267	2470.11
1962.466	2495.52
1965.665	2482.01
1968.863	2476.66
1972.061	2487.55
1975.259	2485.4
1978.457	2564.83
1981.654	2522.99
1984.852	2524.95
1988.048	2464.2
1991.245	2464.16
1994.441	2550.44
1997.637	2531.22
2000.833	2507.01
2004.028	2547.21
2007.223	2603.95
2010.418	2582.95
2013.613	2544.42
2016.807	2522.44
2020.001	2524.45
2023.194	2564
2026.388	2541.02
2029.581	2485.74
2032.774	2535.35
2035.966	2546.27
2039.158	2483.59
2042.35	2508.02
2045.542	2434.1
2048.733	2528.51
2051.924	2542.45
2055.115	2568.07
2058.306	2516.04
2061.496	2576.09
2064.686	2635.83
2067.875	2548.14
2071.065	2560.87
2074.254	2584.57
2077.442	2536.01
2080.631	2627.04
2083.819	2528.74
2087.007	2514.59
2090.195	2491.37
2093.382	2519.94
2096.569	2500.42
2099.756	2457.27
2102.942	2490
2106.128	2495.82
2109.314	2487.67
2112.5	2457.96
2115.685	2430.81
2118.87	2440.25
2122.055	2504.41
2125.239	2472.82
2128.424	2454.72
2131.608	2542.59
2134.791	2522.43
2137.974	2574.64
2141.157	2560.34
2144.34	2516.1
2147.523	2527.25
2150.705	2542.92
2153.887	2519.53
2157.068	2474.81
2160.25	2472.08
2163.431	2500.74
2166.611	2454.79
2169.792	2473.43
2172.972	2371.69
2176.152	2444.66
2179.331	2477.91
2182.511	2461.99
2185.69	2489.03
2188.868	2484.77
2192.047	2535.04
2195.225	2531.37
2198.403	2483.75
2201.58	2474.53
2204.758	2469.19
2207.935	2550.54
2211.111	2443.08
2214.288	2430.67
2217.464	2468.82
2220.64	2436.34
2223.815	2489.8
2226.991	2416.33
2230.166	2434.39
2233.34	2468.37
2236.515	2489.18
2239.689	2557.11
2242.863	2502.46
2246.036	2560.87
2249.209	2553.44
2252.382	2584.33
2255.555	2579.1
2258.727	2521.05
2261.9	2554.81
2265.071	2546.65
2268.243	2546.37
2271.414	2484.29
2274.585	2452.76
2277.756	2517.04
2280.926	2472.27
2284.096	2511.38
2287.266	2424.73
2290.436	2475.43
2293.605	2503.86
2296.774	2535.77
2299.942	2552.2
2303.111	2570.15
2306.279	2618.5
2309.447	2604.44
2312.614	2579.99
2315.781	2602.03
2318.948	2572.21
2322.115	2610.33
2325.281	2512.44
2328.447	2526.35
2331.613	2501.03
2334.779	2480.43
2337.944	2480.14
2341.109	2479.82
2344.274	2463.64
2347.438	2428.69
2350.602	2452
2353.766	2466.59
2356.929	2454.19
2360.092	2494.42
2363.255	2451.77
2366.418	2395.33
2369.58	2493.84
2372.742	2309.75
2375.904	2317.36
2379.066	2297.49
2382.227	2327.92
2385.388	2293.45
2388.548	2227.42
2391.709	2276.71
2394.869	2259.88
2398.029	2346.53
2401.188	2353.49
2404.347	2294.43
2407.506	2414.5
2410.665	2445.58
2413.823	2448.19
2416.981	2413.87
2420.139	2437.39
2423.296	2486.85
2426.453	2457.68
2429.61	2483.13
2432.767	2425.86
2435.923	2463.57
2439.079	2426.42
2442.235	2470.15
2445.391	2403.78
2448.546	2432.25
2451.701	2478.85
2454.855	2458.56
2458.009	2498.98
2461.163	2502.72
2464.317	2460.89
2467.471	2491.68
2470.624	2528.29
2473.777	2503.73
2476.929	2518.69
2480.082	2541.35
2483.234	2510.3
2486.385	2460.19
2489.537	2452.78
2492.688	2423.33
2495.839	2439.59
2498.989	2454.44
2502.14	2438.85
2505.29	2425.42
2508.439	2446.12
2511.589	2374.82
2514.738	2383.95
2517.887	2411.85
2521.035	2479.5
2524.183	2457.28
2527.331	2439.56
2530.479	2418.05
2533.627	2424.71
