Data from C_2_DIV_WI_4N_Splice17_12-18-59-503.txt Node
Date: Sat Mar 14 12:18:59 EDT 2020
User: sa697716
Spectrometer: FLMS03696
Trigger mode: 0
Integration Time (sec): 3.180400E-1
Scans to average: 20
Electric dark correction enabled: true
Nonlinearity correction enabled: true
Boxcar width: 5
XAxis mode: Wavelengths
Number of Pixels in Spectrum: 2048
>>>>>Begin Spectral Data<<<<<
187.83	-279377.7
188.298	2157.39
188.766	1164.64
189.233	1027.32
189.701	1374.75
190.169	1854.64
190.636	721.35
191.104	649.78
191.571	120.89
192.039	-55.84
192.506	-72.4
192.974	314.2
193.441	-437.37
193.908	53.18
194.375	18.72
194.842	19.61
195.31	65.92
195.777	184.32
196.244	406.09
196.711	504.6
197.177	613.18
197.644	887.67
198.111	1526.28
198.578	2132.24
199.045	1692.63
199.511	2786.76
199.978	3263.35
200.445	2753.49
200.911	3024
201.378	3424.41
201.844	3111.12
202.31	5277.07
202.777	5463.61
203.243	3027.09
203.709	2890.29
204.176	3466.84
204.642	2855
205.108	2666.87
205.574	2187.24
206.04	2006.16
206.506	1859.71
206.972	1742.76
207.438	1685.27
207.903	1929.1
208.369	1691.45
208.835	1713.95
209.301	1793.71
209.766	1832.41
210.232	1822.12
210.697	2248.19
211.163	2763
211.628	4220.5
212.094	3596.32
212.559	4459.3
213.024	2775.84
213.49	3392.38
213.955	3264.05
214.42	3189.29
214.885	2987.69
215.35	2868.13
215.815	2779.33
216.28	2968.02
216.745	2406.19
217.21	2600.52
217.675	2382.91
218.14	2702.71
218.604	3038.39
219.069	3498.58
219.534	3696.23
219.998	4344.66
220.463	5304.08
220.927	6549.89
221.392	6205.56
221.856	6303.25
222.32	7972.83
222.785	9892.08
223.249	12470.35
223.713	13941.52
224.177	13975.77
224.642	17975.88
225.106	22063.63
225.57	24122.41
226.034	17957.53
226.497	27336.31
226.961	24753.99
227.425	28818.97
227.889	31973.43
228.353	31970
228.816	66053.19
229.28	63162.57
229.744	53201.3
230.207	32379.86
230.671	31872.49
231.134	52715.46
231.597	60784.2
232.061	60796.1
232.524	59315.39
232.987	40841.44
233.45	36787.04
233.914	32989.65
234.377	33846.65
234.84	30980.56
235.303	36473.56
235.766	40665.7
236.229	42047.13
236.691	26446.25
237.154	29669.38
237.617	22302.25
238.08	22801.87
238.542	26655.85
239.005	19047.75
239.468	18865.9
239.93	17778.64
240.393	16176.43
240.855	14206.63
241.317	14548.84
241.78	17704.8
242.242	18303.63
242.704	19731.78
243.166	17191.91
243.629	15588.37
244.091	17943.61
244.553	19659.15
245.015	21102.96
245.477	27263.29
245.939	39906.62
246.4	42289.29
246.862	41030.9
247.324	38629.88
247.786	43198.05
248.247	56620.01
248.709	58479.15
249.17	43687.56
249.632	41144.82
250.093	47623.34
250.555	41077.04
251.016	25029.22
251.477	23716.21
251.939	25580.1
252.4	26812.44
252.861	31873.65
253.322	29619.88
253.783	35214.62
254.244	45655.69
254.705	35950.4
255.166	31941.43
255.627	31436.1
256.088	44264.86
256.549	47009.96
257.009	40489.41
257.47	49158.26
257.931	40046.61
258.391	29990.51
258.852	30876.9
259.312	32346.33
259.773	39909.08
260.233	33737.6
260.694	28434.64
261.154	32250.11
261.614	25850.24
262.074	23092.38
262.534	23952.85
262.994	22542.85
263.455	30033.5
263.915	25311.02
264.374	23840.03
264.834	26035.49
265.294	28840.03
265.754	29843.61
266.214	28236.14
266.673	26461.56
267.133	33369.62
267.593	33142.6
268.052	40548.42
268.512	35227.64
268.971	42453.56
269.431	46536.87
269.89	41655.8
270.349	62461.38
270.809	69677.21
271.268	62606
271.727	140251.3
272.186	90842.21
272.645	68063.1
273.104	49113.51
273.563	71090.23
274.022	55932.77
274.481	47550.92
274.94	36621.52
275.399	27193.33
275.857	31632.68
276.316	42776.4
276.775	38065.51
277.233	37484.21
277.692	35005.62
278.15	39568.77
278.609	40664.8
279.067	37614.66
279.525	34906.18
279.984	45059.38
280.442	54100.5
280.9	53325.91
281.358	35049.63
281.816	32647.9
282.274	31924.08
282.732	33009.31
283.19	33173.16
283.648	28611.63
284.106	30422.39
284.564	30948.76
285.021	28699.92
285.479	21403.61
285.937	19441.85
286.394	17062.82
286.852	17563.07
287.309	18476.97
287.767	17848.57
288.224	16950.51
288.682	18626.12
289.139	20446.95
289.596	18700.56
290.053	19402.19
290.511	24459.92
290.968	29658.77
291.425	40204.29
291.882	33424.51
292.339	29043.83
292.796	28796.29
293.252	27085.12
293.709	21463.56
294.166	19215.37
294.623	21208.11
295.079	20339.68
295.536	20406.51
295.992	18502.15
296.449	18291.87
296.905	18967.8
297.362	18168.19
297.818	19096.4
298.274	19797.91
298.731	20161.43
299.187	19941.39
299.643	21398.48
300.099	25845.2
300.555	28327.81
301.011	23683.88
301.467	22788.23
301.923	26705.71
302.379	26085.14
302.835	25611.91
303.291	25663.77
303.746	29210.17
304.202	36865.8
304.658	36987.59
305.113	24881.22
305.569	24366.13
306.024	25966.15
306.479	24760.66
306.935	20839.23
307.39	22731.56
307.845	20975.32
308.301	21084.78
308.756	20542.07
309.211	19817.79
309.666	20298.33
310.121	25194.85
310.576	25567.65
311.031	25331.83
311.486	28977.26
311.94	28970.87
312.395	38783.85
312.85	72939.93
313.305	358054.46
313.759	1849099.89
314.214	133613.35
314.668	105851.66
315.123	88949.47
315.577	31920.91
316.032	28370.41
316.486	35549.25
316.94	27999.1
317.394	19438.38
317.849	15066.75
318.303	14253.25
318.757	13440.45
319.211	14845.87
319.665	12984.13
320.119	13127.62
320.572	18777.66
321.026	17528.62
321.48	14570.7
321.934	15879.59
322.387	15921.08
322.841	17198.26
323.295	15447.41
323.748	17813.5
324.202	18074.21
324.655	21694.64
325.108	30291.54
325.562	21411.4
326.015	25450.95
326.468	19200.87
326.921	21458.77
327.374	20019.34
327.827	20854.48
328.28	23604.65
328.733	15794.26
329.186	13887.81
329.639	13232.45
330.092	11159.04
330.545	10624.3
330.997	10711.77
331.45	11716.36
331.903	13740.32
332.355	23616.86
332.808	22911.62
333.26	18879.78
333.713	20515.4
334.165	20638.08
334.617	27551.2
335.069	22249.67
335.522	40189.68
335.974	44452.49
336.426	40532
336.878	28081.99
337.33	14231.63
337.782	13894.33
338.234	17417.06
338.686	20791.08
339.137	24586.96
339.589	23140.42
340.041	18129.26
340.493	15570.09
340.944	15946.48
341.396	17173.75
341.847	14437.61
342.299	17049.54
342.75	20778.81
343.201	18145.24
343.653	20889.05
344.104	25718.29
344.555	20224.8
345.006	31403.9
345.457	24013.2
345.908	19075.91
346.359	17973.15
346.81	14615.03
347.261	15397.89
347.712	15167.82
348.163	16239.36
348.613	16423.3
349.064	15312.21
349.515	13406.64
349.965	13748
350.416	16562.1
350.866	18162.78
351.317	20471.2
351.767	33873.37
352.217	42637.12
352.668	35351.3
353.118	32401.6
353.568	31192.42
354.018	24660.82
354.468	26003.47
354.918	18662.3
355.368	16325.68
355.818	23076.24
356.268	66481.65
356.718	278444.26
357.168	69411.29
357.617	34835.48
358.067	38723.14
358.517	36269.8
358.966	42520.36
359.416	47611.25
359.865	51414.88
360.315	61281.41
360.764	28592.1
361.213	16016.13
361.663	15162.43
362.112	18726.26
362.561	30212.99
363.01	22774.89
363.459	19180.41
363.908	20752.64
364.357	17611.85
364.806	29812.15
365.255	20467.95
365.703	18756.82
366.152	18783.23
366.601	15233.39
367.05	12373.74
367.498	11267.83
367.947	11780.02
368.395	12251.51
368.844	10841.08
369.292	13087.84
369.74	9032.21
370.189	13882.6
370.637	16260.78
371.085	14036
371.533	17123.06
371.981	16507.65
372.429	15791
372.877	16516.5
373.325	13867.33
373.773	14190.24
374.221	12659.6
374.669	15764.73
375.116	13660.58
375.564	13831.69
376.012	15511.22
376.459	12846.29
376.907	15415.7
377.354	18648.82
377.801	17409.3
378.249	20106.77
378.696	25777.24
379.143	31354.92
379.591	33505.28
380.038	56758.25
380.485	41225.13
380.932	44733.43
381.379	41030.03
381.826	30275.45
382.273	21631.12
382.72	18997.8
383.166	18559.74
383.613	12075.17
384.06	10916.55
384.506	12704.6
384.953	9370.45
385.4	9449.08
385.846	8303.54
386.292	8113.47
386.739	7962.62
387.185	7907.89
387.631	7930.13
388.078	7723.41
388.524	8297.76
388.97	7693.14
389.416	6426.63
389.862	6849.49
390.308	6506.51
390.754	6619.77
391.2	7204.25
391.645	7386.66
392.091	7070.96
392.537	6850.38
392.983	6867.7
393.428	6767.94
393.874	7265.38
394.319	7306.52
394.765	6933.8
395.21	7134.91
395.655	6688.08
396.101	6266.8
396.546	5664.79
396.991	5708.34
397.436	5298.01
397.881	5110.67
398.326	4833.96
398.771	4572.19
399.216	3981.79
399.661	3580.5
400.106	3558.38
400.551	3643.37
400.995	3261.7
401.44	3214.17
401.885	3012.13
402.329	3035.12
402.774	2907.08
403.218	2800.1
403.663	2686.22
404.107	2756.04
404.551	2767.94
404.995	2533.91
405.44	2432.16
405.884	2460.77
406.328	2377.38
406.772	2364.81
407.216	2143.89
407.66	2063.35
408.104	1956.57
408.547	1823.07
408.991	1755.91
409.435	1683.5
409.879	1652.67
410.322	1627.49
410.766	1566.03
411.209	1482.94
411.653	1421.92
412.096	1391.94
412.54	1390.05
412.983	1376.47
413.426	1380.68
413.869	1381.67
414.312	1353.75
414.756	1302.6
415.199	1236.81
415.642	1198.49
416.085	1199.07
416.527	1186.85
416.97	1204.09
417.413	1138.27
417.856	1122.09
418.298	1107.55
418.741	1094.99
419.184	1088.52
419.626	1129.67
420.069	1131.9
420.511	1136.37
420.953	1110.96
421.396	1095.56
421.838	1065.12
422.28	1089.33
422.722	1097.79
423.164	1111.65
423.606	1093.85
424.048	1092.24
424.49	1036.78
424.932	1027.05
425.374	1011.51
425.816	1025.95
426.258	1044.7
426.699	1055.91
427.141	1038.72
427.582	1051.2
428.024	1043.31
428.465	1034.58
428.907	1007.56
429.348	998.34
429.789	999.51
430.231	978.98
430.672	992.95
431.113	969.55
431.554	953.05
431.995	928.67
432.436	893.74
432.877	874.08
433.318	858.59
433.759	855.66
434.2	852.85
434.64	842.98
435.081	844.44
435.522	800.67
435.962	772.88
436.403	759.49
436.843	769.82
437.284	755.09
437.724	735.34
438.164	738.44
438.604	720.58
439.045	695.03
439.485	668.73
439.925	654.58
440.365	638.81
440.805	629.58
441.245	620.15
441.685	598.65
442.125	593.62
442.564	597.53
443.004	583.78
443.444	584.1
443.883	586.75
444.323	581.06
444.762	581.52
445.202	588.84
445.641	601.17
446.081	597.76
446.52	603.01
446.959	599.73
447.398	586.89
447.837	582.61
448.276	572.65
448.716	576.44
449.154	582.44
449.593	572.46
450.032	570.81
450.471	560.19
450.91	562.58
451.349	563.49
451.787	561.54
452.226	570.12
452.664	570.19
453.103	572.67
453.541	573.2
453.98	572.39
454.418	575.16
454.856	567.99
455.295	569.53
455.733	574.15
456.171	576.42
456.609	579.21
457.047	579.51
457.485	588.46
457.923	588.96
458.361	581.56
458.798	583.15
459.236	582.48
459.674	584.83
460.111	586.79
460.549	580.42
460.987	578.56
461.424	575.24
461.862	572.22
462.299	562.12
462.736	562.69
463.173	564.42
463.611	560.76
464.048	559.27
464.485	565.1
464.922	559.8
465.359	557.03
465.796	551.61
466.233	546.96
466.67	542.23
467.106	542.06
467.543	534.65
467.98	527.4
468.416	513.06
468.853	508.23
469.29	492.74
469.726	487.43
470.162	473.51
470.599	465.01
471.035	460.32
471.471	449.19
471.907	445.15
472.344	443.65
472.78	445.01
473.216	450.03
473.652	445.18
474.088	443.34
474.523	441.4
474.959	446.3
475.395	442.26
475.831	439.27
476.266	441.72
476.702	440.77
477.138	435.84
477.573	433.52
478.008	431.73
478.444	432.54
478.879	437.23
479.314	439.13
479.75	438.3
480.185	440.55
480.62	444.28
481.055	445.92
481.49	449.43
481.925	455.86
482.36	464.66
482.795	476.62
483.229	490.35
483.664	500.33
484.099	502.65
484.534	510.83
484.968	516.53
485.403	518.4
485.837	517.56
486.271	517.18
486.706	517.69
487.14	512.31
487.574	505.28
488.009	501.08
488.443	497.07
488.877	502.81
489.311	505.59
489.745	512.24
490.179	518.29
490.613	530.38
491.046	535.44
491.48	541.61
491.914	543.77
492.348	549.85
492.781	555.11
493.215	558.55
493.648	561.26
494.082	567.74
494.515	569.57
494.948	578.28
495.382	584.28
495.815	591.11
496.248	597.36
496.681	610.88
497.114	622.42
497.547	634.04
497.98	648.81
498.413	657.79
498.846	669.09
499.279	680
499.711	687.6
500.144	693.29
500.577	705.98
501.009	719.76
501.442	732.51
501.874	737.86
502.306	743.69
502.739	754.28
503.171	771.79
503.603	779.25
504.036	792.05
504.468	801.01
504.9	815.44
505.332	826.82
505.764	835.64
506.196	846.14
506.627	865.55
507.059	881.94
507.491	895.13
507.923	898.4
508.354	916.83
508.786	932.64
509.217	954.71
509.649	974.11
510.08	996.89
510.512	1017.45
510.943	1037.01
511.374	1051.89
511.805	1077.11
512.237	1100.38
512.668	1136.82
513.099	1168.96
513.53	1200.61
513.961	1226.14
514.391	1261.83
514.822	1299.24
515.253	1340.3
515.684	1369.6
516.114	1404.43
516.545	1430.01
516.975	1460.7
517.406	1482.29
517.836	1488.49
518.267	1497.71
518.697	1519.36
519.127	1527.54
519.558	1537.62
519.988	1543.1
520.418	1557.29
520.848	1578.15
521.278	1590.48
521.708	1596.86
522.138	1612.06
522.567	1647.14
522.997	1676.14
523.427	1695.55
523.857	1714.49
524.286	1727.73
524.716	1745.86
525.145	1767.92
525.575	1780.86
526.004	1796.8
526.433	1805.76
526.863	1807.26
527.292	1797.03
527.721	1804.29
528.15	1811.21
528.579	1814.08
529.008	1826.07
529.437	1852.64
529.866	1867.52
530.295	1887.15
530.724	1902.39
531.152	1932.55
531.581	1948.87
532.01	1969.15
532.438	1978.44
532.867	1993.82
533.295	2014.31
533.723	2022.44
534.152	2019.12
534.58	2021.25
535.008	2004.36
535.436	2006.31
535.865	2016.46
536.293	2033.83
536.721	2051.77
537.149	2081.59
537.576	2086.1
538.004	2101.08
538.432	2109.92
538.86	2109.16
539.287	2116.41
539.715	2131.98
540.143	2134.49
540.57	2128.45
540.998	2123.57
541.425	2097.81
541.852	2073.68
542.28	2070.69
542.707	2050.97
543.134	2035.45
543.561	2030.76
543.988	2022.28
544.415	2021.34
544.842	2015.92
545.269	2008.48
545.696	2010.07
546.123	2023.31
546.549	2012.09
546.976	1998.12
547.403	1997.58
547.829	1999.3
548.256	2001.08
548.682	1996.31
549.108	1987.57
549.535	1986.71
549.961	1988.99
550.387	1974.7
550.813	1968.46
551.24	1975.34
551.666	1975.62
552.092	1965.27
552.518	1957.81
552.943	1951.16
553.369	1959.5
553.795	1965.08
554.221	1965.29
554.646	1961.53
555.072	1972.04
555.498	1977.16
555.923	1985.28
556.349	2001.74
556.774	2010.22
557.199	2011.77
557.625	2017.97
558.05	2010.04
558.475	2020.26
558.9	2018.94
559.325	2009.04
559.75	2001.75
560.175	1994.4
560.6	1986.99
561.025	1984.06
561.449	1984.39
561.874	1988.08
562.299	1992.88
562.723	2000.93
563.148	1989.02
563.572	1992.37
563.997	2001.92
564.421	2007.51
564.846	2007.61
565.27	2012.48
565.694	2009.45
566.118	2021.86
566.542	2029.89
566.966	2021.13
567.39	2014.22
567.814	2002.13
568.238	1999.97
568.662	2004.68
569.086	2005.13
569.509	2012.72
569.933	1994.11
570.357	1984.21
570.78	1960.2
571.204	1944.49
571.627	1932.32
572.05	1928.74
572.474	1926.69
572.897	1912.8
573.32	1903.9
573.743	1892.84
574.166	1871.24
574.589	1870.01
575.012	1860.61
575.435	1858.26
575.858	1847.66
576.281	1834.59
576.704	1816.33
577.126	1801.57
577.549	1788.49
577.972	1776.29
578.394	1764.29
578.817	1754.81
579.239	1733.09
579.661	1717.99
580.084	1698.92
580.506	1682.41
580.928	1676.06
581.35	1662.83
581.772	1657.88
582.194	1642.82
582.616	1627.8
583.038	1611.21
583.46	1599.68
583.882	1595.78
584.303	1599.46
584.725	1595.09
585.147	1597.38
585.568	1607.94
585.99	1621.09
586.411	1626.94
586.833	1641.61
587.254	1642.54
587.675	1658.53
588.096	1670.62
588.518	1664.23
588.939	1645.12
589.36	1642.14
589.781	1630.22
590.202	1599.13
590.623	1588.61
591.043	1586.31
591.464	1572.44
591.885	1568.79
592.305	1561.48
592.726	1546.36
593.147	1547.08
593.567	1541.76
593.987	1533.08
594.408	1527.29
594.828	1525.19
595.248	1518.23
595.669	1497.68
596.089	1490.46
596.509	1482.74
596.929	1467.45
597.349	1467.54
597.769	1456.17
598.189	1448.78
598.608	1449.96
599.028	1451.12
599.448	1450.7
599.867	1437.41
600.287	1433.03
600.706	1427.52
601.126	1417
601.545	1414.81
601.965	1412.79
602.384	1406.92
602.803	1409.64
603.222	1403.25
603.641	1397.07
604.061	1392.65
604.48	1388.49
604.898	1395.68
605.317	1400.26
605.736	1401.13
606.155	1398.39
606.574	1388.85
606.992	1393.24
607.411	1387.38
607.829	1378.69
608.248	1374.08
608.666	1370.72
609.085	1368.43
609.503	1359.39
609.921	1351.4
610.339	1352.89
610.758	1350.25
611.176	1344.71
611.594	1334.62
612.012	1329.84
612.43	1331.9
612.847	1336.82
613.265	1336.72
613.683	1340.3
614.101	1340.21
614.518	1335.8
614.936	1324.44
615.353	1309.33
615.771	1303.79
616.188	1302.45
616.606	1296.71
617.023	1288.73
617.44	1273.59
617.857	1265.35
618.274	1255.5
618.691	1248.74
619.108	1238.92
619.525	1231.84
619.942	1237.02
620.359	1239.21
620.776	1234.52
621.192	1230.79
621.609	1227.59
622.026	1233.67
622.442	1238.95
622.859	1242.91
623.275	1235
623.691	1239.27
624.108	1250.52
624.524	1263.96
624.94	1263.09
625.356	1271.92
625.772	1284.63
626.188	1295.53
626.604	1295.82
627.02	1290.62
627.436	1286.56
627.852	1292.51
628.268	1304.16
628.683	1294.71
629.099	1286.61
629.514	1282.45
629.93	1285.46
630.345	1289.06
630.761	1285.1
631.176	1288.45
631.591	1282.97
632.007	1276.65
632.422	1274.17
632.837	1262.14
633.252	1258.84
633.667	1247.03
634.082	1237.09
634.497	1223.24
634.911	1202.94
635.326	1198.2
635.741	1180.54
636.155	1168.94
636.57	1168.51
636.984	1166.39
637.399	1164.96
637.813	1161.06
638.228	1157.6
638.642	1157.82
639.056	1145.07
639.47	1142.8
639.884	1131.29
640.298	1121.75
640.712	1117.07
641.126	1102.41
641.54	1090.04
641.954	1082.67
642.368	1068.26
642.781	1057.76
643.195	1038.9
643.609	1036.73
644.022	1027.39
644.436	1021.54
644.849	1005.98
645.262	990.88
645.676	989.65
646.089	981.55
646.502	964.5
646.915	957.98
647.328	940.22
647.741	936.01
648.154	921.83
648.567	916.94
648.98	902.29
649.393	900.97
649.805	896.68
650.218	887.16
650.631	872.19
651.043	865.28
651.456	859.05
651.868	857.48
652.28	870.4
652.693	879.75
653.105	882.75
653.517	889.2
653.929	889.49
654.341	892.34
654.753	881.17
655.165	884.61
655.577	881.14
655.989	874.02
656.401	865.38
656.813	833.19
657.224	813.52
657.636	787.06
658.047	770.23
658.459	750.95
658.87	741.82
659.282	728.17
659.693	709.02
660.104	694.89
660.515	681.07
660.926	676.09
661.338	669.65
661.749	661.47
662.159	652.18
662.57	645.16
662.981	638.06
663.392	628.49
663.803	628.93
664.213	623.97
664.624	616.62
665.035	615.51
665.445	602.52
665.855	596.03
666.266	588.45
666.676	583.79
667.086	574.53
667.497	571.51
667.907	565.23
668.317	556.42
668.727	553.35
669.137	551.82
669.547	549.14
669.956	550.3
670.366	549.97
670.776	549.98
671.186	552.68
671.595	554.34
672.005	556.75
672.414	556.15
672.824	555.69
673.233	557.22
673.642	558.9
674.052	561.24
674.461	563.02
674.87	566.65
675.279	565.09
675.688	565.73
676.097	567.84
676.506	566.66
676.915	577.99
677.323	580.38
677.732	581.11
678.141	582.59
678.549	576.2
678.958	576.44
679.366	577.14
679.775	583.78
680.183	594.62
680.592	602.4
681	609.33
681.408	607.47
681.816	616.94
682.224	628.11
682.632	640.73
683.04	670.05
683.448	695.46
683.856	725.89
684.264	759.38
684.671	792.25
685.079	831.11
685.487	874.83
685.894	934.99
686.302	987.24
686.709	1031.51
687.116	1083.97
687.524	1127.48
687.931	1169.17
688.338	1206.86
688.745	1240.15
689.152	1278.23
689.559	1325.68
689.966	1373.16
690.373	1400.41
690.78	1446.09
691.187	1512.4
691.593	1565.1
692	1613.61
692.407	1681.13
692.813	1761.33
693.22	1827.72
693.626	1895.58
694.032	1952.21
694.439	2034.78
694.845	2100.82
695.251	2184.22
695.657	2259.47
696.063	2366.62
696.469	2446.78
696.875	2521.53
697.281	2567.06
697.687	2622.76
698.093	2669.41
698.498	2754.9
698.904	2821.7
699.31	2921.06
699.715	2990.75
700.12	3093.38
700.526	3118.05
700.931	3198.83
701.337	3259.19
701.742	3300.96
702.147	3397.32
702.552	3435.72
702.957	3504.24
703.362	3533.51
703.767	3571.41
704.172	3621.36
704.577	3576.01
704.981	3632.09
705.386	3652.78
705.791	3649.83
706.195	3734.75
706.6	3747.23
707.004	3837.64
707.408	3809.57
707.813	3840.2
708.217	3830.2
708.621	3837.19
709.025	3944.9
709.43	3949.89
709.834	4020.75
710.237	4101.19
710.641	4092.47
711.045	4119.41
711.449	4118.77
711.853	4152.9
712.256	4202.44
712.66	4245.16
713.064	4329.3
713.467	4378.51
713.87	4504.68
714.274	4559.34
714.677	4681.88
715.08	4858.27
715.484	5046.21
715.887	5270.56
716.29	5494.08
716.693	5725.48
717.096	5994.33
717.499	6142.78
717.901	6176.24
718.304	6209.14
718.707	6237.96
719.109	6129.51
719.512	6098.36
719.915	5952.35
720.317	5893.81
720.719	5941.87
721.122	5912.22
721.524	5859.25
721.926	5812.3
722.328	5923.59
722.731	5914.27
723.133	5948.22
723.535	6162.59
723.937	6187.09
724.338	6247.8
724.74	6291.84
725.142	6214.98
725.544	6218.06
725.945	6243.78
726.347	6242.8
726.748	6235.17
727.15	6252.42
727.551	6210.41
727.952	6180.95
728.354	6150.23
728.755	6150.6
729.156	6105.97
729.557	6103.26
729.958	5965.11
730.359	5909.01
730.76	5889.51
731.161	5821.73
731.562	5795
731.962	5798.57
732.363	5728.82
732.763	5658.21
733.164	5698.34
733.564	5623.48
733.965	5515.99
734.365	5480.89
734.766	5512.86
735.166	5469.99
735.566	5413.59
735.966	5385.59
736.366	5380.06
736.766	5310.46
737.166	5345.5
737.566	5298.72
737.966	5271.09
738.365	5316.77
738.765	5308.54
739.165	5225.87
739.564	5196.78
739.964	5242.61
740.363	5189.87
740.763	5186.09
741.162	5171.9
741.561	5135.09
741.96	5087.5
742.36	5109.97
742.759	5113.27
743.158	5158.16
743.557	5173.12
743.955	5217.12
744.354	5169.04
744.753	5233.11
745.152	5187.91
745.55	5252.41
745.949	5245.35
746.348	5243.5
746.746	5262.7
747.144	5218.11
747.543	5191.18
747.941	5245.56
748.339	5166.38
748.737	5158.39
749.136	5149.93
749.534	5221.44
749.932	5188.21
750.33	5214.38
750.727	5277.92
751.125	5248.27
751.523	5234.54
751.921	5281.08
752.318	5243.54
752.716	5312.33
753.113	5329.37
753.511	5357.58
753.908	5357.91
754.305	5337.52
754.703	5407.15
755.1	5475.77
755.497	5542.95
755.894	5753.83
756.291	5952.73
756.688	6317.01
757.085	6799.65
757.482	7481.37
757.878	8225.07
758.275	8901.96
758.672	9836.39
759.068	10590.64
759.465	11668.05
759.861	13062.94
760.258	14677.03
760.654	15511.09
761.05	15383.9
761.447	14681.07
761.843	13664.75
762.239	12616.26
762.635	12149.38
763.031	11692.14
763.427	11036.22
763.822	10349.88
764.218	9668.92
764.614	8783.33
765.01	8196.8
765.405	7817.22
765.801	7526.74
766.196	7157.29
766.592	6950.95
766.987	6599.12
767.382	6364.33
767.778	6266.97
768.173	6119.06
768.568	6038.14
768.963	5900.14
769.358	5916.76
769.753	5863.53
770.148	5770.47
770.542	5767.14
770.937	5732.91
771.332	5832.34
771.726	5854.66
772.121	5785.57
772.515	5847.27
772.91	5830.52
773.304	5907.72
773.699	5835.23
774.093	5895.8
774.487	5958
774.881	6008.5
775.275	6003.65
775.669	5957.96
776.063	6006.37
776.457	6048.08
776.851	5968.3
777.245	5961.65
777.638	6000.93
778.032	6129.16
778.425	6087.48
778.819	6132.96
779.212	6083.19
779.606	6036.05
779.999	6060.73
780.392	6041.06
780.786	6131.56
781.179	6153.55
781.572	6200.78
781.965	6214.31
782.358	6153.13
782.751	6217.55
783.143	6166.3
783.536	6249.09
783.929	6300.93
784.322	6425.8
784.714	6460.78
785.107	6455.09
785.499	6531.86
785.891	6508.08
786.284	6487.74
786.676	6644.36
787.068	6620.58
787.46	6676.75
787.852	6698.96
788.245	6796.53
788.636	6828.35
789.028	6902.19
789.42	6944.91
789.812	6957.58
790.204	7068.04
790.595	7176.33
790.987	6958.61
791.378	6985.32
791.77	7130.59
792.161	7284.92
792.553	7342.99
792.944	7218.84
793.335	7141.96
793.726	7220.67
794.117	7317.85
794.508	7462.77
794.899	7430.99
795.29	7581.77
795.681	7648.13
796.072	7490.8
796.463	7276.59
796.853	7284.79
797.244	7456.19
797.634	7491.09
798.025	7491.17
798.415	7501.39
798.806	7602.04
799.196	7693.63
799.586	7750.6
799.976	7704.24
800.366	7954.98
800.756	8223.85
801.146	8182.59
801.536	8213.01
801.926	8296.78
802.316	8322.19
802.706	8402.62
803.095	8264.45
803.485	8372.67
803.874	8418.61
804.264	8702.66
804.653	8672.24
805.043	8834.7
805.432	8959.5
805.821	8962.99
806.21	8989.41
806.599	9121.27
806.988	9173.57
807.377	9297.71
807.766	9447.91
808.155	9763.54
808.544	9478.17
808.933	9500.71
809.321	9476.68
809.71	9798.57
810.098	9978.52
810.487	10491.69
810.875	11024.56
811.264	11048.18
811.652	11357.27
812.04	11515.25
812.428	11693.84
812.816	12535.39
813.204	12991.66
813.592	13601.22
813.98	13964.7
814.368	13857.07
814.756	14374.45
815.144	14285.95
815.531	14801.13
815.919	14727.77
816.306	15067.93
816.694	14728.05
817.081	14784.07
817.469	15175
817.856	15176.32
818.243	15472.89
818.63	15904.4
819.017	15452.03
819.404	15525.81
819.791	15950.22
820.178	16625.68
820.565	16899.89
820.952	17925.42
821.339	17388.81
821.725	17588.16
822.112	16766.53
822.498	16734.45
822.885	16884.22
823.271	16770.03
823.657	17230.22
824.044	17230.52
824.43	17312.36
824.816	17273.58
825.202	16795.2
825.588	17911.38
825.974	17924.94
826.36	18493.27
826.746	18530.88
827.132	18922.18
827.517	18902.53
827.903	18041.04
828.289	18086.84
828.674	17220.5
829.06	17112.55
829.445	17548.4
829.83	17944.16
830.216	18473.35
830.601	18872.64
830.986	18413.21
831.371	18263.22
831.756	18874.66
832.141	18396.77
832.526	18386.43
832.911	18704.34
833.295	18573.96
833.68	19094.2
834.065	18407.4
834.449	17396.9
834.834	17314.11
835.218	17309.55
835.603	17681.13
835.987	17444.04
836.371	18359.59
836.755	18252.88
837.139	18703.78
837.524	18962.26
837.908	18765.84
838.291	18835.01
838.675	18906.95
839.059	19139.51
839.443	19131.22
839.827	18874.66
840.21	19397.07
840.594	19229.19
840.977	19446.44
841.361	19414.49
841.744	19831.51
842.127	19656.05
842.511	19925.41
842.894	20584.56
843.277	21005.62
843.66	21607.75
844.043	21705.62
844.426	20829.77
844.809	20498.52
845.191	20537.36
845.574	20035.97
845.957	19636.97
846.339	19526.78
846.722	18948.81
847.104	19019.86
847.487	18828.62
847.869	18837.11
848.252	19145.96
848.634	19510.69
849.016	19805.45
849.398	19948.35
849.78	20883.03
850.162	20893.9
850.544	21349.8
850.926	22047.71
851.307	21958.33
851.689	22266.82
852.071	22777.48
852.452	23130.3
852.834	23108.4
853.215	23538.08
853.597	23706.36
853.978	24030.56
854.359	24531.89
854.741	23445.05
855.122	23334.38
855.503	23020.1
855.884	23172.92
856.265	23098.35
856.646	23220.08
857.026	22795.29
857.407	22725.84
857.788	22897.28
858.169	23215.84
858.549	22276.12
858.93	22957.37
859.31	23007.94
859.69	23239.51
860.071	22794.15
860.451	22562.4
860.831	21752.85
861.211	23033.9
861.591	23640.81
861.971	23624.5
862.351	23845.35
862.731	24277.36
863.111	24562.51
863.491	24938.77
863.87	25904.88
864.25	26285.5
864.629	25832.73
865.009	26398.24
865.388	27324
865.768	29281.95
866.147	29150.67
866.526	27529.76
866.905	27865.2
867.284	29432.21
867.663	27950.29
868.042	26789.73
868.421	26703.03
868.8	27146.69
869.179	27416.45
869.558	25817.95
869.936	23790.89
870.315	24225.72
870.693	24803.35
871.072	26736.34
871.45	25456.52
871.828	25762.59
872.207	27072.12
872.585	26666.05
872.963	27401.28
873.341	26453.38
873.719	26145.39
874.097	25835.74
874.475	26310.57
874.853	26922.44
875.23	25797.99
875.608	26883.98
875.986	29086.69
876.363	27812.16
876.741	28646.61
877.118	27911.51
877.495	29288.45
877.873	29752.83
878.25	31312.62
878.627	30056.45
879.004	30481.92
879.381	30336.85
879.758	29533.96
880.135	27488.63
880.512	29080.21
880.889	28318.9
881.265	28031.74
881.642	27788.05
882.019	28268.04
882.395	27687.38
882.772	28778.56
883.148	27531.87
883.524	27425.22
883.901	27269.15
884.277	27687.27
884.653	27515.42
885.029	28300.55
885.405	31347.32
885.781	31110.15
886.157	29843.43
886.532	30198.27
886.908	30176.97
887.284	33550.92
887.659	34644.14
888.035	35730.97
888.411	36661
888.786	37140.68
889.161	38435.77
889.537	37723.81
889.912	38932.91
890.287	38894.42
890.662	39901.87
891.037	39190.52
891.412	36536.31
891.787	36175.89
892.162	34923.05
892.536	35731.64
892.911	34392.01
893.286	33659.12
893.66	32304.83
894.035	33131.48
894.409	36087.87
894.784	34649.11
895.158	35220.08
895.532	37324.58
895.906	38333.57
896.281	39224.26
896.655	38594.34
897.029	44104.46
897.402	45934.24
897.776	51126.2
898.15	50963.27
898.524	50386.04
898.898	51043.49
899.271	57158.98
899.645	49491.18
900.018	47552.93
900.392	49325.11
900.765	49718.79
901.138	46016.05
901.511	45342.83
901.884	41640.45
902.258	38411.39
902.631	39704.06
903.003	45705.49
903.376	41243.57
903.749	46267.57
904.122	49541.11
904.495	54569.65
904.867	55279.77
905.24	47977.55
905.612	44645.2
905.985	45657.69
906.357	47729.11
906.729	45567.21
907.102	38915.05
907.474	37404.55
907.846	37637.09
908.218	37147.91
908.59	32818.68
908.962	31751.48
909.334	34201.55
909.705	35939.5
910.077	34884.64
910.449	36298.88
910.82	37294.54
911.192	41043.87
911.563	42656.85
911.935	45629.04
912.306	45648.8
912.677	47107.52
913.048	46606.43
913.419	50565.28
913.79	50832.65
914.161	54497.4
914.532	52090.04
914.903	47850.77
915.274	45440.5
915.645	44769.69
916.015	39408.35
916.386	37578.28
916.756	39990.5
917.127	41260.01
917.497	36848.92
917.868	40114.14
918.238	38132.18
918.608	39228.77
918.978	40063.16
919.348	42420.15
919.718	43809.68
920.088	42178.17
920.458	43834.34
920.828	46139.42
921.198	43741.45
921.567	46724.25
921.937	36182.57
922.306	36535.72
922.676	39399.31
923.045	32870.18
923.415	31211.32
923.784	28447.27
924.153	29260.65
924.522	29198.11
924.891	27450.71
925.26	29404.67
925.629	28714.48
925.998	33006.78
926.367	32205.73
926.736	30663.1
927.104	36530.61
927.473	39293.01
927.842	47447.63
928.21	46994.88
928.578	49459.72
928.947	46801.13
929.315	47079.55
929.683	55220.05
930.051	55653.9
930.42	64612.15
930.788	55263.91
931.156	54838.51
931.523	51423.97
931.891	47500.95
932.259	45639.42
932.627	52895.1
932.994	74787.69
933.362	61866.43
933.729	53744.31
934.097	51460.44
934.464	43560.06
934.831	50273.75
935.199	49551.01
935.566	48044.52
935.933	48779.94
936.3	59088.58
936.667	45998.78
937.034	41481.62
937.401	41001.26
937.767	35376.33
938.134	31490.29
938.501	44439.6
938.867	47322.22
939.234	80053.78
939.6	68300.41
939.967	75131.96
940.333	50302.25
940.699	42812.56
941.065	34399.01
941.431	45070.78
941.798	43475.11
942.163	57202.88
942.529	35739.87
942.895	32915.31
943.261	21299.65
943.627	27960.3
943.992	24475.44
944.358	24517.54
944.723	24619.15
945.089	24003.56
945.454	22192.77
945.82	23704.29
946.185	22726.07
946.55	26318.91
946.915	23611.95
947.28	27686.99
947.645	24377.92
948.01	22485.82
948.375	23423.04
948.74	28083.67
949.104	32734.98
949.469	47293.19
949.834	83549.38
950.198	79321.74
950.562	47581.65
950.927	39667.36
951.291	47753.11
951.655	40666.19
952.02	38260.74
952.384	28957.83
952.748	25219.51
953.112	24595.21
953.476	21389.88
953.839	19787.86
954.203	19576.08
954.567	24480.26
954.931	38554.35
955.294	32985.52
955.658	33208.21
956.021	56421.45
956.385	95712.31
956.748	141116.83
957.111	219024.07
957.474	245665.5
957.837	276817.05
958.2	209490.75
958.563	75371.82
958.926	50974.99
959.289	77298.37
959.652	86240.16
960.015	64692.72
960.377	92906.22
960.74	106116.64
961.102	183141.74
961.465	196753.3
961.827	105186.79
962.189	201848.09
962.552	139870.69
962.914	112178.93
963.276	72832.32
963.638	60240.89
964	59674.09
964.362	40299.29
964.724	38935.21
965.085	27778.97
965.447	22788
965.809	26002.87
966.17	26047.66
966.532	28179.39
966.893	25839.73
967.255	23500.8
967.616	27740.95
967.977	22220.49
968.338	24262.44
968.699	19938.03
969.061	19925.54
969.421	20034.11
969.782	22462.52
970.143	18959.53
970.504	19637.66
970.865	22314.87
971.225	22830.25
971.586	22335.71
971.946	31817.13
972.307	27631.32
972.667	36152.75
973.027	37225.52
973.388	45182.63
973.748	30758.38
974.108	33498.42
974.468	45352.03
974.828	34956.84
975.188	26870.81
975.548	24680.25
975.907	20723.24
976.267	23233.24
976.627	19528.52
976.986	20254.15
977.346	19304.03
977.705	18568.98
978.064	16921.14
978.424	14081.62
978.783	14569.33
979.142	16649.5
979.501	15927.05
979.86	16828.45
980.219	16232.23
980.578	20899.63
980.937	23387.66
981.296	20849.24
981.654	21453.6
982.013	33346.38
982.371	43245.86
982.73	40385.15
983.088	45688.14
983.447	48846.48
983.805	69853.07
984.163	145880.43
984.521	162051.5
984.879	237786.27
985.237	-386757.45
985.595	372919.84
985.953	92801.93
986.311	53682.39
986.669	31205.62
987.026	26954.63
987.384	36227.78
987.741	37474.92
988.099	26784.38
988.456	21360.84
988.814	19988.6
989.171	17380.88
989.528	17147.88
989.885	18089.91
990.242	14310.98
990.599	17818.04
990.956	14587.37
991.313	10204.55
991.67	8379.28
992.027	8862.93
992.383	7872.24
992.74	6905.84
993.096	7240.93
993.453	7510.18
993.809	7793.56
994.165	10383.45
994.522	9497.82
994.878	10460.24
995.234	13119.96
995.59	12944.55
995.946	12281.33
996.302	14003.08
996.658	16189.86
997.013	17807.71
997.369	21094.3
997.725	26992.49
998.08	17492.5
998.436	27004.46
998.791	37241.73
999.147	37179.73
999.502	40540.92
999.857	29463.76
1000.212	48052.58
1000.567	68383.11
1000.922	39496.51
1001.277	25092.4
1001.632	18599.12
1001.987	23924.22
1002.342	17162.33
1002.696	13743.15
1003.051	10985.26
1003.406	13333.78
1003.76	13292.95
1004.114	13102.26
1004.469	11033.54
1004.823	9146.24
1005.177	9890.35
1005.531	7849.61
1005.885	6961.49
1006.239	7856.16
1006.593	9830.13
1006.947	13130.28
1007.301	9833.03
1007.655	10704.82
1008.008	7874.95
1008.362	8844.07
1008.715	12620.38
1009.069	11438.87
1009.422	17182.01
1009.776	34462.96
1010.129	22885.55
1010.482	19159.42
1010.835	16226.32
1011.188	33786.29
1011.541	31820.8
1011.894	-193764.21
1012.247	570310.44
1012.6	38819.6
1012.952	24461.97
1013.305	12651.24
1013.657	9117.97
1014.01	8668.47
1014.362	7144.51
1014.715	6322.56
1015.067	5496.29
1015.419	5358.46
1015.771	4770.51
1016.123	4237.67
1016.475	4351.35
1016.827	4644.67
1017.179	4974.97
1017.531	5013.91
1017.883	5099.24
1018.234	4903.67
1018.586	6184.73
1018.938	6552.81
1019.289	9052.58
1019.64	10346.71
1019.992	9602.29
1020.343	8790.7
1020.694	6934.66
1021.045	6150.18
1021.396	7028.85
1021.747	7547.62
1022.098	9087.71
1022.449	6607.38
1022.8	6126.63
1023.151	4253.42
1023.501	3747.81
1023.852	4076.35
1024.202	4238.84
1024.553	4665.7
1024.903	4551.58
1025.253	3887.86
1025.604	3475.98
1025.954	4322.76
1026.304	5277.96
1026.654	6154.12
1027.004	9063.5
1027.354	14746.47
1027.703	13921.84
1028.053	18258.18
1028.403	26494.92
1028.753	38356.6
1029.102	52307.17
1029.452	270615
1029.801	11649.45
1030.15	7514.85
1030.499	6363.64
897.758	2500.89
901.051	2453.36
904.343	2485.07
907.636	2489.12
910.928	2551.53
914.22	2465.82
917.511	2473.25
920.803	2531.08
924.094	2543.08
927.384	2530.55
930.675	2497.39
933.965	2453.57
937.255	2468.85
940.544	2435.74
943.834	2399.35
947.123	2339.37
950.411	2429.88
953.7	2404.24
956.988	2377.84
960.276	2319
963.563	2389.77
966.851	2389.43
970.138	2441.56
973.424	2435.83
976.711	2391.14
979.997	2491.45
983.283	2531.57
986.568	2447.21
989.853	2457.99
993.138	2484.97
996.423	2565.69
999.708	2508.64
1002.992	2560.09
1006.275	2425.71
1009.559	2455.58
1012.842	2563.48
1016.125	2501.01
1019.408	2482.81
1022.69	2559.6
1025.972	2580.8
1029.254	2557.19
1032.536	2500.02
1035.817	2523.35
1039.098	2476.19
1042.379	2590
1045.659	2600.86
1048.939	2537.8
1052.219	2553.58
1055.498	2560.47
1058.778	2549.78
1062.057	2534.07
1065.335	2554.1
1068.614	2570.22
1071.892	2555.11
1075.17	2628.11
1078.447	2617.83
1081.724	2610.59
1085.001	2645.4
1088.278	2622.74
1091.554	2633.54
1094.83	2628.73
1098.106	2656.15
1101.382	2696.53
1104.657	2700.55
1107.932	2700.43
1111.206	2664.99
1114.481	2625.01
1117.755	2626.66
1121.029	2611.85
1124.302	2664.7
1127.575	2622.37
1130.848	2614.54
1134.121	2575.61
1137.393	2531.32
1140.665	2592.24
1143.937	2569.12
1147.208	2525.58
1150.48	2568.53
1153.75	2556.48
1157.021	2578.75
1160.291	2552.56
1163.561	2597.65
1166.831	2582.98
1170.101	2615.59
1173.37	2586.38
1176.639	2536.18
1179.907	2588.28
1183.176	2599.74
1186.444	2607.57
1189.711	2635.7
1192.979	2649.64
1196.246	2605.83
1199.513	2622.5
1202.78	2619.96
1206.046	2630.01
1209.312	2652.62
1212.578	2675.77
1215.843	2633.64
1219.108	2607.89
1222.373	2628.81
1225.638	2592.56
1228.902	2580.52
1232.166	2546.72
1235.43	2528.88
1238.693	2551.89
1241.956	2547.03
1245.219	2591.52
1248.482	2579.28
1251.744	2573.53
1255.006	2712.54
1258.268	2668.48
1261.529	2616.03
1264.79	2619.69
1268.051	2720.28
1271.312	2735.66
1274.572	2703.01
1277.832	2692.7
1281.092	2682.25
1284.351	2661.17
1287.61	2643.12
1290.869	2567.33
1294.128	2546.53
1297.386	2625.69
1300.644	2616.29
1303.902	2625.49
1307.159	2489.13
1310.416	2543.24
1313.673	2566.84
1316.93	2553.91
1320.186	2594.77
1323.442	2635.69
1326.697	2627.17
1329.953	2611.52
1333.208	2637.75
1336.463	2616.99
1339.717	2562.46
1342.972	2687.48
1346.226	2661.53
1349.479	2600.32
1352.733	2572.84
1355.986	2592.82
1359.238	2568.42
1362.491	2571.26
1365.743	2572.84
1368.995	2568.19
1372.247	2580.29
1375.498	2603.7
1378.749	2624.25
1382	2581.18
1385.251	2630.09
1388.501	2588.86
1391.751	2575.75
1395	2545.22
1398.25	2576.48
1401.499	2591.49
1404.748	2521.29
1407.996	2507.33
1411.244	2495.14
1414.492	2477.19
1417.74	2453.91
1420.987	2463.37
1424.234	2520.49
1427.481	2493.22
1430.728	2552.85
1433.974	2525.99
1437.22	2537.1
1440.465	2538.32
1443.711	2513.13
1446.956	2543.86
1450.201	2528.14
1453.445	2572.73
1456.689	2550.67
1459.933	2561.8
1463.177	2599.38
1466.42	2570.27
1469.663	2550.15
1472.906	2548.83
1476.148	2609.08
1479.391	2593.41
1482.633	2559.79
1485.874	2571.64
1489.115	2564.15
1492.356	2568.73
1495.597	2546.78
1498.838	2549.89
1502.078	2524.05
1505.318	2481.77
1508.557	2522.1
1511.797	2511.74
1515.036	2556.21
1518.274	2548.07
1521.513	2517.49
1524.751	2536.18
1527.989	2549.35
1531.227	2565.28
1534.464	2561.64
1537.701	2576.84
1540.938	2595.04
1544.174	2544.49
1547.41	2542.36
1550.646	2580
1553.882	2621.23
1557.117	2677.16
1560.352	2688.61
1563.587	2649.16
1566.821	2610.19
1570.055	2640.55
1573.289	2611.79
1576.523	2683.05
1579.756	2692.1
1582.989	2711.9
1586.222	2674.05
1589.454	2708.86
1592.686	2684.9
1595.918	2712.4
1599.15	2702.48
1602.381	2770.1
1605.612	2733.14
1608.843	2829.84
1612.073	2743.89
1615.303	2730.08
1618.533	2722.57
1621.762	2723.73
1624.992	2707.52
1628.221	2698.91
1631.449	2684.92
1634.678	2732.61
1637.906	2690.66
1641.134	2727
1644.361	2688.69
1647.588	2675.71
1650.815	2695.57
1654.042	2668.14
1657.269	2699.48
1660.495	2656.95
1663.72	2669.64
1666.946	2636.51
1670.171	2589.87
1673.396	2564.41
1676.621	2546.32
1679.845	2559.66
1683.069	2579.3
1686.293	2617.25
1689.517	2595.94
1692.74	2530.65
1695.963	2558.15
1699.185	2581.2
1702.408	2551.36
1705.63	2589.87
1708.852	2604.27
1712.073	2582.23
1715.294	2572.45
1718.515	2626.95
1721.736	2579.29
1724.956	2564.52
1728.176	2589.57
1731.396	2613.77
1734.616	2599.85
1737.835	2632.21
1741.054	2608.1
1744.272	2600.77
1747.491	2630.47
1750.709	2676.52
1753.927	2593.91
1757.144	2633.08
1760.361	2682.42
1763.578	2668.88
1766.795	2611.55
1770.011	2613.66
1773.227	2649.72
1776.443	2688.62
1779.658	2729.41
1782.874	2672.29
1786.089	2653.86
1789.303	2656.19
1792.518	2656.02
1795.732	2644.3
1798.945	2655.69
1802.159	2704.75
1805.372	2616.23
1808.585	2603.62
1811.797	2603.14
1815.01	2645.71
1818.222	2652.41
1821.434	2629.53
1824.645	2683.21
1827.856	2676.11
1831.067	2709.04
1834.278	2661.19
1837.488	2643.61
1840.698	2785.82
1843.908	2716.67
1847.117	2680.91
1850.326	2577.75
1853.535	2666.83
1856.744	2684.13
1859.952	2600.38
1863.16	2604.09
1866.368	2622.4
1869.575	2724
1872.782	2611.72
1875.989	2546.85
1879.196	2619.1
1882.402	2608.22
1885.608	2646.17
1888.814	2560.91
1892.019	2459.69
1895.224	2510.48
1898.429	2487.89
1901.634	2466.9
1904.838	2444.46
1908.042	2489.96
1911.246	2500.89
1914.449	2441.36
1917.652	2436.42
1920.855	2418.13
1924.058	2458.83
1927.26	2499.22
1930.462	2525.51
1933.664	2550.66
1936.865	2493.32
1940.066	2503.4
1943.267	2449.6
1946.467	2462.6
1949.668	2487.03
1952.868	2552.94
1956.067	2533.78
1959.267	2470.11
1962.466	2495.52
1965.665	2482.01
1968.863	2476.66
1972.061	2487.55
1975.259	2485.4
1978.457	2564.83
1981.654	2522.99
1984.852	2524.95
1988.048	2464.2
1991.245	2464.16
1994.441	2550.44
1997.637	2531.22
2000.833	2507.01
2004.028	2547.21
2007.223	2603.95
2010.418	2582.95
2013.613	2544.42
2016.807	2522.44
2020.001	2524.45
2023.194	2564
2026.388	2541.02
2029.581	2485.74
2032.774	2535.35
2035.966	2546.27
2039.158	2483.59
2042.35	2508.02
2045.542	2434.1
2048.733	2528.51
2051.924	2542.45
2055.115	2568.07
2058.306	2516.04
2061.496	2576.09
2064.686	2635.83
2067.875	2548.14
2071.065	2560.87
2074.254	2584.57
2077.442	2536.01
2080.631	2627.04
2083.819	2528.74
2087.007	2514.59
2090.195	2491.37
2093.382	2519.94
2096.569	2500.42
2099.756	2457.27
2102.942	2490
2106.128	2495.82
2109.314	2487.67
2112.5	2457.96
2115.685	2430.81
2118.87	2440.25
2122.055	2504.41
2125.239	2472.82
2128.424	2454.72
2131.608	2542.59
2134.791	2522.43
2137.974	2574.64
2141.157	2560.34
2144.34	2516.1
2147.523	2527.25
2150.705	2542.92
2153.887	2519.53
2157.068	2474.81
2160.25	2472.08
2163.431	2500.74
2166.611	2454.79
2169.792	2473.43
2172.972	2371.69
2176.152	2444.66
2179.331	2477.91
2182.511	2461.99
2185.69	2489.03
2188.868	2484.77
2192.047	2535.04
2195.225	2531.37
2198.403	2483.75
2201.58	2474.53
2204.758	2469.19
2207.935	2550.54
2211.111	2443.08
2214.288	2430.67
2217.464	2468.82
2220.64	2436.34
2223.815	2489.8
2226.991	2416.33
2230.166	2434.39
2233.34	2468.37
2236.515	2489.18
2239.689	2557.11
2242.863	2502.46
2246.036	2560.87
2249.209	2553.44
2252.382	2584.33
2255.555	2579.1
2258.727	2521.05
2261.9	2554.81
2265.071	2546.65
2268.243	2546.37
2271.414	2484.29
2274.585	2452.76
2277.756	2517.04
2280.926	2472.27
2284.096	2511.38
2287.266	2424.73
2290.436	2475.43
2293.605	2503.86
2296.774	2535.77
2299.942	2552.2
2303.111	2570.15
2306.279	2618.5
2309.447	2604.44
2312.614	2579.99
2315.781	2602.03
2318.948	2572.21
2322.115	2610.33
2325.281	2512.44
2328.447	2526.35
2331.613	2501.03
2334.779	2480.43
2337.944	2480.14
2341.109	2479.82
2344.274	2463.64
2347.438	2428.69
2350.602	2452
2353.766	2466.59
2356.929	2454.19
2360.092	2494.42
2363.255	2451.77
2366.418	2395.33
2369.58	2493.84
2372.742	2309.75
2375.904	2317.36
2379.066	2297.49
2382.227	2327.92
2385.388	2293.45
2388.548	2227.42
2391.709	2276.71
2394.869	2259.88
2398.029	2346.53
2401.188	2353.49
2404.347	2294.43
2407.506	2414.5
2410.665	2445.58
2413.823	2448.19
2416.981	2413.87
2420.139	2437.39
2423.296	2486.85
2426.453	2457.68
2429.61	2483.13
2432.767	2425.86
2435.923	2463.57
2439.079	2426.42
2442.235	2470.15
2445.391	2403.78
2448.546	2432.25
2451.701	2478.85
2454.855	2458.56
2458.009	2498.98
2461.163	2502.72
2464.317	2460.89
2467.471	2491.68
2470.624	2528.29
2473.777	2503.73
2476.929	2518.69
2480.082	2541.35
2483.234	2510.3
2486.385	2460.19
2489.537	2452.78
2492.688	2423.33
2495.839	2439.59
2498.989	2454.44
2502.14	2438.85
2505.29	2425.42
2508.439	2446.12
2511.589	2374.82
2514.738	2383.95
2517.887	2411.85
2521.035	2479.5
2524.183	2457.28
2527.331	2439.56
2530.479	2418.05
2533.627	2424.71
