Data from C_2_DEC_NC_4N_Splice17_12-26-29-644.txt Node
Date: Sat Mar 14 12:26:29 EDT 2020
User: sa697716
Spectrometer: FLMS03696
Trigger mode: 0
Integration Time (sec): 3.180400E-1
Scans to average: 20
Electric dark correction enabled: true
Nonlinearity correction enabled: true
Boxcar width: 5
XAxis mode: Wavelengths
Number of Pixels in Spectrum: 2048
>>>>>Begin Spectral Data<<<<<
187.83	-409977.07
188.298	2859.26
188.766	1498.02
189.233	1322.3
189.701	1811.8
190.169	2430.44
190.636	894.91
191.104	674.62
191.571	49.56
192.039	-116.04
192.506	-192.48
192.974	217.6
193.441	-301.26
193.908	-51.67
194.375	-35.58
194.842	-51.89
195.31	-65.98
195.777	84.66
196.244	290.2
196.711	390.16
197.177	534.19
197.644	787.07
198.111	1390.92
198.578	1938.87
199.045	1583.28
199.511	2618.78
199.978	3085.94
200.445	2643.38
200.911	2939.29
201.378	3271.22
201.844	2953.14
202.31	5026.67
202.777	5207.92
203.243	2893.7
203.709	2741.84
204.176	3257.38
204.642	2663.11
205.108	2489.39
205.574	2025.76
206.04	1831.76
206.506	1722.53
206.972	1625.54
207.438	1560.35
207.903	1760.01
208.369	1526.25
208.835	1535.01
209.301	1614.53
209.766	1652.11
210.232	1635.73
210.697	2010.17
211.163	2493.1
211.628	3761.29
212.094	3145.53
212.559	3838.42
213.024	2412.78
213.49	2971.05
213.955	2865.97
214.42	2785.35
214.885	2590.08
215.35	2476.55
215.815	2384.57
216.28	2517.24
216.745	2047.95
217.21	2205.9
217.675	2014.32
218.14	2231.82
218.604	2450.38
219.069	2783.27
219.534	2877.77
219.998	3302.25
220.463	3966.09
220.927	4823.15
221.392	4513.15
221.856	4534.51
222.32	5677.09
222.785	6983.39
223.249	8763.78
223.713	9761.07
224.177	9758.21
224.642	12521.38
225.106	15390.12
225.57	16802.35
226.034	12529.31
226.497	19100.88
226.961	17291.91
227.425	20141.42
227.889	22397.02
228.353	22385.86
228.816	46168.69
229.28	44177.1
229.744	37253.94
230.207	22710.5
230.671	22348.63
231.134	36880.03
231.597	42521.97
232.061	42484.58
232.524	41492.34
232.987	28569.92
233.45	25742.27
233.914	23103.4
234.377	23712.95
234.84	21769.16
235.303	25665.21
235.766	28660.17
236.229	29676.38
236.691	18689.01
237.154	21020.91
237.617	15831.56
238.08	16218.42
238.542	18992.85
239.005	13618.05
239.468	13520.21
239.93	12744.57
240.393	11604.08
240.855	10211.23
241.317	10449.15
241.78	12718.41
242.242	13168.12
242.704	14241.29
243.166	12424.74
243.629	11324.53
244.091	13045.54
244.553	14290.04
245.015	15373.67
245.477	19900.28
245.939	29154.17
246.4	31032.03
246.862	30224.89
247.324	28499.26
247.786	31881.51
248.247	41767.96
248.709	43081.53
249.17	32270.71
249.632	30508.41
250.093	35407.42
250.555	30563.1
251.016	18655.73
251.477	17691.16
251.939	19090.99
252.4	20034.26
252.861	23830.87
253.322	22198.1
253.783	26409.99
254.244	34263.94
254.705	26965.38
255.166	23943.5
255.627	23603.66
256.088	33309.76
256.549	35410.53
257.009	30518.23
257.47	37100.12
257.931	30249.85
258.391	22711.62
258.852	23445.83
259.312	24583.94
259.773	30423.47
260.233	25768.75
260.694	21748.48
261.154	24679.32
261.614	19826.41
262.074	17740.53
262.534	18420.63
262.994	17359.7
263.455	23111.92
263.915	19467.87
264.374	18345.28
264.834	20023.77
265.294	22188.54
265.754	23007.91
266.214	21798.53
266.673	20427.41
267.133	25783.91
267.593	25602.43
268.052	31342.07
268.512	27269.83
268.971	32942.99
269.431	36160.58
269.89	32421.89
270.349	48654.95
270.809	54249.37
271.268	48798.69
271.727	109606.06
272.186	71016.16
272.645	53274.4
273.104	38458.99
273.563	55738.61
274.022	43767.05
274.481	37234.42
274.94	28694.62
275.399	21341.82
275.857	24883.01
276.316	33676.83
276.775	29965.82
277.233	29547.27
277.692	27703.54
278.15	31381.85
278.609	32319.91
279.067	30001.35
279.525	27915.9
279.984	36064.14
280.442	43384.73
280.9	42815.19
281.358	28171.52
281.816	26309.75
282.274	25801.66
282.732	26672.85
283.19	26838.68
283.648	23201.75
284.106	24733.87
284.564	25188.75
285.021	23412
285.479	17457.7
285.937	15889.64
286.394	13985.57
286.852	14399.99
287.309	15141.57
287.767	14642.33
288.224	13939.96
288.682	15300.65
289.139	16784.39
289.596	15369.32
290.053	15972.37
290.511	20158.37
290.968	24434.85
291.425	33153.28
291.882	27607.26
292.339	24027.06
292.796	23849.01
293.252	22455.94
293.709	17835.94
294.166	16001.36
294.623	17697.27
295.079	16974.75
295.536	17072.01
295.992	15511.2
296.449	15333.95
296.905	15947.17
297.362	15331.41
297.818	16116.59
298.274	16727.03
298.731	17052.17
299.187	16876.28
299.643	18119.85
300.099	21925.64
300.555	24058.22
301.011	20134.57
301.467	19435.86
301.923	22741.18
302.379	22175.31
302.835	21819.31
303.291	21910.63
303.746	24960.33
304.202	31568.48
304.658	31677.16
305.113	21328.18
305.569	20911.88
306.024	22304.97
306.479	21219.83
306.935	17896.04
307.39	19558.1
307.845	18079.66
308.301	18181.58
308.756	17722.47
309.211	17088.44
309.666	17551.66
310.121	21827.05
310.576	22191
311.031	21998.23
311.486	25213.33
311.94	25222.82
312.395	33763.35
312.85	63498.46
313.305	312293.46
313.759	1618083.41
314.214	117263.85
314.668	92856.52
315.123	78029.45
315.577	27948.21
316.032	24879.92
316.486	31233.04
316.94	24675.27
317.394	17188.32
317.849	13355.21
318.303	12610.79
318.757	11906.36
319.211	13187.97
319.665	11553.03
320.119	11718.35
320.572	16801.73
321.026	15698.92
321.48	13066.15
321.934	14225.38
322.387	14257.49
322.841	15395.2
323.295	13862.63
323.748	15953.42
324.202	16177.01
324.655	19413.67
325.108	27091.12
325.562	19157.32
326.015	22759.72
326.468	17203.52
326.921	19293.76
327.374	17981.99
327.827	18753.21
328.28	21239.01
328.733	14255.94
329.186	12523.45
329.639	11952.13
330.092	10073.74
330.545	9603.77
330.997	9709.76
331.45	10622.45
331.903	12431.1
332.355	21347.13
332.808	20743.33
333.26	17118.11
333.713	18606.99
334.165	18799.89
334.617	25113.63
335.069	20333.76
335.522	36753.41
335.974	40705.38
336.426	37285.53
336.878	25851.5
337.33	13177.92
337.782	12869.74
338.234	16163.43
338.686	19283.99
339.137	22824.91
339.589	21501.81
340.041	16850.92
340.493	14482.54
340.944	14822.51
341.396	15925.38
341.847	13416.32
342.299	15852.05
342.75	19408.22
343.201	16927.88
343.653	19492.36
344.104	24002.11
344.555	18899.3
345.006	29404.02
345.457	22565.06
345.908	17904.32
346.359	16853.86
346.81	13730.78
347.261	14459.5
347.712	14211.36
348.163	15229.15
348.613	15427.13
349.064	14395.93
349.515	12620.4
349.965	12958.66
350.416	15607.5
350.866	17173.45
351.317	19427.99
351.767	32148.66
352.217	40666.9
352.668	33798.66
353.118	30974.06
353.568	29915.91
354.018	23661.22
354.468	24961.98
354.918	17894.06
355.368	15657.52
355.818	22150.82
356.268	63821.8
356.718	268129.43
357.168	66668.24
357.617	33439.27
358.067	37307.36
358.517	34924.73
358.966	40984.62
359.416	46039.91
359.865	49778.16
360.315	59381.73
360.764	27763.15
361.213	15590.84
361.663	14747.46
362.112	18229.23
362.561	29498.9
363.01	22260.14
363.459	18787.34
363.908	20312.69
364.357	17237.27
364.806	29159.35
365.255	20018.82
365.703	18346.47
366.152	18314.97
366.601	14852.55
367.05	12061.75
367.498	10952.6
367.947	11457.01
368.395	11907.47
368.844	10567.89
369.292	12745.74
369.74	8830.97
370.189	13585.55
370.637	15946.78
371.085	13756.87
371.533	16759.95
371.981	16157.34
372.429	15413.58
372.877	16047.66
373.325	13460.5
373.773	13704.98
374.221	12205.24
374.669	15132.09
375.116	13049.79
375.564	13118.94
376.012	14708.19
376.459	12154
376.907	14554.45
377.354	17656.5
377.801	16502.85
378.249	18957.7
378.696	24248.93
379.143	29419.48
379.591	31425.57
380.038	53201.83
380.485	38652.6
380.932	41842.85
381.379	38269.97
381.826	28223.75
382.273	20056.66
382.72	17531.41
383.166	17107.47
383.613	11111.29
384.06	10008.6
384.506	11591.73
384.953	8523.73
385.4	8568.37
385.846	7515.37
386.292	7339.47
386.739	7174.43
387.185	7088.8
387.631	7095.22
388.078	6906.17
388.524	7404.78
388.97	6858.23
389.416	5725.35
389.862	6080.32
390.308	5770.83
390.754	5857.02
391.2	6367.92
391.645	6524.93
392.091	6266.93
392.537	6071.17
392.983	6077.67
393.428	5981.73
393.874	6405.78
394.319	6434.41
394.765	6127.53
395.21	6303.36
395.655	5925
396.101	5539.6
396.546	5006.96
396.991	5050.26
397.436	4691.12
397.881	4533.77
398.326	4302.47
398.771	4089.96
399.216	3577.72
399.661	3223.52
400.106	3214.23
400.551	3295.64
400.995	2963.08
401.44	2931.42
401.885	2747.86
402.329	2779.48
402.774	2670.73
403.218	2588.5
403.663	2491.45
404.107	2562.73
404.551	2578.04
404.995	2361.82
405.44	2273.67
405.884	2303.11
406.328	2226.94
406.772	2224.62
407.216	2028.33
407.66	1960.01
408.104	1858.68
408.547	1738.13
408.991	1681.72
409.435	1622.63
409.879	1604.82
410.322	1584.66
410.766	1534.17
411.209	1463.76
411.653	1408.44
412.096	1379.29
412.54	1379.36
412.983	1372.44
413.426	1378.88
413.869	1379.09
414.312	1356.41
414.756	1305.9
415.199	1247.22
415.642	1211.63
416.085	1213.8
416.527	1205.15
416.97	1225.06
417.413	1163.15
417.856	1149.73
418.298	1138.54
418.741	1129.95
419.184	1124.07
419.626	1170.99
420.069	1169.6
420.511	1178.38
420.953	1152.9
421.396	1142.43
421.838	1113.19
422.28	1137.86
422.722	1144.73
423.164	1159.73
423.606	1142.08
424.048	1142.18
424.49	1085.87
424.932	1080.88
425.374	1063.83
425.816	1080.69
426.258	1100.44
426.699	1110.63
427.141	1095.6
427.582	1112.43
428.024	1108.6
428.465	1101.36
428.907	1072.64
429.348	1057.74
429.789	1057.13
430.231	1035.58
430.672	1050.9
431.113	1027.02
431.554	1013.85
431.995	989.38
432.436	954.19
432.877	931.93
433.318	915.87
433.759	914.27
434.2	916.79
434.64	906.7
435.081	910.43
435.522	862.05
435.962	831.86
436.403	814.47
436.843	824.94
437.284	808.91
437.724	787.35
438.164	790.61
438.604	771.57
439.045	744.3
439.485	717.03
439.925	701.29
440.365	686.14
440.805	677.77
441.245	671.49
441.685	650.25
442.125	647
442.564	653.33
443.004	639.17
443.444	640.12
443.883	641.95
444.323	637.85
444.762	640.86
445.202	648.91
445.641	664.54
446.081	659.52
446.52	662.21
446.959	654.02
447.398	638.21
447.837	631.83
448.276	621.06
448.716	626.73
449.154	634.42
449.593	621.2
450.032	621.75
450.471	609.28
450.91	613.3
451.349	615.98
451.787	616.35
452.226	628.34
452.664	630.32
453.103	632.33
453.541	632.76
453.98	631.72
454.418	636.59
454.856	627.8
455.295	627.2
455.733	631.41
456.171	635.11
456.609	637.14
457.047	636.36
457.485	645.03
457.923	647.73
458.361	640.35
458.798	642.09
459.236	640.79
459.674	645.11
460.111	648.39
460.549	642.19
460.987	639.92
461.424	637.51
461.862	634.65
462.299	625.56
462.736	623.82
463.173	625.48
463.611	620.8
464.048	619.39
464.485	625.03
464.922	619.67
465.359	616.38
465.796	609.2
466.233	604.97
466.67	600.12
467.106	599.29
467.543	593.93
467.98	586.75
468.416	570.37
468.853	566.07
469.29	548.83
469.726	544
470.162	530.76
470.599	522.76
471.035	517.77
471.471	506.32
471.907	503.13
472.344	499.86
472.78	501.29
473.216	507.72
473.652	501.93
474.088	500.62
474.523	497.34
474.959	502.33
475.395	498.29
475.831	495.54
476.266	497.02
476.702	495.44
477.138	490.68
477.573	488.6
478.008	487.12
478.444	490.3
478.879	495.93
479.314	499.74
479.75	499.85
480.185	502.03
480.62	507.08
481.055	510.54
481.49	516.06
481.925	523.76
482.36	533.9
482.795	549.13
483.229	563.27
483.664	575.39
484.099	577.48
484.534	586.21
484.968	592.84
485.403	594.58
485.837	594.09
486.271	592.91
486.706	594.86
487.14	588.82
487.574	580.61
488.009	576.64
488.443	571.58
488.877	578.85
489.311	582.15
489.745	591.52
490.179	598.5
490.613	611.39
491.046	617.55
491.48	623.15
491.914	626.35
492.348	632.27
492.781	637.77
493.215	641.77
493.648	644.94
494.082	652.11
494.515	653.59
494.948	663.59
495.382	670.64
495.815	678.3
496.248	686.41
496.681	700.75
497.114	714.36
497.547	727.04
497.98	742.04
498.413	751.14
498.846	763.2
499.279	774.16
499.711	781
500.144	785.99
500.577	798.96
501.009	812.89
501.442	826.32
501.874	831.77
502.306	837.51
502.739	849.93
503.171	868.64
503.603	875.98
504.036	890.22
504.468	899.35
504.9	915.28
505.332	925.42
505.764	933.53
506.196	944.07
506.627	962.64
507.059	979.55
507.491	991.74
507.923	992.28
508.354	1010.53
508.786	1024.76
509.217	1046.93
509.649	1064.78
510.08	1088.15
510.512	1109.52
510.943	1128.47
511.374	1143.72
511.805	1168.53
512.237	1192.22
512.668	1230.21
513.099	1262.12
513.53	1293.83
513.961	1318.84
514.391	1355.17
514.822	1392.52
515.253	1432.38
515.684	1460.95
516.114	1492.85
516.545	1516.22
516.975	1544.75
517.406	1564.08
517.836	1567.14
518.267	1574.17
518.697	1593.21
519.127	1598.76
519.558	1606.12
519.988	1609.73
520.418	1621.65
520.848	1642.09
521.278	1651.84
521.708	1667.1
522.138	1679.97
522.567	1713.36
522.997	1740.67
523.427	1757.33
523.857	1774.38
524.286	1785.93
524.716	1801.68
525.145	1821.34
525.575	1831.91
526.004	1846.79
526.433	1842.2
526.863	1842.04
527.292	1830.94
527.721	1835.71
528.15	1841.58
528.579	1841.96
529.008	1853.69
529.437	1878.74
529.866	1892.91
530.295	1911.56
530.724	1925.08
531.152	1954.57
531.581	1970.15
532.01	1989.05
532.438	1999.62
532.867	2014.81
533.295	2036.2
533.723	2041.65
534.152	2039.32
534.58	2040.64
535.008	2022.97
535.436	2025.32
535.865	2033.45
536.293	2049.59
536.721	2067.81
537.149	2095.83
537.576	2099.78
538.004	2114.4
538.432	2124.92
538.86	2123.37
539.287	2129.91
539.715	2146.57
540.143	2149.77
540.57	2146.33
540.998	2142.58
541.425	2116.5
541.852	2092.87
542.28	2090.89
542.707	2071.45
543.134	2055.36
543.561	2049.99
543.988	2042.87
544.415	2041.33
544.842	2034.61
545.269	2027.07
545.696	2028.89
546.123	2043.39
546.549	2032.06
546.976	2018.35
547.403	2017.81
547.829	2020.42
548.256	2023.07
548.682	2018.35
549.108	2009.56
549.535	2009.91
549.961	2011.58
550.387	1998.13
550.813	1992.16
551.24	1998.92
551.666	2000.08
552.092	1989.26
552.518	1981.68
552.943	1974.59
553.369	1983.07
553.795	1990.44
554.221	1991.27
554.646	1988.65
555.072	2001
555.498	2007.77
555.923	2018.26
556.349	2036.65
556.774	2047
557.199	2049.42
557.625	2057.23
558.05	2051.9
558.475	2063.42
558.9	2063.16
559.325	2053.69
559.75	2046.68
560.175	2039.85
560.6	2033.73
561.025	2031.17
561.449	2034.09
561.874	2041.37
562.299	2048.18
562.723	2056.83
563.148	2046.23
563.572	2052.47
563.997	2065.2
564.421	2072.99
564.846	2075.16
565.27	2081.19
565.694	2079.38
566.118	2093.41
566.542	2103.14
566.966	2097.39
567.39	2092.99
567.814	2083.96
568.238	2084.88
568.662	2092.71
569.086	2096.01
569.509	2105.19
569.933	2088.27
570.357	2081.71
570.78	2059.12
571.204	2044.93
571.627	2033.26
572.05	2032.35
572.474	2031.63
572.897	2018.21
573.32	2010.93
573.743	2001.6
574.166	1981.51
574.589	1982.48
575.012	1975.34
575.435	1975.22
575.858	1966.06
576.281	1954.44
576.704	1938.19
577.126	1926.61
577.549	1915.26
577.972	1904.08
578.394	1892.55
578.817	1884.86
579.239	1864.85
579.661	1849.63
580.084	1831.56
580.506	1816.78
580.928	1812.69
581.35	1799.37
581.772	1793.55
582.194	1778.95
582.616	1765.26
583.038	1750.11
583.46	1738.98
583.882	1734.82
584.303	1739.66
584.725	1736.88
585.147	1740.12
585.568	1751.86
585.99	1766.94
586.411	1775.32
586.833	1793.04
587.254	1794.95
587.675	1811.22
588.096	1824.93
588.518	1819.64
588.939	1800.38
589.36	1797.99
589.781	1785.78
590.202	1754.4
590.623	1744.5
591.043	1742.14
591.464	1726.32
591.885	1721.64
592.305	1714.4
592.726	1699.95
593.147	1701.55
593.567	1696.8
593.987	1687.98
594.408	1682.43
594.828	1680.12
595.248	1673.34
595.669	1651.6
596.089	1644.32
596.509	1637.63
596.929	1622.91
597.349	1624.03
597.769	1612.57
598.189	1604.75
598.608	1604.88
599.028	1606.96
599.448	1606.89
599.867	1591.95
600.287	1587.74
600.706	1582.56
601.126	1570.57
601.545	1568.7
601.965	1566.9
602.384	1561.21
602.803	1565.33
603.222	1560.61
603.641	1552.92
604.061	1549.2
604.48	1545.4
604.898	1554.41
605.317	1560.14
605.736	1562.84
606.155	1560.13
606.574	1550.17
606.992	1556.66
607.411	1550.76
607.829	1541.21
608.248	1538.21
608.666	1535.22
609.085	1533.89
609.503	1524.77
609.921	1518.13
610.339	1521.7
610.758	1521.55
611.176	1515.85
611.594	1505.22
612.012	1501.72
612.43	1505.72
612.847	1513.23
613.265	1514.4
613.683	1520.68
614.101	1522.41
614.518	1517.71
614.936	1505.27
615.353	1488.55
615.771	1485.63
616.188	1486.5
616.606	1481.97
617.023	1474.43
617.44	1457.42
617.857	1449.73
618.274	1438.62
618.691	1431.49
619.108	1421.48
619.525	1415.34
619.942	1422.3
620.359	1425.64
620.776	1420.18
621.192	1416.48
621.609	1414.57
622.026	1422.51
622.442	1428.91
622.859	1433.73
623.275	1425.15
623.691	1431.53
624.108	1443.93
624.524	1459.56
624.94	1457.96
625.356	1468.46
625.772	1482.3
626.188	1494.53
626.604	1496.59
627.02	1492.75
627.436	1490.58
627.852	1499.09
628.268	1511.35
628.683	1502.08
629.099	1492.46
629.514	1488.2
629.93	1492.56
630.345	1498.72
630.761	1494.43
631.176	1499.04
631.591	1491.41
632.007	1484.4
632.422	1481.17
632.837	1469.01
633.252	1465.77
633.667	1453.29
634.082	1441.97
634.497	1425.39
634.911	1401.18
635.326	1395.55
635.741	1372.73
636.155	1359.78
636.57	1359.32
636.984	1357.01
637.399	1355.46
637.813	1351.89
638.228	1351.02
638.642	1352.22
639.056	1340.07
639.47	1337.17
639.884	1326.32
640.298	1317.73
640.712	1314.62
641.126	1298.18
641.54	1285.13
641.954	1278.3
642.368	1261.93
642.781	1249.17
643.195	1228.42
643.609	1226.2
644.022	1216.73
644.436	1208.75
644.849	1192.64
645.262	1176.76
645.676	1175.63
646.089	1167.47
646.502	1147.07
646.915	1139.21
647.328	1118.08
647.741	1113.7
648.154	1096.33
648.567	1091.35
648.98	1075.62
649.393	1074.24
649.805	1069.38
650.218	1059.34
650.631	1042.2
651.043	1035.07
651.456	1026.26
651.868	1026.36
652.28	1042.76
652.693	1054.93
653.105	1060.07
653.517	1068.78
653.929	1068.11
654.341	1071.98
654.753	1057.87
655.165	1062.49
655.577	1058.04
655.989	1052.53
656.401	1040.85
656.813	1001.62
657.224	979.61
657.636	948.39
658.047	928.35
658.459	905.52
658.87	893.18
659.282	878.9
659.693	855.95
660.104	838.69
660.515	821.93
660.926	817.85
661.338	811.64
661.749	801.12
662.159	789.39
662.57	779.79
662.981	771.73
663.392	760.38
663.803	759.3
664.213	752.15
664.624	743.44
665.035	742.06
665.445	724.02
665.855	713.38
666.266	702.83
666.676	696.45
667.086	684.86
667.497	681.21
667.907	672.68
668.317	661.46
668.727	656.42
669.137	653.6
669.547	649.22
669.956	649.33
670.366	648.27
670.776	647.95
671.186	648.42
671.595	650.28
672.005	650.78
672.414	650.26
672.824	647.73
673.233	648.5
673.642	650.98
674.052	653.1
674.461	653.83
674.87	655.55
675.279	652.38
675.688	653.29
676.097	651.98
676.506	648.68
676.915	659.05
677.323	661.75
677.732	661.66
678.141	661.45
678.549	651.56
678.958	651.86
679.366	653.59
679.775	659.32
680.183	671.62
680.592	680.86
681	689.41
681.408	686.94
681.816	697.45
682.224	709.09
682.632	723.73
683.04	756.95
683.448	785.56
683.856	822.34
684.264	863.64
684.671	902.25
685.079	950.78
685.487	1003.43
685.894	1074.87
686.302	1135.35
686.709	1189.55
687.116	1250.74
687.524	1305.41
687.931	1353.59
688.338	1396.2
688.745	1434.11
689.152	1476.02
689.559	1527.72
689.966	1580.81
690.373	1609.61
690.78	1660.02
691.187	1731.88
691.593	1787.52
692	1834.66
692.407	1905.18
692.813	1988.57
693.22	2056.01
693.626	2125.49
694.032	2180.36
694.439	2263.4
694.845	2327.5
695.251	2407.44
695.657	2478.54
696.063	2584.56
696.469	2663.75
696.875	2735.46
697.281	2774.28
697.687	2821.97
698.093	2861.58
698.498	2941.65
698.904	3003.45
699.31	3096.7
699.715	3162.84
700.12	3260.44
700.526	3276.83
700.931	3349.1
701.337	3402.74
701.742	3436.09
702.147	3527.87
702.552	3555.13
702.957	3616.39
703.362	3633.86
703.767	3660.66
704.172	3699.42
704.577	3643.88
704.981	3691.4
705.386	3706.25
705.791	3693.58
706.195	3771.21
706.6	3775.12
707.004	3861.65
707.408	3823.7
707.813	3847.97
708.217	3832.89
708.621	3833.48
709.025	3936.31
709.43	3935.75
709.834	3998.27
710.237	4070.22
710.641	4047.95
711.045	4068.28
711.449	4058.03
711.853	4087.46
712.256	4130.2
712.66	4166.19
713.064	4243.36
713.467	4282.95
713.87	4399.98
714.274	4446.16
714.677	4560.3
715.08	4734.46
715.484	4912.46
715.887	5123.49
716.29	5330.97
716.693	5550.28
717.096	5805.64
717.499	5942.31
717.901	5967.45
718.304	5990.96
718.707	6012.11
719.109	5897.36
719.512	5858.96
719.915	5710.5
720.317	5648.89
720.719	5694.71
721.122	5657.19
721.524	5597.49
721.926	5548.82
722.328	5649.23
722.731	5632.81
723.133	5656.32
723.535	5859.9
723.937	5875.69
724.338	5924.84
724.74	5963.36
725.142	5887.79
725.544	5883.06
725.945	5907.34
726.347	5898.7
726.748	5891.32
727.15	5904.41
727.551	5863.41
727.952	5829.58
728.354	5796.58
728.755	5796.05
729.156	5753.25
729.557	5742.13
729.958	5611.99
730.359	5551.93
730.76	5531.47
731.161	5465.43
731.562	5438.06
731.962	5441.25
732.363	5372.56
732.763	5304.61
733.164	5338.78
733.564	5265.76
733.965	5163.76
734.365	5127.93
734.766	5157.4
735.166	5116.46
735.566	5059.35
735.966	5031.16
736.366	5023.72
736.766	4959.27
737.166	4991.17
737.566	4948.76
737.966	4918.94
738.365	4958.68
738.765	4952.82
739.165	4876.13
739.564	4847.43
739.964	4892.73
740.363	4846.66
740.763	4842.97
741.162	4831.36
741.561	4800.07
741.96	4752.52
742.36	4775.46
742.759	4779.16
743.158	4820.24
743.557	4832.96
743.955	4873.96
744.354	4826.67
744.753	4883.51
745.152	4842.27
745.55	4897.42
745.949	4892.02
746.348	4893.58
746.746	4911.62
747.144	4870.47
747.543	4844.49
747.941	4893.8
748.339	4822.62
748.737	4814.27
749.136	4807.13
749.534	4874.39
749.932	4846.65
750.33	4866.86
750.727	4923.22
751.125	4897.3
751.523	4881.6
751.921	4925.58
752.318	4890.67
752.716	4950.17
753.113	4964.62
753.511	4989.8
753.908	4989.3
754.305	4971.03
754.703	5032.57
755.1	5095.99
755.497	5155.03
755.894	5352.44
756.291	5538.4
756.688	5877.52
757.085	6331.36
757.482	6967.78
757.878	7663.45
758.275	8290.65
758.672	9157.46
759.068	9868.37
759.465	10872.91
759.861	12178.68
760.258	13683.03
760.654	14453.79
761.05	14345.79
761.447	13684.9
761.843	12742.22
762.239	11762.13
762.635	11322.03
763.031	10901.66
763.427	10292.33
763.822	9654.08
764.218	9014.07
764.614	8192.77
765.01	7645.14
765.405	7286.68
765.801	7017.92
766.196	6671.91
766.592	6480.77
766.987	6155.98
767.382	5934.46
767.778	5841.95
768.173	5707.2
768.568	5634.58
768.963	5506.93
769.358	5526.93
769.753	5478.46
770.148	5393.87
770.542	5394.81
770.937	5363.86
771.332	5459.23
771.726	5482.19
772.121	5419.27
772.515	5477.32
772.91	5462.39
773.304	5536.33
773.699	5468.44
774.093	5525.58
774.487	5582.65
774.881	5627.29
775.275	5622.04
775.669	5577.13
776.063	5619.11
776.457	5657.57
776.851	5580.12
777.245	5571.87
777.638	5605.75
778.032	5725.76
778.425	5688.44
778.819	5732.12
779.212	5687.49
779.606	5646.1
779.999	5666.79
780.392	5651.36
780.786	5733.91
781.179	5755.09
781.572	5800.39
781.965	5811.89
782.358	5748.39
782.751	5805.65
783.143	5756.3
783.536	5833.15
783.929	5877.79
784.322	5995.44
784.714	6026.35
785.107	6021.9
785.499	6094.63
785.891	6071.47
786.284	6054.21
786.676	6202.68
787.068	6181.65
787.46	6233.29
787.852	6254.06
788.245	6342.5
788.636	6374.09
789.028	6444.5
789.42	6480.43
789.812	6490.22
790.204	6591.19
790.595	6691.61
790.987	6489.11
791.378	6515.19
791.77	6646.95
792.161	6785.66
792.553	6841.43
792.944	6724.3
793.335	6653.87
793.726	6732.24
794.117	6825.21
794.508	6963.68
794.899	6932.92
795.29	7079.95
795.681	7138.28
796.072	6993.52
796.463	6799.96
796.853	6811.17
797.244	6977.39
797.634	7014.31
798.025	7016.85
798.415	7028.89
798.806	7124.12
799.196	7214.1
799.586	7263.21
799.976	7224.78
800.366	7465.18
800.756	7716.04
801.146	7674.96
801.536	7706.81
801.926	7781.43
802.316	7805.06
802.706	7879.57
803.095	7750.88
803.485	7856.3
803.874	7902.29
804.264	8175.43
804.653	8144.45
805.043	8296.47
805.432	8410.94
805.821	8413.77
806.21	8438.32
806.599	8567.01
806.988	8617.85
807.377	8729.06
807.766	8862.02
808.155	9156.48
808.544	8880.24
808.933	8903.32
809.321	8879.18
809.71	9189.3
810.098	9353.11
810.487	9833.73
810.875	10331.38
811.264	10345.92
811.652	10642.56
812.04	10793.39
812.428	10961.05
812.816	11754.83
813.204	12182.06
813.592	12757.19
813.98	13106.4
814.368	13005.59
814.756	13498.52
815.144	13412.71
815.531	13900.38
815.919	13829.01
816.306	14143.65
816.694	13826.33
817.081	13875.8
817.469	14233.02
817.856	14228.78
818.243	14506.81
818.63	14917.44
819.017	14478.9
819.404	14546.4
819.791	14940.07
820.178	15571.98
820.565	15837.29
820.952	16796.64
821.339	16288
821.725	16476.63
822.112	15718.86
822.498	15674.07
822.885	15798.75
823.271	15702.18
823.657	16131.24
824.044	16137.28
824.43	16219.15
824.816	16175.36
825.202	15724.94
825.588	16781.57
825.974	16803.13
826.36	17332.41
826.746	17368.39
827.132	17751.51
827.517	17728.52
827.903	16914.96
828.289	16960.71
828.674	16150.16
829.06	16046.97
829.445	16459.8
829.83	16826.8
830.216	17314.64
830.601	17695.53
830.986	17275.75
831.371	17130.8
831.756	17703.66
832.141	17265.13
832.526	17262.52
832.911	17561.79
833.295	17449.36
833.68	17937.57
834.065	17299.81
834.449	16364.09
834.834	16282.73
835.218	16284.84
835.603	16634.81
835.987	16413.57
836.371	17277.46
836.755	17168.2
837.139	17589.9
837.524	17840.45
837.908	17652.98
838.291	17714.37
838.675	17783.6
839.059	18003.19
839.443	17981.85
839.827	17745.29
840.21	18255.38
840.594	18106.41
840.977	18320.04
841.361	18289.41
841.744	18674.03
842.127	18507.96
842.511	18755.49
842.894	19374.94
843.277	19769.37
843.66	20329.69
844.043	20424.71
844.426	19583.1
844.809	19256.99
845.191	19297.12
845.574	18828.98
845.957	18456.15
846.339	18356.61
846.722	17819.23
847.104	17886.92
847.487	17707.63
847.869	17724.53
848.252	18007.87
848.634	18355.56
849.016	18631.88
849.398	18754.69
849.78	19634.2
850.162	19635.02
850.544	20059.68
850.926	20705.56
851.307	20613.65
851.689	20909.07
852.071	21381.38
852.452	21717.54
852.834	21693.8
853.215	22099.92
853.597	22262.45
853.978	22559.31
854.359	23040.76
854.741	22016.08
855.122	21928.6
855.503	21640.04
855.884	21769.39
856.265	21701.29
856.646	21823.17
857.026	21413.82
857.407	21343.44
857.788	21501.17
858.169	21804.78
858.549	20913
858.93	21553.63
859.31	21594.86
859.69	21799.08
860.071	21380.51
860.451	21151.76
860.831	20387.5
861.211	21579.54
861.591	22154.25
861.971	22130.67
862.351	22328.98
862.731	22740.52
863.111	23018.28
863.491	23354.06
863.87	24262.51
864.25	24631.29
864.629	24225.58
865.009	24758.87
865.388	25640.13
865.768	27474.44
866.147	27372.67
866.526	25853.98
866.905	26155.49
867.284	27623.04
867.663	26230
868.042	25141.74
868.421	25062.46
868.8	25474.41
869.179	25721.17
869.558	24227.22
869.936	22334.81
870.315	22736.4
870.693	23299.67
871.072	25120.05
871.45	23929.48
871.828	24242.25
872.207	25493.58
872.585	25110.41
872.963	25800.86
873.341	24907.85
873.719	24622.26
874.097	24324.18
874.475	24780.52
874.853	25340
875.23	24295.66
875.608	25309.84
875.986	27380.83
876.363	26176.78
876.741	26963.41
877.118	26287.41
877.495	27583.41
877.873	28032.4
878.25	29507.28
878.627	28312.4
879.004	28713.9
879.381	28575.44
879.758	27825.76
880.135	25902.15
880.512	27396.29
880.889	26671.65
881.265	26395.37
881.642	26184.64
882.019	26643.2
882.395	26096.07
882.772	27131.72
883.148	25964.69
883.524	25866.42
883.901	25721.7
884.277	26109.18
884.653	25946.47
885.029	26689.95
885.405	29562.4
885.781	29335.05
886.157	28121.83
886.532	28460.77
886.908	28439.53
887.284	31620.46
887.659	32650.47
888.035	33667.4
888.411	34527.1
888.786	34987.8
889.161	36218.86
889.537	35563.99
889.912	36706.33
890.287	36675.23
890.662	37619.44
891.037	36952.63
891.412	34451.16
891.787	34109.7
892.162	32921.33
892.536	33712.85
892.911	32439.89
893.286	31740.88
893.66	30441.8
894.035	31205.84
894.409	33976.57
894.784	32615.3
895.158	33157.92
895.532	35122.97
895.906	36093.41
896.281	36932.89
896.655	36343.11
897.029	41526.48
897.402	43252.64
897.776	48149.19
898.15	48002.95
898.524	47490.67
898.898	48130.64
899.271	53877.82
899.645	46680
900.018	44839.81
900.392	46509.35
900.765	46881.32
901.138	43400.89
901.511	42763.49
901.884	39273.72
902.258	36217.72
902.631	37430.24
903.003	43070.61
903.376	38846.55
903.749	43552.53
904.122	46602.57
904.495	51315.86
904.867	51938.79
905.24	45084.57
905.612	41964.8
905.985	42923.96
906.357	44884.9
906.729	42831.98
907.102	36599
907.474	35205.19
907.846	35436.42
908.218	34972.1
908.59	30910.57
908.962	29891.5
909.334	32187.09
909.705	33811.39
910.077	32826.67
910.449	34184.54
910.82	35126.64
911.192	38645.75
911.563	40166.66
911.935	42979.38
912.306	43041.52
912.677	44463.7
913.048	44041.38
913.419	47786.11
913.79	48066.56
914.161	51547.29
914.532	49248.32
914.903	45279.12
915.274	43023.84
915.645	42372.89
916.015	37282.34
916.386	35553.76
916.756	37823.1
917.127	39030.61
917.497	34872.77
917.868	37957.16
918.238	36064.22
918.608	37112.76
918.978	37876.89
919.348	40085.54
919.718	41437.59
920.088	39927.76
920.458	41485.32
920.828	43661.18
921.198	41363.16
921.567	44200.06
921.937	34222.89
922.306	34559.29
922.676	37260.23
923.045	31093.51
923.415	29545.89
923.784	26905.54
924.153	27660.48
924.522	27632.29
924.891	25985.54
925.26	27847.85
925.629	27192.41
925.998	31258.51
926.367	30498.91
926.736	29039.91
927.104	34595.07
927.473	37198.57
927.842	44934.62
928.21	44499.71
928.578	46788.81
928.947	44251.37
929.315	44555.65
929.683	52229.23
930.051	52663.9
930.42	61174.36
930.788	52312.85
931.156	51928.16
931.523	48662.64
931.891	44957.02
932.259	43203.29
932.627	50060.22
932.994	70771.91
933.362	58487.28
933.729	50803.28
934.097	48623.22
934.464	41187.85
934.831	47529.27
935.199	46855.48
935.566	45475.72
935.933	46058.4
936.3	55788.03
936.667	43430.12
937.034	39215.21
937.401	38767.03
937.767	33478.3
938.134	29796.94
938.501	41981.3
938.867	44729.03
939.234	75654.03
939.6	64515.92
939.967	71159.91
940.333	47615.05
940.699	40497.58
941.065	32464.16
941.431	42550.28
941.798	41003.18
942.163	53862.65
942.529	33641.94
942.895	30978.81
943.261	20019.9
943.627	26251.81
943.992	22994.55
944.358	23023.93
944.723	23130.99
945.089	22555.3
945.454	20821.96
945.82	22240.74
946.185	21369.68
946.55	24760.49
946.915	22188.13
947.28	26030.33
947.645	22919.93
948.01	21137.05
948.375	22045.52
948.74	26412.33
949.104	30820.7
949.469	44545.21
949.834	78733.75
950.198	74641.57
950.562	44742.82
950.927	37292.6
951.291	44903.68
951.655	38258.44
952.02	35960.41
952.384	27206.95
952.748	23702.8
953.112	23128.36
953.476	20104.46
953.839	18575.66
954.203	18393.63
954.567	23005.91
954.931	36267.45
955.294	31013.16
955.658	31188.09
956.021	52994.44
956.385	89848.26
956.748	132431.36
957.111	205337.47
957.474	230586.17
957.837	259782.32
958.2	196509.81
958.563	70733.9
958.926	47812.15
959.289	72514.19
959.652	81023.63
960.015	60798.43
960.377	87251.46
960.74	99687.12
961.102	172011.02
961.465	184852.96
961.827	99096.78
962.189	190299.32
962.552	131818.74
962.914	105687.41
963.276	68647.17
963.638	56776.32
964	56222.98
964.362	38007.63
964.724	36737.23
965.085	26199.43
965.447	21469.77
965.809	24445.66
966.17	24466.63
966.532	26487.94
966.893	24305.19
967.255	22131.15
967.616	26116.32
967.977	20924.26
968.338	22860.6
968.699	18797.5
969.061	18799.41
969.421	18913.57
969.782	21226.29
970.143	17928.84
970.504	18563.02
970.865	21084.88
971.225	21525.56
971.586	21054.59
971.946	30062.95
972.307	26080.43
972.667	34066.75
973.027	35087.83
973.388	42607.18
973.748	28998
974.108	31598.57
974.468	42734.61
974.828	32953.36
975.188	25385.02
975.548	23325.74
975.907	19556.11
976.267	21952.07
976.627	18467.54
976.986	19171
977.346	18277.52
977.705	17593.83
978.064	16032.74
978.424	13351.99
978.783	13811.2
979.142	15760.74
979.501	15069.98
979.86	15934.57
980.219	15337.36
980.578	19783.41
980.937	22118.99
981.296	19705.68
981.654	20255.12
982.013	31501.67
982.371	40905.27
982.73	38203.76
983.088	43290.39
983.447	46294.44
983.805	66210.49
984.163	138501.48
984.521	153490.6
984.879	225179.13
985.237	-365808.83
985.595	352386.71
985.953	87579.61
986.311	50476.29
986.669	29383.52
987.026	25337.45
987.384	34062.06
987.741	35175.77
988.099	25126.38
988.456	20055.32
988.814	18783.7
989.171	16339.24
989.528	16140.66
989.885	17041.02
990.242	13528.35
990.599	16825.01
990.956	13759.72
991.313	9632.92
991.67	7896.55
992.027	8365.23
992.383	7427.01
992.74	6509.87
993.096	6828.55
993.453	7078.21
993.809	7341.01
994.165	9773.72
994.522	8945.3
994.878	9854.68
995.234	12326.27
995.59	12201.99
995.946	11566.74
996.302	13193.76
996.658	15263.16
997.013	16825.21
997.369	19967.48
997.725	25531.46
998.08	16545.76
998.436	25549.16
998.791	35258.81
999.147	35267.38
999.502	38426.69
999.857	27889.63
1000.212	45443.46
1000.567	64587.37
1000.922	37281.83
1001.277	23624.57
1001.632	17528.27
1001.987	22550.69
1002.342	16160.86
1002.696	12939.34
1003.051	10321.34
1003.406	12493.9
1003.76	12450.02
1004.114	12288.09
1004.469	10335.09
1004.823	8559.86
1005.177	9259.18
1005.531	7344.25
1005.885	6516.82
1006.239	7351.37
1006.593	9218.76
1006.947	12365.83
1007.301	9299.64
1007.655	10161.78
1008.008	7444.47
1008.362	8370.13
1008.715	11935.28
1009.069	10820.36
1009.422	16244.43
1009.776	32513.98
1010.129	21617.01
1010.482	18017.2
1010.835	15200.75
1011.188	31610.92
1011.541	29659.71
1011.894	-181819
1012.247	535981.2
1012.6	36436.82
1012.952	23026.1
1013.305	11875.5
1013.657	8580.75
1014.01	8113.25
1014.362	6717.75
1014.715	5955.53
1015.067	5176.07
1015.419	5061.75
1015.771	4475.02
1016.123	3976.78
1016.475	4082.91
1016.827	4342.66
1017.179	4675.92
1017.531	4707.21
1017.883	4805.91
1018.234	4620.88
1018.586	5834.25
1018.938	6174.91
1019.289	8514.07
1019.64	9733.55
1019.992	9050.35
1020.343	8316.66
1020.694	6588.05
1021.045	5811.06
1021.396	6663.56
1021.747	7146.03
1022.098	8592.63
1022.449	6259.16
1022.8	5816.02
1023.151	4061.44
1023.501	3621.46
1023.852	3932.3
1024.202	4057.75
1024.553	4440.31
1024.903	4350.16
1025.253	3704.4
1025.604	3327.78
1025.954	4119.61
1026.304	5017.51
1026.654	5854.85
1027.004	8568.91
1027.354	13836.4
1027.703	13028.53
1028.053	17174.3
1028.403	25382.83
1028.753	36657.51
1029.102	49696.76
1029.452	254821.26
1029.801	10981.55
1030.15	7073.17
1030.499	5967.57
897.758	2625.35
901.051	2584.18
904.343	2618.21
907.636	2619.84
910.928	2683.55
914.22	2593.44
917.511	2599.87
920.803	2663.56
924.094	2680.89
927.384	2661.32
930.675	2628.62
933.965	2582.42
937.255	2593.88
940.544	2561.51
943.834	2507.7
947.123	2451.17
950.411	2546.14
953.7	2520.21
956.988	2489.41
960.276	2429.64
963.563	2508.18
966.851	2505.29
970.138	2560.27
973.424	2552.05
976.711	2503.07
979.997	2627.93
983.283	2663.03
986.568	2570.27
989.853	2587.21
993.138	2612.18
996.423	2694.6
999.708	2634.28
1002.992	2694.71
1006.275	2540.4
1009.559	2580.5
1012.842	2693.02
1016.125	2625.32
1019.408	2607.85
1022.69	2694.72
1025.972	2712.48
1029.254	2686.19
1032.536	2619.87
1035.817	2646.07
1039.098	2591.91
1042.379	2730.27
1045.659	2732.64
1048.939	2667.96
1052.219	2687.17
1055.498	2696.06
1058.778	2681.54
1062.057	2664.75
1065.335	2688.66
1068.614	2706.89
1071.892	2690.88
1075.17	2766.52
1078.447	2753.84
1081.724	2745.54
1085.001	2780.26
1088.278	2756.97
1091.554	2769.79
1094.83	2765.77
1098.106	2794.14
1101.382	2837.85
1104.657	2838.22
1107.932	2832.51
1111.206	2797.51
1114.481	2756.84
1117.755	2759.01
1121.029	2739.49
1124.302	2790.69
1127.575	2743.74
1130.848	2730.48
1134.121	2692.78
1137.393	2641.48
1140.665	2712.28
1143.937	2687.76
1147.208	2645.96
1150.48	2686.55
1153.75	2671.99
1157.021	2703.02
1160.291	2674.69
1163.561	2720.34
1166.831	2709.89
1170.101	2740.92
1173.37	2717.44
1176.639	2659.79
1179.907	2717.32
1183.176	2724.35
1186.444	2731.81
1189.711	2761.14
1192.979	2775.87
1196.246	2727.9
1199.513	2746.44
1202.78	2745.5
1206.046	2755.22
1209.312	2777.68
1212.578	2802.88
1215.843	2756.66
1219.108	2732.67
1222.373	2754.84
1225.638	2719.18
1228.902	2700.64
1232.166	2671.16
1235.43	2650.57
1238.693	2672.76
1241.956	2668.46
1245.219	2712.09
1248.482	2701
1251.744	2696.31
1255.006	2842.47
1258.268	2795.37
1261.529	2740.16
1264.79	2745.75
1268.051	2852.07
1271.312	2868.56
1274.572	2829.52
1277.832	2822.3
1281.092	2811.93
1284.351	2786.58
1287.61	2765.53
1290.869	2680.81
1294.128	2660.14
1297.386	2747.77
1300.644	2736.59
1303.902	2744.9
1307.159	2607.16
1310.416	2662.55
1313.673	2684.83
1316.93	2668.2
1320.186	2714.17
1323.442	2757.86
1326.697	2750.15
1329.953	2738.67
1333.208	2758.8
1336.463	2742.04
1339.717	2680.67
1342.972	2811.46
1346.226	2789.55
1349.479	2723.21
1352.733	2694.84
1355.986	2717.84
1359.238	2692.79
1362.491	2691.85
1365.743	2697.3
1368.995	2691.9
1372.247	2702.83
1375.498	2726.62
1378.749	2742.14
1382	2697.06
1385.251	2751.05
1388.501	2711.97
1391.751	2695.39
1395	2666.74
1398.25	2699.01
1401.499	2707.32
1404.748	2635.81
1407.996	2626.67
1411.244	2613.12
1414.492	2593.33
1417.74	2570.88
1420.987	2580.42
1424.234	2635.67
1427.481	2615.66
1430.728	2673.25
1433.974	2647.23
1437.22	2658.51
1440.465	2663.34
1443.711	2626.62
1446.956	2661.17
1450.201	2648.18
1453.445	2693.96
1456.689	2670.89
1459.933	2683.53
1463.177	2714.7
1466.42	2688.92
1469.663	2668.32
1472.906	2662.69
1476.148	2730.79
1479.391	2701.46
1482.633	2669.94
1485.874	2679.85
1489.115	2666.86
1492.356	2673.65
1495.597	2649.73
1498.838	2652.32
1502.078	2621.29
1505.318	2574.88
1508.557	2617.3
1511.797	2596.41
1515.036	2658.13
1518.274	2650.66
1521.513	2623.56
1524.751	2643.37
1527.989	2654.14
1531.227	2668.32
1534.464	2663.12
1537.701	2683.89
1540.938	2702.55
1544.174	2653.98
1547.41	2654.1
1550.646	2693.36
1553.882	2730.35
1557.117	2783.79
1560.352	2797.94
1563.587	2757.82
1566.821	2717.39
1570.055	2751.36
1573.289	2720.62
1576.523	2794.49
1579.756	2804.49
1582.989	2820.74
1586.222	2784.06
1589.454	2816.36
1592.686	2791.68
1595.918	2819.81
1599.15	2808.49
1602.381	2882.96
1605.612	2838.98
1608.843	2936.45
1612.073	2851.63
1615.303	2834.07
1618.533	2826.38
1621.762	2824.68
1624.992	2820.38
1628.221	2804.67
1631.449	2789.52
1634.678	2845.83
1637.906	2798.48
1641.134	2837.61
1644.361	2794.16
1647.588	2781.54
1650.815	2800.62
1654.042	2779.9
1657.269	2810.69
1660.495	2759.34
1663.72	2784.03
1666.946	2747.04
1670.171	2691.06
1673.396	2668.92
1676.621	2655.61
1679.845	2673.4
1683.069	2694.24
1686.293	2733.63
1689.517	2705.56
1692.74	2637.35
1695.963	2666.92
1699.185	2681.99
1702.408	2659.19
1705.63	2699.41
1708.852	2710.38
1712.073	2684.57
1715.294	2671.02
1718.515	2731.45
1721.736	2680.58
1724.956	2673.14
1728.176	2698.35
1731.396	2720.9
1734.616	2705.6
1737.835	2734
1741.054	2713.65
1744.272	2706.82
1747.491	2736.39
1750.709	2788.59
1753.927	2694.81
1757.144	2737.75
1760.361	2779.04
1763.578	2771.89
1766.795	2712.82
1770.011	2721.06
1773.227	2758.21
1776.443	2793.92
1779.658	2838.78
1782.874	2782.57
1786.089	2760.76
1789.303	2762.51
1792.518	2771.82
1795.732	2759.02
1798.945	2767.05
1802.159	2816.78
1805.372	2721.11
1808.585	2705.33
1811.797	2707.25
1815.01	2754.71
1818.222	2757.07
1821.434	2741
1824.645	2798.29
1827.856	2781.72
1831.067	2817.5
1834.278	2775.11
1837.488	2756.91
1840.698	2903.6
1843.908	2831.23
1847.117	2795.17
1850.326	2679.79
1853.535	2781.26
1856.744	2795.14
1859.952	2709.02
1863.16	2712.38
1866.368	2733.94
1869.575	2834.22
1872.782	2723.34
1875.989	2663.28
1879.196	2745.3
1882.402	2733.16
1885.608	2773.85
1888.814	2678.34
1892.019	2575.16
1895.224	2627.81
1898.429	2608.93
1901.634	2588.43
1904.838	2569.54
1908.042	2616.36
1911.246	2623.61
1914.449	2557.03
1917.652	2554.87
1920.855	2537.58
1924.058	2583.43
1927.26	2620.27
1930.462	2648.32
1933.664	2674.1
1936.865	2612.35
1940.066	2617.97
1943.267	2565.89
1946.467	2581.94
1949.668	2608.28
1952.868	2674.08
1956.067	2652.82
1959.267	2586.95
1962.466	2614.42
1965.665	2600.74
1968.863	2594.9
1972.061	2607.74
1975.259	2606.88
1978.457	2686.65
1981.654	2643.34
1984.852	2643.08
1988.048	2577.66
1991.245	2581.43
1994.441	2666.76
1997.637	2651.47
2000.833	2634.63
2004.028	2672.32
2007.223	2728.23
2010.418	2702.65
2013.613	2665.18
2016.807	2636.23
2020.001	2645.4
2023.194	2687.9
2026.388	2662.3
2029.581	2610.3
2032.774	2656.42
2035.966	2657.66
2039.158	2592.38
2042.35	2620.63
2045.542	2553.07
2048.733	2648.73
2051.924	2673.02
2055.115	2699.97
2058.306	2645.16
2061.496	2706.34
2064.686	2766.49
2067.875	2683.48
2071.065	2699.28
2074.254	2724.12
2077.442	2674.58
2080.631	2761.37
2083.819	2657.15
2087.007	2638.61
2090.195	2607.88
2093.382	2642.17
2096.569	2622
2099.756	2577.23
2102.942	2602.62
2106.128	2606.19
2109.314	2599.16
2112.5	2562.4
2115.685	2542.81
2118.87	2552.76
2122.055	2617.23
2125.239	2585.58
2128.424	2561.52
2131.608	2662.9
2134.791	2643.84
2137.974	2701.92
2141.157	2688.13
2144.34	2640.54
2147.523	2656.26
2150.705	2667.41
2153.887	2647.13
2157.068	2598.43
2160.25	2598.43
2163.431	2636.31
2166.611	2582.44
2169.792	2599.15
2172.972	2493.82
2176.152	2571.47
2179.331	2607.02
2182.511	2587.46
2185.69	2616.72
2188.868	2611.3
2192.047	2663.6
2195.225	2655.95
2198.403	2604.32
2201.58	2596.69
2204.758	2594.67
2207.935	2676.67
2211.111	2566.43
2214.288	2548.91
2217.464	2590.62
2220.64	2559.14
2223.815	2613.92
2226.991	2537.19
2230.166	2558.72
2233.34	2589.46
2236.515	2612.79
2239.689	2681.72
2242.863	2628.02
2246.036	2684.42
2249.209	2682.68
2252.382	2719
2255.555	2708.99
2258.727	2645.37
2261.9	2686.38
2265.071	2676.56
2268.243	2678.46
2271.414	2611.26
2274.585	2574.69
2277.756	2639.94
2280.926	2593.09
2284.096	2636.48
2287.266	2542.03
2290.436	2596.61
2293.605	2626.2
2296.774	2653.8
2299.942	2672.44
2303.111	2689.57
2306.279	2739.16
2309.447	2726.25
2312.614	2702.44
2315.781	2725
2318.948	2692.96
2322.115	2731.11
2325.281	2633.32
2328.447	2653.41
2331.613	2629.21
2334.779	2604.56
2337.944	2607.35
2341.109	2604.77
2344.274	2584.91
2347.438	2550.31
2350.602	2576.18
2353.766	2594.7
2356.929	2580.46
2360.092	2623.48
2363.255	2576.09
2366.418	2510.95
2369.58	2621.69
2372.742	2413.85
2375.904	2427.27
2379.066	2406.83
2382.227	2440.49
2385.388	2405.67
2388.548	2330.95
2391.709	2385.2
2394.869	2362.8
2398.029	2458.87
2401.188	2472.55
2404.347	2407.92
2407.506	2545.15
2410.665	2575.64
2413.823	2578.79
2416.981	2536.76
2420.139	2566.22
2423.296	2616.34
2426.453	2588.7
2429.61	2615.67
2432.767	2550.18
2435.923	2587.31
2439.079	2551.21
2442.235	2600.18
2445.391	2524.9
2448.546	2555.78
2451.701	2604.46
2454.855	2575.99
2458.009	2629.2
2461.163	2630.94
2464.317	2588.55
2467.471	2621.49
2470.624	2659.91
2473.777	2630.17
2476.929	2641.87
2480.082	2669.3
2483.234	2633.94
2486.385	2587.75
2489.537	2580.9
2492.688	2543.56
2495.839	2561.43
2498.989	2572.75
2502.14	2559.49
2505.29	2543.32
2508.439	2566.87
2511.589	2492.51
2514.738	2504.03
2517.887	2535.5
2521.035	2600.79
2524.183	2584
2527.331	2561.43
2530.479	2536.55
2533.627	2546.63
