Data from C_2_DIV_OH_2N_Splice17_12-22-32-186.txt Node
Date: Sat Mar 14 12:22:32 EDT 2020
User: sa697716
Spectrometer: FLMS03696
Trigger mode: 0
Integration Time (sec): 3.180400E-1
Scans to average: 20
Electric dark correction enabled: true
Nonlinearity correction enabled: true
Boxcar width: 5
XAxis mode: Wavelengths
Number of Pixels in Spectrum: 2048
>>>>>Begin Spectral Data<<<<<
187.83	-249544.31
188.298	1855.17
188.766	1045.72
189.233	913.07
189.701	1384.55
190.169	1936.79
190.636	773.74
191.104	666.1
191.571	133.81
192.039	-20.83
192.506	-33.41
192.974	522.93
193.441	-864.36
193.908	-298.53
194.375	-59.84
194.842	73.65
195.31	174.29
195.777	204.22
196.244	402.78
196.711	467.56
197.177	572.34
197.644	808.68
198.111	1410.55
198.578	1976.97
199.045	1585.92
199.511	2579.02
199.978	2972.63
200.445	2517.14
200.911	2800.9
201.378	3138.14
201.844	2866.14
202.31	4922.64
202.777	5089.83
203.243	2804.72
203.709	2688.43
204.176	3219.56
204.642	2661.9
205.108	2525.13
205.574	2069.68
206.04	1881.35
206.506	1762.33
206.972	1646.69
207.438	1591.97
207.903	1828.31
208.369	1614.58
208.835	1603.71
209.301	1673.27
209.766	1701.83
210.232	1675.4
210.697	2063.11
211.163	2545.09
211.628	3833.17
212.094	3223.96
212.559	3939.69
213.024	2441.46
213.49	2969.44
213.955	2896.6
214.42	2830.2
214.885	2640.91
215.35	2528.09
215.815	2445.76
216.28	2591.08
216.745	2118.39
217.21	2292.92
217.675	2093.77
218.14	2359.47
218.604	2636.68
219.069	3016.53
219.534	3184.11
219.998	3717.31
220.463	4517.37
220.927	5569.33
221.392	5268.59
221.856	5350.49
222.32	6747.95
222.785	8374.22
223.249	10533.98
223.713	11759.68
224.177	11780.46
224.642	15096.42
225.106	18533.83
225.57	20294.58
226.034	15095.26
226.497	22968.42
226.961	20736.86
227.425	24157.02
227.889	26894.43
228.353	26990.68
228.816	55817.01
229.28	53418.45
229.744	45090.4
230.207	27531.34
230.671	27102.99
231.134	44943.31
231.597	51920.6
232.061	52033.03
232.524	50887.28
232.987	35079.09
233.45	31607.87
233.914	28413.22
234.377	29139.52
234.84	26739.94
235.303	31501.04
235.766	35221.1
236.229	36427.14
236.691	22930.72
237.154	25786.95
237.617	19428.32
238.08	19889.92
238.542	23284.39
239.005	16660.54
239.468	16566.06
239.93	15615.69
240.393	14209.96
240.855	12478.49
241.317	12786.76
241.78	15618.53
242.242	16157.16
242.704	17465.81
243.166	15215.21
243.629	13838.03
244.091	15964.54
244.553	17512.61
245.015	18881.06
245.477	24472.53
245.939	35914
246.4	38193.52
246.862	37117.65
247.324	35058.49
247.786	39253.51
248.247	51528.47
248.709	53213.2
249.17	39838.62
249.632	37608.65
250.093	43570.3
250.555	37667.2
251.016	22989.23
251.477	21801.54
251.939	23548.09
252.4	24729.13
252.861	29440.03
253.322	27439.21
253.783	32696
254.244	42447.89
254.705	33456.41
255.166	29763.5
255.627	29296.12
256.088	41354.43
256.549	43978.57
257.009	37890.05
257.47	45969.61
257.931	37434.37
258.391	28029.15
258.852	28899.32
259.312	30295.04
259.773	37458.24
260.233	31673.89
260.694	26741.77
261.154	30344.74
261.614	24383.48
262.074	21810.37
262.534	22665.74
262.994	21383.64
263.455	28537.02
263.915	24049.52
264.374	22662.09
264.834	24744.57
265.294	27445.12
265.754	28430.21
266.214	26934.2
266.673	25206
267.133	31806.32
267.593	31573.42
268.052	38609.69
268.512	33580.64
268.971	40494.02
269.431	44456.73
269.89	39805.23
270.349	59632.33
270.809	66494.74
271.268	59703.24
271.727	133884.03
272.186	86793.98
272.645	65079.24
273.104	46972.34
273.563	67947.78
274.022	53462.92
274.481	45428.15
274.94	34975.7
275.399	26015.34
275.857	30282.03
276.316	40990.6
276.775	36513.18
277.233	35938.07
277.692	33642.84
278.15	38047.03
278.609	39156.13
279.067	36223.43
279.525	33631.96
279.984	43486.52
280.442	52256.51
280.9	51518.09
281.358	33887.18
281.816	31580.4
282.274	30919.3
282.732	31970.76
283.19	32150.2
283.648	27755.59
284.106	29560.99
284.564	30059.06
285.021	27861.33
285.479	20733.71
285.937	18857.94
286.394	16547.29
286.852	17030.04
287.309	17896.5
287.767	17286.27
288.224	16427.07
288.682	18025.98
289.139	19796.74
289.596	18130.01
290.053	18843.28
290.511	23793.14
290.968	28882.09
291.425	39196.04
291.882	32631.25
292.339	28411.64
292.796	28173.68
293.252	26547.8
293.709	21078.96
294.166	18904.43
294.623	20876.18
295.079	20043.69
295.536	20143.55
295.992	18296.43
296.449	18110.73
296.905	18806.02
297.362	18059.99
297.818	19007.52
298.274	19716.11
298.731	20107.27
299.187	19893.78
299.643	21394.65
300.099	25859.89
300.555	28391.09
301.011	23736.46
301.467	22864.47
301.923	26798.18
302.379	26155.86
302.835	25702.86
303.291	25768.95
303.746	29328.98
304.202	37089.14
304.658	37246.87
305.113	25093.4
305.569	24580.94
306.024	26204.96
306.479	24968.75
306.935	21033.03
307.39	22970.35
307.845	21208.87
308.301	21372.79
308.756	20830.92
309.211	20069.18
309.666	20560.76
310.121	25482.76
310.576	25886.35
311.031	25663.97
311.486	29373.07
311.94	29355.94
312.395	39248.22
312.85	73803.1
313.305	362485.27
313.759	1876641.96
314.214	136008.81
314.668	107789.25
315.123	90788.94
315.577	32568.96
316.032	28997.28
316.486	36402.23
316.94	28755.66
317.394	20081.21
317.849	15587.1
318.303	14744.37
318.757	13916.25
319.211	15389.71
319.665	13487.22
320.119	13655.84
320.572	19579.08
321.026	18317.61
321.48	15228.01
321.934	16633.62
322.387	16645.18
322.841	18008.14
323.295	16194.8
323.748	18673.58
324.202	18944.31
324.655	22762.11
325.108	31808.53
325.562	22493.46
326.015	26703.16
326.468	20245.48
326.921	22613.21
327.374	21101.76
327.827	21977.58
328.28	24886.55
328.733	16683.01
329.186	14681.86
329.639	13984.96
330.092	11794.97
330.545	11245.95
330.997	11343.42
331.45	12384.28
331.903	14532.89
332.355	25019.25
332.808	24361.85
333.26	20096.45
333.713	21798.13
334.165	21967.74
334.617	29349.11
335.069	23736.4
335.522	42939.31
335.974	47619.56
336.426	43518.19
336.878	30174.55
337.33	15321.92
337.782	14928.14
338.234	18716.42
338.686	22393.85
339.137	26552.02
339.589	25020.64
340.041	19601.17
340.493	16831.41
340.944	17245.82
341.396	18580.99
341.847	15619.8
342.299	18376
342.75	22498.74
343.201	19697.21
343.653	22684.18
344.104	27875.8
344.555	21958.19
345.006	34175.28
345.457	26196.74
345.908	20808.22
346.359	19590.62
346.81	15964.34
347.261	16823.65
347.712	16550.25
348.163	17729.99
348.613	17963.23
349.064	16776.02
349.515	14680.47
349.965	15051.18
350.416	18115.9
350.866	19871.22
351.317	22444.6
351.767	37182.47
352.217	47041.23
352.668	39077.71
353.118	35824.14
353.568	34540.04
354.018	27352.5
354.468	28912.8
354.918	20817.43
355.368	18236.62
355.818	25785.46
356.268	74297.8
356.718	310889.9
357.168	77493.61
357.617	38907.42
358.067	43274.66
358.517	40608.02
358.966	47547.05
359.416	53318.54
359.865	57519
360.315	68459.15
360.764	32029.76
361.213	17958.89
361.663	17033.66
362.112	21063.22
362.561	34044.49
363.01	25711.76
363.459	21661.49
363.908	23469.13
364.357	19929.82
364.806	33679.82
365.255	23190.94
365.703	21212.17
366.152	21250.12
366.601	17219.53
367.05	13986.05
367.498	12717.61
367.947	13303.32
368.395	13827.45
368.844	12277.75
369.292	14811.68
369.74	10262.09
370.189	15737.22
370.637	18497.3
371.085	15961.3
371.533	19470.06
371.981	18748.88
372.429	17877.74
372.877	18664.46
373.325	15669.58
373.773	15984.34
374.221	14270.17
374.669	17733.28
375.116	15373.31
375.564	15540.42
376.012	17460
376.459	14475.77
376.907	17390.22
377.354	21174.21
377.801	19817.06
378.249	22863.3
378.696	29349.09
379.143	35745.96
379.591	38373.78
380.038	65373.11
380.485	47534.77
380.932	51640.47
381.379	47483.02
381.826	35204.11
382.273	25197.68
382.72	22217.35
383.166	21842.42
383.613	14289.36
384.06	13002.89
384.506	15185.68
384.953	11265.91
385.4	11469.08
385.846	10157.03
386.292	10019.34
386.739	9918.08
387.185	9908.23
387.631	10014.81
388.078	9818.15
388.524	10635.69
388.97	9932.51
389.416	8372.31
389.862	9005.23
390.308	8628.43
390.754	8865.6
391.2	9723.75
391.645	10061.81
392.091	9703.49
392.537	9462.37
392.983	9566.5
393.428	9468.54
393.874	10241.8
394.319	10349.93
394.765	9878.52
395.21	10227.91
395.655	9650.23
396.101	9091.95
396.546	8255.18
396.991	8393.78
397.436	7848.53
397.881	7630.74
398.326	7272.22
398.771	6894.13
399.216	6063.27
399.661	5484.62
400.106	5485.45
400.551	5633.44
400.995	5071.19
401.44	5026.91
401.885	4735.34
402.329	4794.05
402.774	4604.27
403.218	4456.01
403.663	4307.44
404.107	4428.35
404.551	4461.71
404.995	4098.05
405.44	3954.35
405.884	4017.22
406.328	3890.52
406.772	3881.12
407.216	3530.95
407.66	3417.67
408.104	3253.23
408.547	3040.17
408.991	2941.49
409.435	2834.1
409.879	2789.61
410.322	2751.45
410.766	2654.03
411.209	2520.28
411.653	2414.68
412.096	2361.32
412.54	2359.01
412.983	2339.35
413.426	2345.33
413.869	2345.09
414.312	2295.3
414.756	2210.81
415.199	2105.12
415.642	2043.74
416.085	2047.61
416.527	2032.43
416.97	2066.19
417.413	1956.89
417.856	1935.73
418.298	1915.49
418.741	1901.33
419.184	1898.13
419.626	1978.61
420.069	1978.06
420.511	1981.83
420.953	1933.87
421.396	1915.14
421.838	1864.78
422.28	1905.63
422.722	1911.18
423.164	1937.64
423.606	1901.18
424.048	1894.91
424.49	1796.18
424.932	1784.6
425.374	1763.87
425.816	1793.99
426.258	1826.61
426.699	1844.37
427.141	1813.78
427.582	1843.57
428.024	1831.56
428.465	1820.42
428.907	1771.17
429.348	1747.97
429.789	1744.96
430.231	1701.16
430.672	1719.55
431.113	1677.46
431.554	1652.79
431.995	1611.98
432.436	1548.74
432.877	1509.98
433.318	1479.26
433.759	1473.63
434.2	1474.92
434.64	1460.63
435.081	1466.73
435.522	1391.66
435.962	1340.79
436.403	1310.06
436.843	1328.8
437.284	1303.87
437.724	1272.43
438.164	1280.14
438.604	1254.15
439.045	1205.48
439.485	1155.66
439.925	1132.55
440.365	1105.07
440.805	1092.06
441.245	1079.9
441.685	1041.86
442.125	1036.67
442.564	1044.74
443.004	1023
443.444	1020.84
443.883	1024.95
444.323	1019.86
444.762	1025.91
445.202	1042.35
445.641	1062.58
446.081	1059.85
446.52	1069.14
446.959	1059.84
447.398	1035.46
447.837	1025.28
448.276	1011.3
448.716	1022.41
449.154	1035.39
449.593	1012.25
450.032	1010.61
450.471	993.44
450.91	996.21
451.349	995.75
451.787	993.56
452.226	1010.14
452.664	1010.27
453.103	1013.82
453.541	1013.87
453.98	1009.98
454.418	1016.89
454.856	1001.88
455.295	1001.85
455.733	1009.96
456.171	1018.99
456.609	1022.58
457.047	1024.57
457.485	1040.28
457.923	1042.55
458.361	1030.65
458.798	1037.24
459.236	1035.94
459.674	1045.43
460.111	1051.25
460.549	1042.55
460.987	1038.92
461.424	1037.04
461.862	1032.46
462.299	1015.91
462.736	1014.03
463.173	1018.22
463.611	1006.03
464.048	1004.43
464.485	1012.26
464.922	1003.31
465.359	997.54
465.796	979.93
466.233	970.93
466.67	960.64
467.106	959.95
467.543	951.86
467.98	940.21
468.416	917.16
468.853	910.09
469.29	884.07
469.726	874.9
470.162	851.48
470.599	843.17
471.035	836.62
471.471	816.17
471.907	810.69
472.344	804.98
472.78	805.43
473.216	815.61
473.652	805.08
474.088	801.81
474.523	797.98
474.959	805.49
475.395	798.23
475.831	792.05
476.266	795.96
476.702	794.73
477.138	785.39
477.573	782.69
478.008	779.65
478.444	783.78
478.879	789.91
479.314	792.81
479.75	792.07
480.185	797.38
480.62	805.69
481.055	810.81
481.49	817.49
481.925	831.02
482.36	846.19
482.795	870.33
483.229	894.32
483.664	915.29
484.099	921.87
484.534	939.13
484.968	949.58
485.403	955.35
485.837	957.25
486.271	959.35
486.706	963.55
487.14	956.14
487.574	944.85
488.009	940.19
488.443	935.99
488.877	948.12
489.311	954.75
489.745	969.84
490.179	981.64
490.613	1003.26
491.046	1015
491.48	1027.34
491.914	1033.37
492.348	1046.03
492.781	1057.28
493.215	1064.3
493.648	1072.22
494.082	1085.79
494.515	1090.77
494.948	1107.51
495.382	1121.21
495.815	1133.69
496.248	1147.2
496.681	1172.15
497.114	1196.17
497.547	1216.97
497.98	1242.25
498.413	1256.31
498.846	1276.23
499.279	1296.54
499.711	1309.16
500.144	1318.22
500.577	1338.8
501.009	1361.15
501.442	1381.08
501.874	1385.07
502.306	1392.52
502.739	1406.63
503.171	1434.63
503.603	1442.64
504.036	1460.25
504.468	1471.46
504.9	1491.49
505.332	1504.09
505.764	1511.59
506.196	1523.41
506.627	1548.93
507.059	1570.7
507.491	1586.37
507.923	1581.8
508.354	1605.18
508.786	1620.97
509.217	1647.62
509.649	1667.93
510.08	1695.49
510.512	1717.47
510.943	1737.79
511.374	1750.86
511.805	1778.52
512.237	1804.47
512.668	1850.69
513.099	1887.79
513.53	1922.51
513.961	1947.87
514.391	1991.14
514.822	2032.9
515.253	2080.59
515.684	2110.6
516.114	2145.29
516.545	2165.71
516.975	2196.12
517.406	2211.95
517.836	2204.48
518.267	2203.58
518.697	2218.32
519.127	2212.11
519.558	2211.82
519.988	2204.65
520.418	2209.62
520.848	2226.29
521.278	2227.94
521.708	2222.21
522.138	2229.92
522.567	2264
522.997	2289.71
523.427	2300.94
523.857	2315.25
524.286	2320.58
524.716	2333.86
525.145	2349.07
525.575	2353.84
526.004	2366.23
526.433	2364.54
526.863	2355.04
527.292	2332.41
527.721	2333.26
528.15	2334.31
528.579	2328.71
529.008	2337.3
529.437	2362.3
529.866	2376.7
530.295	2394.05
530.724	2405.34
531.152	2436.97
531.581	2452.63
532.01	2472.42
532.438	2479.55
532.867	2496.32
533.295	2517.8
533.723	2522.69
534.152	2516.9
534.58	2514.13
535.008	2491.26
535.436	2490.77
535.865	2499.98
536.293	2518.56
536.721	2539.98
537.149	2573.05
537.576	2574.76
538.004	2591.04
538.432	2602.67
538.86	2599.83
539.287	2608.73
539.715	2626.86
540.143	2632.59
540.57	2626.05
540.998	2619.32
541.425	2585.92
541.852	2556.53
542.28	2553.89
542.707	2530.82
543.134	2509.88
543.561	2503.5
543.988	2492.34
544.415	2489.6
544.842	2480.22
545.269	2470.1
545.696	2471.88
546.123	2487.83
546.549	2473.1
546.976	2453.96
547.403	2452.22
547.829	2455
548.256	2456.74
548.682	2450.14
549.108	2438.9
549.535	2437.39
549.961	2438.42
550.387	2420.7
550.813	2413.54
551.24	2421.49
551.666	2424.03
552.092	2410.6
552.518	2401.61
552.943	2393.86
553.369	2405.69
553.795	2414.15
554.221	2417.81
554.646	2414.49
555.072	2430.02
555.498	2438.93
555.923	2454.09
556.349	2477.15
556.774	2492.73
557.199	2497.2
557.625	2508.18
558.05	2502.85
558.475	2520.54
558.9	2521.53
559.325	2515.04
559.75	2510.55
560.175	2505.31
560.6	2500.26
561.025	2501.95
561.449	2506.97
561.874	2518.36
562.299	2528.59
562.723	2544.09
563.148	2536.4
563.572	2547.71
563.997	2567.7
564.421	2582.5
564.846	2590.43
565.27	2602.01
565.694	2605.46
566.118	2629.56
566.542	2647.39
566.966	2646.64
567.39	2647.99
567.814	2641.23
568.238	2649.73
568.662	2667.05
569.086	2678.95
569.509	2698.91
569.933	2684.89
570.357	2682.93
570.78	2661.68
571.204	2651.64
571.627	2645.47
572.05	2651.97
572.474	2659.2
572.897	2647.77
573.32	2643.98
573.743	2637.55
574.166	2616.8
574.589	2626.53
575.012	2622.79
575.435	2628.61
575.858	2623.24
576.281	2612.32
576.704	2595.63
577.126	2584.63
577.549	2575.72
577.972	2567.27
578.394	2558.81
578.817	2553.37
579.239	2529.32
579.661	2514.06
580.084	2493.64
580.506	2477.28
580.928	2477.83
581.35	2464.16
581.772	2461.99
582.194	2445.57
582.616	2429.93
583.038	2411.19
583.46	2400.59
583.882	2399.36
584.303	2410.43
584.725	2409.36
585.147	2413
585.568	2431.71
585.99	2455.34
586.411	2468.87
586.833	2495.35
587.254	2501.38
587.675	2527.45
588.096	2549.6
588.518	2544.77
588.939	2521.94
589.36	2520.6
589.781	2511.45
590.202	2466.65
590.623	2455
591.043	2454.47
591.464	2435.89
591.885	2431.21
592.305	2423.84
592.726	2405.25
593.147	2409.33
593.567	2401.7
593.987	2392.18
594.408	2385.72
594.828	2387.78
595.248	2378.91
595.669	2349.73
596.089	2338.45
596.509	2329.43
596.929	2309
597.349	2309.86
597.769	2295.09
598.189	2286.11
598.608	2289.18
599.028	2294.12
599.448	2294.74
599.867	2276.29
600.287	2272.51
600.706	2268.51
601.126	2255.33
601.545	2255.85
601.965	2256.1
602.384	2250.61
602.803	2259.11
603.222	2253.2
603.641	2245.93
604.061	2243.29
604.48	2241.28
604.898	2257.87
605.317	2270.58
605.736	2277.73
606.155	2277.84
606.574	2269.11
606.992	2282.18
607.411	2278.98
607.829	2272.52
608.248	2271.44
608.666	2272.97
609.085	2276.78
609.503	2268.27
609.921	2263.56
610.339	2273.63
610.758	2278.59
611.176	2277.44
611.594	2267.67
612.012	2267.33
612.43	2277.73
612.847	2296.17
613.265	2303.23
613.683	2318.61
614.101	2327.5
614.518	2326.56
614.936	2314.89
615.353	2294.49
615.771	2292.4
616.188	2298.25
616.606	2297.41
617.023	2291.57
617.44	2270.31
617.857	2264.96
618.274	2253.72
618.691	2246.39
619.108	2235.24
619.525	2227.71
619.942	2243.43
620.359	2252.04
620.776	2246.8
621.192	2242.75
621.609	2240.31
622.026	2255.03
622.442	2267.8
622.859	2276.18
623.275	2265.57
623.691	2277.47
624.108	2301.25
624.524	2329.54
624.94	2332.14
625.356	2353.25
625.772	2380.54
626.188	2405.31
626.604	2409.27
627.02	2402.19
627.436	2399.08
627.852	2412.52
628.268	2435.79
628.683	2420.9
629.099	2406.47
629.514	2398.29
629.93	2404.55
630.345	2412.23
630.761	2405.46
631.176	2412.48
631.591	2402.61
632.007	2391.24
632.422	2388.03
632.837	2367.59
633.252	2362.26
633.667	2343.53
634.082	2327.67
634.497	2303.23
634.911	2264.82
635.326	2257.04
635.741	2225.22
636.155	2207.45
636.57	2209.78
636.984	2209.86
637.399	2211.33
637.813	2210.36
638.228	2207.45
638.642	2214.64
639.056	2196.31
639.47	2198.52
639.884	2182.65
640.298	2171.98
640.712	2168.8
641.126	2144.82
641.54	2128.76
641.954	2119.77
642.368	2097.03
642.781	2078.47
643.195	2045.5
643.609	2045.9
644.022	2033.78
644.436	2027.28
644.849	2005.02
645.262	1982.77
645.676	1987.55
646.089	1979.1
646.502	1952.03
646.915	1943.25
647.328	1916.57
647.741	1913.24
648.154	1891.1
648.567	1885.21
648.98	1860.17
649.393	1861.8
649.805	1857.2
650.218	1844.98
650.631	1816.63
651.043	1807.23
651.456	1797.3
651.868	1801.34
652.28	1836.6
652.693	1866.3
653.105	1883.94
653.517	1907.89
653.929	1914.75
654.341	1930.05
654.753	1910.76
655.165	1927.76
655.577	1928.98
655.989	1927.31
656.401	1918.41
656.813	1856.03
657.224	1820.91
657.636	1772.63
658.047	1741.93
658.459	1708.16
658.87	1696.22
659.282	1679.02
659.693	1643.65
660.104	1618.98
660.515	1596.26
660.926	1595.53
661.338	1592.33
661.749	1583.29
662.159	1565.35
662.57	1558.73
662.981	1548.87
663.392	1534.02
663.803	1540.83
664.213	1535.85
664.624	1526.77
665.035	1530.53
665.445	1503.65
665.855	1486.17
666.266	1468.51
666.676	1463.52
667.086	1445.32
667.497	1442.04
667.907	1428.69
668.317	1409.66
668.727	1397.14
669.137	1396.43
669.547	1389.17
669.956	1390.54
670.366	1392.17
670.776	1393.55
671.186	1398.16
671.595	1401.2
672.005	1406.9
672.414	1403.51
672.824	1398.76
673.233	1409.22
673.642	1410.63
674.052	1415.05
674.461	1416.73
674.87	1426.35
675.279	1420
675.688	1425.45
676.097	1428.04
676.506	1422.8
676.915	1451.33
677.323	1460.86
677.732	1460.19
678.141	1464.89
678.549	1451.16
678.958	1457.59
679.366	1462.16
679.775	1479.9
680.183	1503.37
680.592	1524.84
681	1547.07
681.408	1544.75
681.816	1569.25
682.224	1600.55
682.632	1629.23
683.04	1701.58
683.448	1762.96
683.856	1837.69
684.264	1923.81
684.671	2006.48
685.079	2103.66
685.487	2207.22
685.894	2347.7
686.302	2465.71
686.709	2555.17
687.116	2662.45
687.524	2743.6
687.931	2808.51
688.338	2860.57
688.745	2895.92
689.152	2936.1
689.559	2993.03
689.966	3043.53
690.373	3048.05
690.78	3087.12
691.187	3169.14
691.593	3215.79
692	3247.47
692.407	3312.88
692.813	3397.81
693.22	3456.02
693.626	3514.8
694.032	3546.01
694.439	3623.91
694.845	3668.34
695.251	3737.65
695.657	3792.64
696.063	3902.91
696.469	3967.44
696.875	4021.86
697.281	4027.41
697.687	4047.64
698.093	4055.54
698.498	4121.42
698.904	4159.51
699.31	4244.07
699.715	4286.11
700.12	4372.7
700.526	4348.91
700.931	4401.18
701.337	4429.62
701.742	4431.1
702.147	4504.57
702.552	4503.85
702.957	4545.55
703.362	4531.39
703.767	4529.88
704.172	4545.1
704.577	4444
704.981	4471.07
705.386	4458.67
705.791	4414.48
706.195	4481.85
706.6	4458.28
707.004	4529.88
707.408	4459.57
707.813	4462.57
708.217	4418.69
708.621	4395.55
709.025	4490
709.43	4465.23
709.834	4511.21
710.237	4571.53
710.641	4525.75
711.045	4529.02
711.449	4497.36
711.853	4505.06
712.256	4533.31
712.66	4554.14
713.064	4618.15
713.467	4643.69
713.87	4752.39
714.274	4785.72
714.677	4891.8
715.08	5054.93
715.484	5227.05
715.887	5436.66
716.29	5642.2
716.693	5852.44
717.096	6102.65
717.499	6229.17
717.901	6235.64
718.304	6242.6
718.707	6249.8
719.109	6115.43
719.512	6061.05
719.915	5890.98
720.317	5810.77
720.719	5843.9
721.122	5796.42
721.524	5724.38
721.926	5664.71
722.328	5759.19
722.731	5734.52
723.133	5748.07
723.535	5938.51
723.937	5947.55
724.338	5991
724.74	6018.91
725.142	5931.58
725.544	5919.19
725.945	5931.42
726.347	5914.57
726.748	5892.03
727.15	5896.75
727.551	5844.92
727.952	5805.2
728.354	5766.93
728.755	5757.09
729.156	5707.75
729.557	5690.55
729.958	5553.99
730.359	5491.6
730.76	5466.26
731.161	5399.99
731.562	5365.19
731.962	5363.26
732.363	5291.01
732.763	5218.09
733.164	5249.62
733.564	5173.21
733.965	5071.39
734.365	5032.96
734.766	5056.83
735.166	5011.4
735.566	4948.88
735.966	4918.74
736.366	4908.71
736.766	4842.59
737.166	4872.77
737.566	4829.18
737.966	4800.48
738.365	4834.4
738.765	4823.98
739.165	4745.87
739.564	4716.11
739.964	4761.39
740.363	4712.56
740.763	4706.97
741.162	4692.14
741.561	4655.48
741.96	4606.11
742.36	4624.16
742.759	4628.01
743.158	4664.11
743.557	4675.76
743.955	4712.33
744.354	4662.81
744.753	4716.85
745.152	4674.46
745.55	4728.34
745.949	4720.05
746.348	4719.25
746.746	4732.62
747.144	4692.55
747.543	4668.89
747.941	4715.08
748.339	4645.35
748.737	4635.61
749.136	4627.8
749.534	4691.14
749.932	4662.8
750.33	4684.86
750.727	4738.66
751.125	4713.03
751.523	4692.56
751.921	4733.38
752.318	4700.19
752.716	4756.95
753.113	4769.49
753.511	4792.32
753.908	4790.4
754.305	4772.34
754.703	4831.55
755.1	4890.52
755.497	4949.65
755.894	5139.62
756.291	5316.77
756.688	5641.41
757.085	6074.25
757.482	6685.22
757.878	7350.3
758.275	7954.56
758.672	8781.36
759.068	9457.25
759.465	10416.19
759.861	11659.13
760.258	13099.42
760.654	13841.6
761.05	13733.18
761.447	13100.55
761.843	12190.53
762.239	11252.41
762.635	10829.21
763.031	10424.07
763.427	9839.09
763.822	9229.48
764.218	8619.15
764.614	7829.99
765.01	7303.97
765.405	6959.94
765.801	6702.22
766.196	6373.26
766.592	6189.89
766.987	5876.51
767.382	5664.37
767.778	5577.29
768.173	5448.03
768.568	5376.75
768.963	5252.52
769.358	5269.54
769.753	5223.69
770.148	5141.42
770.542	5141.79
770.937	5111.9
771.332	5202.17
771.726	5219.41
772.121	5157.17
772.515	5211.13
772.91	5196.12
773.304	5262.84
773.699	5201.59
774.093	5252.74
774.487	5307.22
774.881	5348.51
775.275	5343.15
775.669	5300.96
776.063	5348.25
776.457	5381.49
776.851	5306.15
777.245	5299.96
777.638	5334.77
778.032	5444.75
778.425	5408.76
778.819	5448.77
779.212	5406.47
779.606	5365.85
779.999	5385.71
780.392	5368.43
780.786	5450.88
781.179	5471.57
781.572	5512.78
781.965	5525.18
782.358	5466.61
782.751	5520.82
783.143	5473.3
783.536	5545.82
783.929	5587.47
784.322	5700.11
784.714	5728.3
785.107	5721.93
785.499	5793.52
785.891	5769.67
786.284	5754.46
786.676	5893.52
787.068	5877.24
787.46	5929.4
787.852	5945.22
788.245	6030.6
788.636	6059.19
789.028	6126.55
789.42	6166.02
789.812	6173.08
790.204	6269.74
790.595	6365.06
790.987	6171.55
791.378	6195.08
791.77	6322.93
792.161	6458.12
792.553	6509.87
792.944	6398.53
793.335	6331.33
793.726	6399.13
794.117	6487.96
794.508	6623.15
794.899	6590.88
795.29	6729.33
795.681	6783.17
796.072	6642.96
796.463	6461.74
796.853	6473.14
797.244	6628.26
797.634	6661.07
798.025	6663.75
798.415	6674.7
798.806	6758.2
799.196	6844.87
799.586	6896.31
799.976	6860.9
800.366	7086.16
800.756	7320.89
801.146	7280.76
801.536	7312.1
801.926	7384.31
802.316	7408.44
802.706	7478.99
803.095	7360.22
803.485	7455.42
803.874	7492.57
804.264	7742.69
804.653	7718.19
805.043	7860.34
805.432	7972.13
805.821	7974.15
806.21	7997.47
806.599	8114.2
806.988	8156.69
807.377	8260.65
807.766	8386.64
808.155	8664.21
808.544	8411.21
808.933	8422.78
809.321	8402.35
809.71	8688.52
810.098	8836.52
810.487	9280.6
810.875	9746.96
811.264	9772.95
811.652	10057.3
812.04	10204.55
812.428	10366.69
812.816	11110.09
813.204	11519.67
813.592	12053.49
813.98	12381.34
814.368	12297.38
814.756	12765.98
815.144	12685.18
815.531	13138.1
815.919	13059.37
816.306	13352.02
816.694	13049.23
817.081	13100.29
817.469	13433.92
817.856	13437.33
818.243	13696.62
818.63	14078.05
819.017	13672.88
819.404	13739.15
819.791	14108.49
820.178	14706.57
820.565	14960.03
820.952	15869.8
821.339	15381.01
821.725	15559.28
822.112	14835.8
822.498	14795.54
822.885	14923.2
823.271	14836.33
823.657	15242.36
824.044	15247.43
824.43	15326.94
824.816	15287.92
825.202	14866.01
825.588	15865.28
825.974	15891.01
826.36	16396.46
826.746	16427.84
827.132	16773.31
827.517	16750.75
827.903	15988.84
828.289	16034.22
828.674	15272.51
829.06	15177.38
829.445	15564.05
829.83	15912.22
830.216	16376.09
830.601	16734.04
830.986	16343.04
831.371	16217.86
831.756	16761.09
832.141	16340.94
832.526	16327.24
832.911	16609.59
833.295	16489.77
833.68	16944.93
834.065	16343.27
834.449	15447.49
834.834	15378.13
835.218	15372.73
835.603	15700.47
835.987	15497.45
836.371	16315.04
836.755	16222.58
837.139	16602.99
837.524	16843.22
837.908	16667.21
838.291	16720.69
838.675	16782.85
839.059	16981.15
839.443	16964.78
839.827	16741.72
840.21	17204.87
840.594	17058.04
840.977	17252.95
841.361	17234.31
841.744	17599.27
842.127	17447.98
842.511	17690.86
842.894	18276.62
843.277	18655.95
843.66	19199.07
844.043	19276.8
844.426	18485.5
844.809	18179.69
845.191	18205.96
845.574	17757.98
845.957	17403.11
846.339	17304.39
846.722	16786.78
847.104	16849.9
847.487	16676.23
847.869	16685.22
848.252	16956.82
848.634	17279.57
849.016	17534.36
849.398	17661.18
849.78	18494.36
850.162	18502.91
850.544	18896.58
850.926	19517.12
851.307	19441.27
851.689	19705.89
852.071	20141.96
852.452	20459
852.834	20439.76
853.215	20823.96
853.597	20976.39
853.978	21267.41
854.359	21705.08
854.741	20744.47
855.122	20645.03
855.503	20356.08
855.884	20488.76
856.265	20427.19
856.646	20539.38
857.026	20160.4
857.407	20102.13
857.788	20257.42
858.169	20538.58
858.549	19717.14
858.93	20327.96
859.31	20375.79
859.69	20595.35
860.071	20203.4
860.451	19994.04
860.831	19260.81
861.211	20385.57
861.591	20916.06
861.971	20888.77
862.351	21072.95
862.731	21441.42
863.111	21696.57
863.491	22015.26
863.87	22853.81
864.25	23193.54
864.629	22803.34
865.009	23308.53
865.388	24140.94
865.768	25866.56
866.147	25759.15
866.526	24313.99
866.905	24616.07
867.284	25978.2
867.663	24675.12
868.042	23644.68
868.421	23575.44
868.8	23963.71
869.179	24209.16
869.558	22793.49
869.936	21019.54
870.315	21391.54
870.693	21924.54
871.072	23633.47
871.45	22523.34
871.828	22808.97
872.207	23979.92
872.585	23613.76
872.963	24249.76
873.341	23406.41
873.719	23129.81
874.097	22842.55
874.475	23277.54
874.853	23806.73
875.23	22821.98
875.608	23767.78
875.986	25698.4
876.363	24572.52
876.741	25315.81
877.118	24684.25
877.495	25901.5
877.873	26330.92
878.25	27706.87
878.627	26583.11
879.004	26949
879.381	26815.5
879.758	26122.61
880.135	24317.91
880.512	25713.56
880.889	25039.64
881.265	24784.84
881.642	24575.78
882.019	24990.88
882.395	24481.51
882.772	25457.34
883.148	24358.41
883.524	24258.01
883.901	24104.64
884.277	24460.18
884.653	24309.23
885.029	24997.45
885.405	27678.59
885.781	27466.26
886.157	26337.87
886.532	26659.88
886.908	26635.47
887.284	29610.83
887.659	30564
888.035	31507.97
888.411	32319.16
888.786	32733.36
889.161	33870.6
889.537	33243.38
889.912	34302.29
890.287	34263.27
890.662	35139.45
891.037	34499.37
891.412	32177.6
891.787	31860.76
892.162	30764
892.536	31485.9
892.911	30311.47
893.286	29665.63
893.66	28467.71
894.035	29187.17
894.409	31780.4
894.784	30507.66
895.158	31015.6
895.532	32858.54
895.906	33757.1
896.281	34557
896.655	34016.48
897.029	38863.07
897.402	40482.69
897.776	45072.78
898.15	44919.75
898.524	44448.67
898.898	45038.66
899.271	50416.1
899.645	43649.55
900.018	41924.5
900.392	43463
900.765	43812.98
901.138	40548.06
901.511	39928.46
901.884	36646.45
902.258	33800.4
902.631	34919.58
903.003	40184.64
903.376	36253.33
903.749	40655.42
904.122	43516.21
904.495	47931.58
904.867	48505.92
905.24	42125.83
905.612	39187.56
905.985	40070.88
906.357	41889.9
906.729	39960.67
907.102	34124.44
907.474	32815.93
907.846	33014.3
908.218	32571.91
908.59	28765.87
908.962	27826.36
909.334	29946.95
909.705	31473.97
910.077	30561.95
910.449	31808.58
910.82	32717.31
911.192	36005.67
911.563	37418.87
911.935	40033.78
912.306	40086.7
912.677	41386.07
913.048	40967.17
913.419	44460.06
913.79	44696.46
914.161	47938.21
914.532	45831.19
914.903	42111.32
915.274	39966.43
915.645	39382.71
916.015	34661.96
916.386	33060.4
916.756	35202.99
917.127	36314.18
917.497	32435.08
917.868	35308.43
918.238	33531.87
918.608	34491.42
918.978	35201.38
919.348	37314.83
919.718	38534.79
920.088	37140.39
920.458	38579.17
920.828	40587.04
921.198	38483.5
921.567	41097.1
921.937	31837.68
922.306	32153.32
922.676	34658.97
923.045	28897.63
923.415	27437.02
923.784	24981.58
924.153	25673.6
924.522	25639.51
924.891	24097.62
925.26	25810.87
925.629	25205.09
925.998	28964.53
926.367	28262.32
926.736	26929.88
927.104	32095.69
927.473	34502.57
927.842	41679.06
928.21	41290.37
928.578	43417.68
928.947	41074.43
929.315	41330.72
929.683	48476.3
930.051	48851.02
930.42	56732.51
930.788	48472.91
931.156	48080.7
931.523	45095.19
931.891	41682.2
932.259	40028.13
932.627	46369.13
932.994	65568.84
933.362	54158.88
933.729	47034.45
934.097	45029.33
934.464	38080.54
934.831	43947.88
935.199	43343.17
935.566	42022.89
935.933	42639.83
936.3	51653.32
936.667	40225.52
937.034	36294.32
937.401	35901.94
937.767	30993.05
938.134	27612.53
938.501	38985.51
938.867	41556
939.234	70241.75
939.6	59877.91
939.967	65861.69
940.333	44100.95
940.699	37556.7
941.065	30132.98
941.431	39561.17
941.798	38122.77
942.163	50041.82
942.529	31289.88
942.895	28795.41
943.261	18644.28
943.627	24472.19
943.992	21403.27
944.358	21411.87
944.723	21475.11
945.089	20940.27
945.454	19314.69
945.82	20620
946.185	19826.3
946.55	22960.39
946.915	20595.54
947.28	24152.75
947.645	21270.35
948.01	19650.04
948.375	20484.66
948.74	24567.46
949.104	28635.44
949.469	41389.69
949.834	73208.22
950.198	69279.34
950.562	41551.05
950.927	34616.49
951.291	41627.21
951.655	35428.59
952.02	33275.7
952.384	25179.85
952.748	21887.06
953.112	21335.85
953.476	18532.63
953.839	17126.29
954.203	16960.65
954.567	21190.52
954.931	33388.91
955.294	28582.55
955.658	28754.4
956.021	48912.36
956.385	82896.5
956.748	122579.05
957.111	190243.51
957.474	213633.76
957.837	240750.28
958.2	182339.48
958.563	65621.41
958.926	44316.71
959.289	67203.74
959.652	75081.35
960.015	56293.74
960.377	80763.76
960.74	92039.1
961.102	158833.65
961.465	170630.09
961.827	91424.75
962.189	175205.43
962.552	121360.68
962.914	97344.03
963.276	63196.79
963.638	52267.25
964	51738.83
964.362	34969.75
964.724	33839.09
965.085	24172.55
965.447	19825.39
965.809	22572.24
966.17	22616.01
966.532	24487.78
966.893	22459.99
967.255	20422.89
967.616	24084.84
967.977	19289.54
968.338	21081.36
968.699	17302.84
969.061	17282.66
969.421	17387.75
969.782	19515.45
970.143	16465.66
970.504	17044.61
970.865	19382.23
971.225	19828.75
971.586	19408.6
971.946	27668.68
972.307	24017.78
972.667	31388.39
973.027	32331.48
973.388	39170.92
973.748	26623.88
974.108	29006.85
974.468	39209.22
974.828	30242.3
975.188	23283.14
975.548	21387.06
975.907	17949.44
976.267	20112.66
976.627	16908.01
976.986	17521.6
977.346	16704.59
977.705	16077.01
978.064	14629.02
978.424	12179.86
978.783	12590.4
979.142	14356
979.501	13718.69
979.86	14499.32
980.219	13973.5
980.578	18030.98
980.937	20174.07
981.296	17975.89
981.654	18474.48
982.013	28769.79
982.371	37353.46
982.73	34854.23
983.088	39446.47
983.447	42226.86
983.805	60370.32
984.163	126303.3
984.521	140039.8
984.879	205246.21
985.237	-333840.39
985.595	321985.5
985.953	80102.61
986.311	46246.22
986.669	26842.25
987.026	23159.42
987.384	31073.57
987.741	32121.83
988.099	22927.4
988.456	18271.04
988.814	17106.61
989.171	14868.62
989.528	14665.11
989.885	15469.53
990.242	12248.81
990.599	15263.4
990.956	12481.82
991.313	8742.64
991.67	7185.45
992.027	7618.05
992.383	6770.95
992.74	5935.02
993.096	6230.3
993.453	6460.66
993.809	6699.54
994.165	8908.19
994.522	8162.18
994.878	8998.71
995.234	11276.62
995.59	11117.69
995.946	10527.18
996.302	12018.04
996.658	13917.24
997.013	15311.49
997.369	18154.48
997.725	23186.26
998.08	15042.4
998.436	23257.7
998.791	32078.5
999.147	32003.12
999.502	34930.4
999.857	25387.4
1000.212	41323
1000.567	58825.54
1000.922	34087.98
1001.277	21653
1001.632	16098.04
1001.987	20699.69
1002.342	14807.3
1002.696	11852.58
1003.051	9464.01
1003.406	11464.83
1003.76	11402.13
1004.114	11247.57
1004.469	9431.51
1004.823	7782.74
1005.177	8416.12
1005.531	6675.55
1005.885	5944.1
1006.239	6696.52
1006.593	8399.23
1006.947	11220.65
1007.301	8408.08
1007.655	9181.48
1008.008	6740.6
1008.362	7576.9
1008.715	10806.04
1009.069	9812.06
1009.422	14759.45
1009.776	29518.29
1010.129	19634.35
1010.482	16447.74
1010.835	13926.08
1011.188	29010.24
1011.541	27293.27
1011.894	-166556.82
1012.247	491702.31
1012.6	33498.7
1012.952	21068.25
1013.305	10858.9
1013.657	7836.84
1014.01	7410.43
1014.362	6074.93
1014.715	5406.5
1015.067	4689.63
1015.419	4582.1
1015.771	4080.48
1016.123	3620.32
1016.475	3725.29
1016.827	3966.58
1017.179	4247.58
1017.531	4275.98
1017.883	4385.45
1018.234	4247.82
1018.586	5368.1
1018.938	5710.06
1019.289	7883.44
1019.64	9002.83
1019.992	8386.88
1020.343	7665.98
1020.694	6083.07
1021.045	5400.75
1021.396	6160.4
1021.747	6600.36
1022.098	7930.15
1022.449	5757.94
1022.8	5326.59
1023.151	3707.15
1023.501	3289.95
1023.852	3581.21
1024.202	3716.92
1024.553	4080.22
1024.903	3984.09
1025.253	3422.96
1025.604	3073.78
1025.954	3818.72
1026.304	4647.13
1026.654	5442.97
1027.004	7980.86
1027.354	12883.05
1027.703	12184.52
1028.053	15946.2
1028.403	23140.31
1028.753	33660.24
1029.102	45639.63
1029.452	234775.68
1029.801	10089.79
1030.15	6516.14
1030.499	5498.06
897.758	2538.09
901.051	2494.66
904.343	2528.88
907.636	2531.03
910.928	2596.12
914.22	2506.36
917.511	2513.39
920.803	2574.97
924.094	2586.39
927.384	2570.14
930.675	2535.87
933.965	2494.01
937.255	2504.7
940.544	2470.48
943.834	2429.76
947.123	2368
950.411	2464.48
953.7	2437.75
956.988	2410.71
960.276	2352.87
963.563	2425.16
966.851	2423.98
970.138	2477.8
973.424	2473.08
976.711	2423.53
979.997	2531.68
983.283	2571.58
986.568	2481.32
989.853	2493.71
993.138	2519.3
996.423	2602.11
999.708	2544.69
1002.992	2597.92
1006.275	2456.23
1009.559	2490.04
1012.842	2601.68
1016.125	2537.18
1019.408	2516.94
1022.69	2597.5
1025.972	2619.18
1029.254	2593.56
1032.536	2531.56
1035.817	2556.17
1039.098	2508.41
1042.379	2626.14
1045.659	2633.64
1048.939	2570.36
1052.219	2587.3
1055.498	2595.19
1058.778	2583.23
1062.057	2565.24
1065.335	2587.57
1068.614	2603.93
1071.892	2589.18
1075.17	2661.57
1078.447	2651.06
1081.724	2642.21
1085.001	2677.13
1088.278	2654.15
1091.554	2664.64
1094.83	2657.17
1098.106	2687.5
1101.382	2727.49
1104.657	2728.86
1107.932	2723.61
1111.206	2688.01
1114.481	2647.69
1117.755	2651.11
1121.029	2632.91
1124.302	2686.94
1127.575	2642.19
1130.848	2635.59
1134.121	2596.76
1137.393	2548.88
1140.665	2616.37
1143.937	2591.05
1147.208	2550.42
1150.48	2593.79
1153.75	2579.27
1157.021	2606.55
1160.291	2576.49
1163.561	2625.24
1166.831	2607.82
1170.101	2637.18
1173.37	2611.05
1176.639	2555.82
1179.907	2614.63
1183.176	2622.39
1186.444	2627.47
1189.711	2656.43
1192.979	2668.33
1196.246	2623.89
1199.513	2639.01
1202.78	2638.95
1206.046	2649.01
1209.312	2672.32
1212.578	2695.6
1215.843	2650.49
1219.108	2623.9
1222.373	2649.62
1225.638	2614.91
1228.902	2601.89
1232.166	2565.96
1235.43	2549.28
1238.693	2573.37
1241.956	2568.6
1245.219	2611.5
1248.482	2600.91
1251.744	2595.05
1255.006	2738.52
1258.268	2689.73
1261.529	2636
1264.79	2640.42
1268.051	2745.89
1271.312	2758.72
1274.572	2721.76
1277.832	2712.46
1281.092	2702.54
1284.351	2679.16
1287.61	2659.29
1290.869	2578.44
1294.128	2561.53
1297.386	2639.8
1300.644	2631.1
1303.902	2640.41
1307.159	2504.59
1310.416	2558.8
1313.673	2584.18
1316.93	2568.86
1320.186	2612.18
1323.442	2653.77
1326.697	2646.59
1329.953	2633.19
1333.208	2660.09
1336.463	2634.51
1339.717	2578.11
1342.972	2707.63
1346.226	2685.14
1349.479	2621.11
1352.733	2596.19
1355.986	2615.7
1359.238	2593.68
1362.491	2595.94
1365.743	2597.7
1368.995	2593.11
1372.247	2607.66
1375.498	2630.52
1378.749	2648.26
1382	2604.54
1385.251	2653.43
1388.501	2614.1
1391.751	2600.38
1395	2571.07
1398.25	2603.99
1401.499	2616.25
1404.748	2548.57
1407.996	2535.8
1411.244	2522.64
1414.492	2506.29
1417.74	2483.63
1420.987	2492.22
1424.234	2548.41
1427.481	2524.78
1430.728	2583.11
1433.974	2556.38
1437.22	2567.35
1440.465	2566.27
1443.711	2540.54
1446.956	2572.73
1450.201	2555.39
1453.445	2601.64
1456.689	2582.02
1459.933	2594.52
1463.177	2627.11
1466.42	2599.9
1469.663	2580.05
1472.906	2576.86
1476.148	2640.11
1479.391	2620.77
1482.633	2586.21
1485.874	2599.84
1489.115	2587.48
1492.356	2592.69
1495.597	2565.28
1498.838	2568.24
1502.078	2539.86
1505.318	2495.54
1508.557	2536.3
1511.797	2522.14
1515.036	2570.77
1518.274	2564.69
1521.513	2532.4
1524.751	2553.02
1527.989	2565.16
1531.227	2580.87
1534.464	2579.49
1537.701	2591.45
1540.938	2608.76
1544.174	2562.5
1547.41	2559.05
1550.646	2595.99
1553.882	2634.02
1557.117	2687.68
1560.352	2700.38
1563.587	2659.5
1566.821	2622.85
1570.055	2651
1573.289	2625.29
1576.523	2697.22
1579.756	2703.49
1582.989	2722.79
1586.222	2684.67
1589.454	2718.11
1592.686	2695.25
1595.918	2721.32
1599.15	2710.46
1602.381	2778
1605.612	2739.96
1608.843	2835.31
1612.073	2748.47
1615.303	2736.47
1618.533	2728.77
1621.762	2727.19
1624.992	2714.77
1628.221	2702.76
1631.449	2689.52
1634.678	2740.56
1637.906	2695
1641.134	2732.79
1644.361	2692.19
1647.588	2681.42
1650.815	2696.72
1654.042	2674.07
1657.269	2703.12
1660.495	2659.46
1663.72	2677.13
1666.946	2641.97
1670.171	2592.25
1673.396	2570.82
1676.621	2556.49
1679.845	2570.44
1683.069	2586.1
1686.293	2625.95
1689.517	2602
1692.74	2540.11
1695.963	2566.7
1699.185	2587.63
1702.408	2562.57
1705.63	2600.26
1708.852	2611.54
1712.073	2585.99
1715.294	2576.91
1718.515	2636.86
1721.736	2585.64
1724.956	2575.51
1728.176	2599.75
1731.396	2621.25
1734.616	2607.94
1737.835	2636.53
1741.054	2616.99
1744.272	2609.3
1747.491	2639.71
1750.709	2687.17
1753.927	2601.76
1757.144	2644.74
1760.361	2691.29
1763.578	2677.77
1766.795	2624.94
1770.011	2625.18
1773.227	2662.51
1776.443	2698.58
1779.658	2743.28
1782.874	2685.3
1786.089	2663.47
1789.303	2666.2
1792.518	2669.84
1795.732	2656.29
1798.945	2667.99
1802.159	2716.73
1805.372	2629.21
1808.585	2615.38
1811.797	2615.47
1815.01	2658.49
1818.222	2665.6
1821.434	2647.94
1824.645	2705.36
1827.856	2694.14
1831.067	2728
1834.278	2682.36
1837.488	2665.21
1840.698	2808.53
1843.908	2738.26
1847.117	2701.6
1850.326	2598.97
1853.535	2690.28
1856.744	2707.53
1859.952	2621.8
1863.16	2626.31
1866.368	2647.21
1869.575	2752.03
1872.782	2636.63
1875.989	2575.86
1879.196	2650.07
1882.402	2642.9
1885.608	2681.94
1888.814	2594.62
1892.019	2496.81
1895.224	2549.12
1898.429	2526.05
1901.634	2505.46
1904.838	2482.11
1908.042	2533.51
1911.246	2541.98
1914.449	2483.27
1917.652	2477.24
1920.855	2458.55
1924.058	2500.24
1927.26	2537.93
1930.462	2565.39
1933.664	2594.74
1936.865	2533.15
1940.066	2542.2
1943.267	2489.99
1946.467	2502.86
1949.668	2527.51
1952.868	2595.38
1956.067	2576.5
1959.267	2514.62
1962.466	2539.49
1965.665	2523.34
1968.863	2518.98
1972.061	2530.73
1975.259	2529.06
1978.457	2607.74
1981.654	2565.4
1984.852	2568.57
1988.048	2506.28
1991.245	2505.76
1994.441	2589.18
1997.637	2567.72
2000.833	2548.67
2004.028	2584.17
2007.223	2642.95
2010.418	2621.68
2013.613	2578.88
2016.807	2557.01
2020.001	2561.23
2023.194	2598.15
2026.388	2573.83
2029.581	2519.22
2032.774	2573.85
2035.966	2577.93
2039.158	2515.81
2042.35	2539.94
2045.542	2467.04
2048.733	2565.35
2051.924	2578.82
2055.115	2602.37
2058.306	2551.64
2061.496	2611.35
2064.686	2672.79
2067.875	2583.55
2071.065	2596.62
2074.254	2620.53
2077.442	2572.94
2080.631	2663.11
2083.819	2561.08
2087.007	2548.72
2090.195	2523.19
2093.382	2553.6
2096.569	2534.27
2099.756	2490.79
2102.942	2520.68
2106.128	2529.76
2109.314	2519.89
2112.5	2488.65
2115.685	2462.26
2118.87	2473.63
2122.055	2536.57
2125.239	2504.86
2128.424	2481.96
2131.608	2574.84
2134.791	2556.69
2137.974	2611.26
2141.157	2597.26
2144.34	2554.66
2147.523	2564.57
2150.705	2579.16
2153.887	2556.41
2157.068	2511.99
2160.25	2508.57
2163.431	2542.65
2166.611	2493.62
2169.792	2511.25
2172.972	2409.12
2176.152	2479.93
2179.331	2513.62
2182.511	2498.13
2185.69	2529.52
2188.868	2523.18
2192.047	2573.88
2195.225	2571.35
2198.403	2522.97
2201.58	2514.17
2204.758	2507.99
2207.935	2589.01
2211.111	2483.34
2214.288	2467.48
2217.464	2508.63
2220.64	2473.47
2223.815	2527.16
2226.991	2449.16
2230.166	2469.57
2233.34	2501.78
2236.515	2521.16
2239.689	2589.39
2242.863	2536.49
2246.036	2593.71
2249.209	2590.75
2252.382	2618.77
2255.555	2614.2
2258.727	2556.42
2261.9	2595.87
2265.071	2586.18
2268.243	2586.78
2271.414	2525.05
2274.585	2492.99
2277.756	2557.81
2280.926	2510.99
2284.096	2549.88
2287.266	2463.62
2290.436	2513.8
2293.605	2540.32
2296.774	2571.72
2299.942	2588.06
2303.111	2606.78
2306.279	2657.63
2309.447	2643.64
2312.614	2617.18
2315.781	2640.45
2318.948	2610.63
2322.115	2649.33
2325.281	2553.81
2328.447	2571.04
2331.613	2543.59
2334.779	2522.66
2337.944	2520.42
2341.109	2517.63
2344.274	2501.68
2347.438	2468.59
2350.602	2495.47
2353.766	2510.5
2356.929	2497.39
2360.092	2537.77
2363.255	2492.97
2366.418	2435.99
2369.58	2537.67
2372.742	2347.31
2375.904	2357.4
2379.066	2336.05
2382.227	2367.39
2385.388	2328.14
2388.548	2260.78
2391.709	2311.04
2394.869	2291.85
2398.029	2382.49
2401.188	2389.48
2404.347	2331.3
2407.506	2457.17
2410.665	2488.4
2413.823	2491.66
2416.981	2455.17
2420.139	2480.72
2423.296	2530.03
2426.453	2502.17
2429.61	2524.58
2432.767	2466.57
2435.923	2506.86
2439.079	2466.25
2442.235	2510.9
2445.391	2441.33
2448.546	2472.15
2451.701	2518.42
2454.855	2497.43
2458.009	2542.52
2461.163	2543.6
2464.317	2504.25
2467.471	2536.93
2470.624	2572.52
2473.777	2547.76
2476.929	2560.83
2480.082	2587.44
2483.234	2553.77
2486.385	2502.27
2489.537	2496.67
2492.688	2463.91
2495.839	2481.15
2498.989	2494.01
2502.14	2477.77
2505.29	2463.78
2508.439	2485.93
2511.589	2415.6
2514.738	2423.98
2517.887	2451.97
2521.035	2522.33
2524.183	2497.88
2527.331	2479
2530.479	2457.79
2533.627	2466.51
