Data from C_2_HIR_IL_4N_Splice17_12-11-54-046.txt Node
Date: Sat Mar 14 12:11:54 EDT 2020
User: sa697716
Spectrometer: FLMS03696
Trigger mode: 0
Integration Time (sec): 3.180400E-1
Scans to average: 20
Electric dark correction enabled: true
Nonlinearity correction enabled: true
Boxcar width: 5
XAxis mode: Wavelengths
Number of Pixels in Spectrum: 2048
>>>>>Begin Spectral Data<<<<<
187.83	-184785.37
188.298	1506.11
188.766	815
189.233	697.85
189.701	1034.38
190.169	1424.5
190.636	550.41
191.104	529.89
191.571	89.93
192.039	-40.69
192.506	-99.09
192.974	290.76
193.441	-436.04
193.908	-174.13
194.375	-78.02
194.842	13.13
195.31	24.04
195.777	136.73
196.244	340.99
196.711	389.24
197.177	507.88
197.644	691.51
198.111	1153.73
198.578	1668.67
199.045	1355.1
199.511	2249.47
199.978	2624.3
200.445	2283.22
200.911	2499.58
201.378	2801.71
201.844	2550.12
202.31	4352.81
202.777	4555.29
203.243	2571.59
203.709	2447.61
204.176	2941.77
204.642	2398.74
205.108	2245.84
205.574	1825.26
206.04	1676.89
206.506	1579.31
206.972	1498.2
207.438	1444.68
207.903	1638.02
208.369	1426.67
208.835	1414.88
209.301	1474.9
209.766	1508.86
210.232	1500.96
210.697	1844.83
211.163	2263.15
211.628	3361.17
212.094	2834.8
212.559	3517.58
213.024	2187.3
213.49	2691.12
213.955	2642.66
214.42	2578.82
214.885	2428.25
215.35	2320.17
215.815	2239.04
216.28	2371.46
216.745	1928.89
217.21	2069.38
217.675	1886.75
218.14	2110.21
218.604	2345.05
219.069	2667.94
219.534	2794.93
219.998	3233.56
220.463	3893.6
220.927	4778.93
221.392	4503.81
221.856	4571.03
222.32	5737.49
222.785	7066.22
223.249	8879.66
223.713	9910.39
224.177	9891.79
224.642	12644.78
225.106	15557.55
225.57	17012.42
226.034	12659.72
226.497	19251.82
226.961	17389.42
227.425	20293.36
227.889	22535.55
228.353	22552.77
228.816	46506
229.28	44474.82
229.744	37575.44
230.207	22840.27
230.671	22455.17
231.134	37083.37
231.597	42777.71
232.061	42751.25
232.524	41706.65
232.987	28743.29
233.45	25917.59
233.914	23257.85
234.377	23817.91
234.84	21809.52
235.303	25689.81
235.766	28697.56
236.229	29703.09
236.691	18723.13
237.154	21071.8
237.617	15841.75
238.08	16202.31
238.542	18950.05
239.005	13562.99
239.468	13489.78
239.93	12717.34
240.393	11562.51
240.855	10155.81
241.317	10399.37
241.78	12625.05
242.242	13045.91
242.704	14109.35
243.166	12285.48
243.629	11174.98
244.091	12857.05
244.553	14082.17
245.015	15125.82
245.477	19590.08
245.939	28747.09
246.4	30510.05
246.862	29683.69
247.324	27958.93
247.786	31258.72
248.247	40996.49
248.709	42283.83
249.17	31660.13
249.632	29857.04
250.093	34630.82
250.555	29908.68
251.016	18210.97
251.477	17295.17
251.939	18682.15
252.4	19622.26
252.861	23357.62
253.322	21706.91
253.783	25841.77
254.244	33556.46
254.705	26442.61
255.166	23514.46
255.627	23124.87
256.088	32645.08
256.549	34647.13
257.009	29847.62
257.47	36164.36
257.931	29433.77
258.391	22098.41
258.852	22774.43
259.312	23829.38
259.773	29419.2
260.233	24884.3
260.694	20998.75
261.154	23792.65
261.614	19083.27
262.074	17038.76
262.534	17702.48
262.994	16645.27
263.455	22140.06
263.915	18631.06
264.374	17532.31
264.834	19116.06
265.294	21154.6
265.754	21908.62
266.214	20731.59
266.673	19404.53
267.133	24470.93
267.593	24248.87
268.052	29692.28
268.512	25801.18
268.971	31087.22
269.431	34050.06
269.89	30491.84
270.349	45636.29
270.809	50806.3
271.268	45621.59
271.727	102156.48
272.186	66078.29
272.645	49538.43
273.104	35674.24
273.563	51583.82
274.022	40516.28
274.481	34474.29
274.94	26519.19
275.399	19700.64
275.857	22913.46
276.316	30927.01
276.775	27490.53
277.233	27055.25
277.692	25305.98
278.15	28590.86
278.609	29411.16
279.067	27193.67
279.525	25237.05
279.984	32545.21
280.442	39050.04
280.9	38493.55
281.358	25322.84
281.816	23587.52
282.274	23090.36
282.732	23831.04
283.19	23964.94
283.648	20676.93
284.106	22001.06
284.564	22363.39
285.021	20752.65
285.479	15455.94
285.937	14038.05
286.394	12333.05
286.852	12695.4
287.309	13346.24
287.767	12887.04
288.224	12246.37
288.682	13434.95
289.139	14754.86
289.596	13491.65
290.053	14020.16
290.511	17689.34
290.968	21457.72
291.425	29051.03
291.882	24185.09
292.339	21032.6
292.796	20867.99
293.252	19631.39
293.709	15576.44
294.166	13954.39
294.623	15401.19
295.079	14770.41
295.536	14825.74
295.992	13442.58
296.449	13293.86
296.905	13797.62
297.362	13219.71
297.818	13899.5
298.274	14429.67
298.731	14683.67
299.187	14515.67
299.643	15586.21
300.099	18831.02
300.555	20664.27
301.011	17262.33
301.467	16636.04
301.923	19468.71
302.379	19015.44
302.835	18660.44
303.291	18688.15
303.746	21289.25
304.202	26885.95
304.658	26958.77
305.113	18101.59
305.569	17719.71
306.024	18888.33
306.479	17983.15
306.935	15171.59
307.39	16547.71
307.845	15277.35
308.301	15360.33
308.756	14961.38
309.211	14421.07
309.666	14789.45
310.121	18395.87
310.576	18675.03
311.031	18531.26
311.486	21180.81
311.94	21135.46
312.395	28335.45
312.85	53282.31
313.305	261484.16
313.759	1352367.18
314.214	98049.21
314.668	77709.28
315.123	65471.31
315.577	23477.25
316.032	20918.63
316.486	26264.57
316.94	20738.66
317.394	14387.4
317.849	11189.31
318.303	10583.82
318.757	9997.53
319.211	11031.87
319.665	9659.34
320.119	9756.7
320.572	13985.13
321.026	13043.34
321.48	10854.88
321.934	11841.57
322.387	11880.24
322.841	12832.6
323.295	11571.76
323.748	13309.86
324.202	13514.52
324.655	16226.34
325.108	22687.42
325.562	16067.02
326.015	19103.33
326.468	14454.42
326.921	16144.02
327.374	15070.36
327.827	15689.48
328.28	17754.44
328.733	11937.58
329.186	10516.64
329.639	10025.4
330.092	8450.34
330.545	8033.73
330.997	8097.1
331.45	8852.89
331.903	10388.54
332.355	17865.86
332.808	17412.51
333.26	14352.61
333.713	15581.77
334.165	15717.69
334.617	21036.32
335.069	16984.4
335.522	30767.06
335.974	34184.66
336.426	31208.97
336.878	21578.18
337.33	10956.94
337.782	10668.14
338.234	13389.66
338.686	15979.71
339.137	18922.67
339.589	17819.13
340.041	14002.63
340.493	12031.49
340.944	12293.69
341.396	13243.12
341.847	11156.67
342.299	13181.48
342.75	16114.33
343.201	14030.16
343.653	16144.84
344.104	19798.47
344.555	15529.98
345.006	24107.42
345.457	18457.28
345.908	14648.41
346.359	13784.91
346.81	11220.92
347.261	11793.41
347.712	11589.68
348.163	12431.14
348.613	12616.17
349.064	11760.87
349.515	10297.76
349.965	10573.03
350.416	12715.82
350.866	13955.16
351.317	15754.21
351.767	26076.2
352.217	32921
352.668	27352.48
353.118	25048.91
353.568	24039.15
354.018	19033.26
354.468	20098.03
354.918	14428.26
355.368	12618.23
355.818	17804.81
356.268	51190.4
356.718	214532.7
357.168	53467.98
357.617	26767.16
358.067	29706.94
358.517	27817.17
358.966	32634.05
359.416	36707.3
359.865	39523.37
360.315	47046.89
360.764	21975.38
361.213	12319.25
361.663	11629.54
362.112	14335.62
362.561	23174.84
363.01	17511.01
363.459	14762.9
363.908	15979.76
364.357	13516.93
364.806	22847.05
365.255	15701.1
365.703	14389.37
366.152	14398.18
366.601	11681.74
367.05	9486.89
367.498	8614.76
367.947	8999.68
368.395	9342.14
368.844	8253.08
369.292	9892.01
369.74	6828.84
370.189	10449.64
370.637	12241.84
371.085	10536.95
371.533	12823.69
371.981	12326.45
372.429	11758.51
372.877	12238.85
373.325	10230.41
373.773	10389.06
374.221	9269.74
374.669	11509.29
375.116	9924.1
375.564	9974.03
376.012	11111.19
376.459	9153.47
376.907	10932.83
377.354	13159.54
377.801	12259.29
378.249	14107.39
378.696	18040.14
379.143	21856.82
379.591	23198.72
380.038	39283.66
380.485	28402.77
380.932	30718.44
381.379	28103.9
381.826	20666.34
382.273	14664.88
382.72	12787.26
383.166	12419.74
383.613	8059.13
384.06	7242.69
384.506	8372.01
384.953	6135.04
385.4	6165.91
385.846	5401.54
386.292	5234.35
386.739	5104.49
387.185	5049.01
387.631	5042.49
388.078	4917.28
388.524	5247.31
388.97	4852.01
389.416	4043.22
389.862	4285.89
390.308	4055.27
390.754	4107.84
391.2	4460.04
391.645	4552.13
392.091	4362.34
392.537	4211.87
392.983	4192.55
393.428	4141.21
393.874	4430.58
394.319	4470.25
394.765	4239.45
395.21	4344.01
395.655	4076.09
396.101	3806.63
396.546	3445.02
396.991	3459.59
397.436	3215.15
397.881	3108.43
398.326	2924.82
398.771	2769.28
399.216	2404.57
399.661	2172.58
400.106	2175.17
400.551	2230.92
400.995	2006.4
401.44	1978.05
401.885	1857.83
402.329	1875.04
402.774	1798.03
403.218	1750.92
403.663	1686.9
404.107	1736.6
404.551	1752.32
404.995	1601.86
405.44	1538.56
405.884	1561.11
406.328	1512.26
406.772	1511.45
407.216	1379.91
407.66	1335.37
408.104	1264.9
408.547	1181.35
408.991	1144.79
409.435	1097.88
409.879	1084.81
410.322	1072.76
410.766	1037.48
411.209	987.36
411.653	947.67
412.096	927.25
412.54	923.55
412.983	917.47
413.426	923.82
413.869	923.65
414.312	909.91
414.756	878.09
415.199	839.92
415.642	815.39
416.085	818.91
416.527	812.18
416.97	826.94
417.413	787.36
417.856	779.41
418.298	769.79
418.741	761.35
419.184	757.4
419.626	786.44
420.069	784.96
420.511	791.44
420.953	776.7
421.396	772.01
421.838	753.07
422.28	770.1
422.722	774.8
423.164	787
423.606	777.62
424.048	777.03
424.49	738.91
424.932	734.85
425.374	725.11
425.816	734.43
426.258	746.48
426.699	752.87
427.141	743.71
427.582	751.28
428.024	747.01
428.465	740.05
428.907	720.31
429.348	711.68
429.789	711.9
430.231	698.84
430.672	708.7
431.113	692.16
431.554	682.5
431.995	663.81
432.436	641.86
432.877	627.64
433.318	617.95
433.759	617.47
434.2	617.98
434.64	611.5
435.081	610.32
435.522	579.14
435.962	558.59
436.403	548.36
436.843	556.44
437.284	547.24
437.724	531.49
438.164	532.61
438.604	519.79
439.045	500.77
439.485	483.85
439.925	474.55
440.365	462.16
440.805	457.62
441.245	451.57
441.685	435.11
442.125	429.31
442.564	431.82
443.004	422.52
443.444	422.02
443.883	423.09
444.323	417.97
444.762	416.33
445.202	421.67
445.641	429.37
446.081	427.63
446.52	432.74
446.959	430.93
447.398	422.87
447.837	418.75
448.276	412.81
448.716	419.52
449.154	423.31
449.593	416.56
450.032	417.59
450.471	410.31
450.91	409.31
451.349	408.77
451.787	407.14
452.226	412.39
452.664	412.46
453.103	411.95
453.541	408.72
453.98	409.2
454.418	411.18
454.856	405.6
455.295	403.9
455.733	408.12
456.171	409.56
456.609	410.67
457.047	412.48
457.485	419.56
457.923	422.06
458.361	417.84
458.798	418.67
459.236	417.32
459.674	419.04
460.111	421.79
460.549	418.48
460.987	417.11
461.424	415.74
461.862	412.44
462.299	406.15
462.736	405.37
463.173	406.96
463.611	405.55
464.048	405.78
464.485	410.02
464.922	406.51
465.359	404.06
465.796	403.93
466.233	401.72
466.67	399.99
467.106	399.54
467.543	395.32
467.98	389.14
468.416	377.41
468.853	374.3
469.29	362.71
469.726	358.43
470.162	348.27
470.599	340.18
471.035	335.92
471.471	326.63
471.907	323.56
472.344	321.56
472.78	322.67
473.216	326.09
473.652	322.08
474.088	320.4
474.523	320
474.959	323.29
475.395	319.47
475.831	317.47
476.266	318.91
476.702	317.71
477.138	314.42
477.573	312.94
478.008	310.93
478.444	312.12
478.879	316.13
479.314	317.55
479.75	317.54
480.185	318.25
480.62	321.11
481.055	322.63
481.49	326.24
481.925	330.27
482.36	337.71
482.795	347.47
483.229	356.56
483.664	363.98
484.099	364.76
484.534	370.91
484.968	375.85
485.403	376.5
485.837	375.6
486.271	374.91
486.706	376.6
487.14	371.72
487.574	366.3
488.009	364.83
488.443	362.39
488.877	367.43
489.311	369.05
489.745	374.64
490.179	380.35
490.613	390.17
491.046	394.51
491.48	399
491.914	401.49
492.348	406.86
492.781	410.88
493.215	414.07
493.648	416.92
494.082	422.8
494.515	425.76
494.948	433.02
495.382	437.93
495.815	443.42
496.248	450.14
496.681	461.76
497.114	471.74
497.547	482.34
497.98	494.4
498.413	503.21
498.846	513.82
499.279	523.73
499.711	530.59
500.144	537.39
500.577	549.91
501.009	562.79
501.442	575.28
501.874	582.84
502.306	589.33
502.739	602.18
503.171	618.76
503.603	627.06
504.036	639.82
504.468	650.67
504.9	665.2
505.332	676.43
505.764	685.51
506.196	696.49
506.627	713.87
507.059	731.07
507.491	743.46
507.923	748.38
508.354	767.64
508.786	783.83
509.217	805.91
509.649	825.59
510.08	848.4
510.512	869.41
510.943	889.71
511.374	905.79
511.805	929.9
512.237	952.91
512.668	986.98
513.099	1016.83
513.53	1045.78
513.961	1069
514.391	1102.74
514.822	1138.41
515.253	1176.7
515.684	1205.24
516.114	1238.03
516.545	1262.72
516.975	1291.87
517.406	1313.89
517.836	1321.75
518.267	1333
518.697	1355.17
519.127	1363.5
519.558	1374.51
519.988	1381.79
520.418	1395.22
520.848	1416.18
521.278	1427.87
521.708	1448.54
522.138	1464.22
522.567	1496.32
522.997	1524.79
523.427	1542.22
523.857	1561.4
524.286	1573.02
524.716	1588.81
525.145	1609.34
525.575	1621.68
526.004	1638.18
526.433	1633.87
526.863	1635.25
527.292	1627.13
527.721	1631.54
528.15	1638.41
528.579	1640.28
529.008	1652.68
529.437	1676.53
529.866	1690.32
530.295	1707.24
530.724	1720.36
531.152	1747.82
531.581	1762.37
532.01	1780.5
532.438	1790.76
532.867	1806.55
533.295	1825.71
533.723	1832.15
534.152	1831.33
534.58	1831.35
535.008	1816.49
535.436	1818.95
535.865	1826.76
536.293	1842.36
536.721	1858.74
537.149	1884.42
537.576	1886.89
538.004	1899.67
538.432	1908.03
538.86	1906.58
539.287	1914.85
539.715	1929.5
540.143	1932.42
540.57	1929.5
540.998	1925.26
541.425	1901.98
541.852	1881.58
542.28	1879.56
542.707	1862.88
543.134	1849.99
543.561	1846.03
543.988	1839.03
544.415	1838.23
544.842	1832.13
545.269	1823.97
545.696	1824.5
546.123	1838.22
546.549	1828.16
546.976	1815.19
547.403	1814.35
547.829	1815.43
548.256	1816.69
548.682	1812.2
549.108	1804.41
549.535	1804.12
549.961	1806.67
550.387	1793.96
550.813	1787.32
551.24	1793.34
551.666	1794.8
552.092	1785.43
552.518	1778.12
552.943	1772.17
553.369	1779.2
553.795	1784.84
554.221	1785.28
554.646	1781.58
555.072	1792.82
555.498	1797.8
555.923	1805.58
556.349	1821.33
556.774	1830.16
557.199	1831.79
557.625	1837.1
558.05	1831.34
558.475	1840.54
558.9	1838.67
559.325	1829.85
559.75	1823.63
560.175	1816.65
560.6	1810.02
561.025	1807.22
561.449	1807.17
561.874	1811.99
562.299	1816.07
562.723	1821.99
563.148	1812.71
563.572	1817.12
563.997	1827.23
564.421	1831.68
564.846	1831.35
565.27	1833.45
565.694	1829.23
566.118	1839.51
566.542	1846.6
566.966	1839.24
567.39	1833.83
567.814	1821.21
568.238	1819.98
568.662	1823.59
569.086	1825.13
569.509	1832.01
569.933	1816.96
570.357	1808.54
570.78	1787.84
571.204	1773.66
571.627	1762.72
572.05	1760.73
572.474	1759.11
572.897	1745.14
573.32	1736.09
573.743	1725.65
574.166	1706.88
574.589	1706.74
575.012	1697.72
575.435	1695.77
575.858	1686.49
576.281	1674.67
576.704	1657.62
577.126	1645.67
577.549	1633.5
577.972	1623.58
578.394	1612.28
578.817	1603.68
579.239	1584.2
579.661	1571.29
580.084	1554.79
580.506	1539.46
580.928	1535.28
581.35	1523.42
581.772	1517.5
582.194	1503.45
582.616	1489.57
583.038	1473.61
583.46	1462.89
583.882	1457.2
584.303	1459.39
584.725	1453.68
585.147	1455.06
585.568	1463.1
585.99	1474.41
586.411	1479.15
586.833	1493.47
587.254	1494.01
587.675	1507.35
588.096	1518.32
588.518	1513.38
588.939	1496.79
589.36	1493.27
589.781	1483.16
590.202	1455.56
590.623	1446.27
591.043	1443.02
591.464	1429.05
591.885	1425.31
592.305	1419.72
592.726	1406.14
593.147	1406.95
593.567	1402.72
593.987	1395.32
594.408	1388.64
594.828	1385.31
595.248	1379.26
595.669	1361.56
596.089	1354.48
596.509	1346.52
596.929	1333.27
597.349	1332.94
597.769	1322.44
598.189	1315.11
598.608	1315.85
599.028	1317.85
599.448	1318.02
599.867	1305.21
600.287	1301.1
600.706	1296.64
601.126	1287.93
601.545	1285.7
601.965	1283.9
602.384	1277.92
602.803	1279.8
603.222	1273.79
603.641	1267.05
604.061	1261.92
604.48	1256.97
604.898	1263.97
605.317	1267.52
605.736	1268.64
606.155	1265.5
606.574	1255.93
606.992	1260.79
607.411	1255.1
607.829	1247.66
608.248	1243.62
608.666	1241.13
609.085	1240.46
609.503	1230.67
609.921	1224.32
610.339	1225.59
610.758	1223.34
611.176	1217.14
611.594	1207.17
612.012	1203.66
612.43	1205.31
612.847	1209.31
613.265	1208.83
613.683	1210.73
614.101	1210.88
614.518	1205.13
614.936	1192.83
615.353	1177.63
615.771	1174.06
616.188	1172.02
616.606	1166.26
617.023	1158.33
617.44	1144.33
617.857	1137.23
618.274	1128.87
618.691	1121.46
619.108	1111.85
619.525	1106.46
619.942	1111.67
620.359	1112.54
620.776	1108.31
621.192	1104.69
621.609	1101.83
622.026	1106.35
622.442	1109.53
622.859	1111.01
623.275	1104.38
623.691	1108.32
624.108	1116.93
624.524	1127.83
624.94	1128.21
625.356	1136.02
625.772	1146.46
626.188	1156.65
626.604	1158.35
627.02	1155.03
627.436	1152.99
627.852	1159.14
628.268	1170.28
628.683	1162.65
629.099	1156.25
629.514	1151.31
629.93	1153.96
630.345	1156.82
630.761	1153.02
631.176	1155.22
631.591	1149.26
632.007	1143.31
632.422	1140.49
632.837	1129.19
633.252	1124.81
633.667	1112.81
634.082	1103.41
634.497	1090.11
634.911	1071.63
635.326	1064.88
635.741	1047.49
636.155	1036
636.57	1034.01
636.984	1029.34
637.399	1027.6
637.813	1024.5
638.228	1020.84
638.642	1019.37
639.056	1006.56
639.47	1001.89
639.884	991.26
640.298	981.25
640.712	975.66
641.126	959.46
641.54	948.93
641.954	939.6
642.368	925.38
642.781	914.28
643.195	896.24
643.609	892.17
644.022	882.66
644.436	874.64
644.849	860.36
645.262	846.2
645.676	843.8
646.089	834.92
646.502	820.06
646.915	810.79
647.328	794.37
647.741	788.68
648.154	775.12
648.567	770.92
648.98	758.06
649.393	755.3
649.805	751.09
650.218	743.3
650.631	729.93
651.043	722.66
651.456	716.71
651.868	715.61
652.28	725.64
652.693	733.97
653.105	736.08
653.517	740.96
653.929	738.92
654.341	739.87
654.753	730
655.165	732.38
655.577	727.76
655.989	721.44
656.401	711.6
656.813	684.63
657.224	667.45
657.636	644.23
658.047	628.34
658.459	611.43
658.87	600.64
659.282	587.41
659.693	569.26
660.104	556.35
660.515	543.74
660.926	537.81
661.338	531.14
661.749	521.79
662.159	511.66
662.57	504.37
662.981	497.77
663.392	489.62
663.803	488.21
664.213	483.28
664.624	475.55
665.035	473.16
665.445	462.39
665.855	454.92
666.266	447.94
666.676	444.01
667.086	436.1
667.497	434.21
667.907	429.22
668.317	422.11
668.727	419.05
669.137	417.79
669.547	415.28
669.956	414.81
670.366	414.58
670.776	414.57
671.186	414.88
671.595	416.61
672.005	417.02
672.414	416.22
672.824	415.99
673.233	417.55
673.642	419.07
674.052	421.58
674.461	424.73
674.87	428.78
675.279	429.92
675.688	431.1
676.097	433.72
676.506	432.8
676.915	441.41
677.323	443.42
677.732	443.64
678.141	444.86
678.549	440.45
678.958	441.53
679.366	441.75
679.775	445.23
680.183	455.87
680.592	460.77
681	467.76
681.408	468.2
681.816	476.46
682.224	485.38
682.632	497.54
683.04	520.59
683.448	541
683.856	567.51
684.264	596.84
684.671	624.01
685.079	658.91
685.487	698.44
685.894	750.15
686.302	797.15
686.709	839.38
687.116	887.01
687.524	931.24
687.931	972.31
688.338	1009.7
688.745	1042.91
689.152	1082.83
689.559	1131.41
689.966	1180.5
690.373	1213.01
690.78	1261.03
691.187	1326.56
691.593	1380.24
692	1428.89
692.407	1494.31
692.813	1572.36
693.22	1638.74
693.626	1704.78
694.032	1760.11
694.439	1837.84
694.845	1899.96
695.251	1976.15
695.657	2044.64
696.063	2144.36
696.469	2220.36
696.875	2290.67
697.281	2332.35
697.687	2383.6
698.093	2427.11
698.498	2503.5
698.904	2562.42
699.31	2651.63
699.715	2716.09
700.12	2808.65
700.526	2830.36
700.931	2899.63
701.337	2952.57
701.742	2988.76
702.147	3072.87
702.552	3102.9
702.957	3162.53
703.362	3182.59
703.767	3210.57
704.172	3250.44
704.577	3205.58
704.981	3250.24
705.386	3267.21
705.791	3260.83
706.195	3331.88
706.6	3339.55
707.004	3417.42
707.408	3387.56
707.813	3417.71
708.217	3407.1
708.621	3408.08
709.025	3501.71
709.43	3504.03
709.834	3561.73
710.237	3628.84
710.641	3614.75
711.045	3635.64
711.449	3630.19
711.853	3656.45
712.256	3694.35
712.66	3729.59
713.064	3802.2
713.467	3843.03
713.87	3950.28
714.274	3993.95
714.677	4100.61
715.08	4258.24
715.484	4421.06
715.887	4617.95
716.29	4811.76
716.693	5014.14
717.096	5247.44
717.499	5372.19
717.901	5396.71
718.304	5422.59
718.707	5448.32
719.109	5347.06
719.512	5315.08
719.915	5182.28
720.317	5126.77
720.719	5168.29
721.122	5137.67
721.524	5087.96
721.926	5048.7
722.328	5146.27
722.731	5137.72
723.133	5162.8
723.535	5348.99
723.937	5368.28
724.338	5420.99
724.74	5459.19
725.142	5395.19
725.544	5392.83
725.945	5418.78
726.347	5417.84
726.748	5407.16
727.15	5418.91
727.551	5380.8
727.952	5351.38
728.354	5321.7
728.755	5320.39
729.156	5278.25
729.557	5265.17
729.958	5147.97
730.359	5093.44
730.76	5071.56
731.161	5013.11
731.562	4989.4
731.962	4991.63
732.363	4931.4
732.763	4870.57
733.164	4905.73
733.564	4841.18
733.965	4750.44
734.365	4716.05
734.766	4739.92
735.166	4702.28
735.566	4649.87
735.966	4623.19
736.366	4619.92
736.766	4560.6
737.166	4591.07
737.566	4548.94
737.966	4524.41
738.365	4563.33
738.765	4557.54
739.165	4485.65
739.564	4462.09
739.964	4504
740.363	4459.63
740.763	4455.46
741.162	4442.03
741.561	4408.87
741.96	4364.82
742.36	4383.86
742.759	4386.79
743.158	4421.94
743.557	4437.73
743.955	4474.07
744.354	4430.37
744.753	4484.54
745.152	4443.67
745.55	4496.26
745.949	4490.89
746.348	4490.73
746.746	4502.3
747.144	4465.45
747.543	4445.06
747.941	4488.76
748.339	4421.04
748.737	4413.38
749.136	4405.36
749.534	4466.26
749.932	4439.93
750.33	4461.68
750.727	4516.52
751.125	4496.94
751.523	4482.24
751.921	4523.91
752.318	4492.13
752.716	4548.15
753.113	4561.48
753.511	4586.94
753.908	4588.95
754.305	4574.4
754.703	4633.89
755.1	4691.3
755.497	4747.1
755.894	4927.86
756.291	5096.64
756.688	5413.86
757.085	5832.25
757.482	6421.34
757.878	7060.49
758.275	7643
758.672	8440.42
759.068	9092.62
759.465	10018.47
759.861	11217.06
760.258	12597.05
760.654	13312.61
761.05	13199.55
761.447	12598.65
761.843	11725.21
762.239	10825.06
762.635	10418.51
763.031	10028.49
763.427	9464.4
763.822	8872.67
764.218	8286.86
764.614	7533.66
765.01	7027.17
765.405	6697.06
765.801	6441.38
766.196	6124.37
766.592	5945.27
766.987	5644.59
767.382	5440.44
767.778	5354.63
768.173	5231.26
768.568	5161.61
768.963	5042.01
769.358	5056.67
769.753	5013.03
770.148	4936.07
770.542	4933.63
770.937	4903.11
771.332	4987.4
771.726	5006.26
772.121	4943.23
772.515	4992.88
772.91	4979.48
773.304	5045.18
773.699	4983.74
774.093	5033.7
774.487	5084.83
774.881	5126.29
775.275	5123.93
775.669	5084.41
776.063	5125.07
776.457	5160.99
776.851	5091.49
777.245	5083.09
777.638	5113.72
778.032	5221.65
778.425	5185.15
778.819	5224.89
779.212	5184.31
779.606	5145.61
779.999	5163.72
780.392	5151.4
780.786	5229.86
781.179	5252.23
781.572	5293.75
781.965	5307.26
782.358	5254.41
782.751	5308.13
783.143	5264.11
783.536	5334.91
783.929	5374.71
784.322	5482.77
784.714	5508.1
785.107	5506.38
785.499	5569.62
785.891	5548.33
786.284	5530.97
786.676	5662.59
787.068	5646.08
787.46	5693.7
787.852	5710.96
788.245	5792.82
788.636	5819.39
789.028	5880.32
789.42	5913.63
789.812	5924.87
790.204	6018.17
790.595	6115.48
790.987	5932.16
791.378	5953.03
791.77	6076.9
792.161	6204.42
792.553	6259.59
792.944	6158.17
793.335	6097.08
793.726	6167
794.117	6253.2
794.508	6381.92
794.899	6347.31
795.29	6480.42
795.681	6535.37
796.072	6396.69
796.463	6225.31
796.853	6232.74
797.244	6379.59
797.634	6414.72
798.025	6413.86
798.415	6422.94
798.806	6505.22
799.196	6586.42
799.586	6632.67
799.976	6599.42
800.366	6822.2
800.756	7046.88
801.146	7011.84
801.536	7039.68
801.926	7105.43
802.316	7127.63
802.706	7194.07
803.095	7079.29
803.485	7175.1
803.874	7211.08
804.264	7453.34
804.653	7424.77
805.043	7559.02
805.432	7656.29
805.821	7653.65
806.21	7673.4
806.599	7780.23
806.988	7826.89
807.377	7922.83
807.766	8042.52
808.155	8309.65
808.544	8059.88
808.933	8073.43
809.321	8053.68
809.71	8330.89
810.098	8477.93
810.487	8905.32
810.875	9358.78
811.264	9374.39
811.652	9648.71
812.04	9783.67
812.428	9938.61
812.816	10648.95
813.204	11033.89
813.592	11549.51
813.98	11862.13
814.368	11769.32
814.756	12219.68
815.144	12145.31
815.531	12579.27
815.919	12498.31
816.306	12786.85
816.694	12494.42
817.081	12549.55
817.469	12879.23
817.856	12870.71
818.243	13117.08
818.63	13491.32
819.017	13098.95
819.404	13151.83
819.791	13511.42
820.178	14093.92
820.565	14326.52
820.952	15199.15
821.339	14738.25
821.725	14911.72
822.112	14229.36
822.498	14196.58
822.885	14318.35
823.271	14235.27
823.657	14636.29
824.044	14642.47
824.43	14716.39
824.816	14693.54
825.202	14292.25
825.588	15250.19
825.974	15272.33
826.36	15752.61
826.746	15780.79
827.132	16123.17
827.517	16096.6
827.903	15357.93
828.289	15394.73
828.674	14661.67
829.06	14562.01
829.445	14923.62
829.83	15260.53
830.216	15705.26
830.601	16048.46
830.986	15674.72
831.371	15546.79
831.756	16073.08
832.141	15675.25
832.526	15673.41
832.911	15946.19
833.295	15840.05
833.68	16292.35
834.065	15704.91
834.449	14849.3
834.834	14782.37
835.218	14781.91
835.603	15102.83
835.987	14903.86
836.371	15683.99
836.755	15586.54
837.139	15961.62
837.524	16195.73
837.908	16025.2
838.291	16086.68
838.675	16153.5
839.059	16350.55
839.443	16339.58
839.827	16120.18
840.21	16569.48
840.594	16427.91
840.977	16619.53
841.361	16598.28
841.744	16939.98
842.127	16793.5
842.511	17022.93
842.894	17581.16
843.277	17935.84
843.66	18445.63
844.043	18521.44
844.426	17763.39
844.809	17470.04
845.191	17499.6
845.574	17061.12
845.957	16721.72
846.339	16624.44
846.722	16129.35
847.104	16185.18
847.487	16025.7
847.869	16036.21
848.252	16302.09
848.634	16621.68
849.016	16874.34
849.398	16994.07
849.78	17803.69
850.162	17800.9
850.544	18198.1
850.926	18793.72
851.307	18715.58
851.689	18975.28
852.071	19398.62
852.452	19700.91
852.834	19681.76
853.215	20058.74
853.597	20193.74
853.978	20460.97
854.359	20897.61
854.741	19947.12
855.122	19851.46
855.503	19576.05
855.884	19702.05
856.265	19643.33
856.646	19744.33
857.026	19365.94
857.407	19300.24
857.788	19448.91
858.169	19719.48
858.549	18914.77
858.93	19504.71
859.31	19546.55
859.69	19736.88
860.071	19360.84
860.451	19151.72
860.831	18463.8
861.211	19551.55
861.591	20061.23
861.971	20037
862.351	20214.29
862.731	20577.99
863.111	20824.73
863.491	21129.65
863.87	21963.08
864.25	22290.74
864.629	21923.3
865.009	22400.15
865.388	23198.86
865.768	24865.39
866.147	24780.12
866.526	23406.55
866.905	23696.33
867.284	25019.26
867.663	23759.99
868.042	22770.78
868.421	22689.12
868.8	23073.27
869.179	23308.9
869.558	21944.89
869.936	20229.92
870.315	20582.39
870.693	21091.58
871.072	22747.29
871.45	21675.86
871.828	21960.83
872.207	23084.43
872.585	22746.93
872.963	23355.78
873.341	22548.85
873.719	22291.34
874.097	22025.84
874.475	22443.2
874.853	22959.9
875.23	22003.04
875.608	22916.74
875.986	24794
876.363	23714.11
876.741	24427.88
877.118	23822.52
877.495	24992.19
877.873	25397.7
878.25	26725.23
878.627	25635.94
879.004	25985.85
879.381	25854.83
879.758	25183.95
880.135	23425.15
880.512	24773.23
880.889	24109.83
881.265	23850.42
881.642	23648.81
882.019	24059.34
882.395	23567.98
882.772	24509.37
883.148	23447.96
883.524	23352.88
883.901	23221.79
884.277	23580.55
884.653	23427.94
885.029	24101.58
885.405	26699.5
885.781	26492.94
886.157	25392.03
886.532	25692.46
886.908	25682.69
887.284	28551.81
887.659	29486.86
888.035	30398.07
888.411	31166.71
888.786	31568.43
889.161	32671.55
889.537	32067.11
889.912	33089.58
890.287	33054.1
890.662	33914.79
891.037	33288.07
891.412	31042.19
891.787	30738.47
892.162	29658.57
892.536	30358.07
892.911	29211.44
893.286	28580.6
893.66	27413.15
894.035	28121.76
894.409	30617.8
894.784	29372.24
895.158	29856.74
895.532	31634.4
895.906	32475.67
896.281	33241.64
896.655	32706.58
897.029	37375.42
897.402	38948.66
897.776	43374.24
898.15	43198.9
898.524	42731.97
898.898	43310.15
899.271	48495.15
899.645	41985.92
900.018	40341.5
900.392	41836.79
900.765	42184.33
901.138	39050.21
901.511	38447.22
901.884	35283.44
902.258	32542.33
902.631	33630.69
903.003	38714.76
903.376	34907.15
903.749	39149.56
904.122	41899.47
904.495	46099.27
904.867	46679.28
905.24	40504.97
905.612	37700.04
905.985	38567.57
906.357	40323.81
906.729	38494.86
907.102	32861.15
907.474	31626.61
907.846	31829.28
908.218	31426.12
908.59	27772.52
908.962	26860.66
909.334	28944.65
909.705	30403.8
910.077	29521.28
910.449	30746.83
910.82	31606.29
911.192	34777.92
911.563	36114.57
911.935	38645.62
912.306	38677.76
912.677	39946.58
913.048	39551.33
913.419	42893.66
913.79	43106.56
914.161	46220.67
914.532	44159.56
914.903	40556.11
915.274	38530.97
915.645	37991.1
916.015	33445.58
916.386	31902.08
916.756	33952.88
917.127	35023.69
917.497	31289.39
917.868	34081.45
918.238	32362.79
918.608	33303.47
918.978	34005.99
919.348	36002.85
919.718	37196.1
920.088	35791.52
920.458	37157.75
920.828	39107.47
921.198	37060.89
921.567	39602.2
921.937	30669.26
922.306	30980.5
922.676	33388.44
923.045	27865.84
923.415	26470.7
923.784	24116.24
924.153	24796.45
924.522	24771.87
924.891	23294.16
925.26	24949.01
925.629	24362.08
925.998	28014.86
926.367	27347.06
926.736	26040.62
927.104	30989.92
927.473	33322.3
927.842	40213.45
928.21	39849.93
928.578	41898.68
928.947	39613.79
929.315	39855.2
929.683	46702.08
930.051	47055.86
930.42	54639.66
930.788	46713.66
931.156	46361.35
931.523	43453.69
931.891	40159.19
932.259	38567.23
932.627	44699.69
932.994	63236.87
933.362	52247.49
933.729	45373.59
934.097	43397.57
934.464	36720.43
934.831	42363.21
935.199	41768.16
935.566	40498.97
935.933	40988.35
936.3	49603.65
936.667	38586.71
937.034	34775.36
937.401	34412.75
937.767	29711.12
938.134	26474
938.501	37329.56
938.867	39769.88
939.234	67228.08
939.6	57361.83
939.967	63285.72
940.333	42377.74
940.699	36093.65
941.065	28973.67
941.431	37968.78
941.798	36627.69
942.163	48073.64
942.529	30015.63
942.895	27635.8
943.261	17887.53
943.627	23459.14
943.992	20555.2
944.358	20583.22
944.723	20674.51
945.089	20170.08
945.454	18642.52
945.82	19887.52
946.185	19128.42
946.55	22163.34
946.915	19888.73
947.28	23297.14
947.645	20513.9
948.01	18915.99
948.375	19725.58
948.74	23597.83
949.104	27521.89
949.469	39783.3
949.834	70255.69
950.198	66557.52
950.562	39912.23
950.927	33258.27
951.291	40069.2
951.655	34154.25
952.02	32115.76
952.384	24306.68
952.748	21169.75
953.112	20632
953.476	17939.94
953.839	16598.44
954.203	16429.36
954.567	20541.34
954.931	32362.74
955.294	27665.43
955.658	27788.37
956.021	47182.1
956.385	79937.46
956.748	118028.66
957.111	183144.37
957.474	205747.14
957.837	231814.73
958.2	175317.35
958.563	63067.56
958.926	42668.23
959.289	64754.42
959.652	72350.05
960.015	54331.33
960.377	77985.98
960.74	89050.6
961.102	153801.52
961.465	164905.39
961.827	88323.79
962.189	169603.01
962.552	117733.88
962.914	94369.13
963.276	61223.53
963.638	50646.8
964	50100.84
964.362	33878.45
964.724	32731.53
965.085	23324.59
965.447	19123.26
965.809	21774.98
966.17	21819.67
966.532	23578.91
966.893	21638.64
967.255	19712.24
967.616	23250.67
967.977	18642.12
968.338	20370.16
968.699	16749.7
969.061	16768.62
969.421	16868.26
969.782	18930.72
970.143	15968.3
970.504	16532.11
970.865	18770.59
971.225	19168.84
971.586	18772.34
971.946	26768.04
972.307	23198.59
972.667	30291.36
973.027	31175.25
973.388	37785.03
973.748	25717.83
974.108	28048.07
974.468	37977.8
974.828	29318.67
975.188	22561.31
975.548	20731.65
975.907	17386.87
976.267	19522.51
976.627	16414.14
976.986	17031.31
977.346	16255.35
977.705	15641.7
978.064	14226.84
978.424	11838.54
978.783	12234.04
979.142	13988.12
979.501	13358.21
979.86	14122.6
980.219	13608.75
980.578	17545.51
980.937	19634.04
981.296	17510.65
981.654	18018.35
982.013	28031.89
982.371	36367.79
982.73	33938.77
983.088	38397.3
983.447	41045.66
983.805	58715.72
984.163	122731.44
984.521	136274.91
984.879	199805.94
985.237	-324719.5
985.595	312672.27
985.953	77695.96
986.311	44857.78
986.669	26056.2
987.026	22491.38
987.384	30274.37
987.741	31305.37
988.099	22350.44
988.456	17809.49
988.814	16650.35
989.171	14480.79
989.528	14292.2
989.885	15099.64
990.242	11975.24
990.599	14920.65
990.956	12190.23
991.313	8519.97
991.67	6982.48
992.027	7403.18
992.383	6571.31
992.74	5768.48
993.096	6040.57
993.453	6256.3
993.809	6481.38
994.165	8619.81
994.522	7887.61
994.878	8696.32
995.234	10905.83
995.59	10758.19
995.946	10182.45
996.302	11644.58
996.658	13457.77
997.013	14841.01
997.369	17638.77
997.725	22551.73
998.08	14619.03
998.436	22534.35
998.791	31070.72
999.147	31008.61
999.502	33809.82
999.857	24589.76
1000.212	40032.29
1000.567	56986.89
1000.922	32905.9
1001.277	20864.66
1001.632	15502.64
1001.987	19979.19
1002.342	14347.26
1002.696	11466.79
1003.051	9167.3
1003.406	11113.71
1003.76	11069.42
1004.114	10894.04
1004.469	9159.66
1004.823	7580.32
1005.177	8191.44
1005.531	6485.71
1005.885	5736.17
1006.239	6471.43
1006.593	8154.57
1006.947	10903.5
1007.301	8175.11
1007.655	8899.75
1008.008	6547.57
1008.362	7359.8
1008.715	10519.19
1009.069	9537.56
1009.422	14376.7
1009.776	28932.46
1010.129	19236.89
1010.482	16010.12
1010.835	13541.84
1011.188	28198.37
1011.541	26511.08
1011.894	-162131.13
1012.247	475743.76
1012.6	32308.06
1012.952	20378.54
1013.305	10488.85
1013.657	7566.74
1014.01	7148.67
1014.362	5885.39
1014.715	5216.81
1015.067	4539.65
1015.419	4435.33
1015.771	3921.3
1016.123	3490.54
1016.475	3586.89
1016.827	3830.5
1017.179	4120.53
1017.531	4134.1
1017.883	4228.17
1018.234	4091.8
1018.586	5171.62
1018.938	5470.11
1019.289	7577.03
1019.64	8680.22
1019.992	8106.8
1020.343	7409.35
1020.694	5854.44
1021.045	5177.22
1021.396	5917.06
1021.747	6323.85
1022.098	7594.75
1022.449	5523.81
1022.8	5160.87
1023.151	3588.23
1023.501	3179.38
1023.852	3462.88
1024.202	3604.55
1024.553	3954.39
1024.903	3866.06
1025.253	3301.86
1025.604	2973.53
1025.954	3680.29
1026.304	4466.96
1026.654	5192.32
1027.004	7594.61
1027.354	12279.19
1027.703	11490.38
1028.053	15030.93
1028.403	22058.24
1028.753	31882.35
1029.102	43573.24
1029.452	225226.44
1029.801	9767.99
1030.15	6321.13
1030.499	5349.3
897.758	2352.99
901.051	2295.57
904.343	2330.79
907.636	2336.22
910.928	2397.62
914.22	2312.31
917.511	2318.75
920.803	2373.88
924.094	2379.88
927.384	2371.73
930.675	2338.66
933.965	2298.57
937.255	2321.26
940.544	2282.79
943.834	2268.28
947.123	2204.78
950.411	2298.18
953.7	2275.7
956.988	2252.63
960.276	2192.4
963.563	2253.96
966.851	2257.51
970.138	2305
973.424	2302.33
976.711	2261.98
979.997	2332.88
983.283	2378.56
986.568	2299.72
989.853	2300.52
993.138	2327.94
996.423	2412.89
999.708	2360.31
1002.992	2396.89
1006.275	2288.02
1009.559	2303.66
1012.842	2405.62
1016.125	2350.96
1019.408	2329.75
1022.69	2397.66
1025.972	2424.21
1029.254	2399.29
1032.536	2347.98
1035.817	2366.41
1039.098	2332.33
1042.379	2413.09
1045.659	2434.27
1048.939	2376.26
1052.219	2388.33
1055.498	2393.62
1058.778	2383.61
1062.057	2363.58
1065.335	2386.6
1068.614	2400.48
1071.892	2391.59
1075.17	2453.33
1078.447	2449.25
1081.724	2444.73
1085.001	2475.72
1088.278	2452.74
1091.554	2458.18
1094.83	2455.18
1098.106	2487.27
1101.382	2521.75
1104.657	2523.74
1107.932	2519.76
1111.206	2493.47
1114.481	2450.05
1117.755	2448.37
1121.029	2435.25
1124.302	2491.22
1127.575	2453.91
1130.848	2446.91
1134.121	2413.44
1137.393	2371.5
1140.665	2432.86
1143.937	2410.68
1147.208	2365.13
1150.48	2415.8
1153.75	2404.01
1157.021	2419.77
1160.291	2394.54
1163.561	2442.09
1166.831	2420.53
1170.101	2448.52
1173.37	2417.7
1176.639	2367.88
1179.907	2420.18
1183.176	2434.16
1186.444	2436.71
1189.711	2465.05
1192.979	2481.02
1196.246	2436.14
1199.513	2450.94
1202.78	2453.05
1206.046	2463.59
1209.312	2485.07
1212.578	2507.89
1215.843	2466.88
1219.108	2437.56
1222.373	2463.16
1225.638	2430.32
1228.902	2421.12
1232.166	2383.08
1235.43	2370.52
1238.693	2389.99
1241.956	2383.87
1245.219	2430.71
1248.482	2413.98
1251.744	2411.19
1255.006	2544.21
1258.268	2493.04
1261.529	2445.44
1264.79	2447.05
1268.051	2547.05
1271.312	2556.32
1274.572	2529.35
1277.832	2514.81
1281.092	2501.9
1284.351	2486.77
1287.61	2468.97
1290.869	2398.48
1294.128	2388.69
1297.386	2454.51
1300.644	2442.8
1303.902	2454.29
1307.159	2322.26
1310.416	2372.52
1313.673	2400.86
1316.93	2393.2
1320.186	2428.31
1323.442	2465.56
1326.697	2459.44
1329.953	2441.04
1333.208	2467.45
1336.463	2448.81
1339.717	2399.2
1342.972	2514.01
1346.226	2489.67
1349.479	2434.37
1352.733	2407.69
1355.986	2422.21
1359.238	2402.43
1362.491	2407.38
1365.743	2408.38
1368.995	2400.11
1372.247	2414.74
1375.498	2435.87
1378.749	2464.26
1382	2419.55
1385.251	2463.52
1388.501	2420.18
1391.751	2412.82
1395	2382.2
1398.25	2409.99
1401.499	2424.19
1404.748	2369.45
1407.996	2350.42
1411.244	2339
1414.492	2323.97
1417.74	2304.84
1420.987	2308.65
1424.234	2366.37
1427.481	2339.83
1430.728	2393.58
1433.974	2368.64
1437.22	2373.76
1440.465	2371.75
1443.711	2354.97
1446.956	2382.57
1450.201	2361.8
1453.445	2403.98
1456.689	2387.25
1459.933	2400.17
1463.177	2433.71
1466.42	2409.16
1469.663	2390.39
1472.906	2396.76
1476.148	2450.47
1479.391	2442.96
1482.633	2414.38
1485.874	2432.72
1489.115	2429.47
1492.356	2425.27
1495.597	2404.19
1498.838	2400.14
1502.078	2378.3
1505.318	2343.01
1508.557	2379.69
1511.797	2372.72
1515.036	2401
1518.274	2384.77
1521.513	2349.18
1524.751	2364.19
1527.989	2381.45
1531.227	2395.87
1534.464	2401.44
1537.701	2406.64
1540.938	2421.45
1544.174	2374.16
1547.41	2367.04
1550.646	2405.84
1553.882	2448.71
1557.117	2500.99
1560.352	2513.63
1563.587	2475.29
1566.821	2440.5
1570.055	2463.27
1573.289	2439.25
1576.523	2504.83
1579.756	2515.79
1582.989	2536.24
1586.222	2497.42
1589.454	2528.78
1592.686	2509.9
1595.918	2536.84
1599.15	2529.4
1602.381	2585.96
1605.612	2557.97
1608.843	2653.53
1612.073	2572.32
1615.303	2556.6
1618.533	2551.32
1621.762	2553.43
1624.992	2533.58
1628.221	2529.28
1631.449	2514.91
1634.678	2552.6
1637.906	2516.88
1641.134	2547.57
1644.361	2509.42
1647.588	2497.73
1650.815	2517.89
1654.042	2488.66
1657.269	2516.06
1660.495	2484.76
1663.72	2487.15
1666.946	2455.38
1670.171	2419.15
1673.396	2391.21
1676.621	2374.64
1679.845	2382.54
1683.069	2396.08
1686.293	2430.09
1689.517	2414.38
1692.74	2357.29
1695.963	2382.12
1699.185	2410.48
1702.408	2384.63
1705.63	2419.25
1708.852	2434.1
1712.073	2408.81
1715.294	2408.17
1718.515	2458.21
1721.736	2412.54
1724.956	2398.38
1728.176	2421.72
1731.396	2443.69
1734.616	2430.55
1737.835	2462.79
1741.054	2436.6
1744.272	2428.57
1747.491	2462.84
1750.709	2496.54
1753.927	2427.42
1757.144	2464.59
1760.361	2512.13
1763.578	2495.39
1766.795	2440.34
1770.011	2439.24
1773.227	2469.83
1776.443	2507.75
1779.658	2552.14
1782.874	2492.94
1786.089	2480.63
1789.303	2483.29
1792.518	2480.63
1795.732	2468.17
1798.945	2481.71
1802.159	2526.69
1805.372	2449.72
1808.585	2440.39
1811.797	2441.37
1815.01	2472.53
1818.222	2488.27
1821.434	2457.58
1824.645	2504.74
1827.856	2506.4
1831.067	2541.62
1834.278	2485.78
1837.488	2470.84
1840.698	2602.64
1843.908	2539.96
1847.117	2507.24
1850.326	2418.6
1853.535	2494.07
1856.744	2520.72
1859.952	2440.16
1863.16	2438.51
1866.368	2453.99
1869.575	2561.5
1872.782	2449.45
1875.989	2388.12
1879.196	2446.19
1882.402	2437.7
1885.608	2475.08
1888.814	2400.32
1892.019	2305
1895.224	2357.21
1898.429	2329.96
1901.634	2312.17
1904.838	2287.13
1908.042	2337.45
1911.246	2347.19
1914.449	2301.47
1917.652	2288.55
1920.855	2269.14
1924.058	2307.71
1927.26	2348.61
1930.462	2374.77
1933.664	2407.95
1936.865	2348.78
1940.066	2362.43
1943.267	2308.88
1946.467	2319.85
1949.668	2340.58
1952.868	2410.46
1956.067	2396.47
1959.267	2332.07
1962.466	2357.54
1965.665	2337.48
1968.863	2333.69
1972.061	2340.22
1975.259	2335.85
1978.457	2410.82
1981.654	2370.41
1984.852	2373.93
1988.048	2318.01
1991.245	2311.98
1994.441	2394.23
1997.637	2363.29
2000.833	2348.62
2004.028	2383.09
2007.223	2445.1
2010.418	2427.41
2013.613	2387.08
2016.807	2372.56
2020.001	2371.29
2023.194	2401.29
2026.388	2384.38
2029.581	2330.67
2032.774	2389.14
2035.966	2397.04
2039.158	2337.87
2042.35	2358.1
2045.542	2287.51
2048.733	2375.69
2051.924	2378.06
2055.115	2401.04
2058.306	2357.94
2061.496	2413.71
2064.686	2469.13
2067.875	2379.18
2071.065	2386.56
2074.254	2408.8
2077.442	2362.13
2080.631	2445.79
2083.819	2359.59
2087.007	2353.67
2090.195	2331.15
2093.382	2353.92
2096.569	2335.36
2099.756	2295.13
2102.942	2333.6
2106.128	2342.32
2109.314	2333.14
2112.5	2309.34
2115.685	2283.08
2118.87	2292.96
2122.055	2352.37
2125.239	2325.47
2128.424	2309.77
2131.608	2386.56
2134.791	2370.77
2137.974	2415.23
2141.157	2402.64
2144.34	2366.03
2147.523	2368.23
2150.705	2388.33
2153.887	2361
2157.068	2324.02
2160.25	2316.84
2163.431	2342.63
2166.611	2301.03
2169.792	2320.84
2172.972	2226.22
2176.152	2289.13
2179.331	2319.48
2182.511	2312.17
2185.69	2337.23
2188.868	2337.06
2192.047	2380.14
2195.225	2383.43
2198.403	2336.39
2201.58	2328.32
2204.758	2317.78
2207.935	2395.99
2211.111	2300.15
2214.288	2286.84
2217.464	2323.15
2220.64	2286.56
2223.815	2337.11
2226.991	2267.05
2230.166	2284.46
2233.34	2320.29
2236.515	2335.25
2239.689	2402.02
2242.863	2351.29
2246.036	2405.56
2249.209	2397.93
2252.382	2421.84
2255.555	2421.39
2258.727	2367.67
2261.9	2397.63
2265.071	2389.59
2268.243	2389.16
2271.414	2335.21
2274.585	2308.21
2277.756	2369.74
2280.926	2326.39
2284.096	2358.31
2287.266	2280.66
2290.436	2329.66
2293.605	2354.99
2296.774	2389.36
2299.942	2399.3
2303.111	2417.56
2306.279	2465
2309.447	2449.45
2312.614	2422.46
2315.781	2447.21
2318.948	2420.39
2322.115	2458.37
2325.281	2360.55
2328.447	2370.74
2331.613	2344.53
2334.779	2330.39
2337.944	2327.46
2341.109	2326.86
2344.274	2317.06
2347.438	2285.17
2350.602	2304.79
2353.766	2320.58
2356.929	2307.67
2360.092	2346.59
2363.255	2309.05
2366.418	2263.34
2369.58	2346.85
2372.742	2190.63
2375.904	2194.2
2379.066	2175.08
2382.227	2204.2
2385.388	2166.94
2388.548	2106.7
2391.709	2153.28
2394.869	2139.01
2398.029	2210.12
2401.188	2212.92
2404.347	2165.3
2407.506	2265.86
2410.665	2300.03
2413.823	2293.24
2416.981	2262.63
2420.139	2287.32
2423.296	2331.45
2426.453	2301.66
2429.61	2324.12
2432.767	2281.68
2435.923	2319.36
2439.079	2275.23
2442.235	2314.58
2445.391	2252.51
2448.546	2291.03
2451.701	2329.49
2454.855	2313.81
2458.009	2351.88
2461.163	2348.81
2464.317	2314.74
2467.471	2344.87
2470.624	2377.93
2473.777	2357.12
2476.929	2372.74
2480.082	2394.32
2483.234	2362.73
2486.385	2311.39
2489.537	2306.83
2492.688	2283.17
2495.839	2303.79
2498.989	2315.12
2502.14	2299.18
2505.29	2287.74
2508.439	2311.97
2511.589	2245.06
2514.738	2252.35
2517.887	2278.63
2521.035	2348.63
2524.183	2317.36
2527.331	2303.04
2530.479	2285.87
2533.627	2293.49
