Data from C_2_DIV_IL_4N_Splice17_12-36-54-434.txt Node
Date: Sat Mar 14 12:36:54 EDT 2020
User: sa697716
Spectrometer: FLMS03696
Trigger mode: 0
Integration Time (sec): 3.180400E-1
Scans to average: 20
Electric dark correction enabled: true
Nonlinearity correction enabled: true
Boxcar width: 5
XAxis mode: Wavelengths
Number of Pixels in Spectrum: 2048
>>>>>Begin Spectral Data<<<<<
187.83	-395769.44
188.298	2733.48
188.766	1448.34
189.233	1310.38
189.701	1798.94
190.169	2405.31
190.636	918.27
191.104	691.32
191.571	65.93
192.039	-133.9
192.506	-213.8
192.974	368.04
193.441	-730.26
193.908	-215.29
194.375	-55.47
194.842	-32.64
195.31	-38.13
195.777	134.63
196.244	358.81
196.711	487.37
197.177	637.08
197.644	922.42
198.111	1649.52
198.578	2325.16
199.045	1876.36
199.511	3047.39
199.978	3592.84
200.445	3057.58
200.911	3384.27
201.378	3775.75
201.844	3369.2
202.31	5754.95
202.777	6030.67
203.243	3360.89
203.709	3212.07
204.176	3837.37
204.642	3196.41
205.108	2979.73
205.574	2435.39
206.04	2232.15
206.506	2107.69
206.972	2023.83
207.438	1964.17
207.903	2238.31
208.369	1973.25
208.835	1973.02
209.301	2079.72
209.766	2141.52
210.232	2157.9
210.697	2702.38
211.163	3366.66
211.628	5167.27
212.094	4389.65
212.559	5443
213.024	3418.11
213.49	4188.61
213.955	4126.4
214.42	4063.67
214.885	3792.43
215.35	3644.56
215.815	3524.2
216.28	3792.8
216.745	3136.71
217.21	3462.13
217.675	3274.09
218.14	3804.05
218.604	4425.49
219.069	5237.66
219.534	5673.76
219.998	6846.66
220.463	8549.26
220.927	10856.19
221.392	10439.48
221.856	10760.18
222.32	13827.86
222.785	17285.14
223.249	22015.01
223.713	24753.23
224.177	24910.55
224.642	32195.23
225.106	39841.43
225.57	43718.11
226.034	32536.51
226.497	49668.34
226.961	44877.17
227.425	52266.51
227.889	58083.39
228.353	58184.27
228.816	120406.91
229.28	115269.29
229.744	97332.68
230.207	59065.66
230.671	58134.31
231.134	96427.96
231.597	111065.6
232.061	111086.44
232.524	108381.8
232.987	74660.66
233.45	67109.92
233.914	60146
234.377	61686.27
234.84	56456.81
235.303	66588.09
235.766	74239.96
236.229	76709.63
236.691	48290.92
237.154	54260.84
237.617	40801.38
238.08	41775.73
238.542	48877.59
239.005	34920.12
239.468	34591.27
239.93	32545.5
240.393	29536.38
240.855	25911.47
241.317	26516.23
241.78	32300.55
242.242	33347.24
242.704	35897.97
243.166	31194.8
243.629	28249.51
244.091	32509.37
244.553	35625.51
245.015	38253.88
245.477	49466.38
245.939	72456.82
246.4	76773.86
246.862	74503.77
247.324	70205.05
247.786	78548.7
248.247	102930.18
248.709	106318.63
249.17	79415.38
249.632	74629.75
250.093	86313.47
250.555	74468.68
251.016	45316.62
251.477	42919
251.939	46220.41
252.4	48403.82
252.861	57512.46
253.322	53377.8
253.783	63483.39
254.244	82236.67
254.705	64813.32
255.166	57647
255.627	56654.75
256.088	79750.92
256.549	84595.48
257.009	72766.84
257.47	88203.14
257.931	71783.58
258.391	53742.19
258.852	55329.28
259.312	57968.65
259.773	71550.6
260.233	60307.15
260.694	50800.02
261.154	57629.15
261.614	46158.6
262.074	41254.81
262.534	42782.2
262.994	40241.19
263.455	53576.78
263.915	45089.97
264.374	42445.82
264.834	46300.35
265.294	51342.39
265.754	53145.56
266.214	50269.93
266.673	47125.8
267.133	59432.03
267.593	58978.93
268.052	72153.16
268.512	62731.55
268.971	75524.23
269.431	82683.39
269.89	73984.74
270.349	110811.56
270.809	123382.07
271.268	110853.69
271.727	248419.48
272.186	160840.45
272.645	120499.29
273.104	86961.16
273.563	125875.94
274.022	99012.92
274.481	84182.44
274.94	64820.29
275.399	48189.07
275.857	56147.72
276.316	75869.29
276.775	67440.93
277.233	66373.6
277.692	62082.35
278.15	70102.2
278.609	72023.67
279.067	66622.48
279.525	61843.7
279.984	79854.8
280.442	95757.9
280.9	94238.48
281.358	61966.38
281.816	57696.01
282.274	56429.13
282.732	58291.76
283.19	58564.73
283.648	50499.13
284.106	53747.45
284.564	54610.96
285.021	50525
285.479	37635.17
285.937	34212.15
286.394	29973.67
286.852	30850.84
287.309	32363.26
287.767	31198.77
288.224	29603.65
288.682	32438.11
289.139	35537.49
289.596	32451.56
290.053	33713.76
290.511	42479.37
290.968	51454.42
291.425	69808.79
291.882	57919.05
292.339	50365.17
292.796	49962.95
293.252	47071.17
293.709	37333.22
294.166	33463.98
294.623	37018.04
295.079	35508.13
295.536	35653.29
295.992	32353.49
296.449	31948.73
296.905	33208.08
297.362	31844.02
297.818	33498.54
298.274	34700.41
298.731	35369.86
299.187	34967.3
299.643	37482.88
300.099	45284.41
300.555	49621.75
301.011	41450.84
301.467	39869.05
301.923	46682.44
302.379	45517.57
302.835	44636.87
303.291	44664.53
303.746	50798.59
304.202	64059.06
304.658	64287.99
305.113	43218.69
305.569	42301.56
306.024	45041.09
306.479	42901.09
306.935	36094.15
307.39	39422.92
307.845	36388.35
308.301	36591.06
308.756	35625.26
309.211	34298.16
309.666	35115.16
310.121	43517.32
310.576	44214.71
311.031	43835.53
311.486	50198.83
311.94	50160.1
312.395	67029.79
312.85	125929.73
313.305	618904.17
313.759	3195280.43
314.214	231320.23
314.668	183160.43
315.123	153795.69
315.577	54990.96
316.032	48836.52
316.486	61118.71
316.94	48176.83
317.394	33483.88
317.849	25994.58
318.303	24601.31
318.757	23208.42
319.211	25643.45
319.665	22430.64
320.119	22706.19
320.572	32564.87
321.026	30397.19
321.48	25301.5
321.934	27600.78
322.387	27654.26
322.841	29821.2
323.295	26713.27
323.748	30794.19
324.202	31258.68
324.655	37510.82
325.108	52296.29
325.562	36936.87
326.015	43926.37
326.468	33147.55
326.921	36990.99
327.374	34450.25
327.827	35831.03
328.28	40561.62
328.733	27149.63
329.186	23853.17
329.639	22698.36
330.092	19128.77
330.545	18183.2
330.997	18314.36
331.45	20002.31
331.903	23415.07
332.355	40301.55
332.808	39163.23
333.26	32321.4
333.713	35036.21
334.165	35281.57
334.617	47132.49
335.069	38135.26
335.522	68988.45
335.974	76252.05
336.426	69626.78
336.878	48266.75
337.33	24438.98
337.782	23835.44
338.234	29770.86
338.686	35615.05
339.137	42079.08
339.589	39556.58
340.041	30918.72
340.493	26565.18
340.944	27223.19
341.396	29276.96
341.847	24573.49
342.299	28964.49
342.75	35371.38
343.201	30944.33
343.653	35548.53
344.104	43699.08
344.555	34390.02
345.006	53550.65
345.457	40934.01
345.908	32510.47
346.359	30595.45
346.81	24891.3
347.261	26226.18
347.712	25813.7
348.163	27689.98
348.613	28001.36
349.064	26177.27
349.515	22924.92
349.965	23517.68
350.416	28317.03
350.866	31065.51
351.317	35105.32
351.767	58149.66
352.217	73396.25
352.668	60895.94
353.118	55716.78
353.568	53752.75
354.018	42375.88
354.468	44625.26
354.918	31962.82
355.368	27994.04
355.818	39454.66
356.268	113398.79
356.718	473599.77
357.168	117801.13
357.617	59012.84
358.067	65601.95
358.517	61442.78
358.966	72046.88
359.416	80795.05
359.865	87425.08
360.315	103847.08
360.764	48556.56
361.213	27199.07
361.663	25754.19
362.112	31762.15
362.561	51272.88
363.01	38641.71
363.459	32520.32
363.908	35185.33
364.357	29857.48
364.806	50304.42
365.255	34544.88
365.703	31583.73
366.152	31621.15
366.601	25658.25
367.05	20835.63
367.498	18909.04
367.947	19748.42
368.395	20487.41
368.844	18096.94
369.292	21769.32
369.74	15027.63
370.189	23006.49
370.637	26921.76
371.085	23189.87
371.533	28207.72
371.981	27161.77
372.429	25857.91
372.877	26900.69
373.325	22496.58
373.773	22925.48
374.221	20429.45
374.669	25299.39
375.116	21846.38
375.564	22041.47
376.012	24632.16
376.459	20283.82
376.907	24216.12
377.354	29279.55
377.801	27270.3
378.249	31328.05
378.696	39992.47
379.143	48300.98
379.591	51515.67
380.038	87089.93
380.485	62887.17
380.932	67846.05
381.379	61943.55
381.826	45497.96
382.273	32340.79
382.72	28259.85
383.166	27505.31
383.613	17840.73
384.06	16069.13
384.506	18558.36
384.953	13596.19
385.4	13641.73
385.846	11945.67
386.292	11647.16
386.739	11384.05
387.185	11259.34
387.631	11253.21
388.078	10892.92
388.524	11629.05
388.97	10722.69
389.416	8919.57
389.862	9485.69
390.308	8981.82
390.754	9101.98
391.2	9864.84
391.645	10097.96
392.091	9623.58
392.537	9290.11
392.983	9314.71
393.428	9141.1
393.874	9793.13
394.319	9817.22
394.765	9294.49
395.21	9552.11
395.655	8941.85
396.101	8362.51
396.546	7543.59
396.991	7598.47
397.436	7052.12
397.881	6801.25
398.326	6445.35
398.771	6096.52
399.216	5331.75
399.661	4791.09
400.106	4769.75
400.551	4877.39
400.995	4367.68
401.44	4312.74
401.885	4058.55
402.329	4094.02
402.774	3923.27
403.218	3786.68
403.663	3643.39
404.107	3739.41
404.551	3770.78
404.995	3455.37
405.44	3328.66
405.884	3380.12
406.328	3271.76
406.772	3252.95
407.216	2961.83
407.66	2865.95
408.104	2723.15
408.547	2547.98
408.991	2464.06
409.435	2366.55
409.879	2333.01
410.322	2304.36
410.766	2225.29
411.209	2112.45
411.653	2029.88
412.096	1987.59
412.54	1986.75
412.983	1975.01
413.426	1976.49
413.869	1977.21
414.312	1940.02
414.756	1869.03
415.199	1779.33
415.642	1725.5
416.085	1726.31
416.527	1711.94
416.97	1737.48
417.413	1644.53
417.856	1625.78
418.298	1611.31
418.741	1598.92
419.184	1597.39
419.626	1661.51
420.069	1664.14
420.511	1672.93
420.953	1636.65
421.396	1622.09
421.838	1580.62
422.28	1617.03
422.722	1625.01
423.164	1645.44
423.606	1617
424.048	1613.42
424.49	1531.06
424.932	1520.47
425.374	1498.63
425.816	1525.8
426.258	1555.08
426.699	1572.21
427.141	1549.47
427.582	1572.14
428.024	1566.69
428.465	1556.52
428.907	1517.02
429.348	1501.68
429.789	1503.34
430.231	1471.57
430.672	1489.95
431.113	1453.93
431.554	1431.16
431.995	1395.28
432.436	1343.38
432.877	1312.63
433.318	1290.61
433.759	1283.65
434.2	1284.87
434.64	1269.11
435.081	1271.19
435.522	1202.54
435.962	1156.92
436.403	1132.92
436.843	1148.97
437.284	1126.88
437.724	1096.71
438.164	1098.94
438.604	1075.38
439.045	1031.79
439.485	988.79
439.925	967.89
440.365	945.43
440.805	933.56
441.245	920.8
441.685	886.57
442.125	877.95
442.564	882.79
443.004	861.85
443.444	860.04
443.883	861.79
444.323	855.34
444.762	857.83
445.202	869.01
445.641	883.69
446.081	877.88
446.52	883.55
446.959	875.3
447.398	855.28
447.837	845.52
448.276	829.54
448.716	835.89
449.154	843.64
449.593	823.6
450.032	821.03
450.471	806.74
450.91	806.38
451.349	805.78
451.787	802.77
452.226	813.39
452.664	812.97
453.103	814.58
453.541	813.38
453.98	812.14
454.418	816.55
454.856	803.04
455.295	799.94
455.733	805.61
456.171	809.66
456.609	810.03
457.047	809.87
457.485	820.51
457.923	820.33
458.361	809.88
458.798	810.61
459.236	808.03
459.674	812.66
460.111	816.39
460.549	809.79
460.987	805.31
461.424	802.38
461.862	797.56
462.299	785.73
462.736	785.53
463.173	787.31
463.611	778.91
464.048	776.53
464.485	782.4
464.922	774.83
465.359	769.39
465.796	759.9
466.233	753.79
466.67	747.27
467.106	746.03
467.543	738.38
467.98	728.7
468.416	709.91
468.853	705.61
469.29	684.36
469.726	676.8
470.162	658.74
470.599	649.64
471.035	642.95
471.471	627.15
471.907	622.08
472.344	618.2
472.78	619.22
473.216	626.69
473.652	618.44
474.088	616.84
474.523	615.44
474.959	622.07
475.395	616.15
475.831	613.3
476.266	615.05
476.702	613.78
477.138	607.03
477.573	603.9
478.008	600.79
478.444	603.43
478.879	609.22
479.314	610.97
479.75	609.42
480.185	611.13
480.62	615.67
481.055	620.12
481.49	624.49
481.925	633.08
482.36	644.84
482.795	662.39
483.229	679.84
483.664	692.62
484.099	694.84
484.534	704.91
484.968	712.21
485.403	713.69
485.837	711.46
486.271	709.36
486.706	708.93
487.14	699.78
487.574	687.99
488.009	681.02
488.443	674.14
488.877	680.74
489.311	682.62
489.745	689.24
490.179	694.66
490.613	706.72
491.046	711.33
491.48	716.13
491.914	716.64
492.348	721.88
492.781	725.07
493.215	726.71
493.648	727.1
494.082	732.23
494.515	732.16
494.948	739.85
495.382	744.12
495.815	748.53
496.248	753.94
496.681	766.73
497.114	777.77
497.547	787.36
497.98	800.55
498.413	806.93
498.846	815.79
499.279	823.64
499.711	827.19
500.144	828.37
500.577	837.45
501.009	847.41
501.442	856.09
501.874	856.05
502.306	856.53
502.739	863.94
503.171	877.03
503.603	879.2
504.036	888.5
504.468	894.66
504.9	905.96
505.332	913.05
505.764	917.74
506.196	924.98
506.627	940.37
507.059	955.03
507.491	962.77
507.923	960.59
508.354	977.2
508.786	988.82
509.217	1007.28
509.649	1022.2
510.08	1041.84
510.512	1058.16
510.943	1073.89
511.374	1085.06
511.805	1106.3
512.237	1126.69
512.668	1161.54
513.099	1189.84
513.53	1217.5
513.961	1239.09
514.391	1273.38
514.822	1308.58
515.253	1348.36
515.684	1375.67
516.114	1408.54
516.545	1432.52
516.975	1461.92
517.406	1482.04
517.836	1485.6
518.267	1494.48
518.697	1515.87
519.127	1522.39
519.558	1531.71
519.988	1536.56
520.418	1550.23
520.848	1571.01
521.278	1581.84
521.708	1591.49
522.138	1606.88
522.567	1641.81
522.997	1671.34
523.427	1688.91
523.857	1709.15
524.286	1722.54
524.716	1741.13
525.145	1762.94
525.575	1775.61
526.004	1792.81
526.433	1798.75
526.863	1800.85
527.292	1792.2
527.721	1799.03
528.15	1807.53
528.579	1810.5
529.008	1823.61
529.437	1849.29
529.866	1865.25
530.295	1885.54
530.724	1901.08
531.152	1932.53
531.581	1948.91
532.01	1969.41
532.438	1980.37
532.867	1997.22
533.295	2017.56
533.723	2026.09
534.152	2024.9
534.58	2025.96
535.008	2009.46
535.436	2012.83
535.865	2021.66
536.293	2038.32
536.721	2056.84
537.149	2085.21
537.576	2090.25
538.004	2105.4
538.432	2114.69
538.86	2114.27
539.287	2121.95
539.715	2138.35
540.143	2140.14
540.57	2136.48
540.998	2133.35
541.425	2108.09
541.852	2084.79
542.28	2081.79
542.707	2064.18
543.134	2047.62
543.561	2042.38
543.988	2035.19
544.415	2033.92
544.842	2027.35
545.269	2018.96
545.696	2021.53
546.123	2035.21
546.549	2023.59
546.976	2009.2
547.403	2008.7
547.829	2011.65
548.256	2013.82
548.682	2010.1
549.108	2002.58
549.535	2004.72
549.961	2007.59
550.387	1991.84
550.813	1985.93
551.24	1994
551.666	1995.47
552.092	1984.4
552.518	1977.09
552.943	1970.19
553.369	1977.17
553.795	1982.58
554.221	1982.75
554.646	1978.52
555.072	1990.97
555.498	1996.88
555.923	2007.24
556.349	2023.94
556.774	2033.56
557.199	2034.09
557.625	2039.74
558.05	2033.1
558.475	2043.61
558.9	2041.95
559.325	2033.59
559.75	2025.5
560.175	2017.88
560.6	2009.9
561.025	2006.38
561.449	2007.37
561.874	2013.84
562.299	2020.18
562.723	2028.61
563.148	2017.79
563.572	2021.65
563.997	2031.51
564.421	2036.98
564.846	2036.55
565.27	2039.36
565.694	2035.58
566.118	2046.88
566.542	2054.19
566.966	2045.46
567.39	2039.61
567.814	2027.66
568.238	2026.39
568.662	2030.92
569.086	2034.26
569.509	2041.58
569.933	2025.28
570.357	2017.92
570.78	1994.27
571.204	1980.43
571.627	1967.53
572.05	1964.28
572.474	1963.16
572.897	1948.52
573.32	1940.01
573.743	1928.39
574.166	1907.72
574.589	1906.75
575.012	1896.92
575.435	1895.15
575.858	1883.5
576.281	1870.54
576.704	1852.39
577.126	1837.82
577.549	1826.11
577.972	1814.73
578.394	1802.23
578.817	1795.11
579.239	1774.55
579.661	1760.49
580.084	1743.36
580.506	1728.78
580.928	1724.99
581.35	1712.78
581.772	1707.53
582.194	1692.56
582.616	1677.93
583.038	1660.43
583.46	1647.4
583.882	1642.93
584.303	1645.45
584.725	1639.72
585.147	1641.71
585.568	1652.05
585.99	1665.54
586.411	1672.13
586.833	1686.59
587.254	1688.93
587.675	1704.26
588.096	1717.58
588.518	1711.9
588.939	1694.72
589.36	1692.61
589.781	1679.99
590.202	1649.7
590.623	1639.61
591.043	1638.06
591.464	1624.27
591.885	1619.56
592.305	1614.74
592.726	1600.3
593.147	1601.92
593.567	1594.79
593.987	1585.65
594.408	1580.61
594.828	1578.22
595.248	1572.48
595.669	1551.65
596.089	1544.95
596.509	1537.45
596.929	1521.96
597.349	1523.12
597.769	1510.64
598.189	1504.73
598.608	1506.95
599.028	1508.36
599.448	1508.14
599.867	1493.75
600.287	1488.87
600.706	1483
601.126	1473.5
601.545	1472.53
601.965	1469.79
602.384	1464.83
602.803	1467.48
603.222	1461.53
603.641	1455.55
604.061	1451.27
604.48	1446.49
604.898	1454.89
605.317	1459.52
605.736	1460.61
606.155	1458
606.574	1447.43
606.992	1452.16
607.411	1446.72
607.829	1437.21
608.248	1432.43
608.666	1429.75
609.085	1428.27
609.503	1418.61
609.921	1413.04
610.339	1414.03
610.758	1411.93
611.176	1406.93
611.594	1397.45
612.012	1392.33
612.43	1395.34
612.847	1400.95
613.265	1401.45
613.683	1405.54
614.101	1406.11
614.518	1400.37
614.936	1389.47
615.353	1372.5
615.771	1369.15
616.188	1368.31
616.606	1364.68
617.023	1356.74
617.44	1340.88
617.857	1333.18
618.274	1324.59
618.691	1317.98
619.108	1307.41
619.525	1300.68
619.942	1309.19
620.359	1310.6
620.776	1305.63
621.192	1302.23
621.609	1300.24
622.026	1308.11
622.442	1313.98
622.859	1316.46
623.275	1308.66
623.691	1315.25
624.108	1326.79
624.524	1340.49
624.94	1340.84
625.356	1350.7
625.772	1363.22
626.188	1374.58
626.604	1375.71
627.02	1370.03
627.436	1368.63
627.852	1376.56
628.268	1388.4
628.683	1378.98
629.099	1370
629.514	1365.45
629.93	1368.71
630.345	1373.4
630.761	1369.13
631.176	1371.32
631.591	1366.38
632.007	1359.43
632.422	1355.37
632.837	1342.99
633.252	1340.09
633.667	1329.52
634.082	1319.39
634.497	1306.07
634.911	1285.1
635.326	1281.96
635.741	1265.15
636.155	1253.85
636.57	1254.37
636.984	1255.5
637.399	1257.48
637.813	1256.34
638.228	1255.24
638.642	1260.54
639.056	1250.18
639.47	1250.69
639.884	1241.13
640.298	1235.14
640.712	1235.23
641.126	1223.44
641.54	1213.95
641.954	1208.2
642.368	1197.16
642.781	1189.16
643.195	1169.66
643.609	1170.02
644.022	1164.73
644.436	1160.48
644.849	1147.16
645.262	1133.3
645.676	1134.43
646.089	1130.34
646.502	1115.91
646.915	1109.91
647.328	1092.08
647.741	1090.52
648.154	1076.89
648.567	1072.9
648.98	1058.9
649.393	1059.68
649.805	1056.05
650.218	1047.82
650.631	1030.7
651.043	1022.81
651.456	1016.3
651.868	1016.5
652.28	1033.52
652.693	1046.08
653.105	1052.3
653.517	1062.19
653.929	1061.34
654.341	1067.15
654.753	1053.63
655.165	1058.9
655.577	1055.63
655.989	1051
656.401	1041.67
656.813	1004.89
657.224	984.26
657.636	953.85
658.047	934.97
658.459	914.58
658.87	904.45
659.282	892.61
659.693	871.53
660.104	856.94
660.515	842.64
660.926	841.22
661.338	837.18
661.749	830.7
662.159	821.63
662.57	817.96
662.981	814.25
663.392	806.65
663.803	810.45
664.213	808.94
664.624	804.19
665.035	806.87
665.445	791.97
665.855	785.44
666.266	777.23
666.676	775.29
667.086	765.23
667.497	764.11
667.907	758.71
668.317	749.78
668.727	746.45
669.137	748
669.547	745.79
669.956	749.64
670.366	750.99
670.776	753.46
671.186	757.39
671.595	761.89
672.005	764.87
672.414	763.47
672.824	761.58
673.233	765.46
673.642	766.82
674.052	769.9
674.461	772.37
674.87	777.67
675.279	775.83
675.688	777.22
676.097	777.62
676.506	773.95
676.915	788.29
677.323	791.2
677.732	788.86
678.141	788.69
678.549	777.38
678.958	775.53
679.366	773.77
679.775	777.1
680.183	788.34
680.592	794.08
681	800.77
681.408	794.1
681.816	801.58
682.224	809.94
682.632	820.42
683.04	850.39
683.448	874.51
683.856	904.52
684.264	939.22
684.671	969.61
685.079	1008.37
685.487	1050.52
685.894	1110.83
686.302	1158.83
686.709	1197.83
687.116	1244.69
687.524	1282.93
687.931	1314.53
688.338	1341.72
688.745	1363.59
689.152	1391.41
689.559	1429.47
689.966	1468.28
690.373	1487.23
690.78	1524.68
691.187	1584.31
691.593	1627.12
692	1665.58
692.407	1725.25
692.813	1800.67
693.22	1862.77
693.626	1924.3
694.032	1974.55
694.439	2051.07
694.845	2111.23
695.251	2188.25
695.657	2257.82
696.063	2364.6
696.469	2443.61
696.875	2517.55
697.281	2560.18
697.687	2613.11
698.093	2658.86
698.498	2743.61
698.904	2809.56
699.31	2906.58
699.715	2979.03
700.12	3081.29
700.526	3105.9
700.931	3184.2
701.337	3244
701.742	3285.82
702.147	3379.29
702.552	3418.06
702.957	3488
703.362	3516.08
703.767	3552.49
704.172	3601.63
704.577	3557.96
704.981	3611.48
705.386	3635.29
705.791	3635.62
706.195	3720.06
706.6	3735.89
707.004	3829.28
707.408	3801.9
707.813	3837.07
708.217	3829.71
708.621	3836.4
709.025	3947.55
709.43	3955.15
709.834	4025.18
710.237	4106.39
710.641	4098.79
711.045	4130.99
711.449	4129.87
711.853	4167.33
712.256	4218.92
712.66	4264.38
713.064	4352.83
713.467	4403.58
713.87	4534.08
714.274	4591.32
714.677	4717.6
715.08	4901.34
715.484	5092.89
715.887	5324.09
716.29	5551.46
716.693	5788.65
717.096	6064.06
717.499	6217.21
717.901	6250.16
718.304	6285.11
718.707	6315.81
719.109	6206.01
719.512	6177.14
719.915	6025.56
720.317	5964.41
720.719	6013.34
721.122	5983.71
721.524	5931.24
721.926	5887.39
722.328	6005.99
722.731	5997.99
723.133	6034.84
723.535	6256.87
723.937	6279.72
724.338	6342.24
724.74	6389.35
725.142	6317.96
725.544	6318.61
725.945	6349.84
726.347	6350.92
726.748	6345.11
727.15	6360.64
727.551	6319.35
727.952	6289.07
728.354	6259.21
728.755	6262.79
729.156	6219.67
729.557	6213.33
729.958	6077.37
730.359	6017.42
730.76	5997.02
731.161	5929.51
731.562	5907.17
731.962	5915.22
732.363	5843.05
732.763	5774.19
733.164	5816.71
733.564	5740.32
733.965	5633.52
734.365	5595.25
734.766	5628.24
735.166	5584.36
735.566	5522.68
735.966	5492.46
736.366	5486.32
736.766	5417.02
737.166	5451.13
737.566	5404.88
737.966	5376.79
738.365	5421.55
738.765	5417.33
739.165	5332.42
739.564	5305.02
739.964	5357.98
740.363	5309.5
740.763	5307.81
741.162	5296.73
741.561	5263.22
741.96	5213.13
742.36	5237.54
742.759	5241.82
743.158	5285.68
743.557	5302.39
743.955	5348.84
744.354	5299.95
744.753	5363.81
745.152	5315.98
745.55	5380.53
745.949	5372.59
746.348	5372.25
746.746	5391.5
747.144	5347.64
747.543	5323.47
747.941	5382.14
748.339	5299.06
748.737	5286.84
749.136	5277.67
749.534	5352.3
749.932	5319.18
750.33	5343.91
750.727	5406.74
751.125	5377.73
751.523	5360.6
751.921	5407.12
752.318	5367.16
752.716	5433.91
753.113	5450.87
753.511	5479.66
753.908	5478.7
754.305	5457.7
754.703	5526.4
755.1	5595.89
755.497	5663.94
755.894	5881.84
756.291	6086.12
756.688	6461.87
757.085	6962.65
757.482	7664.63
757.878	8427.11
758.275	9124.58
758.672	10082.73
759.068	10867.82
759.465	11981.09
759.861	13416.62
760.258	15075.16
760.654	15933.55
761.05	15805.69
761.447	15075.26
761.843	14036.89
762.239	12964.14
762.635	12473.79
763.031	12007.89
763.427	11334.79
763.822	10627.93
764.218	9928.86
764.614	9019.99
765.01	8416.89
765.405	8023.88
765.801	7728.31
766.196	7348.66
766.592	7140.45
766.987	6786.04
767.382	6543.31
767.778	6442.47
768.173	6295.82
768.568	6213.64
768.963	6072.29
769.358	6090.75
769.753	6036.52
770.148	5943.39
770.542	5942.22
770.937	5903.69
771.332	6003.71
771.726	6025.4
772.121	5951.45
772.515	6011.81
772.91	5994.96
773.304	6077.18
773.699	6002.11
774.093	6064.18
774.487	6127.04
774.881	6174.25
775.275	6170.84
775.669	6122.72
776.063	6172.05
776.457	6215.33
776.851	6131.76
777.245	6123.17
777.638	6159.9
778.032	6293.74
778.425	6249.82
778.819	6296.1
779.212	6247.61
779.606	6199.6
779.999	6222.5
780.392	6203.7
780.786	6296.22
781.179	6318.31
781.572	6367.91
781.965	6382.14
782.358	6314.83
782.751	6381.15
783.143	6326.35
783.536	6409.25
783.929	6459.63
784.322	6589.26
784.714	6624.32
785.107	6619.11
785.499	6701.15
785.891	6675.4
786.284	6651.94
786.676	6813.88
787.068	6794.56
787.46	6853.7
787.852	6878.83
788.245	6975.49
788.636	7010.23
789.028	7088.89
789.42	7133.76
789.812	7146.32
790.204	7255.48
790.595	7369.62
790.987	7144.8
791.378	7169.73
791.77	7316.34
792.161	7469.26
792.553	7529.61
792.944	7403.67
793.335	7324.08
793.726	7406.75
794.117	7506.12
794.508	7663.42
794.899	7630.19
795.29	7789.76
795.681	7854.99
796.072	7693.15
796.463	7484.91
796.853	7497.9
797.244	7681.64
797.634	7725.32
798.025	7727.58
798.415	7741.31
798.806	7841.69
799.196	7939.23
799.586	7996.27
799.976	7952.52
800.366	8221.67
800.756	8494.02
801.146	8450.99
801.536	8482
801.926	8561.43
802.316	8588.17
802.706	8671.29
803.095	8532.58
803.485	8641.87
803.874	8692.48
804.264	8985.72
804.653	8955.56
805.043	9121.43
805.432	9249.04
805.821	9247.53
806.21	9275.69
806.599	9418.55
806.988	9469.77
807.377	9589.65
807.766	9746.34
808.155	10066.58
808.544	9773.77
808.933	9788.28
809.321	9761.8
809.71	10094.96
810.098	10274.76
810.487	10794.78
810.875	11329.58
811.264	11354.66
811.652	11680.36
812.04	11844.41
812.428	12029.64
812.816	12891.76
813.204	13358.29
813.592	13987.74
813.98	14371.52
814.368	14267.98
814.756	14814.83
815.144	14727.02
815.531	15257.8
815.919	15177.66
816.306	15529.65
816.694	15173.79
817.081	15227.56
817.469	15628.52
817.856	15624.39
818.243	15923.64
818.63	16369.97
819.017	15889.13
819.404	15966.36
819.791	16395.47
820.178	17092.91
820.565	17362.86
820.952	18436.6
821.339	17884.46
821.725	18090.28
822.112	17244.71
822.498	17197.75
822.885	17345.36
823.271	17237.8
823.657	17707.97
824.044	17720.2
824.43	17805.7
824.816	17780.99
825.202	17274.91
825.588	18429.29
825.974	18448.63
826.36	19038.49
826.746	19081.54
827.132	19486.33
827.517	19461.19
827.903	18560.44
828.289	18605.07
828.674	17723.08
829.06	17598.1
829.445	18054.14
829.83	18450.06
830.216	18989.78
830.601	19401.13
830.986	18936.56
831.371	18783.13
831.756	19409.19
832.141	18933.76
832.526	18917.2
832.911	19242.77
833.295	19119.21
833.68	19642.17
834.065	18953.69
834.449	17912.56
834.834	17824.16
835.218	17827.89
835.603	18209.12
835.987	17972.85
836.371	18912.56
836.755	18798.2
837.139	19240.75
837.524	19514.73
837.908	19307.52
838.291	19371.79
838.675	19450.46
839.059	19692.61
839.443	19679.9
839.827	19420.58
840.21	19955.17
840.594	19792.81
840.977	20034.32
841.361	20024.15
841.744	20446.61
842.127	20282.32
842.511	20557.28
842.894	21238.93
843.277	21667.3
843.66	22280.72
844.043	22374.99
844.426	21476.92
844.809	21120.35
845.191	21155.45
845.574	20623.13
845.957	20212.31
846.339	20088.12
846.722	19500.66
847.104	19576.42
847.487	19385.46
847.869	19393.26
848.252	19708.31
848.634	20075.32
849.016	20377.66
849.398	20510.65
849.78	21476.29
850.162	21483.43
850.544	21946.38
850.926	22649.29
851.307	22559.11
851.689	22876.46
852.071	23389.5
852.452	23754.82
852.834	23732.95
853.215	24182.03
853.597	24360.81
853.978	24693.87
854.359	25203.51
854.741	24088.27
855.122	23983.39
855.503	23644.77
855.884	23790.63
856.265	23722.05
856.646	23852.32
857.026	23415.4
857.407	23338.67
857.788	23517.09
858.169	23849.1
858.549	22888.08
858.93	23587.7
859.31	23635.97
859.69	23867.5
860.071	23413.56
860.451	23162.66
860.831	22328.84
861.211	23633.54
861.591	24252.25
861.971	24224.39
862.351	24438.46
862.731	24870.6
863.111	25174.22
863.491	25545.32
863.87	26534.19
864.25	26923.01
864.629	26473.26
865.009	27052.25
865.388	28016.11
865.768	30023.56
866.147	29903.58
866.526	28247.12
866.905	28584.61
867.284	30190.45
867.663	28661.69
868.042	27489.01
868.421	27402.82
868.8	27866.2
869.179	28135.6
869.558	26498.23
869.936	24423.77
870.315	24857.07
870.693	25456.49
871.072	27459.08
871.45	26153.89
871.828	26505.88
872.207	27855.65
872.585	27445.88
872.963	28195.16
873.341	27224.09
873.719	26900.95
874.097	26574.11
874.475	27084.13
874.853	27717.97
875.23	26569.48
875.608	27676.03
875.986	29931.04
876.363	28629.23
876.741	29492.32
877.118	28746.75
877.495	30165.42
877.873	30674.81
878.25	32273.72
878.627	30954.82
879.004	31368.68
879.381	31219.62
879.758	30401.81
880.135	28295.47
880.512	29912.57
880.889	29114.45
881.265	28800.16
881.642	28557.1
882.019	29017.91
882.395	28434.64
882.772	29565.22
883.148	28290.07
883.524	28167.07
883.901	28003.52
884.277	28417.26
884.653	28244.57
885.029	29065.57
885.405	32205.13
885.781	31955.22
886.157	30664.36
886.532	31048.66
886.908	31032.46
887.284	34506.89
887.659	35641.38
888.035	36755.61
888.411	37715.56
888.786	38215.11
889.161	39542.2
889.537	38802.6
889.912	40059.09
890.287	40013.07
890.662	41043.53
891.037	40296.59
891.412	37584.44
891.787	37209.54
892.162	35909.43
892.536	36743.26
892.911	35358.51
893.286	34613.52
893.66	33232.81
894.035	34077.33
894.409	37112.42
894.784	35621.64
895.158	36219.2
895.532	38370.12
895.906	39415.99
896.281	40351.74
896.655	39722.66
897.029	45408.73
897.402	47288.14
897.776	52625.12
898.15	52421.71
898.524	51852.28
898.898	52527.85
899.271	58833.44
899.645	50963.67
900.018	48958.08
900.392	50752.32
900.765	51172.06
901.138	47329.49
901.511	46620.86
901.884	42810.04
902.258	39507
902.631	40816.62
903.003	46966.27
903.376	42351.67
903.749	47462.46
904.122	50808.09
904.495	55955.92
904.867	56627.7
905.24	49178.41
905.612	45777.49
905.985	46823.01
906.357	48954.79
906.729	46738.4
907.102	39930.78
907.474	38408.68
907.846	38652.48
908.218	38145.62
908.59	33711.63
908.962	32611.47
909.334	35129.16
909.705	36900.62
910.077	35818.19
910.449	37268.8
910.82	38309.42
911.192	42153.54
911.563	43788.82
911.935	46888.46
912.306	46928.62
912.677	48420.98
913.048	47948.41
913.419	52018.87
913.79	52305.25
914.161	56079.92
914.532	53600.88
914.903	49239.45
915.274	46769.04
915.645	46075.04
916.015	40520.34
916.386	38644.19
916.756	41154.79
917.127	42442.49
917.497	37916.94
917.868	41248.41
918.238	39197.71
918.608	40345.18
918.978	41205.48
919.348	43646.77
919.718	45120.6
920.088	43468.98
920.458	45173.26
920.828	47531.61
921.198	45061.24
921.567	48152.47
921.937	37295.42
922.306	37654.91
922.676	40626.14
923.045	33863.9
923.415	32169.93
923.784	29290.98
924.153	30117.88
924.522	30072.74
924.891	28266.81
925.26	30277.85
925.629	29548.15
925.998	33981.33
926.367	33160.57
926.736	31559.47
927.104	37598.38
927.473	40417.65
927.842	48817.1
928.21	48345.65
928.578	50859.6
928.947	48122.59
929.315	48439.53
929.683	56819.44
930.051	57268.63
930.42	66532.25
930.788	56896.6
931.156	56483.13
931.523	52943.96
931.891	48940.8
932.259	47055.56
932.627	54497.84
932.994	77145.68
933.362	63738.9
933.729	55383.81
934.097	53036.13
934.464	44887.19
934.831	51803.3
935.199	51066.65
935.566	49547.18
935.933	50231.77
936.3	60823.5
936.667	47368.92
937.034	42713.6
937.401	42235.46
937.767	36427.36
938.134	32430.17
938.501	45751.31
938.867	48760.72
939.234	82504.75
939.6	70383.38
939.967	77537.13
940.333	51916.96
940.699	44202
941.065	35484.32
941.431	46565.36
941.798	44900.75
942.163	59007.51
942.529	36856.95
942.895	33914.43
943.261	21941.65
943.627	28802.75
943.992	25192.79
944.358	25235.93
944.723	25329.04
945.089	24665.76
945.454	22782.07
945.82	24307.17
946.185	23319.62
946.55	27008.09
946.915	24238.98
947.28	28419.42
947.645	24979.19
948.01	23078.92
948.375	24057.07
948.74	28815.55
949.104	33630.39
949.469	48599
949.834	85943.72
950.198	81552.45
950.562	48843.54
950.927	40658.53
951.291	48940.78
951.655	41741.74
952.02	39198.55
952.384	29628.44
952.748	25816.54
953.112	25179.52
953.476	21877.53
953.839	20245.07
954.203	20041.59
954.567	25096.11
954.931	39519.95
955.294	33808.83
955.658	33993.31
956.021	57792.62
956.385	97962.9
956.748	144500.85
957.111	224054.78
957.474	251704.09
957.837	283028.64
958.2	214065.86
958.563	76974.66
958.926	52079.89
959.289	79005.48
959.652	88263.55
960.015	66225.94
960.377	95025.75
960.74	108426.18
961.102	187255.39
961.465	201109.91
961.827	107767.29
962.189	207073.21
962.552	143506.57
962.914	115030.44
963.276	74617.71
963.638	61677.01
964	61101.57
964.362	41331.52
964.724	39978.68
965.085	28530.95
965.447	23387.27
965.809	26663.92
966.17	26676.4
966.532	28866.84
966.893	26483.55
967.255	24110.26
967.616	28465.45
967.977	22761.88
968.338	24847.67
968.699	20409.73
969.061	20407.26
969.421	20541.33
969.782	23066.58
970.143	19473.22
970.504	20172.41
970.865	22939.53
971.225	23447.37
971.586	22961.53
971.946	32771.46
972.307	28438.45
972.667	37196.06
973.027	38318.67
973.388	46462.46
973.748	31579.27
974.108	34414.62
974.468	46553.28
974.828	35879.56
975.188	27624.91
975.548	25357.73
975.907	21304.73
976.267	23907.61
976.627	20081.25
976.986	20809.75
977.346	19829.87
977.705	19090.09
978.064	17384.51
978.424	14483.86
978.783	14982.44
979.142	17098.11
979.501	16360.87
979.86	17274.18
980.219	16649.09
980.578	21478.51
980.937	24045.24
981.296	21432.7
981.654	22035.14
982.013	34277.02
982.371	44488.53
982.73	41525.72
983.088	47015.86
983.447	50219.89
983.805	71822.87
984.163	150160.5
984.521	166654.45
984.879	244373.38
985.237	-397726.88
985.595	383672.2
985.953	95268.29
986.311	55041.38
986.669	31988.72
987.026	27642.88
987.384	37172.37
987.741	38440.63
988.099	27475.83
988.456	21881.06
988.814	20486.03
989.171	17791.05
989.528	17562.26
989.885	18563.58
990.242	14697.56
990.599	18310.43
990.956	14976.78
991.313	10489.62
991.67	8612.52
992.027	9122.14
992.383	8122.78
992.74	7124.97
993.096	7483.14
993.453	7746.69
993.809	8033.59
994.165	10692.06
994.522	9786.53
994.878	10781.15
995.234	13515.16
995.59	13341.02
995.946	12630.96
996.302	14406.26
996.658	16661.9
997.013	18375.71
997.369	21816.34
997.725	27904.04
998.08	18095.62
998.436	27975.85
998.791	38622.55
999.147	38545.64
999.502	42061.14
999.857	30645.97
1000.212	49886.54
1000.567	70926.69
1000.922	40833.17
1001.277	25940.31
1001.632	19273.26
1001.987	24823.28
1002.342	17795.87
1002.696	14238.8
1003.051	11358.79
1003.406	13754.79
1003.76	13684.5
1004.114	13491.93
1004.469	11348.59
1004.823	9408.87
1005.177	10162.91
1005.531	8041.31
1005.885	7122.59
1006.239	8021.17
1006.593	10038.82
1006.947	13454.72
1007.301	10071.85
1007.655	10960.68
1008.008	8037.35
1008.362	9042.21
1008.715	12920.05
1009.069	11725.4
1009.422	17678.8
1009.776	35470.88
1010.129	23552.67
1010.482	19699.31
1010.835	16644.42
1011.188	34796.31
1011.541	32760.81
1011.894	-201107.21
1012.247	592372.84
1012.6	40232.5
1012.952	25416.5
1013.305	13076.57
1013.657	9444.42
1014.01	8965.66
1014.362	7392.59
1014.715	6547.05
1015.067	5677.77
1015.419	5553.11
1015.771	4912.75
1016.123	4356.05
1016.475	4477.12
1016.827	4762.79
1017.179	5119.02
1017.531	5155.28
1017.883	5252.81
1018.234	5068.86
1018.586	6413.71
1018.938	6810.3
1019.289	9379.98
1019.64	10728.91
1019.992	10017.67
1020.343	9187.39
1020.694	7274.31
1021.045	6439.21
1021.396	7347.12
1021.747	7888.37
1022.098	9467.28
1022.449	6883.34
1022.8	6375.62
1023.151	4441.74
1023.501	3938.47
1023.852	4284.62
1024.202	4436.77
1024.553	4855.68
1024.903	4741.37
1025.253	4052.91
1025.604	3640.2
1025.954	4514.93
1026.304	5491.87
1026.654	6412.07
1027.004	9425.72
1027.354	15271.46
1027.703	14340.39
1028.053	18915.16
1028.403	27544.12
1028.753	40153.87
1029.102	54800.78
1029.452	282967.29
1029.801	12255.18
1030.15	7914.29
1030.499	6711.19
897.758	2915.4
901.051	2889.28
904.343	2927.46
907.636	2922.06
910.928	2985.6
914.22	2891.41
917.511	2901.92
920.803	2977.12
924.094	3008.2
927.384	2973.87
930.675	2943.25
933.965	2891.29
937.255	2888.47
940.544	2855.85
943.834	2762.47
947.123	2715
950.411	2816.29
953.7	2785.31
956.988	2740.54
960.276	2686.71
963.563	2786.9
966.851	2773.18
970.138	2841.44
973.424	2828.69
976.711	2774.12
979.997	2959.14
983.283	2983.91
986.568	2873.69
989.853	2907.31
993.138	2934.88
996.423	3013.3
999.708	2940.09
1002.992	3029.52
1006.275	2818.47
1009.559	2891.93
1012.842	3016.32
1016.125	2937.4
1019.408	2914.8
1022.69	3018.75
1025.972	3026.49
1029.254	3002.73
1032.536	2917.45
1035.817	2953.2
1039.098	2874.85
1042.379	3073.17
1045.659	3051.79
1048.939	2978.08
1052.219	3003.95
1055.498	3032.03
1058.778	3009.61
1062.057	2999.22
1065.335	3017.63
1068.614	3040.3
1071.892	3014.34
1075.17	3107.4
1078.447	3089.28
1081.724	3075.41
1085.001	3119.51
1088.278	3092.08
1091.554	3106.71
1094.83	3107.16
1098.106	3131.36
1101.382	3183.31
1104.657	3187.34
1107.932	3180.46
1111.206	3135.13
1114.481	3097.1
1117.755	3104.46
1121.029	3074.61
1124.302	3125.97
1127.575	3066.56
1130.848	3047.59
1134.121	3003.19
1137.393	2945.43
1140.665	3021.61
1143.937	2995.79
1147.208	2961.03
1150.48	2988.85
1153.75	2972.51
1157.021	3023.5
1160.291	2987.22
1163.561	3029.99
1166.831	3032.45
1170.101	3067.46
1173.37	3052.89
1176.639	2985.05
1179.907	3054.05
1183.176	3053.16
1186.444	3062.99
1189.711	3093.41
1192.979	3096.91
1196.246	3056.69
1199.513	3077.52
1202.78	3071.79
1206.046	3081.6
1209.312	3108.8
1212.578	3137.53
1215.843	3080.75
1219.108	3058.35
1222.373	3082.86
1225.638	3037.62
1228.902	3018.06
1232.166	2986.78
1235.43	2965.98
1238.693	2989.26
1241.956	2987.48
1245.219	3019.91
1248.482	3020.32
1251.744	3011.37
1255.006	3178.9
1258.268	3136.26
1261.529	3074.83
1264.79	3086.3
1268.051	3197.49
1271.312	3217.51
1274.572	3171.53
1277.832	3164.35
1281.092	3162.21
1284.351	3121.62
1287.61	3096.96
1290.869	2998.1
1294.128	2962.8
1297.386	3080.84
1300.644	3063.25
1303.902	3073.94
1307.159	2925.57
1310.416	2984.67
1313.673	3004.85
1316.93	2980.71
1320.186	3036.57
1323.442	3088.57
1326.697	3069.81
1329.953	3070.77
1333.208	3082.33
1336.463	3069.77
1339.717	2994.83
1342.972	3137.36
1346.226	3120.52
1349.479	3042.55
1352.733	3004.57
1355.986	3040.37
1359.238	3011.2
1362.491	3010.55
1365.743	3017.21
1368.995	3015.72
1372.247	3027.42
1375.498	3054.38
1378.749	3060.88
1382	3015.29
1385.251	3081.6
1388.501	3048.78
1391.751	3020.28
1395	2994.43
1398.25	3031.68
1401.499	3031.85
1404.748	2942.41
1407.996	2924.78
1411.244	2906.74
1414.492	2885.69
1417.74	2859.07
1420.987	2875.25
1424.234	2925.88
1427.481	2917.37
1430.728	2976.28
1433.974	2948.7
1437.22	2969.66
1440.465	2979.39
1443.711	2935.62
1446.956	2978.75
1450.201	2977.34
1453.445	3025.83
1456.689	2993.17
1459.933	3012.3
1463.177	3042.66
1466.42	3013.4
1469.663	2993.51
1472.906	2976.09
1476.148	3084.67
1479.391	3011.57
1482.633	2990.5
1485.874	2994.68
1489.115	2970.95
1492.356	2990.87
1495.597	2961.66
1498.838	2968.83
1502.078	2927.74
1505.318	2865.08
1508.557	2912.49
1511.797	2859.78
1515.036	2974.25
1518.274	2961.15
1521.513	2942.67
1524.751	2970.15
1527.989	2979.26
1531.227	2989.52
1534.464	2972.21
1537.701	3009.1
1540.938	3033.61
1544.174	2991.24
1547.41	2993.16
1550.646	3035.35
1553.882	3065
1557.117	3119.47
1560.352	3139.13
1563.587	3090.41
1566.821	3045.87
1570.055	3091.99
1573.289	3059.32
1576.523	3146.69
1579.756	3150.14
1582.989	3166.68
1586.222	3126.5
1589.454	3167.82
1592.686	3135.59
1595.918	3157.86
1599.15	3144.35
1602.381	3237.36
1605.612	3177.65
1608.843	3277.32
1612.073	3182.57
1615.303	3161.75
1618.533	3152.77
1621.762	3157.88
1624.992	3156.67
1628.221	3131.93
1631.449	3115.89
1634.678	3191.96
1637.906	3142.14
1641.134	3189.35
1644.361	3137.28
1647.588	3123.39
1650.815	3139.64
1654.042	3124.6
1657.269	3159.55
1660.495	3103.94
1663.72	3089.79
1666.946	3061.42
1670.171	2980.32
1673.396	2954.01
1676.621	2949.39
1679.845	2986.64
1683.069	3016.86
1686.293	3065.24
1689.517	3027.83
1692.74	2938.84
1695.963	2969.79
1699.185	3022.46
1702.408	2989
1705.63	3038.66
1708.852	3047.3
1712.073	3019.19
1715.294	2987.91
1718.515	3057.64
1721.736	2998.24
1724.956	2996.76
1728.176	3026.45
1731.396	3044.43
1734.616	3034.3
1737.835	3055.99
1741.054	3041.34
1744.272	3038.03
1747.491	3058.47
1750.709	3131.34
1753.927	3009.52
1757.144	3068.32
1760.361	3099.92
1763.578	3105.06
1766.795	3041.06
1770.011	3055.58
1773.227	3109.84
1776.443	3137.04
1779.658	3181.55
1782.874	3129.34
1786.089	3095.34
1789.303	3097.86
1792.518	3110.13
1795.732	3097.49
1798.945	3100.42
1802.159	3159.01
1805.372	3037.71
1808.585	3011.66
1811.797	3016.32
1815.01	3080.34
1818.222	3078.13
1821.434	3009.15
1824.645	3091.1
1827.856	3052.88
1831.067	3091.79
1834.278	3066.48
1837.488	3043.87
1840.698	3212.88
1843.908	3124.67
1847.117	3085.33
1850.326	2940
1853.535	3062.91
1856.744	3134.15
1859.952	3027.79
1863.16	3032.38
1866.368	3055.2
1869.575	3152.15
1872.782	3042.28
1875.989	2977.52
1879.196	3086.4
1882.402	3079.42
1885.608	3121.79
1888.814	3001.96
1892.019	2886.48
1895.224	2939.21
1898.429	2927.94
1901.634	2904.07
1904.838	2880.73
1908.042	2922.9
1911.246	2929.36
1914.449	2838.2
1917.652	2841.8
1920.855	2828.65
1924.058	2890.1
1927.26	2921.04
1930.462	2953.51
1933.664	2970.62
1936.865	2907.17
1940.066	2906.48
1943.267	2857.62
1946.467	2878.94
1949.668	2911.05
1952.868	2978.71
1956.067	2946.99
1959.267	2874.95
1962.466	2905.56
1965.665	2889.42
1968.863	2891.29
1972.061	2913.99
1975.259	2920.19
1978.457	2999.58
1981.654	2953.67
1984.852	2951.48
1988.048	2872.71
1991.245	2884.47
1994.441	2968.96
1997.637	2968.89
2000.833	2954.58
2004.028	2994.04
2007.223	3043.76
2010.418	3009.18
2013.613	2978.75
2016.807	2935.21
2020.001	2954.57
2023.194	3009.39
2026.388	2981.82
2029.581	2927.32
2032.774	2968.23
2035.966	2969.63
2039.158	2889.44
2042.35	2919.7
2045.542	2849.26
2048.733	2963.13
2051.924	3007.72
2055.115	3041
2058.306	2971.65
2061.496	3033.9
2064.686	3109.36
2067.875	3026.6
2071.065	3050.2
2074.254	3083.68
2077.442	3032.9
2080.631	3128.96
2083.819	2992.99
2087.007	2966.87
2090.195	2928.66
2093.382	2978.91
2096.569	2955.78
2099.756	2900.4
2102.942	2913.92
2106.128	2909.43
2109.314	2902.07
2112.5	2852.37
2115.685	2835.79
2118.87	2846.74
2122.055	2914.27
2125.239	2870.69
2128.424	2830.48
2131.608	2963.23
2134.791	2948.9
2137.974	3017.3
2141.157	3000.87
2144.34	2940.73
2147.523	2974.21
2150.705	2977.86
2153.887	2966.43
2157.068	2901.26
2160.25	2918.2
2163.431	2969.07
2166.611	2896.31
2169.792	2904.77
2172.972	2790.96
2176.152	2888.86
2179.331	2928.37
2182.511	2893.53
2185.69	2924.78
2188.868	2911.07
2192.047	2980.83
2195.225	2952.36
2198.403	2902.76
2201.58	2901.15
2204.758	2905.57
2207.935	2991.11
2211.111	2858.3
2214.288	2841.52
2217.464	2884.58
2220.64	2870.01
2223.815	2929.73
2226.991	2842.51
2230.166	2865.55
2233.34	2883.22
2236.515	2917.4
2239.689	2990.76
2242.863	2931.46
2246.036	2995.46
2249.209	3002.95
2252.382	3050.07
2255.555	3020.17
2258.727	2949.07
2261.9	2996.42
2265.071	2988.22
2268.243	2994.33
2271.414	2914.71
2274.585	2862.72
2277.756	2935.34
2280.926	2891.73
2284.096	2940.28
2287.266	2831.38
2290.436	2893.91
2293.605	2930.49
2296.774	2954.78
2299.942	2984.83
2303.111	3002.12
2306.279	3048.02
2309.447	3039.7
2312.614	3017.31
2315.781	3028.39
2318.948	2999.83
2322.115	3037.18
2325.281	2941.3
2328.447	2968.18
2331.613	2944.55
2334.779	2908.21
2337.944	2917.81
2341.109	2910.4
2344.274	2886.67
2347.438	2850.79
2350.602	2880.39
2353.766	2895.98
2356.929	2881.73
2360.092	2925
2363.255	2863.86
2366.418	2777.82
2369.58	2918.9
2372.742	2654.82
2375.904	2682.28
2379.066	2652.11
2382.227	2694.95
2385.388	2658.28
2388.548	2569.41
2391.709	2632.75
2394.869	2605.77
2398.029	2733.31
2401.188	2758.31
2404.347	2673.1
2407.506	2848.22
2410.665	2876.21
2413.823	2894.12
2416.981	2835.65
2420.139	2878.03
2423.296	2933.66
2426.453	2906.47
2429.61	2934.86
2432.767	2842.96
2435.923	2878.37
2439.079	2814.27
2442.235	2878.3
2445.391	2792.06
2448.546	2809.44
2451.701	2872.14
2454.855	2825.96
2458.009	2893.71
2461.163	2904.13
2464.317	2853.9
2467.471	2893.93
2470.624	2939.94
2473.777	2939.27
2476.929	2947
2480.082	2973.89
2483.234	2934.42
2486.385	2866.91
2489.537	2859.51
2492.688	2804.18
2495.839	2824.33
2498.989	2828.63
2502.14	2809.97
2505.29	2786.56
2508.439	2813.94
2511.589	2725.78
2514.738	2747.7
2517.887	2782.29
2521.035	2872.14
2524.183	2867.86
2527.331	2839.69
2530.479	2800.18
2533.627	2818.21
