Data from C_2_HIR_WI_4N_Splice17_12-33-48-943.txt Node
Date: Sat Mar 14 12:33:48 EDT 2020
User: sa697716
Spectrometer: FLMS03696
Trigger mode: 0
Integration Time (sec): 3.180400E-1
Scans to average: 20
Electric dark correction enabled: true
Nonlinearity correction enabled: true
Boxcar width: 5
XAxis mode: Wavelengths
Number of Pixels in Spectrum: 2048
>>>>>Begin Spectral Data<<<<<
187.83	-304809.84
188.298	2225.62
188.766	1248.11
189.233	1118.83
189.701	1682.14
190.169	2173.83
190.636	757.29
191.104	603.83
191.571	40.83
192.039	-132.99
192.506	-115.73
192.974	377.67
193.441	-878.94
193.908	-96.27
194.375	-79.48
194.842	96.83
195.31	150.4
195.777	187.22
196.244	413.8
196.711	431.36
197.177	515.06
197.644	712.86
198.111	1213.17
198.578	1719.58
199.045	1365.82
199.511	2248.04
199.978	2572.39
200.445	2181.23
200.911	2401.77
201.378	2671.73
201.844	2442.11
202.31	4140.28
202.777	4359.59
203.243	2436.6
203.709	2325.74
204.176	2767.78
204.642	2303.16
205.108	2172.28
205.574	1752.31
206.04	1583.69
206.506	1483.9
206.972	1401.76
207.438	1359.12
207.903	1520.49
208.369	1337.6
208.835	1352.42
209.301	1410.46
209.766	1437.33
210.232	1422.16
210.697	1785.07
211.163	2196.5
211.628	3327.54
212.094	2801.53
212.559	3474.36
213.024	2205.34
213.49	2708.93
213.955	2655.42
214.42	2589.65
214.885	2427.76
215.35	2336.89
215.815	2281.57
216.28	2466.06
216.745	2026.5
217.21	2216.81
217.675	2055.68
218.14	2328.77
218.604	2635.49
219.069	3048.44
219.534	3281.2
219.998	3869.04
220.463	4738.53
220.927	5915.79
221.392	5618.96
221.856	5738.74
222.32	7305.21
222.785	9089.8
223.249	11522.96
223.713	12936.24
224.177	12983.77
224.642	16679.33
225.106	20580.85
225.57	22525.22
226.034	16719.94
226.497	25456.55
226.961	23036.45
227.425	26818.37
227.889	29756.78
228.353	29786.16
228.816	61448.5
229.28	58872.93
229.744	49700.96
230.207	30215.98
230.671	29734.22
231.134	49192.3
231.597	56772.65
232.061	56700.64
232.524	55299.44
232.987	38082.33
233.45	34254.76
233.914	30727.19
234.377	31425.31
234.84	28717.98
235.303	33826.65
235.766	37732.1
236.229	39011.24
236.691	24528.49
237.154	27519.72
237.617	20689.72
238.08	21185.09
238.542	24782.89
239.005	17705.39
239.468	17546.2
239.93	16530.67
240.393	15011.75
240.855	13161.53
241.317	13450.82
241.78	16362.66
242.242	16914.07
242.704	18222.23
243.166	15843.86
243.629	14379.19
244.091	16541.48
244.553	18116.02
245.015	19453.37
245.477	25128.4
245.939	36824.19
246.4	39062.48
246.862	37937.95
247.324	35718.77
247.786	39953.56
248.247	52326.47
248.709	53905.82
249.17	40322.13
249.632	38001.92
250.093	44022.91
250.555	38039.17
251.016	23193.35
251.477	21977.07
251.939	23677.21
252.4	24813.01
252.861	29506.23
253.322	27434.95
253.783	32665.54
254.244	42335.57
254.705	33346.84
255.166	29616.23
255.627	29106.53
256.088	41025.48
256.549	43549.09
257.009	37522.74
257.47	45527.51
257.931	37003.06
258.391	27690.15
258.852	28495.85
259.312	29818.42
259.773	36815.24
260.233	31103.02
260.694	26217.64
261.154	29729.94
261.614	23862.5
262.074	21296.34
262.534	22087.04
262.994	20810.13
263.455	27691.03
263.915	23315.86
264.374	21962.48
264.834	23950.13
265.294	26523.21
265.754	27458.38
266.214	25959.16
266.673	24313.08
267.133	30667.89
267.593	30422.43
268.052	37187.45
268.512	32347.81
268.971	39017.02
269.431	42733.6
269.89	38261.14
270.349	57336.67
270.809	63872.54
271.268	57350.81
271.727	128513.96
272.186	83179.17
272.645	62341.2
273.104	44947.44
273.563	65021.91
274.022	51098.46
274.481	43500.02
274.94	33492.62
275.399	24854.32
275.857	28897.33
276.316	39036.49
276.775	34708.84
277.233	34159.19
277.692	31980.51
278.15	36181.35
278.609	37193.49
279.067	34382.71
279.525	31866.97
279.984	41126.12
280.442	49428.25
280.9	48744.17
281.358	32063.91
281.816	29837.93
282.274	29216.52
282.732	30145.85
283.19	30275.01
283.648	26099.98
284.106	27748.65
284.564	28213.33
285.021	26115.02
285.479	19415.29
285.937	17632.4
286.394	15457.57
286.852	15902.47
287.309	16679.58
287.767	16118.02
288.224	15297.3
288.682	16775.37
289.139	18412.45
289.596	16833.51
290.053	17473.38
290.511	22062.38
290.968	26731.74
291.425	36267.79
291.882	30179.2
292.339	26278.97
292.796	26004.99
293.252	24472.87
293.709	19432.53
294.166	17409.88
294.623	19223.1
295.079	18432.86
295.536	18479.87
295.992	16753.29
296.449	16538.79
296.905	17166.32
297.362	16414.55
297.818	17230.9
298.274	17888.8
298.731	18210.49
299.187	17972.46
299.643	19260.68
300.099	23259.99
300.555	25502.53
301.011	21309.31
301.467	20544.21
301.923	24012.16
302.379	23453.25
302.835	23063.15
303.291	23059.28
303.746	26204.99
304.202	33109.28
304.658	33234.72
305.113	22344.96
305.569	21898.38
306.024	23334.88
306.479	22175.7
306.935	18668.75
307.39	20367.39
307.845	18782.37
308.301	18868.3
308.756	18352.03
309.211	17665.53
309.666	18079.33
310.121	22427.69
310.576	22726.21
311.031	22519.34
311.486	25751.12
311.94	25738.59
312.395	34379.75
312.85	64548.03
313.305	316641.97
313.759	1639515.33
314.214	118830.65
314.668	94104.58
315.123	79067.17
315.577	28293.01
316.032	25155.58
316.486	31511.83
316.94	24833.84
317.394	17289.12
317.849	13424.53
318.303	12696.72
318.757	11972.88
319.211	13213.53
319.665	11542.55
320.119	11675.67
320.572	16734.57
321.026	15613.97
321.48	12991.44
321.934	14141.94
322.387	14169.9
322.841	15295.79
323.295	13759.92
323.748	15801.89
324.202	15997.6
324.655	19211.5
325.108	26794.87
325.562	18920.02
326.015	22443.63
326.468	16910.73
326.921	18876.71
327.374	17561.27
327.827	18269.47
328.28	20630.95
328.733	13837.91
329.186	12166.95
329.639	11602.15
330.092	9777.01
330.545	9305.65
330.997	9385.37
331.45	10282.38
331.903	12055.5
332.355	20732.67
332.808	20136.42
333.26	16599.25
333.713	17997.39
334.165	18104.69
334.617	24114.87
335.069	19476.7
335.522	35173.86
335.974	38898.96
336.426	35408.37
336.878	24489.95
337.33	12433.61
337.782	12119.69
338.234	15201.39
338.686	18171.15
339.137	21527.73
339.589	20266.1
340.041	15850.33
340.493	13618.1
340.944	13940.44
341.396	15029.83
341.847	12645.31
342.299	14912.35
342.75	18215.84
343.201	15860.49
343.653	18231.46
344.104	22338.25
344.555	17548.94
345.006	27295.02
345.457	20928.95
345.908	16634.98
346.359	15666.82
346.81	12746.3
347.261	13392.46
347.712	13173.69
348.163	14134.99
348.613	14328.15
349.064	13386.82
349.515	11715.99
349.965	12018.09
350.416	14445.69
350.866	15812.22
351.317	17798.02
351.767	29456.32
352.217	37190.66
352.668	30824.69
353.118	28244.61
353.568	27191.18
354.018	21547.54
354.468	22753.91
354.918	16324.9
355.368	14251.3
355.818	20165.35
356.268	58015.92
356.718	242377.65
357.168	60338.77
357.617	30250.46
358.067	33587.63
358.517	31429.92
358.966	36785.88
359.416	41204.96
359.865	44502.93
360.315	53023.48
360.764	24692.7
361.213	13878.1
361.663	13134.39
362.112	16166.45
362.561	26129.3
363.01	19697.89
363.459	16572.71
363.908	17915.02
364.357	15228.57
364.806	25683.12
365.255	17625.17
365.703	16167.55
366.152	16125.79
366.601	13103.13
367.05	10662.07
367.498	9687.53
367.947	10130.97
368.395	10528.99
368.844	9316.55
369.292	11179.92
369.74	7728.86
370.189	11812.92
370.637	13795.86
371.085	11911.43
371.533	14474.8
371.981	13919.75
372.429	13253.96
372.877	13759.59
373.325	11495.61
373.773	11697.21
374.221	10434.46
374.669	12945.32
375.116	11205.19
375.564	11317.51
376.012	12657.11
376.459	10467.74
376.907	12515.56
377.354	15087.78
377.801	14072.58
378.249	16184.08
378.696	20679.5
379.143	25070.91
379.591	26645.9
380.038	45155.52
380.485	32653.93
380.932	35272.49
381.379	32188.7
381.826	23754.1
382.273	16926.48
382.72	14806.93
383.166	14471.13
383.613	9404.9
384.06	8463.78
384.506	9820.17
384.953	7210.96
385.4	7257.1
385.846	6361.18
386.292	6201.94
386.739	6076.92
387.185	6013.19
387.631	6030.76
388.078	5869.8
388.524	6284.62
388.97	5820.5
389.416	4871.56
389.862	5203.25
390.308	4950.57
390.754	5045.31
391.2	5482.73
391.645	5622.37
392.091	5424.88
392.537	5266.36
392.983	5285.58
393.428	5229.96
393.874	5629.56
394.319	5672.03
394.765	5394.83
395.21	5559.51
395.655	5228.44
396.101	4927.33
396.546	4460.45
396.991	4497.67
397.436	4185.56
397.881	4055.14
398.326	3856.53
398.771	3661.26
399.216	3206.26
399.661	2894.61
400.106	2893.24
400.551	2978.35
400.995	2677.5
401.44	2656.53
401.885	2501.47
402.329	2532.13
402.774	2441.88
403.218	2369.71
403.663	2289.36
404.107	2362.64
404.551	2390.45
404.995	2196.59
405.44	2117.14
405.884	2148.22
406.328	2079.91
406.772	2074.38
407.216	1897.38
407.66	1828.59
408.104	1738.4
408.547	1625.31
408.991	1571.23
409.435	1509.8
409.879	1490.33
410.322	1469.95
410.766	1426.28
411.209	1359.47
411.653	1309.49
412.096	1282.05
412.54	1283.74
412.983	1274.55
413.426	1283.11
413.869	1283.65
414.312	1264.57
414.756	1219.86
415.199	1166.22
415.642	1132.92
416.085	1135.06
416.527	1126.64
416.97	1146.13
417.413	1088.86
417.856	1076.69
418.298	1064.84
418.741	1056.09
419.184	1049.86
419.626	1094.97
420.069	1096.34
420.511	1103.11
420.953	1081.12
421.396	1069.57
421.838	1040.52
422.28	1065.01
422.722	1071.65
423.164	1087.49
423.606	1072.45
424.048	1072.5
424.49	1018.42
424.932	1011.8
425.374	996.56
425.816	1011.58
426.258	1032.15
426.699	1046.61
427.141	1031.73
427.582	1045.6
428.024	1038.42
428.465	1029.91
428.907	1003.77
429.348	991
429.789	991.1
430.231	970.94
430.672	983.22
431.113	960.4
431.554	946.71
431.995	921.58
432.436	890.7
432.877	871.23
433.318	858.76
433.759	853.96
434.2	852.8
434.64	844.44
435.081	845.03
435.522	802.63
435.962	772
436.403	754.46
436.843	765.07
437.284	748.13
437.724	729.26
438.164	730.38
438.604	713.83
439.045	688.81
439.485	661.43
439.925	649.74
440.365	634.24
440.805	627.96
441.245	621.84
441.685	600.45
442.125	595.69
442.564	598.92
443.004	587.78
443.444	588.84
443.883	591.35
444.323	587.21
444.762	588.19
445.202	595.89
445.641	608.96
446.081	603.99
446.52	611.58
446.959	609.25
447.398	597.65
447.837	592.43
448.276	583.33
448.716	590.41
449.154	597.21
449.593	585.86
450.032	587.29
450.471	577.95
450.91	581.46
451.349	582.34
451.787	581.64
452.226	591.34
452.664	592.66
453.103	595.84
453.541	596.56
453.98	597.88
454.418	603.32
454.856	595.13
455.295	594.71
455.733	599.6
456.171	601.48
456.609	604.07
457.047	605.44
457.485	614.71
457.923	616.58
458.361	608.1
458.798	609.95
459.236	608.79
459.674	612.72
460.111	616.85
460.549	612.47
460.987	611.45
461.424	608.04
461.862	605.33
462.299	597.05
462.736	597.13
463.173	600.23
463.611	596.31
464.048	595.22
464.485	599.85
464.922	594.59
465.359	589.81
465.796	584.41
466.233	580.96
466.67	575.73
467.106	574
467.543	567.48
467.98	560.27
468.416	544.53
468.853	538.86
469.29	523.28
469.726	516.9
470.162	504.03
470.599	494.95
471.035	490.08
471.471	477.55
471.907	473.33
472.344	470.51
472.78	471.22
473.216	475.58
473.652	471.48
474.088	470.11
474.523	468.64
474.959	473.39
475.395	470.09
475.831	467.21
476.266	470.13
476.702	470.73
477.138	466.05
477.573	465.28
478.008	464.74
478.444	467.31
478.879	473.15
479.314	475.93
479.75	475.35
480.185	477.35
480.62	482.37
481.055	485.69
481.49	489.33
481.925	496.37
482.36	506.36
482.795	520.33
483.229	533.96
483.664	544.89
484.099	547.98
484.534	557.89
484.968	564.4
485.403	567.68
485.837	567.21
486.271	566.42
486.706	568.87
487.14	562.5
487.574	554.95
488.009	551.31
488.443	547.65
488.877	554.29
489.311	557.32
489.745	565.89
490.179	572.11
490.613	584.99
491.046	590.85
491.48	596.38
491.914	599.14
492.348	605.09
492.781	611.05
493.215	614.39
493.648	618.11
494.082	626.03
494.515	628.38
494.948	638.4
495.382	644.68
495.815	652.46
496.248	660.35
496.681	675
497.114	689.11
497.547	701
497.98	716.54
498.413	725.22
498.846	736.54
499.279	747.93
499.711	755.01
500.144	761.06
500.577	775.12
501.009	789.34
501.442	801.84
501.874	806.16
502.306	811.95
502.739	823.23
503.171	841.02
503.603	847.66
504.036	861.08
504.468	869.81
504.9	884.33
505.332	894.15
505.764	901.53
506.196	912.46
506.627	931.28
507.059	947.9
507.491	960.04
507.923	960.71
508.354	978.53
508.786	991.1
509.217	1011.37
509.649	1029.18
510.08	1050.28
510.512	1069.04
510.943	1085.99
511.374	1100.24
511.805	1122.21
512.237	1142.6
512.668	1176.56
513.099	1206.15
513.53	1235.27
513.961	1257.85
514.391	1290.99
514.822	1326.17
515.253	1364.29
515.684	1389.5
516.114	1418.29
516.545	1440.89
516.975	1467.25
517.406	1485.3
517.836	1486.76
518.267	1493.08
518.697	1510.46
519.127	1513.02
519.558	1517.59
519.988	1519.27
520.418	1529.57
520.848	1545.55
521.278	1551.7
521.708	1570.97
522.138	1582.62
522.567	1612.69
522.997	1635.67
523.427	1648.64
523.857	1663.79
524.286	1673.06
524.716	1687.24
525.145	1703.56
525.575	1712.2
526.004	1725.58
526.433	1713.86
526.863	1712.12
527.292	1699
527.721	1703.55
528.15	1708.57
528.579	1707.64
529.008	1716.74
529.437	1737.68
529.866	1750.5
530.295	1768.03
530.724	1779.26
531.152	1804.81
531.581	1817.59
532.01	1834.63
532.438	1842.53
532.867	1855.24
533.295	1874.2
533.723	1879.85
534.152	1876.88
534.58	1876.16
535.008	1858.26
535.436	1859.95
535.865	1866.94
536.293	1880.99
536.721	1896.51
537.149	1920.68
537.576	1924.27
538.004	1934.8
538.432	1942.09
538.86	1940.3
539.287	1946.56
539.715	1959.8
540.143	1961.5
540.57	1956.11
540.998	1951.91
541.425	1928.25
541.852	1906.45
542.28	1902.66
542.707	1886.71
543.134	1872.24
543.561	1866.38
543.988	1858.54
544.415	1857.96
544.842	1851.68
545.269	1845.21
545.696	1847.34
546.123	1860.7
546.549	1849.91
546.976	1837.77
547.403	1835.53
547.829	1836.5
548.256	1838.47
548.682	1834.44
549.108	1825.42
549.535	1823.63
549.961	1824.83
550.387	1810.38
550.813	1803.39
551.24	1809.44
551.666	1809.49
552.092	1800.7
552.518	1794.53
552.943	1788.88
553.369	1796.45
553.795	1802.7
554.221	1805.06
554.646	1802.78
555.072	1814.81
555.498	1820.98
555.923	1830.68
556.349	1846.83
556.774	1856.12
557.199	1857.92
557.625	1864.23
558.05	1858.34
558.475	1870.32
558.9	1869.78
559.325	1862.74
559.75	1856.47
560.175	1851.81
560.6	1846.82
561.025	1845.97
561.449	1849.06
561.874	1856.04
562.299	1861.74
562.723	1871.52
563.148	1861.21
563.572	1866.75
563.997	1877.92
564.421	1884.35
564.846	1885.21
565.27	1890.17
565.694	1888.89
566.118	1901.78
566.542	1911.31
566.966	1906.81
567.39	1903.39
567.814	1895.24
568.238	1897.45
568.662	1904.3
569.086	1910.14
569.509	1919.27
569.933	1904.86
570.357	1899.32
570.78	1879.05
571.204	1866.8
571.627	1857.66
572.05	1857.11
572.474	1858.02
572.897	1844.94
573.32	1838.43
573.743	1828.82
574.166	1811.03
574.589	1813.3
575.012	1807.34
575.435	1807.52
575.858	1798.62
576.281	1788.07
576.704	1772.04
577.126	1760.09
577.549	1750.66
577.972	1741.76
578.394	1732.3
578.817	1726.72
579.239	1707.21
579.661	1693.62
580.084	1677.96
580.506	1665.14
580.928	1661.51
581.35	1650.65
581.772	1647.28
582.194	1633.53
582.616	1620.72
583.038	1605.75
583.46	1595.07
583.882	1592.78
584.303	1597.22
584.725	1593.32
585.147	1595.51
585.568	1608.14
585.99	1622.53
586.411	1631.3
586.833	1647.25
587.254	1649.99
587.675	1666.3
588.096	1680.43
588.518	1675.45
588.939	1657.99
589.36	1657.26
589.781	1648.07
590.202	1617.85
590.623	1609.64
591.043	1607.25
591.464	1595.71
591.885	1591.68
592.305	1585.83
592.726	1571.27
593.147	1573.48
593.567	1567.84
593.987	1559.65
594.408	1553.97
594.828	1552.54
595.248	1545.98
595.669	1525.95
596.089	1517.82
596.509	1511.35
596.929	1497.56
597.349	1497.4
597.769	1485.7
598.189	1480.07
598.608	1480.98
599.028	1484.07
599.448	1482.7
599.867	1469.02
600.287	1464.6
600.706	1460.22
601.126	1450.29
601.545	1448.87
601.965	1448.12
602.384	1442.89
602.803	1445.88
603.222	1441.46
603.641	1433.98
604.061	1431.22
604.48	1427.03
604.898	1435.62
605.317	1441.23
605.736	1443.72
606.155	1440.19
606.574	1431.18
606.992	1437.57
607.411	1432.84
607.829	1424.69
608.248	1421.1
608.666	1418.8
609.085	1419.19
609.503	1409.79
609.921	1403.07
610.339	1404.55
610.758	1404.34
611.176	1400.11
611.594	1389.87
612.012	1386.21
612.43	1389.47
612.847	1396.39
613.265	1396.72
613.683	1400.51
614.101	1402.85
614.518	1399.08
614.936	1388.65
615.353	1372.77
615.771	1369.36
616.188	1370.71
616.606	1366.97
617.023	1359.35
617.44	1343.86
617.857	1337.11
618.274	1327.99
618.691	1321.31
619.108	1310.51
619.525	1304.78
619.942	1311.71
620.359	1313.88
620.776	1307.17
621.192	1302.38
621.609	1299.9
622.026	1307.76
622.442	1313.44
622.859	1317.11
623.275	1307.92
623.691	1314.39
624.108	1326.27
624.524	1341.58
624.94	1341.39
625.356	1352.26
625.772	1366.6
626.188	1378.53
626.604	1379.66
627.02	1374.7
627.436	1373.48
627.852	1381.68
628.268	1393.11
628.683	1382.78
629.099	1374.39
629.514	1369.34
629.93	1372.95
630.345	1376.89
630.761	1372.83
631.176	1376.6
631.591	1370.63
632.007	1363.75
632.422	1362.68
632.837	1351.54
633.252	1348.98
633.667	1338.48
634.082	1329.66
634.497	1316.87
634.911	1296.41
635.326	1292.12
635.741	1273.83
636.155	1263.52
636.57	1264.02
636.984	1262.08
637.399	1263.4
637.813	1261.87
638.228	1259.46
638.642	1262.85
639.056	1250.76
639.47	1250.03
639.884	1240.27
640.298	1233.2
640.712	1230.78
641.126	1217.65
641.54	1207.33
641.954	1201.68
642.368	1188.93
642.781	1179.54
643.195	1159.9
643.609	1159.22
644.022	1152.93
644.436	1148.77
644.849	1134.66
645.262	1122.67
645.676	1121.61
646.089	1116.24
646.502	1099.07
646.915	1091.72
647.328	1074.35
647.741	1070.63
648.154	1056.51
648.567	1050.52
648.98	1034.69
649.393	1034.41
649.805	1028.54
650.218	1019.92
650.631	1002.36
651.043	993.5
651.456	986.93
651.868	984.86
652.28	1000.19
652.693	1012.18
653.105	1017.64
653.517	1026.01
653.929	1023.49
654.341	1026.96
654.753	1012.09
655.165	1015.48
655.577	1011.25
655.989	1003.19
656.401	991.74
656.813	954.41
657.224	931.08
657.636	900.69
658.047	879.69
658.459	857.67
658.87	844.5
659.282	828.68
659.693	806.9
660.104	789.19
660.515	772.82
660.926	768.53
661.338	761.37
661.749	751.52
662.159	738.25
662.57	729.41
662.981	719.87
663.392	709.08
663.803	709.38
664.213	701.71
664.624	693.11
665.035	690.25
665.445	673.28
665.855	663.19
666.266	652.55
666.676	646.33
667.086	635.24
667.497	632.46
667.907	624.38
668.317	613.16
668.727	608.86
669.137	607.17
669.547	603.03
669.956	601.87
670.366	600.13
670.776	599.36
671.186	600.59
671.595	601.89
672.005	601.89
672.414	599.94
672.824	598.26
673.233	598.25
673.642	598.32
674.052	599.73
674.461	600.9
674.87	604.47
675.279	601.53
675.688	601.11
676.097	601.14
676.506	598.59
676.915	609.44
677.323	612.31
677.732	611.63
678.141	612
678.549	603.94
678.958	603.95
679.366	603.31
679.775	607.96
680.183	619.11
680.592	626.49
681	634.07
681.408	632.52
681.816	641.75
682.224	653.06
682.632	667.31
683.04	698.22
683.448	725.31
683.856	758.25
684.264	795.78
684.671	831.53
685.079	874.5
685.487	923.01
685.894	986.84
686.302	1042.03
686.709	1089.54
687.116	1143.61
687.524	1191.14
687.931	1232.54
688.338	1270.06
688.745	1302.98
689.152	1338.95
689.559	1384.57
689.966	1428.58
690.373	1452.44
690.78	1493.68
691.187	1558.5
691.593	1606.56
692	1646.9
692.407	1706.67
692.813	1780.04
693.22	1838.61
693.626	1897.42
694.032	1942.86
694.439	2013.54
694.845	2068.11
695.251	2136.79
695.657	2194.96
696.063	2286.19
696.469	2352.88
696.875	2414.41
697.281	2443.98
697.687	2481.03
698.093	2510.87
698.498	2576.9
698.904	2625.97
699.31	2702.17
699.715	2755.59
700.12	2835.27
700.526	2843.57
700.931	2901.34
701.337	2942.94
701.742	2967.04
702.147	3040.9
702.552	3062.23
702.957	3110.53
703.362	3120.36
703.767	3138.57
704.172	3168.04
704.577	3115.95
704.981	3153.18
705.386	3161.88
705.791	3146.33
706.195	3210.92
706.6	3212.94
707.004	3281.08
707.408	3246.79
707.813	3267.56
708.217	3251.3
708.621	3248.26
709.025	3334.13
709.43	3330.67
709.834	3379.92
710.237	3439.61
710.641	3420.16
711.045	3434.47
711.449	3423.43
711.853	3444.71
712.256	3477.08
712.66	3505.18
713.064	3567.64
713.467	3599.74
713.87	3697.09
714.274	3733.46
714.677	3827.33
715.08	3967.79
715.484	4113.48
715.887	4291.61
716.29	4466.53
716.693	4648.21
717.096	4859.42
717.499	4970.87
717.901	4986.93
718.304	5002.96
718.707	5019.12
719.109	4921.1
719.512	4886.39
719.915	4762.45
720.317	4708.44
720.719	4740.41
721.122	4708.29
721.524	4661.75
721.926	4623.37
722.328	4706.81
722.731	4693.94
723.133	4714.53
723.535	4881.32
723.937	4893.31
724.338	4933.59
724.74	4965.21
725.142	4918.04
725.544	4912.77
725.945	4931.31
726.347	4920.13
726.748	4912.14
727.15	4921
727.551	4885.41
727.952	4855.03
728.354	4826.58
728.755	4824.21
729.156	4785.24
729.557	4759.56
729.958	4649.61
730.359	4598.49
730.76	4581.6
731.161	4527.59
731.562	4502.45
731.962	4501.94
732.363	4446.83
732.763	4390.41
733.164	4417.37
733.564	4355.31
733.965	4271.19
734.365	4241.25
734.766	4262.82
735.166	4228.02
735.566	4178.76
735.966	4155.08
736.366	4149.52
736.766	4094.2
737.166	4117.91
737.566	4083.58
737.966	4060.3
738.365	4093.62
738.765	4087.22
739.165	4022.15
739.564	3999.6
739.964	4035.95
740.363	3995.75
740.763	3993.84
741.162	3985.52
741.561	3960.43
741.96	3917.91
742.36	3936.26
742.759	3940.06
743.158	3973.8
743.557	3986.45
743.955	4019.22
744.354	3980.01
744.753	4029.25
745.152	3992.86
745.55	4037.09
745.949	4031.32
746.348	4033.22
746.746	4042.9
747.144	4008.4
747.543	3986.22
747.941	4026.53
748.339	3966.74
748.737	3960.77
749.136	3954
749.534	4007.67
749.932	3982.64
750.33	4001.39
750.727	4046.7
751.125	4026.3
751.523	4012.09
751.921	4049.94
752.318	4020.84
752.716	4070.72
753.113	4081.58
753.511	4101.28
753.908	4100.91
754.305	4089.09
754.703	4141.51
755.1	4194.89
755.497	4245.76
755.894	4406.48
756.291	4558.84
756.688	4839.48
757.085	5211.24
757.482	5735.85
757.878	6308.6
758.275	6829.2
758.672	7537.3
759.068	8118.52
759.465	8942.75
759.861	10012.86
760.258	11255.29
760.654	11890.22
761.05	11790.95
761.447	11249.26
761.843	10471.25
762.239	9667.97
762.635	9302.9
763.031	8956.67
763.427	8453.81
763.822	7930.18
764.218	7410.92
764.614	6731.25
765.01	6282
765.405	5991.62
765.801	5770.25
766.196	5487.55
766.592	5328.1
766.987	5061.83
767.382	4881
767.778	4805.93
768.173	4695.6
768.568	4631.44
768.963	4526.92
769.358	4541.35
769.753	4500.21
770.148	4428.14
770.542	4425.82
770.937	4399.86
771.332	4475.88
771.726	4491.78
772.121	4438.48
772.515	4482.84
772.91	4471.56
773.304	4530.18
773.699	4472.99
774.093	4517.65
774.487	4566.16
774.881	4600.2
775.275	4595.95
775.669	4560.29
776.063	4598.06
776.457	4628.73
776.851	4567.29
777.245	4559.66
777.638	4589.75
778.032	4685.53
778.425	4655.56
778.819	4691.23
779.212	4659.51
779.606	4627.42
779.999	4644.04
780.392	4630.51
780.786	4698.3
781.179	4714.34
781.572	4751.08
781.965	4759.3
782.358	4712.49
782.751	4761.47
783.143	4719.44
783.536	4781.94
783.929	4815.72
784.322	4910.39
784.714	4936.8
785.107	4933.3
785.499	4996.8
785.891	4978.64
786.284	4962.35
786.676	5083.51
787.068	5064.78
787.46	5108.98
787.852	5123.01
788.245	5196.31
788.636	5222.57
789.028	5280.5
789.42	5315.53
789.812	5321
790.204	5406.83
790.595	5493.68
790.987	5325.24
791.378	5345.2
791.77	5452.23
792.161	5566.66
792.553	5616.05
792.944	5524.53
793.335	5464.08
793.726	5526.25
794.117	5601.8
794.508	5714.12
794.899	5687.58
795.29	5807.72
795.681	5853.99
796.072	5734.22
796.463	5582.97
796.853	5592.1
797.244	5724.09
797.634	5753.87
798.025	5751.73
798.415	5759.35
798.806	5834.52
799.196	5905.58
799.586	5950.92
799.976	5924.9
800.366	6120.39
800.756	6319.33
801.146	6281.24
801.536	6306.17
801.926	6366.27
802.316	6385.84
802.706	6446.93
803.095	6339.85
803.485	6424.7
803.874	6456.33
804.264	6670.46
804.653	6649.34
805.043	6768.97
805.432	6863.83
805.821	6866.45
806.21	6884.71
806.599	6982.86
806.988	7023.82
807.377	7117
807.766	7225.59
808.155	7463.69
808.544	7243.15
808.933	7255.32
809.321	7239.36
809.71	7487.76
810.098	7617.45
810.487	8005.24
810.875	8412.05
811.264	8426.97
811.652	8673.27
812.04	8798.23
812.428	8940.64
812.816	9580.47
813.204	9929.88
813.592	10394.01
813.98	10672.07
814.368	10588.26
814.756	10995.3
815.144	10929.33
815.531	11327.81
815.919	11262.85
816.306	11520.11
816.694	11257.62
817.081	11297.91
817.469	11591.7
817.856	11594.73
818.243	11824.02
818.63	12159.06
819.017	11799.83
819.404	11851.35
819.791	12170.61
820.178	12686.28
820.565	12898.73
820.952	13688.5
821.339	13273.47
821.725	13430.33
822.112	12795.71
822.498	12762.7
822.885	12872.04
823.271	12793.64
823.657	13143.02
824.044	13146.78
824.43	13205.28
824.816	13179.04
825.202	12805.73
825.588	13667.14
825.974	13683.78
826.36	14125.11
826.746	14151.04
827.132	14448.74
827.517	14427.5
827.903	13769.61
828.289	13802.52
828.674	13157.15
829.06	13065.8
829.445	13402.91
829.83	13703.86
830.216	14098.57
830.601	14405.81
830.986	14066.92
831.371	13958.59
831.756	14424.25
832.141	14061.74
832.526	14059.98
832.911	14292.03
833.295	14194.92
833.68	14581.22
834.065	14056.34
834.449	13291.9
834.834	13233.65
835.218	13231.34
835.603	13523.81
835.987	13353.21
836.371	14060.36
836.755	13963.46
837.139	14301.59
837.524	14506
837.908	14358.8
838.291	14417.46
838.675	14468.81
839.059	14637.08
839.443	14626.62
839.827	14421.85
840.21	14817.82
840.594	14692.87
840.977	14870.87
841.361	14857.06
841.744	15172.86
842.127	15042.84
842.511	15249.96
842.894	15748.36
843.277	16068.31
843.66	16528.36
844.043	16599.26
844.426	15929.57
844.809	15666.86
845.191	15699.29
845.574	15312.64
845.957	15004.11
846.339	14914.15
846.722	14473.26
847.104	14539.82
847.487	14396.79
847.869	14398.12
848.252	14627.03
848.634	14902.29
849.016	15120.17
849.398	15228.61
849.78	15940.83
850.162	15947.79
850.544	16296.1
850.926	16819.89
851.307	16739.3
851.689	16975.48
852.071	17362.5
852.452	17647.82
852.834	17627.29
853.215	17965.1
853.597	18084.44
853.978	18331.88
854.359	18716
854.741	17884.07
855.122	17796.19
855.503	17557.83
855.884	17665.43
856.265	17612.74
856.646	17708.47
857.026	17385.22
857.407	17326.44
857.788	17462
858.169	17702.31
858.549	16988.11
858.93	17505.24
859.31	17546.92
859.69	17727.64
860.071	17397.37
860.451	17212.94
860.831	16583.76
861.211	17557.15
861.591	18008.52
861.971	17991.01
862.351	18152.28
862.731	18480.19
863.111	18703.85
863.491	18987.54
863.87	19712.56
864.25	19993.86
864.629	19666.29
865.009	20101.39
865.388	20813.89
865.768	22306.83
866.147	22207.09
866.526	20963.89
866.905	21210.97
867.284	22398.58
867.663	21253.9
868.042	20364.81
868.421	20295.64
868.8	20618.06
869.179	20810.83
869.558	19588.17
869.936	18058.37
870.315	18375.22
870.693	18830.5
871.072	20298.13
871.45	19339.11
871.828	19600.98
872.207	20615.52
872.585	20301.12
872.963	20848.78
873.341	20140.38
873.719	19914.46
874.097	19678.57
874.475	20059
874.853	20525.37
875.23	19686.84
875.608	20505.64
875.986	22172.77
876.363	21205.83
876.741	21860.8
877.118	21335.29
877.495	22379.61
877.873	22747.87
878.25	23943.7
878.627	22974.77
879.004	23285.51
879.381	23166.3
879.758	22569.4
880.135	21019.14
880.512	22229.44
880.889	21630.5
881.265	21394.02
881.642	21219.53
882.019	21582.62
882.395	21145.94
882.772	21989.08
883.148	21037.9
883.524	20956.35
883.901	20829.84
884.277	21133.55
884.653	21002.8
885.029	21622.84
885.405	23955.88
885.781	23782
886.157	22807.32
886.532	23086.51
886.908	23068.5
887.284	25643.6
887.659	26477.33
888.035	27298.79
888.411	28006.12
888.786	28389.28
889.161	29364.36
889.537	28827.35
889.912	29749.65
890.287	29725.71
890.662	30503.46
891.037	29936.71
891.412	27933.18
891.787	27657.98
892.162	26708.44
892.536	27332.51
892.911	26290.37
893.286	25735.39
893.66	24681.13
894.035	25311.09
894.409	27545.2
894.784	26422.51
895.158	26860.7
895.532	28445.34
895.906	29223.22
896.281	29899.09
896.655	29437.07
897.029	33641.31
897.402	35033.01
897.776	39009.12
898.15	38860.6
898.524	38467.16
898.898	38977.92
899.271	43655.39
899.645	37823.87
900.018	36321.9
900.392	37662.39
900.765	37949.07
901.138	35126.69
901.511	34614.56
901.884	31785.47
902.258	29333.36
902.631	30293.85
903.003	34850.44
903.376	31456.66
903.749	35261.97
904.122	37755.82
904.495	41589.76
904.867	42106.37
905.24	36551.95
905.612	34008.02
905.985	34772.28
906.357	36337.85
906.729	34686.23
907.102	29650.49
907.474	28506.44
907.846	28684.45
908.218	28283.33
908.59	24998.07
908.962	24189.28
909.334	26053.94
909.705	27367.15
910.077	26584.74
910.449	27671.28
910.82	28457.09
911.192	31308.87
911.563	32531.33
911.935	34819.55
912.306	34871.24
912.677	36011.13
913.048	35630.17
913.419	38629.83
913.79	38862.19
914.161	41666.69
914.532	39829.49
914.903	36590.03
915.274	34741.83
915.645	34259.74
916.015	30153.22
916.386	28759.22
916.756	30601.44
917.127	31575.43
917.497	28211.21
917.868	30701.49
918.238	29170.86
918.608	30017.5
918.978	30645.94
919.348	32471.19
919.718	33545.09
920.088	32330.5
920.458	33601.12
920.828	35352.76
921.198	33523.22
921.567	35836
921.937	27766.65
922.306	28035.7
922.676	30235.56
923.045	25223.87
923.415	23962.01
923.784	21812.5
924.153	22421.99
924.522	22395.2
924.891	21051.93
925.26	22546.68
925.629	22003.55
925.998	25290.15
926.367	24679.92
926.736	23510.86
927.104	28010.63
927.473	30100.46
927.842	36369.24
928.21	36024.34
928.578	37846.54
928.947	35818.61
929.315	36041.3
929.683	42289.69
930.051	42639.02
930.42	49549.6
930.788	42343.15
931.156	42026.32
931.523	39426.18
931.891	36440.5
932.259	35015.12
932.627	40615.34
932.994	57434.21
933.362	47486.3
933.729	41233.45
934.097	39459.49
934.464	33402.02
934.831	38534.6
935.199	37987.16
935.566	36837.38
935.933	37442.85
936.3	45398.27
936.667	35382.29
937.034	31969.5
937.401	31668.2
937.767	27351.49
938.134	24368.21
938.501	34356.46
938.867	36653.2
939.234	61967.42
939.6	52922.26
939.967	58080.01
940.333	38808.35
940.699	33027.27
941.065	26455.53
941.431	34658.75
941.798	33411.91
942.163	43893.69
942.529	27401.38
942.895	25211.76
943.261	16316.36
943.627	21391.7
943.992	18749.09
944.358	18782.95
944.723	18856.52
945.089	18387.94
945.454	16997.3
945.82	18157.82
946.185	17444.48
946.55	20237.72
946.915	18146.02
947.28	21291.73
947.645	18738.07
948.01	17269.63
948.375	18018.73
948.74	21569.14
949.104	25154.81
949.469	36273.41
949.834	64122.4
950.198	60789.44
950.562	36418.43
950.927	30355.45
951.291	36514.6
951.655	31088.88
952.02	29230.86
952.384	22101.19
952.748	19257.88
953.112	18806.36
953.476	16358.77
953.839	15115.65
954.203	14975.2
954.567	18729.26
954.931	29483.5
955.294	25243.48
955.658	25393.09
956.021	43161.16
956.385	73164.03
956.748	107908.58
957.111	167238.37
957.474	187698.84
957.837	211330.9
958.2	159819.81
958.563	57470.12
958.926	38901.12
959.289	59044.29
959.652	66028.5
960.015	49570.98
960.377	71112.04
960.74	81275.17
961.102	140170.51
961.465	150614.21
961.827	80846.64
962.189	155064.52
962.552	107619.21
962.914	86263.25
963.276	55979.48
963.638	46267.15
964	45814.5
964.362	30987.85
964.724	29903.29
965.085	21361.98
965.447	17526.24
965.809	19943.5
966.17	19952.99
966.532	21587.76
966.893	19801.19
967.255	18009.84
967.616	21250.55
967.977	17015.55
968.338	18597.65
968.699	15297.08
969.061	15296.53
969.421	15379.61
969.782	17274.13
970.143	14623.84
970.504	15147.33
970.865	17233.17
971.225	17644.33
971.586	17275.36
971.946	24647.14
972.307	21385.33
972.667	27949.38
973.027	28772.43
973.388	34911.38
973.748	23764.01
974.108	25855.52
974.468	34977.68
974.828	26998.64
975.188	20734.21
975.548	19038.1
975.907	15980.74
976.267	17921.26
976.627	15065.71
976.986	15606.1
977.346	14876.88
977.705	14302.3
978.064	13035.93
978.424	10846.53
978.783	11205.18
979.142	12807.55
979.501	12267.25
979.86	12960.78
980.219	12489.73
980.578	16115.05
980.937	18069.56
981.296	16105.3
981.654	16551.79
982.013	25717.85
982.371	33363.34
982.73	31136.13
983.088	35239.44
983.447	37606.43
983.805	53750.95
984.163	112511.21
984.521	124816.65
984.879	182802.72
985.237	-297597.13
985.595	286907.59
985.953	71472.05
986.311	41321.98
986.669	24023.19
987.026	20719.99
987.384	27842.02
987.741	28750.17
988.099	20543.46
988.456	16372.63
988.814	15344
989.171	13313.63
989.528	13156.18
989.885	13871.03
990.242	10989.04
990.599	13666.67
990.956	11188.98
991.313	7838.84
991.67	6445.5
992.027	6836.2
992.383	6082.49
992.74	5343.47
993.096	5616.49
993.453	5824.31
993.809	6042.38
994.165	8042.08
994.522	7378.14
994.878	8148.33
995.234	10224.25
995.59	10086.78
995.946	9535.34
996.302	10891.44
996.658	12549.11
997.013	13833.84
997.369	16371.17
997.725	20956.95
998.08	13573.51
998.436	20930.72
998.791	28845.75
999.147	28779.62
999.502	31441.78
999.857	22860.43
1000.212	37147.14
1000.567	52959.42
1000.922	30502.9
1001.277	19377.61
1001.632	14367.24
1001.987	18496.82
1002.342	13271.43
1002.696	10624.63
1003.051	8515.7
1003.406	10310.76
1003.76	10250.3
1004.114	10130.44
1004.469	8537.45
1004.823	7073.16
1005.177	7636
1005.531	6062.63
1005.885	5392.66
1006.239	6080.85
1006.593	7618.91
1006.947	10156.79
1007.301	7630.84
1007.655	8327.03
1008.008	6117.55
1008.362	6848.26
1008.715	9787.64
1009.069	8887.84
1009.422	13384.63
1009.776	26844.16
1010.129	17829.37
1010.482	14860.84
1010.835	12541.94
1011.188	25997.97
1011.541	24465.39
1011.894	-149106.89
1012.247	439799.58
1012.6	29921.05
1012.952	18959.05
1013.305	9729.4
1013.657	7003.27
1014.01	6631.47
1014.362	5467.1
1014.715	4877.89
1015.067	4262.99
1015.419	4173.38
1015.771	3699.62
1016.123	3292.65
1016.475	3376.88
1016.827	3597.81
1017.179	3868.45
1017.531	3896.56
1017.883	3965.79
1018.234	3839.73
1018.586	4823.42
1018.938	5109.25
1019.289	7025.4
1019.64	8060
1019.992	7506.46
1020.343	6902.67
1020.694	5456.93
1021.045	4858.19
1021.396	5573.16
1021.747	6009.28
1022.098	7176.32
1022.449	5234.54
1022.8	4870.45
1023.151	3404.26
1023.501	3019.31
1023.852	3285.44
1024.202	3405.63
1024.553	3725.81
1024.903	3632.89
1025.253	3114.08
1025.604	2801.33
1025.954	3501.11
1026.304	4246.13
1026.654	4922.67
1027.004	7192.27
1027.354	11616.59
1027.703	10919.66
1028.053	14338.08
1028.403	20885.99
1028.753	30118.68
1029.102	40310.91
1029.452	204684.79
1029.801	8712.23
1030.15	5623.54
1030.499	4741.95
897.758	2775.06
901.051	2738.76
904.343	2776.54
907.636	2774.67
910.928	2842.17
914.22	2748.86
917.511	2759.6
920.803	2827.32
924.094	2850.92
927.384	2824.1
930.675	2790.56
933.965	2741.38
937.255	2748.88
940.544	2716.25
943.834	2641.76
947.123	2587.57
950.411	2684.58
953.7	2655.15
956.988	2619.63
960.276	2561.86
963.563	2650.75
966.851	2641.84
970.138	2703.44
973.424	2691.14
976.711	2640.98
979.997	2794.13
983.283	2824.4
986.568	2724.24
989.853	2748.58
993.138	2776.87
996.423	2856.57
999.708	2787.17
1002.992	2865.64
1006.275	2682.33
1009.559	2737.96
1012.842	2855.58
1016.125	2783.88
1019.408	2761.62
1022.69	2857.62
1025.972	2870.09
1029.254	2843.9
1032.536	2770.62
1035.817	2802.77
1039.098	2733.8
1042.379	2901.67
1045.659	2892.41
1048.939	2821.75
1052.219	2844.53
1055.498	2862.9
1058.778	2841.64
1062.057	2829.73
1065.335	2849.21
1068.614	2869.88
1071.892	2848.83
1075.17	2929.09
1078.447	2916.67
1081.724	2905.02
1085.001	2946.1
1088.278	2920.5
1091.554	2933.34
1094.83	2931.08
1098.106	2956.36
1101.382	3004.38
1104.657	3005.54
1107.932	2999.93
1111.206	2961.91
1114.481	2917.18
1117.755	2925.2
1121.029	2897.96
1124.302	2948.95
1127.575	2897.16
1130.848	2882.39
1134.121	2841.78
1137.393	2787.11
1140.665	2858.03
1143.937	2832.68
1147.208	2795.01
1150.48	2830.12
1153.75	2814.15
1157.021	2853.44
1160.291	2822.45
1163.561	2865.91
1166.831	2862.07
1170.101	2893.99
1173.37	2875.27
1176.639	2813.89
1179.907	2878.16
1183.176	2883.73
1186.444	2890.23
1189.711	2920.67
1192.979	2929.21
1196.246	2883.84
1199.513	2903.48
1202.78	2900.28
1206.046	2909.38
1209.312	2931.99
1212.578	2960.12
1215.843	2906.58
1219.108	2882.51
1222.373	2908.56
1225.638	2867.67
1228.902	2850.11
1232.166	2818.51
1235.43	2797.15
1238.693	2821.9
1241.956	2822.07
1245.219	2861.14
1248.482	2854.43
1251.744	2849.8
1255.006	3005.26
1258.268	2959.28
1261.529	2899.49
1264.79	2909.77
1268.051	3018.89
1271.312	3036.67
1274.572	2994.55
1277.832	2983.14
1281.092	2976.34
1284.351	2944.99
1287.61	2921.59
1290.869	2828.95
1294.128	2801.5
1297.386	2903.3
1300.644	2888.58
1303.902	2898.47
1307.159	2755.2
1310.416	2813.25
1313.673	2835.1
1316.93	2818.64
1320.186	2868.21
1323.442	2915.07
1326.697	2901.94
1329.953	2899.31
1333.208	2918.47
1336.463	2903.64
1339.717	2835.54
1342.972	2978.92
1346.226	2957.45
1349.479	2886.13
1352.733	2854.05
1355.986	2883.19
1359.238	2855.05
1362.491	2855.8
1365.743	2862.85
1368.995	2856.7
1372.247	2869.65
1375.498	2897.78
1378.749	2904.52
1382	2861.84
1385.251	2922.23
1388.501	2880.75
1391.751	2860.3
1395	2834.13
1398.25	2870.26
1401.499	2871.09
1404.748	2790.69
1407.996	2783.8
1411.244	2766.19
1414.492	2748.89
1417.74	2721.58
1420.987	2731.47
1424.234	2791.17
1427.481	2773.4
1430.728	2836.33
1433.974	2807.55
1437.22	2827.35
1440.465	2833.3
1443.711	2787.2
1446.956	2825.73
1450.201	2816.97
1453.445	2862.14
1456.689	2837.22
1459.933	2852.52
1463.177	2884.8
1466.42	2853.56
1469.663	2834.63
1472.906	2822.05
1476.148	2911.01
1479.391	2858.53
1482.633	2832.3
1485.874	2840.13
1489.115	2822.35
1492.356	2834.98
1495.597	2806.06
1498.838	2810.98
1502.078	2775.28
1505.318	2720.48
1508.557	2764.5
1511.797	2727.78
1515.036	2814.33
1518.274	2804.45
1521.513	2779.02
1524.751	2803.24
1527.989	2815.51
1531.227	2827.24
1534.464	2814.17
1537.701	2842.23
1540.938	2862.53
1544.174	2817.29
1547.41	2819.27
1550.646	2860.78
1553.882	2892.16
1557.117	2945.77
1560.352	2965.76
1563.587	2915.31
1566.821	2873.63
1570.055	2914.65
1573.289	2881.45
1576.523	2963.66
1579.756	2968.27
1582.989	2985.06
1586.222	2944.74
1589.454	2984.6
1592.686	2955.65
1595.918	2978.7
1599.15	2967.91
1602.381	3051.4
1605.612	2998.83
1608.843	3100.24
1612.073	3007.06
1615.303	2991.58
1618.533	2982.74
1621.762	2983.53
1624.992	2977.56
1628.221	2958.7
1631.449	2942.8
1634.678	3009.82
1637.906	2957.97
1641.134	3002.39
1644.361	2953.76
1647.588	2941.08
1650.815	2955.63
1654.042	2937.55
1657.269	2968.32
1660.495	2911.57
1663.72	2922.76
1666.946	2884.28
1670.171	2815.45
1673.396	2793.17
1676.621	2785.16
1679.845	2813.9
1683.069	2839.11
1686.293	2884.24
1689.517	2851.66
1692.74	2777.47
1695.963	2808.92
1699.185	2836.31
1702.408	2814.97
1705.63	2859.02
1708.852	2869.76
1712.073	2842.94
1715.294	2819.82
1718.515	2885.32
1721.736	2829.56
1724.956	2824.5
1728.176	2852.29
1731.396	2875.33
1734.616	2864.77
1737.835	2888.35
1741.054	2873.48
1744.272	2868.22
1747.491	2892.06
1750.709	2953.13
1753.927	2846.65
1757.144	2899.27
1760.361	2937.03
1763.578	2934.68
1766.795	2873.57
1770.011	2883.77
1773.227	2930.2
1776.443	2960.39
1779.658	3004.34
1782.874	2950.2
1786.089	2925.63
1789.303	2927.66
1792.518	2933.83
1795.732	2921.44
1798.945	2927.12
1802.159	2983
1805.372	2875.06
1808.585	2855.13
1811.797	2857.78
1815.01	2914.24
1818.222	2910.98
1821.434	2867.14
1824.645	2931.33
1827.856	2908.72
1831.067	2943.69
1834.278	2910.63
1837.488	2888.2
1840.698	3046.03
1843.908	2965.37
1847.117	2930.66
1850.326	2800.7
1853.535	2914.34
1856.744	2959.83
1859.952	2871.12
1863.16	2873.07
1866.368	2896.53
1869.575	2996.33
1872.782	2884.32
1875.989	2822.97
1879.196	2918.58
1882.402	2909.42
1885.608	2952.72
1888.814	2847.79
1892.019	2734.13
1895.224	2787.36
1898.429	2771.22
1901.634	2750.7
1904.838	2728.41
1908.042	2774.48
1911.246	2782.61
1914.449	2703.86
1917.652	2703.96
1920.855	2687.75
1924.058	2743.2
1927.26	2779.14
1930.462	2811.66
1933.664	2834.93
1936.865	2771.68
1940.066	2774.15
1943.267	2724.43
1946.467	2742.25
1949.668	2771.21
1952.868	2838.47
1956.067	2812.9
1959.267	2742.84
1962.466	2772.15
1965.665	2754.55
1968.863	2748.77
1972.061	2767.45
1975.259	2769.43
1978.457	2849.22
1981.654	2803.64
1984.852	2804.35
1988.048	2732.09
1991.245	2737.05
1994.441	2822.03
1997.637	2816.13
2000.833	2799.35
2004.028	2840.73
2007.223	2894.59
2010.418	2868.12
2013.613	2830.87
2016.807	2795.6
2020.001	2806.7
2023.194	2855.39
2026.388	2829.58
2029.581	2773.95
2032.774	2819.42
2035.966	2819.56
2039.158	2749.42
2042.35	2775.07
2045.542	2703.88
2048.733	2811
2051.924	2844.22
2055.115	2875.8
2058.306	2811.96
2061.496	2877.33
2064.686	2943.23
2067.875	2858.58
2071.065	2880.23
2074.254	2907.96
2077.442	2858.26
2080.631	2952.15
2083.819	2830.98
2087.007	2810.41
2090.195	2773.8
2093.382	2815.28
2096.569	2791.79
2099.756	2744.62
2102.942	2762.64
2106.128	2762.15
2109.314	2757.22
2112.5	2714.99
2115.685	2693.77
2118.87	2704.95
2122.055	2770.76
2125.239	2735.79
2128.424	2706.08
2131.608	2818.53
2134.791	2802.61
2137.974	2867.23
2141.157	2852.82
2144.34	2797.51
2147.523	2822.58
2150.705	2832.85
2153.887	2814.25
2157.068	2757.51
2160.25	2764.25
2163.431	2808.12
2166.611	2748.36
2169.792	2761.78
2172.972	2648.81
2176.152	2735.46
2179.331	2772.1
2182.511	2747.57
2185.69	2777.35
2188.868	2765.42
2192.047	2830.12
2195.225	2812.7
2198.403	2758.66
2201.58	2755.81
2204.758	2752.64
2207.935	2839.86
2211.111	2717.33
2214.288	2701.23
2217.464	2739.12
2220.64	2716.81
2223.815	2778.01
2226.991	2692.98
2230.166	2715.18
2233.34	2742.25
2236.515	2769.21
2239.689	2846.24
2242.863	2785.51
2246.036	2847.83
2249.209	2850.63
2252.382	2890.45
2255.555	2872.26
2258.727	2805.5
2261.9	2846.76
2265.071	2837.3
2268.243	2842.13
2271.414	2769.32
2274.585	2723.35
2277.756	2795.46
2280.926	2751.07
2284.096	2794.33
2287.266	2694.87
2290.436	2751.93
2293.605	2783.77
2296.774	2811.85
2299.942	2839.08
2303.111	2854.05
2306.279	2901.27
2309.447	2890.86
2312.614	2868.58
2315.781	2884.05
2318.948	2856.38
2322.115	2894.16
2325.281	2799.95
2328.447	2822.42
2331.613	2800.89
2334.779	2768.77
2337.944	2776.22
2341.109	2772.31
2344.274	2751.55
2347.438	2712.83
2350.602	2740.84
2353.766	2757.69
2356.929	2743.05
2360.092	2784.11
2363.255	2730.57
2366.418	2653.02
2369.58	2778.23
2372.742	2541.16
2375.904	2560.96
2379.066	2533.34
2382.227	2574.11
2385.388	2538.26
2388.548	2456.37
2391.709	2517.12
2394.869	2491.32
2398.029	2602.27
2401.188	2620.9
2404.347	2546.15
2407.506	2703.86
2410.665	2732.93
2413.823	2743.06
2416.981	2692.85
2420.139	2728.63
2423.296	2781.32
2426.453	2753.37
2429.61	2779.87
2432.767	2703.87
2435.923	2739.82
2439.079	2698.18
2442.235	2751.71
2445.391	2670.91
2448.546	2698.88
2451.701	2753.11
2454.855	2717.93
2458.009	2775.7
2461.163	2782.02
2464.317	2736.81
2467.471	2772.77
2470.624	2815.36
2473.777	2791.55
2476.929	2804.71
2480.082	2832.13
2483.234	2792.49
2486.385	2749.04
2489.537	2740.16
2492.688	2694.8
2495.839	2712.42
2498.989	2721.81
2502.14	2705.28
2505.29	2685.2
2508.439	2711.31
2511.589	2628.67
2514.738	2645.42
2517.887	2679.16
2521.035	2740.19
2524.183	2729.57
2527.331	2707.49
2530.479	2675.07
2533.627	2688.42
