Data from C_2_DEC_VA_2N_Splice17_12-08-36-171.txt Node
Date: Sat Mar 14 12:08:36 EDT 2020
User: sa697716
Spectrometer: FLMS03696
Trigger mode: 0
Integration Time (sec): 3.180400E-1
Scans to average: 20
Electric dark correction enabled: true
Nonlinearity correction enabled: true
Boxcar width: 5
XAxis mode: Wavelengths
Number of Pixels in Spectrum: 2048
>>>>>Begin Spectral Data<<<<<
187.83	-320657.52
188.298	2342.25
188.766	1219.69
189.233	1105.63
189.701	1618.12
190.169	2182.9
190.636	817.43
191.104	655.9
191.571	114.88
192.039	-50.02
192.506	-125.67
192.974	340.74
193.441	-576.84
193.908	34.09
194.375	-54.95
194.842	18.35
195.31	129.99
195.777	141.76
196.244	360.33
196.711	460.39
197.177	580.43
197.644	836.05
198.111	1481.74
198.578	2109.71
199.045	1678.1
199.511	2801.05
199.978	3282.26
200.445	2766.62
200.911	3102.32
201.378	3488.43
201.844	3146.56
202.31	5421.74
202.777	5668.02
203.243	3112.91
203.709	2983.14
204.176	3565.7
204.642	2956.69
205.108	2757.89
205.574	2244.66
206.04	2043.53
206.506	1906.44
206.972	1820.39
207.438	1747.91
207.903	2003.3
208.369	1754.71
208.835	1734.45
209.301	1802.33
209.766	1821.06
210.232	1791.44
210.697	2215.36
211.163	2717.43
211.628	4071.59
212.094	3389
212.559	4138.61
213.024	2548.5
213.49	3119.82
213.955	3021.05
214.42	2940.76
214.885	2746.83
215.35	2641.56
215.815	2521.6
216.28	2664.66
216.745	2167.82
217.21	2319.22
217.675	2097.14
218.14	2313.49
218.604	2529.67
219.069	2842.5
219.534	2933.51
219.998	3340.95
220.463	3968.8
220.927	4802.12
221.392	4470.92
221.856	4477.15
222.32	5591.42
222.785	6857.11
223.249	8578.09
223.713	9515.66
224.177	9476.79
224.642	12074.95
225.106	14848.17
225.57	16210.6
226.034	12090.34
226.497	18336.58
226.961	16525.23
227.425	19176.63
227.889	21212.11
228.353	21148.01
228.816	43597.19
229.28	41588.41
229.744	35050.46
230.207	21333.92
230.671	20965.67
231.134	34500.96
231.597	39795.71
232.061	39701.43
232.524	38714.94
232.987	26700.84
233.45	24037.98
233.914	21552.84
234.377	22096.88
234.84	20223.04
235.303	23797.64
235.766	26572.62
236.229	27441.73
236.691	17288.15
237.154	19455.24
237.617	14644.54
238.08	14994.36
238.542	17563.78
239.005	12569.84
239.468	12478.48
239.93	11757.68
240.393	10687.51
240.855	9388.96
241.317	9618.81
241.78	11683.58
242.242	12073.88
242.704	13057.01
243.166	11357.54
243.629	10323.33
244.091	11894.5
244.553	13027.36
245.015	14023.65
245.477	18118.21
245.939	26491.7
246.4	28109.94
246.862	27311.9
247.324	25738.89
247.786	28688.13
248.247	37643.96
248.709	38803.72
249.17	28985.95
249.632	27340.76
250.093	31663.25
250.555	27353.72
251.016	16689.99
251.477	15852.31
251.939	17098.13
252.4	17902.88
252.861	21306.29
253.322	19792.58
253.783	23520.27
254.244	30471.93
254.705	23956.28
255.166	21270.07
255.627	20915.86
256.088	29479.28
256.549	31232.31
257.009	26852.51
257.47	32584.05
257.931	26523.59
258.391	19844.14
258.852	20428.85
259.312	21391.66
259.773	26392.41
260.233	22280.74
260.694	18747.49
261.154	21204.24
261.614	17003.19
262.074	15181.34
262.534	15725.47
262.994	14789.6
263.455	19662.01
263.915	16522.1
264.374	15532.73
264.834	16922.28
265.294	18722.78
265.754	19348.07
266.214	18285.96
266.673	17103.01
267.133	21543.12
267.593	21331.78
268.052	26021.12
268.512	22591.36
268.971	27226.74
269.431	29836.64
269.89	26659.58
270.349	39920.89
270.809	44524.46
271.268	40000.64
271.727	89499.84
272.186	57897.09
272.645	43387.46
273.104	31251.57
273.563	45210.35
274.022	35507.16
274.481	30156.66
274.94	23237.28
275.399	17220.78
275.857	20019.77
276.316	27031.27
276.775	24050.35
277.233	23712.53
277.692	22209.22
278.15	25170.54
278.609	25887.95
279.067	23958.87
279.525	22245.2
279.984	28715.97
280.442	34532.51
280.9	34079.2
281.358	22442.13
281.816	20927.05
282.274	20465.09
282.732	21153.26
283.19	21259.71
283.648	18358.82
284.106	19570.45
284.564	19939
285.021	18526.64
285.479	13820.04
285.937	12580.15
286.394	11054.84
286.852	11369.82
287.309	11956.61
287.767	11573.01
288.224	11020.38
288.682	12073.77
289.139	13241.82
289.596	12109.59
290.053	12583.47
290.511	15879.69
290.968	19211.78
291.425	26032.1
291.882	21711.35
292.339	18878.88
292.796	18685.44
293.252	17546.62
293.709	13968.84
294.166	12519.65
294.623	13829.17
295.079	13252.78
295.536	13312.98
295.992	12080.55
296.449	11952.52
296.905	12407.63
297.362	11931.81
297.818	12545.6
298.274	13044.58
298.731	13281.56
299.187	13155.79
299.643	14130.9
300.099	17102.39
300.555	18753.08
301.011	15705.58
301.467	15164.22
301.923	17743.17
302.379	17287.87
302.835	16996.72
303.291	17023.34
303.746	19394.84
304.202	24488.78
304.658	24583.28
305.113	16562.65
305.569	16241.52
306.024	17296.24
306.479	16447.23
306.935	13882.72
307.39	15177.93
307.845	14032.41
308.301	14138.65
308.756	13783.22
309.211	13304.17
309.666	13656.92
310.121	16947.1
310.576	17216.56
311.031	17099.66
311.486	19589.91
311.94	19596.23
312.395	26259.77
312.85	49382.79
313.305	242943.59
313.759	1259911.28
314.214	91315.92
314.668	72519.55
315.123	61154.6
315.577	21975.21
316.032	19534.59
316.486	24512.27
316.94	19345.01
317.394	13470.05
317.849	10484.84
318.303	9897.71
318.757	9332.57
319.211	10308.02
319.665	9010.46
320.119	9104.17
320.572	13030.75
321.026	12192.73
321.48	10136.61
321.934	11059.63
322.387	11061.46
322.841	11939.8
323.295	10768.82
323.748	12376.91
324.202	12594.35
324.655	15123.94
325.108	21179.21
325.562	14982.35
326.015	17852.59
326.468	13498.65
326.921	15074.78
327.374	14084.29
327.827	14675.22
328.28	16583.89
328.733	11137.77
329.186	9779.29
329.639	9313.21
330.092	7824.35
330.545	7459.25
330.997	7519.07
331.45	8217.77
331.903	9669.13
332.355	16619.34
332.808	16147.13
333.26	13349.43
333.713	14517.85
334.165	14621.83
334.617	19541.76
335.069	15793.51
335.522	28517.76
335.974	31609.83
336.426	28948.47
336.878	19983.34
337.33	10168.86
337.782	9920.59
338.234	12432.91
338.686	14863.87
339.137	17655.38
339.589	16610.18
340.041	13069.67
340.493	11262.52
340.944	11505.07
341.396	12404.55
341.847	10445.99
342.299	12310.37
342.75	15058.56
343.201	13086.03
343.653	15033.16
344.104	18395.58
344.555	14487.96
345.006	22413.86
345.457	17136.24
345.908	13640.95
346.359	12773.48
346.81	10402.82
347.261	10953.91
347.712	10749.34
348.163	11554.27
348.613	11693.95
349.064	10925.26
349.515	9564.82
349.965	9841.84
350.416	11824.65
350.866	12956.31
351.317	14689.09
351.767	24341.98
352.217	30633.9
352.668	25473.41
353.118	23356.98
353.568	22507.76
354.018	17855.6
354.468	18828.04
354.918	13528.87
355.368	11863.52
355.818	16776.36
356.268	48254.05
356.718	201875.32
357.168	50476.54
357.617	25316.83
358.067	28141.7
358.517	26409.6
358.966	30955.57
359.416	34757.55
359.865	37456.28
360.315	44557.79
360.764	20776.27
361.213	11689.19
361.663	11073.04
362.112	13665.99
362.561	22084.6
363.01	16638.09
363.459	13991.14
363.908	15096.69
364.357	12843.37
364.806	21692.39
365.255	14903.65
365.703	13692.96
366.152	13675.19
366.601	11090.58
367.05	9007.9
367.498	8220.56
367.947	8596.96
368.395	8958.05
368.844	7949.73
369.292	9579.98
369.74	6646.53
370.189	10220.84
370.637	11987.19
371.085	10357.21
371.533	12633.77
371.981	12188.05
372.429	11643.42
372.877	12185.33
373.325	10205.22
373.773	10429.58
374.221	9297
374.669	11564
375.116	10014.8
375.564	10099.19
376.012	11319.92
376.459	9358.92
376.907	11209.53
377.354	13552.86
377.801	12655.07
378.249	14614.94
378.696	18699.3
379.143	22722.52
379.591	24209.86
380.038	41089.78
380.485	29804.54
380.932	32298.85
381.379	29647.83
381.826	21976.54
382.273	15672.03
382.72	13787.79
383.166	13500.3
383.613	8823.74
384.06	7993.17
384.506	9299.93
384.953	6867.62
385.4	6943.69
385.846	6122.64
386.292	5998.49
386.739	5893.03
387.185	5862.22
387.631	5883.61
388.078	5739.76
388.524	6183.95
388.97	5752.89
389.416	4830.08
389.862	5173.08
390.308	4949.8
390.754	5061.01
391.2	5531.57
391.645	5714.46
392.091	5522.26
392.537	5394.43
392.983	5449.29
393.428	5409.05
393.874	5847.01
394.319	5936.86
394.765	5692.39
395.21	5900.86
395.655	5583.53
396.101	5279.65
396.546	4795.66
396.991	4879.62
397.436	4565.42
397.881	4452.37
398.326	4256.91
398.771	4060.97
399.216	3582.6
399.661	3246.48
400.106	3267.29
400.551	3372.76
400.995	3052.9
401.44	3044.88
401.885	2878.24
402.329	2923.97
402.774	2821.38
403.218	2740.79
403.663	2659.93
404.107	2748.94
404.551	2789.75
404.995	2566.82
405.44	2485.89
405.884	2536.05
406.328	2471.3
406.772	2476.19
407.216	2273.67
407.66	2212.84
408.104	2116.05
408.547	1991.84
408.991	1934.27
409.435	1867.43
409.879	1853.17
410.322	1838.04
410.766	1786.07
411.209	1702.18
411.653	1642.49
412.096	1614.01
412.54	1621.11
412.983	1614.43
413.426	1623.32
413.869	1630.65
414.312	1607.65
414.756	1554.82
415.199	1489.56
415.642	1448.51
416.085	1456.53
416.527	1450.81
416.97	1480.33
417.413	1407.13
417.856	1400.43
418.298	1391.2
418.741	1383.87
419.184	1382.4
419.626	1442.09
420.069	1445.55
420.511	1457.89
420.953	1429.21
421.396	1420.17
421.838	1383.66
422.28	1417.82
422.722	1424.19
423.164	1442.97
423.606	1420.1
424.048	1419.73
424.49	1352.79
424.932	1346.7
425.374	1326.59
425.816	1350.32
426.258	1374.5
426.699	1389.64
427.141	1367.99
427.582	1389.78
428.024	1383.41
428.465	1375.92
428.907	1342.89
429.348	1324.84
429.789	1321.42
430.231	1291.61
430.672	1305.91
431.113	1273.91
431.554	1252.77
431.995	1221.88
432.436	1172.21
432.877	1144.74
433.318	1123.39
433.759	1117.63
434.2	1116.82
434.64	1106.56
435.081	1111.08
435.522	1054.54
435.962	1018.07
436.403	999.42
436.843	1015.31
437.284	999.72
437.724	976.43
438.164	982.32
438.604	963.84
439.045	930.52
439.485	894.3
439.925	880.29
440.365	863.9
440.805	855.3
441.245	848.05
441.685	820.19
442.125	819.8
442.564	829.63
443.004	817.11
443.444	821.71
443.883	830
444.323	831.56
444.762	839.78
445.202	858.63
445.641	881.19
446.081	885.15
446.52	900.82
446.959	898.57
447.398	885.36
447.837	881.33
448.276	871.53
448.716	888.25
449.154	903
449.593	889.26
450.032	893.4
450.471	885.05
450.91	893.79
451.349	897.2
451.787	900.17
452.226	919.78
452.664	926.41
453.103	931.93
453.541	933.93
453.98	936.27
454.418	947.11
454.856	934.93
455.295	936.73
455.733	945.64
456.171	953.77
456.609	956.01
457.047	958.4
457.485	973.16
457.923	977.07
458.361	966.53
458.798	972.03
459.236	969.6
459.674	977.95
460.111	983.45
460.549	974.86
460.987	971.98
461.424	971.22
461.862	966.87
462.299	952.28
462.736	953.15
463.173	955.71
463.611	943.04
464.048	941.63
464.485	948.08
464.922	939.02
465.359	933.75
465.796	917.85
466.233	910.94
466.67	900.25
467.106	897.28
467.543	887.65
467.98	876.43
468.416	856.94
468.853	849.38
469.29	825.6
469.726	816.99
470.162	796.51
470.599	791.35
471.035	784.91
471.471	767.3
471.907	764.71
472.344	761.09
472.78	763.04
473.216	772.86
473.652	765.58
474.088	764.51
474.523	763.68
474.959	772.73
475.395	766.29
475.831	762.26
476.266	768.68
476.702	768.36
477.138	760.8
477.573	759.51
478.008	757.59
478.444	760.79
478.879	767.52
479.314	770.52
479.75	769.35
480.185	773.56
480.62	782.23
481.055	787.13
481.49	793.67
481.925	807.44
482.36	823.5
482.795	848.9
483.229	874.43
483.664	895.42
484.099	903.14
484.534	921.32
484.968	933.11
485.403	938.03
485.837	941.18
486.271	944.36
486.706	949.24
487.14	942.7
487.574	931.66
488.009	928.03
488.443	924.63
488.877	937.79
489.311	945.06
489.745	961.44
490.179	975.81
490.613	996.99
491.046	1010.24
491.48	1023.04
491.914	1030.02
492.348	1043.92
492.781	1056.67
493.215	1066.27
493.648	1075.59
494.082	1090.81
494.515	1098.26
494.948	1116.36
495.382	1133.02
495.815	1147.63
496.248	1163.34
496.681	1192.9
497.114	1220.38
497.547	1244.02
497.98	1273.09
498.413	1290.35
498.846	1313.16
499.279	1336.82
499.711	1353.72
500.144	1365.76
500.577	1390.63
501.009	1417.45
501.442	1440.6
501.874	1447.57
502.306	1458.94
502.739	1475.26
503.171	1507.67
503.603	1520.37
504.036	1541.06
504.468	1556.28
504.9	1580.73
505.332	1597.91
505.764	1608.96
506.196	1625
506.627	1654.12
507.059	1680.38
507.491	1702.46
507.923	1700.24
508.354	1728
508.786	1747.77
509.217	1778.04
509.649	1803.53
510.08	1835.49
510.512	1862.94
510.943	1887.08
511.374	1904.78
511.805	1936.85
512.237	1965.9
512.668	2019.68
513.099	2063.27
513.53	2104.69
513.961	2134.01
514.391	2182.82
514.822	2231.46
515.253	2286.11
515.684	2321.62
516.114	2363.34
516.545	2389.72
516.975	2424.4
517.406	2443.24
517.836	2436.49
518.267	2436.37
518.697	2455.53
519.127	2452.32
519.558	2454.6
519.988	2448.97
520.418	2455.87
520.848	2474.46
521.278	2477.33
521.708	2467.52
522.138	2476.55
522.567	2515.97
522.997	2547.18
523.427	2562.16
523.857	2577.48
524.286	2582.35
524.716	2595.87
525.145	2614.28
525.575	2620.9
526.004	2634.5
526.433	2638.61
526.863	2629.58
527.292	2603.51
527.721	2601.59
528.15	2602.95
528.579	2595.88
529.008	2605.52
529.437	2634.23
529.866	2648.46
530.295	2668.04
530.724	2679.89
531.152	2714.53
531.581	2729.78
532.01	2752.12
532.438	2762.79
532.867	2779.48
533.295	2804.03
533.723	2809.25
534.152	2802.22
534.58	2798.92
535.008	2771.4
535.436	2770.56
535.865	2780.32
536.293	2802.21
536.721	2824.68
537.149	2859.8
537.576	2863.09
538.004	2879.7
538.432	2890.62
538.86	2886.14
539.287	2895.99
539.715	2916.12
540.143	2921.23
540.57	2914.89
540.998	2908.41
541.425	2870.23
541.852	2837.64
542.28	2834.05
542.707	2809.76
543.134	2786.63
543.561	2779.19
543.988	2766.55
544.415	2763.94
544.842	2753.73
545.269	2740.22
545.696	2740.9
546.123	2759.71
546.549	2740.94
546.976	2719.41
547.403	2716.48
547.829	2719.22
548.256	2722.16
548.682	2714.05
549.108	2701.47
549.535	2699.34
549.961	2702.17
550.387	2680.96
550.813	2670.99
551.24	2679.6
551.666	2682.33
552.092	2666.93
552.518	2656.7
552.943	2645.99
553.369	2657.85
553.795	2666.73
554.221	2669.66
554.646	2665.5
555.072	2680.28
555.498	2690.6
555.923	2706.02
556.349	2729.28
556.774	2745.62
557.199	2750.17
557.625	2761.88
558.05	2755.82
558.475	2773.91
558.9	2774.33
559.325	2764.53
559.75	2760.22
560.175	2752.72
560.6	2747.76
561.025	2747.24
561.449	2751.26
561.874	2762.96
562.299	2773.57
562.723	2788.61
563.148	2778.87
563.572	2791.71
563.997	2814.09
564.421	2829.65
564.846	2837.75
565.27	2850.48
565.694	2853.58
566.118	2879.11
566.542	2898.76
566.966	2897.11
567.39	2898.45
567.814	2889.8
568.238	2895.16
568.662	2911.27
569.086	2922.93
569.509	2944.02
569.933	2926.98
570.357	2923.9
570.78	2899.65
571.204	2884.81
571.627	2876.15
572.05	2881.35
572.474	2888.12
572.897	2876.52
573.32	2870.73
573.743	2863.58
574.166	2839.83
574.589	2848.85
575.012	2844.28
575.435	2849.61
575.858	2843.49
576.281	2831.42
576.704	2811.03
577.126	2796.41
577.549	2784.56
577.972	2773.8
578.394	2760.64
578.817	2750.79
579.239	2722.52
579.661	2703.86
580.084	2679.09
580.506	2660.08
580.928	2658.31
581.35	2643.53
581.772	2641.19
582.194	2621.96
582.616	2606.02
583.038	2585.53
583.46	2575.33
583.882	2573.96
584.303	2584.76
584.725	2581.41
585.147	2583.6
585.568	2603.19
585.99	2627.77
586.411	2640.48
586.833	2669.12
587.254	2673.33
587.675	2701.48
588.096	2725.24
588.518	2718.21
588.939	2691.12
589.36	2691.1
589.781	2681.27
590.202	2632.79
590.623	2619.42
591.043	2620.01
591.464	2598.77
591.885	2593.96
592.305	2585.25
592.726	2562.69
593.147	2568.67
593.567	2562.28
593.987	2551.97
594.408	2545.26
594.828	2547.49
595.248	2538.27
595.669	2505.67
596.089	2496.74
596.509	2486.56
596.929	2464.87
597.349	2467.9
597.769	2452.66
598.189	2443.94
598.608	2447.8
599.028	2453.45
599.448	2455.18
599.867	2435.05
600.287	2430.25
600.706	2423.65
601.126	2409.63
601.545	2409.6
601.965	2409.42
602.384	2400.65
602.803	2408.74
603.222	2401.59
603.641	2392.24
604.061	2386.71
604.48	2383.1
604.898	2399.67
605.317	2412.03
605.736	2418.83
606.155	2416.59
606.574	2404.12
606.992	2416.82
607.411	2410.02
607.829	2399.66
608.248	2396.09
608.666	2396.79
609.085	2400.19
609.503	2389.12
609.921	2381.36
610.339	2388.39
610.758	2390.46
611.176	2385.43
611.594	2372.9
612.012	2370.33
612.43	2378.73
612.847	2395.13
613.265	2399.62
613.683	2410.08
614.101	2416.45
614.518	2412.67
614.936	2398.87
615.353	2376.76
615.771	2373.86
616.188	2377.18
616.606	2374.5
617.023	2365.13
617.44	2342.07
617.857	2334.39
618.274	2321.57
618.691	2312.36
619.108	2298.85
619.525	2289.35
619.942	2303.7
620.359	2311.34
620.776	2304.7
621.192	2299.55
621.609	2299.1
622.026	2312.6
622.442	2323.67
622.859	2332.6
623.275	2321.93
623.691	2333.37
624.108	2356.21
624.524	2383.78
624.94	2385.15
625.356	2405.22
625.772	2430.74
626.188	2452.87
626.604	2457.32
627.02	2451.33
627.436	2447.11
627.852	2459.21
628.268	2482.21
628.683	2465.74
629.099	2449.94
629.514	2441.8
629.93	2449.03
630.345	2458.3
630.761	2452.26
631.176	2459.05
631.591	2447.08
632.007	2435.17
632.422	2433.97
632.837	2413.24
633.252	2409.47
633.667	2391.49
634.082	2376
634.497	2352.55
634.911	2315.14
635.326	2309.98
635.741	2279.74
636.155	2263.27
636.57	2267.43
636.984	2266.89
637.399	2270.17
637.813	2271.56
638.228	2271.09
638.642	2279.72
639.056	2262.47
639.47	2265.22
639.884	2248.5
640.298	2236.14
640.712	2233.44
641.126	2210.72
641.54	2194.35
641.954	2187.8
642.368	2164.29
642.781	2145.29
643.195	2113.54
643.609	2113.9
644.022	2102.36
644.436	2095.76
644.849	2073.53
645.262	2052.05
645.676	2056.31
646.089	2046.16
646.502	2015.27
646.915	2005.3
647.328	1974.83
647.741	1967.35
648.154	1941.39
648.567	1931.83
648.98	1904.06
649.393	1903.23
649.805	1894.58
650.218	1876.96
650.631	1846.24
651.043	1832.66
651.456	1818.43
651.868	1819.59
652.28	1852.48
652.693	1877.37
653.105	1890.68
653.517	1908.23
653.929	1908.69
654.341	1916.61
654.753	1895.11
655.165	1905.51
655.577	1899.74
655.989	1890.43
656.401	1875.52
656.813	1804.78
657.224	1765.39
657.636	1710.58
658.047	1673.76
658.459	1634.25
658.87	1616.62
659.282	1589.38
659.693	1547.26
660.104	1515
660.515	1486.07
660.926	1475.56
661.338	1464.62
661.749	1446.64
662.159	1422.99
662.57	1408.1
662.981	1391.37
663.392	1368.18
663.803	1366.3
664.213	1354.08
664.624	1338.66
665.035	1332.74
665.445	1301.07
665.855	1279.34
666.266	1256.76
666.676	1243.23
667.086	1219.75
667.497	1209.06
667.907	1191.03
668.317	1166.87
668.727	1150.2
669.137	1143.08
669.547	1132.74
669.956	1129
670.366	1123.38
670.776	1116.67
671.186	1115.11
671.595	1113.36
672.005	1112.91
672.414	1105.35
672.824	1098.56
673.233	1101.95
673.642	1100.36
674.052	1099.48
674.461	1098.57
674.87	1102.99
675.279	1098.87
675.688	1099.18
676.097	1098.11
676.506	1092.62
676.915	1113.4
677.323	1116.4
677.732	1115.72
678.141	1118.87
678.549	1106.95
678.958	1108.13
679.366	1111.91
679.775	1124.8
680.183	1145.75
680.592	1164.56
681	1182.37
681.408	1183.45
681.816	1208.83
682.224	1235.68
682.632	1264.1
683.04	1327.86
683.448	1386.82
683.856	1454.93
684.264	1531.91
684.671	1609.64
685.079	1699.14
685.487	1797.09
685.894	1927.43
686.302	2041.21
686.709	2135.67
687.116	2244.86
687.524	2332.3
687.931	2407.26
688.338	2473.31
688.745	2526.79
689.152	2582.53
689.559	2656.84
689.966	2724.66
690.373	2749.65
690.78	2805.07
691.187	2902.2
691.593	2964.46
692	3015.19
692.407	3096.98
692.813	3197.21
693.22	3270.6
693.626	3344.76
694.032	3389.23
694.439	3478.42
694.845	3537.01
695.251	3621.75
695.657	3688.04
696.063	3808.46
696.469	3884.97
696.875	3951.87
697.281	3970.03
697.687	4001.4
698.093	4021.22
698.498	4098.84
698.904	4149.8
699.31	4244.06
699.715	4295.88
700.12	4394.43
700.526	4379.83
700.931	4441.25
701.337	4477.64
701.742	4488.85
702.147	4571.98
702.552	4579.76
702.957	4629.77
703.362	4624.27
703.767	4631.16
704.172	4657.51
704.577	4559.81
704.981	4596.61
705.386	4588.76
705.791	4549.4
706.195	4622.21
706.6	4606.04
707.004	4683.97
707.408	4617.29
707.813	4624.96
708.217	4585.46
708.621	4560.38
709.025	4660.26
709.43	4636.9
709.834	4690.86
710.237	4758.51
710.641	4716.3
711.045	4725.45
711.449	4698.06
711.853	4711.03
712.256	4741.77
712.66	4768.99
713.064	4844.64
713.467	4877.88
713.87	4997.96
714.274	5036.47
714.677	5150.46
715.08	5326.68
715.484	5506.39
715.887	5728.68
716.29	5949.98
716.693	6181.09
717.096	6443.68
717.499	6577.44
717.901	6587.85
718.304	6596.9
718.707	6606.55
719.109	6467.96
719.512	6415.87
719.915	6243.74
720.317	6162.57
720.719	6197.18
721.122	6148.23
721.524	6076.12
721.926	6014.25
722.328	6116.27
722.731	6093.6
723.133	6112.1
723.535	6315.52
723.937	6325.35
724.338	6372.01
724.74	6404.49
725.142	6303.01
725.544	6289.13
725.945	6305.48
726.347	6291.3
726.748	6270.71
727.15	6274.57
727.551	6221.9
727.952	6182.46
728.354	6141.72
728.755	6132.62
729.156	6079.13
729.557	6075.8
729.958	5931.56
730.359	5864.56
730.76	5835.87
731.161	5764.01
731.562	5730.98
731.962	5729.32
732.363	5654.75
732.763	5579.54
733.164	5611.18
733.564	5532.36
733.965	5420.59
734.365	5380.01
734.766	5406.29
735.166	5361.58
735.566	5296.78
735.966	5264.97
736.366	5255.06
736.766	5185.05
737.166	5213.24
737.566	5166.52
737.966	5135.24
738.365	5175.29
738.765	5165
739.165	5081.98
739.564	5046.8
739.964	5091.91
740.363	5037.93
740.763	5031.44
741.162	5015.19
741.561	4978.24
741.96	4927.86
742.36	4943.39
742.759	4945.1
743.158	4984.51
743.557	4998.16
743.955	5041.29
744.354	4991.41
744.753	5050.38
745.152	5004.43
745.55	5063.27
745.949	5058.14
746.348	5058.12
746.746	5078.34
747.144	5035.56
747.543	5012.55
747.941	5065.11
748.339	4988.67
748.737	4981.13
749.136	4972.01
749.534	5042.55
749.932	5009.42
750.33	5033.03
750.727	5091.29
751.125	5063.09
751.523	5044.71
751.921	5087.57
752.318	5048.36
752.716	5110.19
753.113	5124.44
753.511	5153.49
753.908	5152.37
754.305	5133.66
754.703	5197.15
755.1	5260.66
755.497	5324.85
755.894	5529.02
756.291	5722.19
756.688	6075.32
757.085	6542.76
757.482	7200.13
757.878	7914.1
758.275	8565.73
758.672	9460.87
759.068	10190.69
759.465	11227.42
759.861	12569.64
760.258	14120.41
760.654	14920.49
761.05	14785.94
761.447	14113.21
761.843	13138
762.239	12130.85
762.635	11672.55
763.031	11236.74
763.427	10604.75
763.822	9943.69
764.218	9286.67
764.614	8438.83
765.01	7868.16
765.405	7507.4
765.801	7224.63
766.196	6865.44
766.592	6665.6
766.987	6330.96
767.382	6102.5
767.778	6006.54
768.173	5869.33
768.568	5794.31
768.963	5659.6
769.358	5676.81
769.753	5625.29
770.148	5535.88
770.542	5534.6
770.937	5501.99
771.332	5596.78
771.726	5619.55
772.121	5552.01
772.515	5607.14
772.91	5592.97
773.304	5668.42
773.699	5600.65
774.093	5660.12
774.487	5721.48
774.881	5769.21
775.275	5765.03
775.669	5722.4
776.063	5769.33
776.457	5809.82
776.851	5735.43
777.245	5726.53
777.638	5762.18
778.032	5887.45
778.425	5849.49
778.819	5892.81
779.212	5847.11
779.606	5804.41
779.999	5823.8
780.392	5805.62
780.786	5894.59
781.179	5913.53
781.572	5957.7
781.965	5973.85
782.358	5909.33
782.751	5969.29
783.143	5917.21
783.536	5995.79
783.929	6042.95
784.322	6166.8
784.714	6197.35
785.107	6189.1
785.499	6264.93
785.891	6239.68
786.284	6216.82
786.676	6366.25
787.068	6341.73
787.46	6397.44
787.852	6419.19
788.245	6508.1
788.636	6538.32
789.028	6611.16
789.42	6652.42
789.812	6660.32
790.204	6763.37
790.595	6867.18
790.987	6658.54
791.378	6682.36
791.77	6821.32
792.161	6963.59
792.553	7018.55
792.944	6898.97
793.335	6825.84
793.726	6903.27
794.117	7000.3
794.508	7143.21
794.899	7110.94
795.29	7261.02
795.681	7319.46
796.072	7168.25
796.463	6966.86
796.853	6979.55
797.244	7147.74
797.634	7184.62
798.025	7182.52
798.415	7194.62
798.806	7287.44
799.196	7378.35
799.586	7428.54
799.976	7393.45
800.366	7635.27
800.756	7892.56
801.146	7851.74
801.536	7877.28
801.926	7956.07
802.316	7984.11
802.706	8059.02
803.095	7929.58
803.485	8037.3
803.874	8084.73
804.264	8356.85
804.653	8329.5
805.043	8485.47
805.432	8600.14
805.821	8605.09
806.21	8624.56
806.599	8750.89
806.988	8803.62
807.377	8918.22
807.766	9061.52
808.155	9366.74
808.544	9090.73
808.933	9106.94
809.321	9084.95
809.71	9396.02
810.098	9569.03
810.487	10055.88
810.875	10566.44
811.264	10588.45
811.652	10893.01
812.04	11040.77
812.428	11212.69
812.816	12023.09
813.204	12465.78
813.592	13046.23
813.98	13402.76
814.368	13300.9
814.756	13810.94
815.144	13725.19
815.531	14211.16
815.919	14141.58
816.306	14461.62
816.694	14132.97
817.081	14183.47
817.469	14546.21
817.856	14546.31
818.243	14842.64
818.63	15254.57
819.017	14819.39
819.404	14881.45
819.791	15290.23
820.178	15940.79
820.565	16206.42
820.952	17183.82
821.339	16655.85
821.725	16849.37
822.112	16068.13
822.498	16016.57
822.885	16150.97
823.271	16043.53
823.657	16484.97
824.044	16486.27
824.43	16559.25
824.816	16526.42
825.202	16066.22
825.588	17148.01
825.974	17166.86
826.36	17711.45
826.746	17749.56
827.132	18132.33
827.517	18110.75
827.903	17284.81
828.289	17328.39
828.674	16511.81
829.06	16397.89
829.445	16816.28
829.83	17189.76
830.216	17691.41
830.601	18068.51
830.986	17633.68
831.371	17487.36
831.756	18072.04
832.141	17620.55
832.526	17612.28
832.911	17905.48
833.295	17788.03
833.68	18285.44
834.065	17630.42
834.449	16675.44
834.834	16601.31
835.218	16596.68
835.603	16949.1
835.987	16724.65
836.371	17601.66
836.755	17496.11
837.139	17923.31
837.524	18193.63
837.908	18009.74
838.291	18074.44
838.675	18146.64
839.059	18369.21
839.443	18363.27
839.827	18125.52
840.21	18637.21
840.594	18486.21
840.977	18704.28
841.361	18680.74
841.744	19064.41
842.127	18896.62
842.511	19157.71
842.894	19792.68
843.277	20197.14
843.66	20769.78
844.043	20860.91
844.426	20005.82
844.809	19674.5
845.191	19715.5
845.574	19230.46
845.957	18847.55
846.339	18737.09
846.722	18188.89
847.104	18259.7
847.487	18076.02
847.869	18091.51
848.252	18388.98
848.634	18742.95
849.016	19034.07
849.398	19165.44
849.78	20061.54
850.162	20065.34
850.544	20507.37
850.926	21169.96
851.307	21075.43
851.689	21375.25
852.071	21855.95
852.452	22195.81
852.834	22169.93
853.215	22581.63
853.597	22734.12
853.978	23046.23
854.359	23526.45
854.741	22477.25
855.122	22376.05
855.503	22068.96
855.884	22210.33
856.265	22145.22
856.646	22265.25
857.026	21856.31
857.407	21793.76
857.788	21969.21
858.169	22278.35
858.549	21385.79
858.93	22044.86
859.31	22096.1
859.69	22321.76
860.071	21893.38
860.451	21661.48
860.831	20880.59
861.211	22101.79
861.591	22675.86
861.971	22644.78
862.351	22844
862.731	23243.48
863.111	23515.27
863.491	23854.7
863.87	24779.79
864.25	25141.98
864.629	24712.11
865.009	25248.06
865.388	26137.62
865.768	28008.38
866.147	27886.1
866.526	26337.94
866.905	26655.82
867.284	28153.5
867.663	26728.9
868.042	25605.81
868.421	25522.24
868.8	25941.52
869.179	26189.7
869.558	24671
869.936	22738.52
870.315	23149.95
870.693	23722.1
871.072	25580.96
871.45	24373.61
871.828	24675.9
872.207	25938.37
872.585	25546.63
872.963	26251.54
873.341	25356.38
873.719	25051.94
874.097	24741.73
874.475	25211.3
874.853	25777.75
875.23	24708.95
875.608	25732.04
875.986	27841.97
876.363	26636.06
876.741	27446.13
877.118	26757.36
877.495	28064.58
877.873	28540.82
878.25	30036.75
878.627	28811.71
879.004	29228.1
879.381	29090.25
879.758	28328.87
880.135	26379.89
880.512	27883.81
880.889	27147.62
881.265	26872.78
881.642	26653.55
882.019	27094.24
882.395	26543.44
882.772	27590.46
883.148	26382.98
883.524	26269.01
883.901	26130.17
884.277	26525.53
884.653	26366.24
885.029	27127.39
885.405	30038.5
885.781	29805.71
886.157	28578.05
886.532	28928
886.908	28918.86
887.284	32164.36
887.659	33213.81
888.035	34234.71
888.411	35117.47
888.786	35574.39
889.161	36801.99
889.537	36133.24
889.912	37307.8
890.287	37284.61
890.662	38245.91
891.037	37559.31
891.412	35012.89
891.787	34679.12
892.162	33472.51
892.536	34261.74
892.911	32987.64
893.286	32300.11
893.66	30986.77
894.035	31782.98
894.409	34618.39
894.784	33219.49
895.158	33775.55
895.532	35790.43
895.906	36754.4
896.281	37615.59
896.655	37016.37
897.029	42297.93
897.402	44056.38
897.776	49057.61
898.15	48863.72
898.524	48337.28
898.898	49012.88
899.271	54871.72
899.645	47531.89
900.018	45662.58
900.392	47353.74
900.765	47712.98
901.138	44145.25
901.511	43474.64
901.884	39909.67
902.258	36800.4
902.631	38012
903.003	43727.83
903.376	39445.16
903.749	44222.14
904.122	47348.91
904.495	52133.89
904.867	52812.56
905.24	45844.26
905.612	42659.32
905.985	43618.17
906.357	45633.65
906.729	43548.45
907.102	37206.96
907.474	35778.03
907.846	35999.43
908.218	35514.32
908.59	31373.73
908.962	30329.37
909.334	32662.79
909.705	34310.82
910.077	33293.24
910.449	34636.79
910.82	35612.11
911.192	39151.84
911.563	40700.92
911.935	43547.69
912.306	43593.71
912.677	45019.09
913.048	44575.81
913.419	48352.27
913.79	48617.86
914.161	52145.55
914.532	49850.08
914.903	45812.23
915.274	43519.51
915.645	42845.21
916.015	37707.07
916.386	35945.86
916.756	38244.58
917.127	39449.97
917.497	35236.77
917.868	38315.45
918.238	36389.69
918.608	37424.65
918.978	38186.18
919.348	40443.93
919.718	41788.49
920.088	40252.06
920.458	41808.86
920.828	44027.18
921.198	41726.46
921.567	44577.93
921.937	34543.42
922.306	34890.24
922.676	37617.14
923.045	31357.7
923.415	29777.22
923.784	27121.56
924.153	27878.75
924.522	27859.02
924.891	26183.94
925.26	28050.57
925.629	27373.18
925.998	31490.23
926.367	30726.51
926.736	29258.49
927.104	34847.16
927.473	37492.22
927.842	45303.04
928.21	44908.27
928.578	47208.13
928.947	44637.42
929.315	44925.09
929.683	52752.82
930.051	53160.88
930.42	61760.47
930.788	52794.08
931.156	52427.7
931.523	49120.93
931.891	45373.54
932.259	43537.47
932.627	50429.97
932.994	71346.26
933.362	58904.91
933.729	51111.01
934.097	48918.59
934.464	41360.31
934.831	47748.19
935.199	47081.46
935.566	45634.8
935.933	46265.66
936.3	56058.82
936.667	43656.32
937.034	39360.52
937.401	38941.68
937.767	33574.11
938.134	29906.1
938.501	42206.92
938.867	44974.15
939.234	76025.68
939.6	64908.18
939.967	71396.32
940.333	47742.65
940.699	40649.62
941.065	32632.25
941.431	42785.1
941.798	41293.19
942.163	54190.63
942.529	33875.48
942.895	31174
943.261	20174.48
943.627	26462.3
943.992	23202.38
944.358	23253.01
944.723	23343.12
945.089	22762.32
945.454	21022.52
945.82	22442.83
946.185	21548.02
946.55	24959.89
946.915	22409.71
947.28	26252.12
947.645	23106.54
948.01	21300.81
948.375	22218.97
948.74	26638.98
949.104	31085.45
949.469	44919.11
949.834	79517.47
950.198	75401.99
950.562	45214.84
950.927	37623.97
951.291	45295.48
951.655	38606.32
952.02	36296.21
952.384	27450.38
952.748	23900.26
953.112	23295.31
953.476	20265.56
953.839	18728.39
954.203	18546.17
954.567	23191.18
954.931	36554.68
955.294	31273.97
955.658	31409.16
956.021	53396.06
956.385	90561.77
956.748	133639.68
957.111	207359.22
957.474	232831.8
957.837	262136.44
958.2	198343.38
958.563	71339.33
958.926	48215.71
959.289	73217.51
959.652	81823.55
960.015	61442.16
960.377	88139.95
960.74	100482.09
961.102	173521.86
961.465	186233.35
961.827	99639.57
962.189	191396.54
962.552	132662.77
962.914	106382.33
963.276	69008.69
963.638	57065.86
964	56503.62
964.362	38189.08
964.724	36965.93
965.085	26360.33
965.447	21624.51
965.809	24664.96
966.17	24667.42
966.532	26724.65
966.893	24517.82
967.255	22315.97
967.616	26374.92
967.977	21106.02
968.338	23067.31
968.699	18942.43
969.061	18928.32
969.421	19068.67
969.782	21410.44
970.143	18078.27
970.504	18712.39
970.865	21267.81
971.225	21738.03
971.586	21250.61
971.946	30285.25
972.307	26278.17
972.667	34363.78
973.027	35411.2
973.388	42928.97
973.748	29186.08
974.108	31769.23
974.468	42975.71
974.828	33116.75
975.188	25485.22
975.548	23408.57
975.907	19673.03
976.267	22058.88
976.627	18539.54
976.986	19221.85
977.346	18326.64
977.705	17639.77
978.064	16077.63
978.424	13371.55
978.783	13835.36
979.142	15796.22
979.501	15118.65
979.86	15951.92
980.219	15382.95
980.578	19830.44
980.937	22217.31
981.296	19787.25
981.654	20362.76
982.013	31733.16
982.371	41169.13
982.73	38494.58
983.088	43512.97
983.447	46501.64
983.805	66526.6
984.163	139264.16
984.521	154679.6
984.879	226741.11
985.237	-369138.57
985.595	356263.13
985.953	88448.78
986.311	51110.57
986.669	29635.44
987.026	25631.88
987.384	34455.91
987.741	35628.82
988.099	25382.88
988.456	20227.16
988.814	18908.65
989.171	16423.41
989.528	16191.9
989.885	17067.36
990.242	13518.36
990.599	16875.4
990.956	13801.7
991.313	9638.27
991.67	7913.77
992.027	8387.84
992.383	7455.94
992.74	6534.1
993.096	6846.98
993.453	7094.18
993.809	7364.58
994.165	9807.61
994.522	8975.78
994.878	9886.74
995.234	12401.44
995.59	12231.24
995.946	11603.45
996.302	13232.1
996.658	15316.65
997.013	16880.1
997.369	19996.66
997.725	25645.52
998.08	16620.24
998.436	25639.09
998.791	35356.42
999.147	35309.33
999.502	38590.06
999.857	28037.94
1000.212	45674.44
1000.567	65040.79
1000.922	37609.57
1001.277	23911.88
1001.632	17699.22
1001.987	22844.08
1002.342	16368.47
1002.696	13110.07
1003.051	10470.71
1003.406	12657.84
1003.76	12615.29
1004.114	12431.38
1004.469	10465.47
1004.823	8647.57
1005.177	9329.89
1005.531	7411.82
1005.885	6561.54
1006.239	7405.71
1006.593	9294.78
1006.947	12459.65
1007.301	9352.68
1007.655	10185.32
1008.008	7477.46
1008.362	8381.9
1008.715	11967.3
1009.069	10879.62
1009.422	16309.24
1009.776	32786.09
1010.129	21763.31
1010.482	18176.02
1010.835	15357.96
1011.188	32069.14
1011.541	30221.28
1011.894	-184935.69
1012.247	543578.92
1012.6	36976.23
1012.952	23327.75
1013.305	12050.14
1013.657	8663.08
1014.01	8186.53
1014.362	6752.19
1014.715	5991.5
1015.067	5202.04
1015.419	5079.83
1015.771	4489.16
1016.123	3997.73
1016.475	4112.51
1016.827	4392.08
1017.179	4731.75
1017.531	4773.65
1017.883	4886.71
1018.234	4712.52
1018.586	5951.7
1018.938	6309.91
1019.289	8717.24
1019.64	10030.51
1019.992	9344.22
1020.343	8545.24
1020.694	6717.21
1021.045	5924.11
1021.396	6765.71
1021.747	7252.76
1022.098	8679.06
1022.449	6298.65
1022.8	5849.75
1023.151	4068.34
1023.501	3594.49
1023.852	3921.41
1024.202	4069.4
1024.553	4472.22
1024.903	4374.96
1025.253	3743.81
1025.604	3373.8
1025.954	4214
1026.304	5140.9
1026.654	5992.32
1027.004	8793.15
1027.354	14279.27
1027.703	13430.07
1028.053	17719.85
1028.403	25794.76
1028.753	37288.54
1029.102	50685.45
1029.452	260758.48
1029.801	11209.71
1030.15	7253.42
1030.499	6136.77
897.758	2272.41
901.051	2205.53
904.343	2243.12
907.636	2250.63
910.928	2312.19
914.22	2229.31
917.511	2233.44
920.803	2282.79
924.094	2286.54
927.384	2285.2
930.675	2248.99
933.965	2210.41
937.255	2239.35
940.544	2202.3
943.834	2198.69
947.123	2136.58
950.411	2228.08
953.7	2208.37
956.988	2192.33
960.276	2127.7
963.563	2181.44
966.851	2189.76
970.138	2234.78
973.424	2234.2
976.711	2189.97
979.997	2244.41
983.283	2288.61
986.568	2214.44
989.853	2209.3
993.138	2236.95
996.423	2320.84
999.708	2273.56
1002.992	2306.02
1006.275	2210.39
1009.559	2220.54
1012.842	2320.44
1016.125	2269.49
1019.408	2250.74
1022.69	2312.34
1025.972	2346.49
1029.254	2318.41
1032.536	2274.76
1035.817	2289.67
1039.098	2259.55
1042.379	2320.14
1045.659	2346.55
1048.939	2292.58
1052.219	2302.23
1055.498	2299.27
1058.778	2294.69
1062.057	2269.16
1065.335	2294.08
1068.614	2307.99
1071.892	2302.32
1075.17	2359.58
1078.447	2361.97
1081.724	2355.51
1085.001	2383.06
1088.278	2359.33
1091.554	2367.06
1094.83	2360.67
1098.106	2396.67
1101.382	2428.83
1104.657	2430.2
1107.932	2425.74
1111.206	2401.87
1114.481	2359.16
1117.755	2358.76
1121.029	2349.05
1124.302	2410.19
1127.575	2372.87
1130.848	2368.85
1134.121	2335.55
1137.393	2296.56
1140.665	2356.31
1143.937	2335.18
1147.208	2284.77
1150.48	2338.27
1153.75	2329.43
1157.021	2336.18
1160.291	2311.57
1163.561	2362.93
1166.831	2336.76
1170.101	2365.01
1173.37	2326.21
1176.639	2278.82
1179.907	2327.36
1183.176	2346.78
1186.444	2348.56
1189.711	2373.44
1192.979	2396.01
1196.246	2347.91
1199.513	2361.49
1202.78	2365.32
1206.046	2375.24
1209.312	2401.83
1212.578	2421.62
1215.843	2384.42
1219.108	2353.79
1222.373	2378.35
1225.638	2348.49
1228.902	2338.66
1232.166	2301.48
1235.43	2288.08
1238.693	2309.29
1241.956	2301.11
1245.219	2348.86
1248.482	2332.82
1251.744	2331.69
1255.006	2458.31
1258.268	2405.57
1261.529	2359.11
1264.79	2359.8
1268.051	2458.17
1271.312	2469.21
1274.572	2441.01
1277.832	2428.13
1281.092	2412.17
1284.351	2399.71
1287.61	2384
1290.869	2316.26
1294.128	2310.14
1297.386	2365.32
1300.644	2359.05
1303.902	2367.53
1307.159	2236.38
1310.416	2286.77
1313.673	2315.53
1316.93	2311.41
1320.186	2343.73
1323.442	2377.56
1326.697	2376.87
1329.953	2352.98
1333.208	2386.94
1336.463	2359.5
1339.717	2317.76
1342.972	2425.74
1346.226	2399.28
1349.479	2345.88
1352.733	2322.89
1355.986	2332.28
1359.238	2313.87
1362.491	2320.17
1365.743	2319.97
1368.995	2311.22
1372.247	2326.84
1375.498	2348.81
1378.749	2387.27
1382	2337.68
1385.251	2378.47
1388.501	2332.21
1391.751	2330.45
1395	2295.62
1398.25	2321.43
1401.499	2342.54
1404.748	2289.48
1407.996	2266.41
1411.244	2254.52
1414.492	2239.69
1417.74	2223.3
1420.987	2227.33
1424.234	2286.31
1427.481	2253.58
1430.728	2312.87
1433.974	2284.98
1437.22	2287.11
1440.465	2284.82
1443.711	2278.75
1446.956	2303.11
1450.201	2278.69
1453.445	2321.58
1456.689	2307.93
1459.933	2320.88
1463.177	2358.7
1466.42	2331.06
1469.663	2316.24
1472.906	2327.21
1476.148	2377.09
1479.391	2359.81
1482.633	2332.65
1485.874	2353.56
1489.115	2357.67
1492.356	2344.75
1495.597	2323.65
1498.838	2318.01
1502.078	2300.76
1505.318	2268.45
1508.557	2303.54
1511.797	2301.16
1515.036	2337.96
1518.274	2314.71
1521.513	2272.26
1524.751	2286.55
1527.989	2309.61
1531.227	2325.88
1534.464	2336.25
1537.701	2333.01
1540.938	2348.13
1544.174	2298.32
1547.41	2288.33
1550.646	2325.86
1553.882	2375.52
1557.117	2431.23
1560.352	2439.55
1563.587	2402.18
1566.821	2366.85
1570.055	2383.54
1573.289	2366.92
1576.523	2426.86
1579.756	2437.38
1582.989	2458.44
1586.222	2420.76
1589.454	2450.74
1592.686	2434.09
1595.918	2462.21
1599.15	2456.09
1602.381	2507.16
1605.612	2485.67
1608.843	2577.38
1612.073	2498.96
1615.303	2488.49
1618.533	2485.21
1621.762	2483.87
1624.992	2461.44
1628.221	2460.44
1631.449	2446.77
1634.678	2478.95
1637.906	2443.6
1641.134	2474.1
1644.361	2437.09
1647.588	2424.45
1650.815	2444.44
1654.042	2412.75
1657.269	2440.1
1660.495	2412.56
1663.72	2406.23
1666.946	2373.86
1670.171	2342.8
1673.396	2319.45
1676.621	2300.01
1679.845	2300.36
1683.069	2311.64
1686.293	2344.29
1689.517	2329.91
1692.74	2279.11
1695.963	2301.06
1699.185	2336.75
1702.408	2309.2
1705.63	2341.1
1708.852	2355.01
1712.073	2328.88
1715.294	2336.16
1718.515	2381.06
1721.736	2337.27
1724.956	2317.87
1728.176	2339.9
1731.396	2364.01
1734.616	2348.03
1737.835	2385.11
1741.054	2357.26
1744.272	2349.34
1747.491	2386.35
1750.709	2415.17
1753.927	2356.17
1757.144	2385.29
1760.361	2441.25
1763.578	2418.88
1766.795	2366.52
1770.011	2360.34
1773.227	2387.27
1776.443	2427.02
1779.658	2470.55
1782.874	2412.02
1786.089	2402.36
1789.303	2405.08
1792.518	2405.38
1795.732	2391.26
1798.945	2405.86
1802.159	2449.87
1805.372	2384.68
1808.585	2376.87
1811.797	2378.81
1815.01	2404.2
1818.222	2424.04
1821.434	2385.21
1824.645	2429.18
1827.856	2432.34
1831.067	2466.5
1834.278	2409.28
1837.488	2391.14
1840.698	2518.16
1843.908	2457.33
1847.117	2424.73
1850.326	2343.17
1853.535	2410.19
1856.744	2442.51
1859.952	2365.2
1863.16	2367.69
1866.368	2380.11
1869.575	2490.21
1872.782	2373.61
1875.989	2305.83
1879.196	2360.9
1882.402	2350.78
1885.608	2386.98
1888.814	2321.5
1892.019	2227.97
1895.224	2279.05
1898.429	2246.29
1901.634	2230.24
1904.838	2202.74
1908.042	2258.41
1911.246	2272.52
1914.449	2229.77
1917.652	2213.41
1920.855	2192.2
1924.058	2221.18
1927.26	2263.6
1930.462	2285.73
1933.664	2322.11
1936.865	2265.56
1940.066	2282.85
1943.267	2226.8
1946.467	2237.51
1949.668	2255.78
1952.868	2327.22
1956.067	2316.51
1959.267	2254.06
1962.466	2278.92
1965.665	2261.38
1968.863	2255.17
1972.061	2257.96
1975.259	2253.1
1978.457	2328.06
1981.654	2287.65
1984.852	2293.35
1988.048	2241.98
1991.245	2233.09
1994.441	2320.88
1997.637	2284.25
2000.833	2266.1
2004.028	2303.89
2007.223	2364.9
2010.418	2348.81
2013.613	2304.83
2016.807	2294.66
2020.001	2288.95
2023.194	2314.04
2026.388	2298.76
2029.581	2243.2
2032.774	2303.84
2035.966	2316.22
2039.158	2257.77
2042.35	2280.24
2045.542	2205.79
2048.733	2291.78
2051.924	2288.12
2055.115	2309.73
2058.306	2271.84
2061.496	2326.22
2064.686	2380.54
2067.875	2288.18
2071.065	2289.64
2074.254	2311.63
2077.442	2264.92
2080.631	2349.64
2083.819	2271.12
2087.007	2262.88
2090.195	2243.25
2093.382	2263.69
2096.569	2246.61
2099.756	2205.45
2102.942	2248.74
2106.128	2263.4
2109.314	2250.24
2112.5	2231.56
2115.685	2203.16
2118.87	2210.97
2122.055	2273.77
2125.239	2251.16
2128.424	2234.96
2131.608	2301.08
2134.791	2284.91
2137.974	2328.02
2141.157	2315.99
2144.34	2284.85
2147.523	2279.05
2150.705	2302.26
2153.887	2273.82
2157.068	2242.69
2160.25	2228.43
2163.431	2252.24
2166.611	2219.41
2169.792	2241
2172.972	2146.55
2176.152	2201.03
2179.331	2229.41
2182.511	2229.67
2185.69	2253.01
2188.868	2254.14
2192.047	2292.27
2195.225	2302.45
2198.403	2253.66
2201.58	2241.57
2204.758	2228.04
2207.935	2304.76
2211.111	2217.83
2214.288	2207.75
2217.464	2240.99
2220.64	2199.62
2223.815	2251.16
2226.991	2179.6
2230.166	2197.38
2233.34	2236.62
2236.515	2252.03
2239.689	2315.61
2242.863	2265.53
2246.036	2319.29
2249.209	2302.9
2252.382	2325.53
2255.555	2330.55
2258.727	2278.1
2261.9	2310.65
2265.071	2301.74
2268.243	2300.03
2271.414	2244.69
2274.585	2228.5
2277.756	2288.46
2280.926	2241.71
2284.096	2273.35
2287.266	2198.77
2290.436	2247.41
2293.605	2268.47
2296.774	2304.57
2299.942	2308.75
2303.111	2325.12
2306.279	2377.11
2309.447	2361.54
2312.614	2333.53
2315.781	2359.89
2318.948	2336.52
2322.115	2373.83
2325.281	2274.69
2328.447	2283.61
2331.613	2254.83
2334.779	2245.28
2337.944	2243.33
2341.109	2242.51
2344.274	2231.04
2347.438	2199.93
2350.602	2221.35
2353.766	2231.62
2356.929	2221.09
2360.092	2258.3
2363.255	2226.44
2366.418	2187.23
2369.58	2260.97
2372.742	2120.09
2375.904	2118.96
2379.066	2101.22
2382.227	2127.51
2385.388	2089.47
2388.548	2034.44
2391.709	2079.21
2394.869	2063.24
2398.029	2127.25
2401.188	2127.65
2404.347	2085.11
2407.506	2175.47
2410.665	2211.06
2413.823	2201.24
2416.981	2177.18
2420.139	2194.82
2423.296	2240.91
2426.453	2211.41
2429.61	2233.66
2432.767	2196.64
2435.923	2234.92
2439.079	2187.9
2442.235	2222.46
2445.391	2163.5
2448.546	2204.41
2451.701	2241.22
2454.855	2235.32
2458.009	2264.91
2461.163	2257.57
2464.317	2228.93
2467.471	2255.35
2470.624	2288.64
2473.777	2270.79
2476.929	2289.33
2480.082	2310.99
2483.234	2281.84
2486.385	2222.15
2489.537	2215.94
2492.688	2201.6
2495.839	2216.53
2498.989	2230.6
2502.14	2217.34
2505.29	2203.93
2508.439	2231.72
2511.589	2168.12
2514.738	2173.19
2517.887	2197.08
2521.035	2272.85
2524.183	2236.93
2527.331	2223.23
2530.479	2215.8
2533.627	2219.67
