Data from C_2_DIV_OH_2N_Splice17_12-23-01-203.txt Node
Date: Sat Mar 14 12:23:01 EDT 2020
User: sa697716
Spectrometer: FLMS03696
Trigger mode: 0
Integration Time (sec): 3.180400E-1
Scans to average: 20
Electric dark correction enabled: true
Nonlinearity correction enabled: true
Boxcar width: 5
XAxis mode: Wavelengths
Number of Pixels in Spectrum: 2048
>>>>>Begin Spectral Data<<<<<
187.83	-249625.45
188.298	1863.45
188.766	1001.87
189.233	885.15
189.701	1298.38
190.169	1794.47
190.636	632.7
191.104	484.42
191.571	26.54
192.039	-85.6
192.506	-103.17
192.974	383.38
193.441	-592.91
193.908	-240.8
194.375	-73.99
194.842	30.33
195.31	65.26
195.777	149.16
196.244	336.09
196.711	396.85
197.177	505.57
197.644	684.62
198.111	1204.52
198.578	1729.58
199.045	1413.16
199.511	2305.82
199.978	2670.67
200.445	2282.21
200.911	2531.31
201.378	2813.43
201.844	2545.63
202.31	4353.45
202.777	4549.1
203.243	2516.37
203.709	2383.95
204.176	2809.49
204.642	2302.3
205.108	2159.82
205.574	1768.54
206.04	1582.98
206.506	1491.81
206.972	1417.75
207.438	1365.6
207.903	1573.55
208.369	1394.76
208.835	1396.61
209.301	1474.29
209.766	1510.27
210.232	1483.15
210.697	1825.84
211.163	2265.26
211.628	3427.55
212.094	2884.56
212.559	3568.55
213.024	2232.47
213.49	2751.57
213.955	2680.28
214.42	2622.5
214.885	2478.13
215.35	2386.7
215.815	2304.33
216.28	2453.23
216.745	2008.16
217.21	2166.25
217.675	1986.67
218.14	2250.7
218.604	2510.1
219.069	2882.69
219.534	3059.15
219.998	3569.79
220.463	4353.43
220.927	5389.77
221.392	5113.83
221.856	5198.06
222.32	6595.29
222.785	8197.22
223.249	10361.81
223.713	11605.6
224.177	11656.95
224.642	14979.23
225.106	18460.84
225.57	20259.42
226.034	15111.34
226.497	23028.2
226.961	20816.29
227.425	24298.59
227.889	26997.33
228.353	27049.44
228.816	55990.17
229.28	53596.31
229.744	45273.6
230.207	27591.21
230.671	27170.47
231.134	45047.98
231.597	52121.74
232.061	52247.64
232.524	50980.88
232.987	35194.55
233.45	31706.79
233.914	28487.7
234.377	29249.67
234.84	26809.14
235.303	31637.4
235.766	35365.67
236.229	36593.98
236.691	23067.51
237.154	25955.47
237.617	19554.76
238.08	20026.38
238.542	23469.87
239.005	16777.85
239.468	16683.95
239.93	15741.19
240.393	14330.12
240.855	12591.51
241.317	12908.87
241.78	15722.98
242.242	16278.5
242.704	17625.36
243.166	15390.09
243.629	13979.91
244.091	16144.64
244.553	17729.56
245.015	19067.56
245.477	24702.36
245.939	36242.83
246.4	38545.57
246.862	37513.31
247.324	35383.31
247.786	39595.5
248.247	51962.41
248.709	53750.53
249.17	40261.08
249.632	37982.64
250.093	44164.65
250.555	38186.41
251.016	23336.94
251.477	22150.45
251.939	23925.55
252.4	25143.48
252.861	29944.15
253.322	27868.13
253.783	33218.21
254.244	43103.62
254.705	33997.8
255.166	30238.8
255.627	29793.54
256.088	42045.95
256.549	44667.8
257.009	38466.25
257.47	46712.28
257.931	38072.27
258.391	28546.6
258.852	29449.22
259.312	30883.82
259.773	38116.2
260.233	32210.57
260.694	27182.03
261.154	30852.03
261.614	24779.11
262.074	22184.3
262.534	23043.34
262.994	21724.59
263.455	28990.01
263.915	24409.22
264.374	22992.29
264.834	25109.88
265.294	27822.06
265.754	28818.34
266.214	27262.28
266.673	25565.86
267.133	32273.98
267.593	32038.7
268.052	39220.48
268.512	34070.86
268.971	41137.27
269.431	45143.15
269.89	40465.09
270.349	60685.4
270.809	67598.98
271.268	60822.79
271.727	136337.25
272.186	88323.32
272.645	66240.5
273.104	47772.42
273.563	69170.7
274.022	54343.8
274.481	46219.53
274.94	35602.09
275.399	26465.78
275.857	30878.73
276.316	41755.51
276.775	37158.38
277.233	36575.66
277.692	34243.16
278.15	38731.95
278.609	39854.73
279.067	36882.89
279.525	34257.39
279.984	44230.05
280.442	53183.61
280.9	52344.96
281.358	34412.37
281.816	32094.06
282.274	31423.38
282.732	32461.07
283.19	32594.88
283.648	28126.87
284.106	29971.14
284.564	30456.65
285.021	28223.15
285.479	20995.9
285.937	19099.76
286.394	16761.43
286.852	17214.34
287.309	18065.96
287.767	17442.97
288.224	16585.94
288.682	18190.01
289.139	19953.28
289.596	18263.8
290.053	18987.44
290.511	23987.26
290.968	29116.99
291.425	39526.46
291.882	32973.45
292.339	28756.23
292.796	28571.43
293.252	26926.74
293.709	21385.44
294.166	19180.16
294.623	21215.24
295.079	20365.96
295.536	20470.88
295.992	18580.87
296.449	18392.28
296.905	19107.94
297.362	18327.01
297.818	19270.55
298.274	20007.56
298.731	20413.79
299.187	20190.2
299.643	21667.05
300.099	26186.99
300.555	28693.89
301.011	23966.93
301.467	23072.2
301.923	26991.85
302.379	26349.57
302.835	25890.14
303.291	25947.4
303.746	29530.89
304.202	37348.49
304.658	37538.57
305.113	25295.69
305.569	24818.6
306.024	26483.79
306.479	25259.32
306.935	21325.73
307.39	23299.39
307.845	21528.35
308.301	21654.22
308.756	21106.48
309.211	20326.67
309.666	20824.84
310.121	25832.82
310.576	26228.13
311.031	26019.38
311.486	29788.87
311.94	29727.79
312.395	39786.27
312.85	74823.83
313.305	367340.3
313.759	1900886.92
314.214	137700.72
314.668	109233.63
315.123	91868.25
315.577	32986.39
316.032	29421.73
316.486	36870.65
316.94	29089.23
317.394	20256.79
317.849	15727.3
318.303	14921.53
318.757	14081.95
319.211	15594.69
319.665	13658.85
320.119	13852.18
320.572	19858.41
321.026	18536.79
321.48	15432.84
321.934	16872.51
322.387	16928.79
322.841	18283.11
323.295	16445.05
323.748	18968.28
324.202	19252.29
324.655	23123.16
325.108	32301.56
325.562	22846.02
326.015	27162.56
326.468	20561.92
326.921	22984.21
327.374	21425.71
327.827	22346.8
328.28	25285.97
328.733	16956.68
329.186	14927.42
329.639	14226.07
330.092	11994.35
330.545	11422.13
330.997	11524.7
331.45	12608.91
331.903	14753.55
332.355	25399.57
332.808	24677.68
333.26	20374.18
333.713	22134.87
334.165	22297.74
334.617	29789.1
335.069	24089.93
335.522	43622.44
335.974	48314.13
336.426	44112
336.878	30667.77
337.33	15560.97
337.782	15228.56
338.234	19096.47
338.686	22855.99
339.137	27066.88
339.589	25479.08
340.041	19959.22
340.493	17150.01
340.944	17554.12
341.396	18909.96
341.847	15897.33
342.299	18732.35
342.75	22850
343.201	19957.25
343.653	22958.34
344.104	28258.07
344.555	22283.64
345.006	34722.75
345.457	26610.27
345.908	21172.93
346.359	19969.07
346.81	16280.1
347.261	17194.63
347.712	16927.32
348.163	18157.55
348.613	18386.51
349.064	17176.84
349.515	15024.54
349.965	15412.97
350.416	18567.14
350.866	20391.31
351.317	23018.89
351.767	38097.92
352.217	48138.21
352.668	39968.26
353.118	36653.67
353.568	35357.99
354.018	27934.35
354.468	29502.5
354.918	21178.07
355.368	18542.51
355.818	26226.53
356.268	75587.16
356.718	316809.45
357.168	78812.7
357.617	39711.47
358.067	44273.68
358.517	41527.46
358.966	48783.4
359.416	54819.44
359.865	59299.08
360.315	70594.65
360.764	32992.53
361.213	18501.62
361.663	17542.73
362.112	21714.63
362.561	35025.59
363.01	26393.19
363.459	22219.85
363.908	24065.92
364.357	20460.5
364.806	34640.74
365.255	23870.75
365.703	21898.51
366.152	21966.88
366.601	17820.35
367.05	14487.4
367.498	13202.66
367.947	13821.01
368.395	14411.1
368.844	12796.62
369.292	15443.61
369.74	10685.95
370.189	16379.37
370.637	19239.18
371.085	16619.77
371.533	20283.4
371.981	19596.06
372.429	18700.52
372.877	19551.81
373.325	16406.13
373.773	16758.61
374.221	14984.98
374.669	18653.26
375.116	16191.21
375.564	16369
376.012	18374.98
376.459	15220.31
376.907	18240.19
377.354	22165.19
377.801	20754.21
378.249	23961.06
378.696	30756.22
379.143	37402.33
379.591	40102.2
380.038	68201.49
380.485	49673.84
380.932	54018.97
381.379	49714.48
381.826	36948.57
382.273	26458.15
382.72	23316.9
383.166	22913.16
383.613	15024.9
384.06	13657.36
384.506	15945.46
384.953	11824.57
385.4	12012.01
385.846	10626.33
386.292	10482.47
386.739	10347.94
387.185	10349.89
387.631	10449.33
388.078	10241.23
388.524	11057.92
388.97	10321.86
389.416	8696.71
389.862	9344.51
390.308	8939.01
390.754	9162.37
391.2	10030.77
391.645	10355.55
392.091	9959.62
392.537	9693.83
392.983	9793.8
393.428	9684.44
393.874	10445.65
394.319	10542
394.765	10057.24
395.21	10415.46
395.655	9837.83
396.101	9269.08
396.546	8427.05
396.991	8573.09
397.436	8018.09
397.881	7783.68
398.326	7428.65
398.771	7055.44
399.216	6198.87
399.661	5609.29
400.106	5601.03
400.551	5747.88
400.995	5170.88
401.44	5121.53
401.885	4829.04
402.329	4888.53
402.774	4696.83
403.218	4541.65
403.663	4388.05
404.107	4516.93
404.551	4552.08
404.995	4181.22
405.44	4039.09
405.884	4108.38
406.328	3987.72
406.772	3974.22
407.216	3620.72
407.66	3504.42
408.104	3336.11
408.547	3126.91
408.991	3028.62
409.435	2918.93
409.879	2881.69
410.322	2840.23
410.766	2743.95
411.209	2606
411.653	2500.65
412.096	2446.99
412.54	2447.64
412.983	2434.12
413.426	2437.26
413.869	2436.75
414.312	2389.74
414.756	2299.87
415.199	2193.14
415.642	2120.69
416.085	2120.69
416.527	2101.86
416.97	2135.85
417.413	2025.49
417.856	2002.37
418.298	1982.36
418.741	1968.34
419.184	1961.35
419.626	2044.29
420.069	2047.17
420.511	2062.17
420.953	2016.16
421.396	1998.49
421.838	1946.86
422.28	1990.8
422.722	1997.76
423.164	2025.29
423.606	1988.3
424.048	1986.12
424.49	1884.07
424.932	1872.49
425.374	1847.24
425.816	1881.25
426.258	1914.93
426.699	1934.55
427.141	1900.67
427.582	1929.42
428.024	1919.64
428.465	1908.07
428.907	1857.33
429.348	1832.39
429.789	1826.58
430.231	1782.55
430.672	1801.73
431.113	1757.07
431.554	1730
431.995	1688.11
432.436	1620.46
432.877	1581.39
433.318	1551.65
433.759	1546.31
434.2	1547.06
434.64	1533.39
435.081	1536.72
435.522	1454.25
435.962	1403.27
436.403	1371.36
436.843	1390.62
437.284	1365.56
437.724	1329.74
438.164	1337.27
438.604	1308.41
439.045	1259.22
439.485	1206.29
439.925	1180.94
440.365	1153.53
440.805	1138.22
441.245	1125.41
441.685	1085.43
442.125	1080.97
442.564	1089.63
443.004	1065.37
443.444	1066.11
443.883	1068.83
444.323	1065.47
444.762	1071.8
445.202	1088.08
445.641	1106.8
446.081	1103.76
446.52	1115.92
446.959	1103.43
447.398	1076.16
447.837	1065.78
448.276	1045.99
448.716	1057.3
449.154	1065.31
449.593	1043.76
450.032	1043.94
450.471	1029.55
450.91	1032.63
451.349	1031.07
451.787	1029.69
452.226	1048.13
452.664	1049.31
453.103	1053.43
453.541	1054.78
453.98	1054.53
454.418	1062.76
454.856	1045.45
455.295	1045.57
455.733	1054.24
456.171	1060.69
456.609	1063.87
457.047	1065.93
457.485	1081.19
457.923	1083.98
458.361	1071.64
458.798	1076.28
459.236	1073.98
459.674	1083.07
460.111	1088.66
460.549	1078.41
460.987	1076.74
461.424	1074.16
461.862	1068.52
462.299	1053.23
462.736	1051.77
463.173	1055.21
463.611	1042.14
464.048	1038.19
464.485	1046.04
464.922	1036.18
465.359	1031.61
465.796	1013.31
466.233	1003.62
466.67	993.2
467.106	990.65
467.543	982.5
467.98	969.83
468.416	946.56
468.853	940.06
469.29	913.25
469.726	903.81
470.162	880.64
470.599	873.41
471.035	867.31
471.471	846.76
471.907	842.21
472.344	835.64
472.78	837.12
473.216	848.11
473.652	837.76
474.088	834.94
474.523	831.46
474.959	838.57
475.395	829.23
475.831	823.82
476.266	827.4
476.702	824.17
477.138	815.19
477.573	812.34
478.008	808.82
478.444	812.22
478.879	819.81
479.314	823.05
479.75	823.53
480.185	829.12
480.62	836.81
481.055	842.39
481.49	849.3
481.925	863.04
482.36	878.67
482.795	905.2
483.229	930.93
483.664	952.1
484.099	959.39
484.534	974.62
484.968	985.29
485.403	990.36
485.837	992.13
486.271	993.92
486.706	996.84
487.14	988.78
487.574	975.25
488.009	969.37
488.443	963.38
488.877	974.32
489.311	980.97
489.745	995.21
490.179	1007.04
490.613	1027.52
491.046	1038.29
491.48	1049.35
491.914	1054.19
492.348	1064.59
492.781	1074.74
493.215	1082.04
493.648	1088.4
494.082	1100.52
494.515	1103.5
494.948	1118.76
495.382	1130.1
495.815	1141.91
496.248	1153.09
496.681	1177.03
497.114	1199.33
497.547	1217.53
497.98	1239.3
498.413	1251.01
498.846	1268.32
499.279	1285.72
499.711	1296.11
500.144	1302.2
500.577	1319.45
501.009	1339.39
501.442	1355.14
501.874	1357.96
502.306	1362.56
502.739	1374.43
503.171	1397.45
503.603	1402.92
504.036	1417.63
504.468	1425.34
504.9	1442.88
505.332	1453.12
505.764	1458.08
506.196	1466.84
506.627	1487.43
507.059	1505.42
507.491	1517.46
507.923	1511.77
508.354	1530.62
508.786	1542.76
509.217	1565.69
509.649	1583.24
510.08	1605.99
510.512	1625.07
510.943	1641.56
511.374	1652.15
511.805	1675.59
512.237	1696.67
512.668	1737.05
513.099	1769.24
513.53	1800.81
513.961	1820.83
514.391	1857.3
514.822	1893.87
515.253	1934.83
515.684	1959.83
516.114	1987.98
516.545	2004.9
516.975	2030.01
517.406	2041.8
517.836	2032.45
518.267	2027.72
518.697	2039.58
519.127	2031.91
519.558	2029.72
519.988	2021.76
520.418	2024.42
520.848	2036.53
521.278	2036.29
521.708	2034.16
522.138	2039.01
522.567	2068.73
522.997	2090.93
523.427	2099.88
523.857	2111.63
524.286	2113.54
524.716	2122.55
525.145	2135.66
525.575	2139.5
526.004	2148.27
526.433	2139.23
526.863	2131.31
527.292	2110.05
527.721	2108.33
528.15	2106.6
528.579	2099.71
529.008	2107.42
529.437	2129.67
529.866	2140.2
530.295	2156.84
530.724	2166.92
531.152	2195.08
531.581	2207.5
532.01	2223.34
532.438	2231.23
532.867	2246.55
533.295	2266.29
533.723	2270.38
534.152	2264.42
534.58	2261.58
535.008	2238.06
535.436	2237.6
535.865	2246.14
536.293	2261.98
536.721	2281.35
537.149	2309.96
537.576	2312.14
538.004	2325.76
538.432	2334.54
538.86	2332.21
539.287	2341.13
539.715	2358.55
540.143	2363.15
540.57	2357.48
540.998	2353
541.425	2324.58
541.852	2297.43
542.28	2294.83
542.707	2274.15
543.134	2255.09
543.561	2250.07
543.988	2240.59
544.415	2238.7
544.842	2229.43
545.269	2219.73
545.696	2220.63
546.123	2234.46
546.549	2221.34
546.976	2204.82
547.403	2203.63
547.829	2206.1
548.256	2205.58
548.682	2198.91
549.108	2188.29
549.535	2188.66
549.961	2190.8
550.387	2174.72
550.813	2167.23
551.24	2174.72
551.666	2176.29
552.092	2164.3
552.518	2156.36
552.943	2151.07
553.369	2161.09
553.795	2169.65
554.221	2171.2
554.646	2167.96
555.072	2181.8
555.498	2189.24
555.923	2202.42
556.349	2222.72
556.774	2236.25
557.199	2240.91
557.625	2250.55
558.05	2245.93
558.475	2262.36
558.9	2265.36
559.325	2259.27
559.75	2254.79
560.175	2251.78
560.6	2247.95
561.025	2249.4
561.449	2255.31
561.874	2266.34
562.299	2277.02
562.723	2291.36
563.148	2283.92
563.572	2293.59
563.997	2313.44
564.421	2327.79
564.846	2334.08
565.27	2344.84
565.694	2349.42
566.118	2372.96
566.542	2389.91
566.966	2389.21
567.39	2391.71
567.814	2385.15
568.238	2394.17
568.662	2409.88
569.086	2422.47
569.509	2442.7
569.933	2431.04
570.357	2429.86
570.78	2410.56
571.204	2402.63
571.627	2397.12
572.05	2403.5
572.474	2412.83
572.897	2404.21
573.32	2401.33
573.743	2395.26
574.166	2378.22
574.589	2388.64
575.012	2386.77
575.435	2392.23
575.858	2387.4
576.281	2379.58
576.704	2364.49
577.126	2354.9
577.549	2344.86
577.972	2337.28
578.394	2329.38
578.817	2325
579.239	2303.71
579.661	2289.09
580.084	2271.1
580.506	2257.6
580.928	2258.73
581.35	2247.86
581.772	2246.16
582.194	2232.9
582.616	2220.82
583.038	2205.49
583.46	2194.23
583.882	2193.37
584.303	2205.49
584.725	2204.96
585.147	2209.64
585.568	2228.36
585.99	2251.27
586.411	2265.09
586.833	2290.27
587.254	2296.04
587.675	2321.81
588.096	2345.79
588.518	2343.73
588.939	2321.15
589.36	2321.01
589.781	2311.47
590.202	2269.47
590.623	2259.14
591.043	2258.67
591.464	2243.19
591.885	2239.16
592.305	2231.95
592.726	2212.49
593.147	2215.24
593.567	2209.75
593.987	2201.32
594.408	2194.98
594.828	2196.85
595.248	2188.94
595.669	2160.83
596.089	2150.81
596.509	2142.72
596.929	2123.08
597.349	2124.47
597.769	2110.71
598.189	2102.92
598.608	2106.4
599.028	2111.76
599.448	2112.66
599.867	2096.26
600.287	2092.64
600.706	2088.01
601.126	2075.85
601.545	2076.44
601.965	2078.84
602.384	2073.39
602.803	2081.16
603.222	2076.27
603.641	2069.72
604.061	2067.58
604.48	2064.5
604.898	2081
605.317	2093.75
605.736	2100.92
606.155	2101.96
606.574	2092.54
606.992	2106.24
607.411	2104.24
607.829	2098.21
608.248	2097.79
608.666	2100.19
609.085	2104.92
609.503	2097.5
609.921	2092.82
610.339	2101.73
610.758	2106.07
611.176	2104.91
611.594	2096.93
612.012	2096.77
612.43	2106.65
612.847	2124.66
613.265	2131.54
613.683	2145.52
614.101	2154.51
614.518	2153.77
614.936	2143.87
615.353	2126.44
615.771	2127.43
616.188	2133.2
616.606	2133.47
617.023	2127.21
617.44	2107.75
617.857	2102.85
618.274	2093.74
618.691	2087.94
619.108	2079.34
619.525	2074.01
619.942	2089.76
620.359	2097.18
620.776	2092.52
621.192	2088.77
621.609	2089.52
622.026	2103.98
622.442	2115.95
622.859	2124.97
623.275	2115.99
623.691	2126.78
624.108	2148.11
624.524	2174.08
624.94	2176.16
625.356	2194.35
625.772	2218.94
626.188	2239.35
626.604	2244.94
627.02	2240.13
627.436	2237.68
627.852	2250.7
628.268	2272.14
628.683	2258
629.099	2243.22
629.514	2236.36
629.93	2244.07
630.345	2250.91
630.761	2245.27
631.176	2250.65
631.591	2239.41
632.007	2227.68
632.422	2224.67
632.837	2205.75
633.252	2201.25
633.667	2185.98
634.082	2171.7
634.497	2149.5
634.911	2117.26
635.326	2112.43
635.741	2084.5
636.155	2070.36
636.57	2075.16
636.984	2074.86
637.399	2078.71
637.813	2079.88
638.228	2079.27
638.642	2088.5
639.056	2073.29
639.47	2076.7
639.884	2064.06
640.298	2055.09
640.712	2053.02
641.126	2032.74
641.54	2020.64
641.954	2015.14
642.368	1996
642.781	1981.46
643.195	1951.66
643.609	1953.76
644.022	1945.08
644.436	1940.56
644.849	1922.44
645.262	1905.34
645.676	1910.1
646.089	1903.77
646.502	1878.35
646.915	1874.59
647.328	1848.3
647.741	1846.75
648.154	1825.95
648.567	1821.72
648.98	1798.77
649.393	1801.64
649.805	1797.76
650.218	1787.39
650.631	1762.02
651.043	1753.14
651.456	1742.94
651.868	1748.1
652.28	1783.05
652.693	1812.7
653.105	1828.74
653.517	1852.1
653.929	1855.95
654.341	1870.27
654.753	1853.6
655.165	1870.78
655.577	1872.69
655.989	1870.12
656.401	1862.31
656.813	1801.1
657.224	1770.2
657.636	1724.6
658.047	1695.56
658.459	1664.85
658.87	1655.4
659.282	1637.68
659.693	1602.66
660.104	1579.71
660.515	1558.24
660.926	1559.31
661.338	1556.63
661.749	1547.42
662.159	1531.71
662.57	1525.58
662.981	1519.09
663.392	1504.39
663.803	1512.91
664.213	1509.5
664.624	1500.96
665.035	1507.07
665.445	1480.99
665.855	1466.61
666.266	1450.01
666.676	1444.84
667.086	1428.26
667.497	1425.41
667.907	1412.44
668.317	1393.84
668.727	1381.6
669.137	1382.84
669.547	1374.09
669.956	1376.31
670.366	1376.97
670.776	1376.24
671.186	1381.15
671.595	1385.12
672.005	1387.94
672.414	1384.73
672.824	1379.27
673.233	1388.52
673.642	1390.48
674.052	1394.96
674.461	1395.22
674.87	1404.39
675.279	1399.28
675.688	1402.11
676.097	1402.85
676.506	1398
676.915	1424.96
677.323	1432.16
677.732	1431.89
678.141	1432.16
678.549	1416.86
678.958	1419.59
679.366	1421.26
679.775	1436.15
680.183	1457.55
680.592	1473.59
681	1490.23
681.408	1484.25
681.816	1506.15
682.224	1530.37
682.632	1556.88
683.04	1623.15
683.448	1680.27
683.856	1746.93
684.264	1823.82
684.671	1897.26
685.079	1986.88
685.487	2081.79
685.894	2209.53
686.302	2313.93
686.709	2397.01
687.116	2493.61
687.524	2561.35
687.931	2615.93
688.338	2658.71
688.745	2690.25
689.152	2722.81
689.559	2769.85
689.966	2811.31
690.373	2809.32
690.78	2840.35
691.187	2908.6
691.593	2944.3
692	2969.44
692.407	3025.78
692.813	3102.11
693.22	3145.76
693.626	3195.93
694.032	3219.91
694.439	3285.59
694.845	3324.78
695.251	3385.59
695.657	3431.19
696.063	3526.89
696.469	3581.36
696.875	3625.78
697.281	3625.51
697.687	3639.88
698.093	3642.81
698.498	3696.39
698.904	3726.39
699.31	3796.58
699.715	3829.74
700.12	3901.9
700.526	3878.57
700.931	3921.75
701.337	3943.57
701.742	3944.11
702.147	4007.59
702.552	4003.01
702.957	4036.88
703.362	4022.7
703.767	4019.76
704.172	4032.76
704.577	3943.77
704.981	3965.49
705.386	3952.98
705.791	3911.97
706.195	3965.43
706.6	3944.84
707.004	4005.9
707.408	3944.77
707.813	3947.16
708.217	3906.64
708.621	3882.95
709.025	3963.84
709.43	3938.67
709.834	3978.51
710.237	4027.8
710.641	3989.65
711.045	3989.14
711.449	3961.74
711.853	3969.68
712.256	3992.74
712.66	4010.77
713.064	4066.4
713.467	4089.46
713.87	4185.9
714.274	4214.84
714.677	4308.79
715.08	4452.93
715.484	4605.82
715.887	4789.48
716.29	4969.85
716.693	5155.97
717.096	5368.84
717.499	5478.84
717.901	5480.68
718.304	5486.48
718.707	5487.93
719.109	5369.75
719.512	5319.99
719.915	5172.13
720.317	5099.2
720.719	5121.53
721.122	5079.03
721.524	5018.32
721.926	4963.35
722.328	5043.5
722.731	5020.28
723.133	5035.03
723.535	5199.56
723.937	5205.14
724.338	5237.77
724.74	5264.46
725.142	5200.57
725.544	5186.81
725.945	5202.34
726.347	5187.03
726.748	5172.5
727.15	5172.5
727.551	5126.54
727.952	5094.95
728.354	5058.87
728.755	5053.68
729.156	5003.71
729.557	4977.38
729.958	4858.58
730.359	4799.71
730.76	4779.87
731.161	4716.28
731.562	4689.25
731.962	4685.86
732.363	4622.41
732.763	4557.75
733.164	4583.33
733.564	4522.06
733.965	4430.18
734.365	4394.84
734.766	4415.39
735.166	4373.49
735.566	4323.51
735.966	4296.48
736.366	4288.62
736.766	4230.6
737.166	4256.84
737.566	4215.35
737.966	4188.75
738.365	4220.89
738.765	4212.19
739.165	4143.62
739.564	4118.33
739.964	4152.73
740.363	4108.66
740.763	4102.67
741.162	4088.24
741.561	4057.49
741.96	4017.62
742.36	4033.2
742.759	4035.91
743.158	4069.27
743.557	4080.23
743.955	4112.62
744.354	4073.43
744.753	4122.69
745.152	4086.9
745.55	4133.57
745.949	4127.46
746.348	4126.76
746.746	4137.62
747.144	4101.27
747.543	4079.2
747.941	4119.76
748.339	4056.69
748.737	4048.97
749.136	4041.08
749.534	4094.58
749.932	4068.06
750.33	4087.86
750.727	4135.26
751.125	4114.23
751.523	4100.44
751.921	4139.49
752.318	4110
752.716	4162.49
753.113	4174.25
753.511	4193.78
753.908	4193.68
754.305	4181.44
754.703	4233.51
755.1	4285.01
755.497	4338.2
755.894	4504.9
756.291	4656.99
756.688	4941.95
757.085	5319.65
757.482	5850.28
757.878	6433.43
758.275	6962.52
758.672	7684.59
759.068	8272.98
759.465	9112.31
759.861	10193.75
760.258	11444.61
760.654	12093.19
761.05	11993.3
761.447	11440.09
761.843	10653.89
762.239	9835.61
762.635	9462.67
763.031	9109.58
763.427	8603.23
763.822	8068.53
764.218	7539.06
764.614	6851.23
765.01	6387.67
765.405	6090.58
765.801	5866.36
766.196	5575.42
766.592	5413.31
766.987	5142.04
767.382	4956.02
767.778	4877.38
768.173	4765.26
768.568	4703.18
768.963	4596.36
769.358	4613.51
769.753	4572.74
770.148	4502.16
770.542	4503.84
770.937	4478.75
771.332	4557.05
771.726	4574.14
772.121	4520.07
772.515	4564.75
772.91	4550.67
773.304	4610.79
773.699	4554.72
774.093	4600.23
774.487	4648.42
774.881	4683.14
775.275	4678.27
775.669	4640.56
776.063	4680.12
776.457	4711.74
776.851	4649.62
777.245	4644.18
777.638	4672.12
778.032	4768.52
778.425	4741.67
778.819	4776.85
779.212	4741.97
779.606	4707.56
779.999	4724.8
780.392	4710.66
780.786	4781.82
781.179	4802.09
781.572	4838.15
781.965	4852.05
782.358	4802.82
782.751	4849.58
783.143	4807.78
783.536	4871.15
783.929	4908.66
784.322	5008.39
784.714	5033.29
785.107	5026.96
785.499	5087.65
785.891	5068.12
786.284	5051.46
786.676	5176.98
787.068	5158.7
787.46	5205.17
787.852	5221.45
788.245	5295.18
788.636	5321.25
789.028	5383.88
789.42	5420.95
789.812	5427.34
790.204	5513.83
790.595	5595.6
790.987	5422.73
791.378	5443.11
791.77	5551.75
792.161	5664.07
792.553	5708.72
792.944	5615.93
793.335	5555.43
793.726	5618.84
794.117	5696.09
794.508	5808.38
794.899	5779.89
795.29	5902.88
795.681	5949.84
796.072	5830.16
796.463	5679.1
796.853	5691.52
797.244	5824.04
797.634	5850.54
798.025	5845.32
798.415	5855.17
798.806	5936.21
799.196	6014.44
799.586	6060.51
799.976	6029.83
800.366	6228.09
800.756	6430.37
801.146	6396.87
801.536	6420.31
801.926	6482.42
802.316	6506.14
802.706	6569.42
803.095	6460.24
803.485	6547.28
803.874	6580.53
804.264	6803.77
804.653	6781.73
805.043	6907.79
805.432	6999.18
805.821	7004.37
806.21	7028.1
806.599	7133.86
806.988	7171.71
807.377	7265.29
807.766	7377.25
808.155	7623.74
808.544	7394.82
808.933	7403.94
809.321	7382.26
809.71	7636.5
810.098	7771.64
810.487	8163.72
810.875	8571.9
811.264	8588.59
811.652	8836.57
812.04	8956.03
812.428	9093.2
812.816	9747.23
813.204	10105.71
813.592	10579.58
813.98	10861.15
814.368	10783.06
814.756	11194.84
815.144	11125.94
815.531	11530.54
815.919	11467.58
816.306	11735.31
816.694	11471.67
817.081	11520.07
817.469	11820.81
817.856	11825.63
818.243	12059.2
818.63	12391.17
819.017	12027.62
819.404	12080.45
819.791	12396.62
820.178	12925.28
820.565	13143.62
820.952	13942.94
821.339	13513.62
821.725	13669.02
822.112	13025.27
822.498	13000.82
822.885	13117.16
823.271	13035.08
823.657	13393.63
824.044	13406.89
824.43	13465.05
824.816	13431.54
825.202	13056.72
825.588	13937.06
825.974	13958.5
826.36	14403.31
826.746	14433.85
827.132	14738.9
827.517	14725.79
827.903	14056.71
828.289	14096.7
828.674	13434.96
829.06	13343.58
829.445	13695.54
829.83	14001.15
830.216	14407.4
830.601	14723.07
830.986	14373.11
831.371	14255.07
831.756	14728.07
832.141	14354.07
832.526	14342.68
832.911	14590.35
833.295	14504.42
833.68	14895.99
834.065	14363.85
834.449	13575.72
834.834	13511.24
835.218	13504.89
835.603	13793.27
835.987	13619.16
836.371	14341.51
836.755	14253.53
837.139	14590.02
837.524	14790.32
837.908	14637.87
838.291	14686.85
838.675	14746.28
839.059	14926.09
839.443	14918.36
839.827	14718.57
840.21	15125.97
840.594	14994.22
840.977	15174.67
841.361	15155.53
841.744	15477.72
842.127	15344.44
842.511	15555.02
842.894	16067.7
843.277	16391.51
843.66	16852.3
844.043	16936.58
844.426	16248.18
844.809	15974.39
845.191	15999.2
845.574	15605.52
845.957	15295.21
846.339	15205.75
846.722	14762.31
847.104	14817.37
847.487	14671.45
847.869	14677.89
848.252	14913.04
848.634	15197.74
849.016	15426.94
849.398	15529.42
849.78	16264.77
850.162	16268.7
850.544	16620.7
850.926	17159.47
851.307	17085.48
851.689	17321.78
852.071	17721.39
852.452	17996.91
852.834	17969.88
853.215	18314.07
853.597	18447.95
853.978	18692.83
854.359	19085.03
854.741	18236.47
855.122	18142.91
855.503	17902.02
855.884	18018.28
856.265	17961.69
856.646	18057.04
857.026	17726.36
857.407	17669.56
857.788	17806.3
858.169	18052.48
858.549	17326.87
858.93	17853.61
859.31	17901.53
859.69	18070.83
860.071	17720.11
860.451	17528.57
860.831	16896.39
861.211	17886.09
861.591	18357.9
861.971	18343.58
862.351	18506.53
862.731	18824.13
863.111	19052.07
863.491	19332.86
863.87	20092.84
864.25	20401.51
864.629	20069.25
865.009	20509.82
865.388	21248.69
865.768	22762.9
866.147	22664.93
866.526	21417.84
866.905	21678.78
867.284	22895
867.663	21733.1
868.042	20831.09
868.421	20765.83
868.8	21109.48
869.179	21312.96
869.558	20055.86
869.936	18484.58
870.315	18813.03
870.693	19259.73
871.072	20770.92
871.45	19776.06
871.828	20033.2
872.207	21045.62
872.585	20706.37
872.963	21255.9
873.341	20530.15
873.719	20291.26
874.097	20052.81
874.475	20428.95
874.853	20901.51
875.23	20028.68
875.608	20871.01
875.986	22569.87
876.363	21585.4
876.741	22259.91
877.118	21703.12
877.495	22770.69
877.873	23136.48
878.25	24341.88
878.627	23355.7
879.004	23677.69
879.381	23563.91
879.758	22949.53
880.135	21368.35
880.512	22597.3
880.889	22001.33
881.265	21775.54
881.642	21591.45
882.019	21968.47
882.395	21524.34
882.772	22366.85
883.148	21391.31
883.524	21307.63
883.901	21187.5
884.277	21491.95
884.653	21357.82
885.029	21962.39
885.405	24327.99
885.781	24134.42
886.157	23132.5
886.532	23410.31
886.908	23395.98
887.284	26025.35
887.659	26870.48
888.035	27703.91
888.411	28428.03
888.786	28804.1
889.161	29814.75
889.537	29256.96
889.912	30198.98
890.287	30186.47
890.662	30963.21
891.037	30412.07
891.412	28353.22
891.787	28063.48
892.162	27072.01
892.536	27708.8
892.911	26672.73
893.286	26093.47
893.66	25040.45
894.035	25671.6
894.409	27950.15
894.784	26828.78
895.158	27270.47
895.532	28892.09
895.906	29684.22
896.281	30385.24
896.655	29893.92
897.029	34138.72
897.402	35567.4
897.776	39590.41
898.15	39462.61
898.524	39041.08
898.898	39555.67
899.271	44303.88
899.645	38364.81
900.018	36857.58
900.392	38212.68
900.765	38521.62
901.138	35670.66
901.511	35130.6
901.884	32252.27
902.258	29751.99
902.631	30723.38
903.003	35362.18
903.376	31894.16
903.749	35761.76
904.122	38280.91
904.495	42174.69
904.867	42687.82
905.24	37043.27
905.612	34461.32
905.985	35233.48
906.357	36810.18
906.729	35142.45
907.102	30020.76
907.474	28857.36
907.846	29041.45
908.218	28659.22
908.59	25330.93
908.962	24513.26
909.334	26396.99
909.705	27725.19
910.077	26915.08
910.449	28017
910.82	28804.93
911.192	31679.93
911.563	32919.25
911.935	35205.7
912.306	35234
912.677	36361.97
913.048	35992.98
913.419	39050.93
913.79	39296.64
914.161	42117.06
914.532	40280.75
914.903	37012.4
915.274	35148.32
915.645	34637.26
916.015	30500.36
916.386	29077.09
916.756	30948.46
917.127	31928.4
917.497	28510.94
917.868	31023.7
918.238	29508.99
918.608	30334.94
918.978	30966.96
919.348	32802.86
919.718	33890.58
920.088	32636.54
920.458	33911.65
920.828	35661.36
921.198	33799.27
921.567	36137.63
921.937	27988.92
922.306	28236.45
922.676	30465.84
923.045	25408.28
923.415	24132.3
923.784	21977.65
924.153	22608.27
924.522	22592.54
924.891	21250.68
925.26	22763.58
925.629	22225.18
925.998	25549.06
926.367	24939.3
926.736	23734.33
927.104	28273.27
927.473	30382.4
927.842	36694.24
928.21	36322.6
928.578	38148.84
928.947	36093.97
929.315	36307.83
929.683	42564.3
930.051	42880.11
930.42	49822.79
930.788	42586.52
931.156	42253.76
931.523	39609.2
931.891	36588.56
932.259	35153.65
932.627	40768.76
932.994	57674.32
933.362	47639.77
933.729	41337.89
934.097	39571.23
934.464	33449.78
934.831	38598.78
935.199	38030.23
935.566	36890.04
935.933	37443.02
936.3	45353.47
936.667	35311.46
937.034	31837.07
937.401	31504.13
937.767	27194.41
938.134	24206.96
938.501	34181.18
938.867	36481.9
939.234	61696.98
939.6	52661.17
939.967	57916.07
940.333	38751.71
940.699	32983.6
941.065	26476.32
941.431	34737
941.798	33509.65
942.163	44069.77
942.529	27505.38
942.895	25270.06
943.261	16347.65
943.627	21442.78
943.992	18758.44
944.358	18782.22
944.723	18844.32
945.089	18347.39
945.454	16943.83
945.82	18106.56
946.185	17371.42
946.55	20118.28
946.915	18066.87
947.28	21205.12
947.645	18663.24
948.01	17238.65
948.375	17988.19
948.74	21552.87
949.104	25150.2
949.469	36321.86
949.834	64161.86
950.198	60876.57
950.562	36493.91
950.927	30365.2
951.291	36512.63
951.655	31118.62
952.02	29198.86
952.384	22047.89
952.748	19203.54
953.112	18727.95
953.476	16284.21
953.839	15050.75
954.203	14895.82
954.567	18637.86
954.931	29345.13
955.294	25106.38
955.658	25253.83
956.021	42962.05
956.385	72855.21
956.748	107436.16
957.111	166783.18
957.474	187052.15
957.837	210513.91
958.2	159163.57
958.563	57261.4
958.926	38751.46
959.289	58830.23
959.652	65682.11
960.015	49268.2
960.377	70647.56
960.74	80663.28
961.102	139074.31
961.465	149497.99
961.827	80217.6
962.189	153935.84
962.552	106696.05
962.914	85500.58
963.276	55464.56
963.638	45841.1
964	45378.93
964.362	30693.26
964.724	29639.07
965.085	21155.53
965.447	17328.07
965.809	19732.42
966.17	19758.15
966.532	21385.73
966.893	19636.39
967.255	17856.64
967.616	21085.95
967.977	16894.54
968.338	18457.77
968.699	15175.56
969.061	15149.98
969.421	15236.34
969.782	17082.55
970.143	14434.14
970.504	14948.75
970.865	16970.37
971.225	17347.44
971.586	16973.33
971.946	24205.06
972.307	21002.97
972.667	27450.56
973.027	28313.87
973.388	34387.63
973.748	23382.52
974.108	25457.5
974.468	34401.62
974.828	26552.73
975.188	20450.88
975.548	18756.5
975.907	15716.83
976.267	17630.57
976.627	14831.84
976.986	15360.59
977.346	14624.79
977.705	14077.84
978.064	12806.16
978.424	10664.72
978.783	11014
979.142	12554.87
979.501	12013.99
979.86	12717.71
980.219	12252.36
980.578	15785.04
980.937	17671.3
981.296	15761.6
981.654	16206.66
982.013	25244.76
982.371	32740.28
982.73	30538.67
983.088	34601.47
983.447	36924.28
983.805	52722.66
984.163	110227.72
984.521	122388.03
984.879	179677.52
985.237	-291916.99
985.595	281475.47
985.953	69971.99
986.311	40400.31
986.669	23475.25
987.026	20249.24
987.384	27266.99
987.741	28188.71
988.099	20190.92
988.456	16079.22
988.814	15039.09
989.171	13111.35
989.528	12905.5
989.885	13602.45
990.242	10783.31
990.599	13438.82
990.956	11017.53
991.313	7693.17
991.67	6315.93
992.027	6687.13
992.383	5937.63
992.74	5209.72
993.096	5451.39
993.453	5668.99
993.809	5881.59
994.165	7832.56
994.522	7197.93
994.878	7912.27
995.234	9956.56
995.59	9850.91
995.946	9301.52
996.302	10636.42
996.658	12301.48
997.013	13560.37
997.369	16043.03
997.725	20594.05
998.08	13338.63
998.436	20514.27
998.791	28342.13
999.147	28307.26
999.502	30861.48
999.857	22481.97
1000.212	36644.26
1000.567	52004.58
1000.922	30034.04
1001.277	19153.16
1001.632	14177.67
1001.987	18263.7
1002.342	13103.3
1002.696	10468.85
1003.051	8339.36
1003.406	10085.39
1003.76	10033.23
1004.114	9880.06
1004.469	8333.06
1004.823	6877.96
1005.177	7432.38
1005.531	5890.71
1005.885	5226.19
1006.239	5909.73
1006.593	7421.48
1006.947	9917.13
1007.301	7443.46
1007.655	8134.22
1008.008	5976.04
1008.362	6730.37
1008.715	9628.29
1009.069	8720.73
1009.422	13129.87
1009.776	26348.31
1010.129	17450
1010.482	14573.46
1010.835	12351.54
1011.188	25711.2
1011.541	24128.82
1011.894	-147273.52
1012.247	433451.19
1012.6	29536.2
1012.952	18622.14
1013.305	9590.8
1013.657	6899.45
1014.01	6519.59
1014.362	5389.16
1014.715	4799.4
1015.067	4184.4
1015.419	4096.48
1015.771	3643.73
1016.123	3238.19
1016.475	3338.28
1016.827	3553.5
1017.179	3844.65
1017.531	3897.15
1017.883	3988.67
1018.234	3850.05
1018.586	4850.32
1018.938	5138.56
1019.289	7082.42
1019.64	8078.94
1019.992	7516.93
1020.343	6858.52
1020.694	5429.73
1021.045	4765.54
1021.396	5394.67
1021.747	5792.41
1022.098	6955.52
1022.449	5040.92
1022.8	4669.11
1023.151	3268.58
1023.501	2913.51
1023.852	3160.68
1024.202	3280.1
1024.553	3598.85
1024.903	3541.04
1025.253	3053.8
1025.604	2755.57
1025.954	3416.77
1026.304	4178.07
1026.654	4857.61
1027.004	7070.92
1027.354	11388.24
1027.703	10754.4
1028.053	14121.03
1028.403	20640.59
1028.753	29757.57
1029.102	40459.97
1029.452	207670.79
1029.801	8965.9
1030.15	5779.23
1030.499	4921.67
897.758	2548.66
901.051	2504.28
904.343	2535.97
907.636	2537.82
910.928	2601.67
914.22	2512.46
917.511	2519
920.803	2577.67
924.094	2589.57
927.384	2575.47
930.675	2540.19
933.965	2496.97
937.255	2507.12
940.544	2474.67
943.834	2433.36
947.123	2373.28
950.411	2466.65
953.7	2441.8
956.988	2412.55
960.276	2354.88
963.563	2428.22
966.851	2425.96
970.138	2479.31
973.424	2474.16
976.711	2426.01
979.997	2532.62
983.283	2573.01
986.568	2485.98
989.853	2496.95
993.138	2523.87
996.423	2604.83
999.708	2546.38
1002.992	2600.95
1006.275	2459.7
1009.559	2493.49
1012.842	2602.63
1016.125	2538.57
1019.408	2519.85
1022.69	2598.02
1025.972	2620.39
1029.254	2593.67
1032.536	2532.43
1035.817	2555.25
1039.098	2506.53
1042.379	2626
1045.659	2633.67
1048.939	2571.61
1052.219	2590.47
1055.498	2595.51
1058.778	2584.46
1062.057	2565.33
1065.335	2588.19
1068.614	2603.15
1071.892	2590.73
1075.17	2663.27
1078.447	2651.02
1081.724	2642.93
1085.001	2675.08
1088.278	2649.11
1091.554	2663.49
1094.83	2656.15
1098.106	2686.11
1101.382	2726.83
1104.657	2729.68
1107.932	2723.44
1111.206	2688.54
1114.481	2647.57
1117.755	2649.32
1121.029	2633.85
1124.302	2688.79
1127.575	2640.65
1130.848	2632.73
1134.121	2594.37
1137.393	2548.09
1140.665	2615.2
1143.937	2590.54
1147.208	2549.49
1150.48	2593.94
1153.75	2579.51
1157.021	2604.03
1160.291	2576.38
1163.561	2622.81
1166.831	2606.9
1170.101	2637.96
1173.37	2609.57
1176.639	2555.62
1179.907	2610.91
1183.176	2618.23
1186.444	2623.04
1189.711	2651.68
1192.979	2662.73
1196.246	2618.51
1199.513	2634.69
1202.78	2635.31
1206.046	2643.26
1209.312	2668.63
1212.578	2691.65
1215.843	2647.78
1219.108	2622.34
1222.373	2646.4
1225.638	2610.89
1228.902	2600.08
1232.166	2564.8
1235.43	2547.1
1238.693	2569.7
1241.956	2567.66
1245.219	2608.78
1248.482	2597.58
1251.744	2592.71
1255.006	2734.67
1258.268	2687.86
1261.529	2636.31
1264.79	2641.25
1268.051	2744.75
1271.312	2759.27
1274.572	2723.98
1277.832	2712.53
1281.092	2702.53
1284.351	2679.77
1287.61	2659.99
1290.869	2579.41
1294.128	2560.95
1297.386	2640.95
1300.644	2629.8
1303.902	2638.13
1307.159	2501.84
1310.416	2555.44
1313.673	2579.88
1316.93	2564.24
1320.186	2607.67
1323.442	2650.55
1326.697	2642.61
1329.953	2630.23
1333.208	2654.28
1336.463	2632.85
1339.717	2577.64
1342.972	2706.38
1346.226	2682.83
1349.479	2619.17
1352.733	2594.55
1355.986	2612.34
1359.238	2589.47
1362.491	2590.17
1365.743	2593.94
1368.995	2589.7
1372.247	2603.2
1375.498	2624.98
1378.749	2644.66
1382	2601.57
1385.251	2651.35
1388.501	2611.45
1391.751	2600.84
1395	2569.85
1398.25	2604.56
1401.499	2615.32
1404.748	2546.97
1407.996	2536.04
1411.244	2524.49
1414.492	2505.82
1417.74	2484.64
1420.987	2493.37
1424.234	2551.34
1427.481	2527.75
1430.728	2587
1433.974	2559.88
1437.22	2570.53
1440.465	2570.83
1443.711	2542.93
1446.956	2575.69
1450.201	2558.07
1453.445	2604.32
1456.689	2583.3
1459.933	2594.62
1463.177	2623.38
1466.42	2598.62
1469.663	2579.26
1472.906	2576.19
1476.148	2639.33
1479.391	2620.26
1482.633	2584.43
1485.874	2599.54
1489.115	2585.75
1492.356	2589.13
1495.597	2563.96
1498.838	2568.59
1502.078	2538.54
1505.318	2493.35
1508.557	2535.48
1511.797	2518.97
1515.036	2567.77
1518.274	2560.65
1521.513	2527.79
1524.751	2549.8
1527.989	2561.17
1531.227	2577.43
1534.464	2573.76
1537.701	2587.62
1540.938	2605.27
1544.174	2557.28
1547.41	2552.98
1550.646	2591.47
1553.882	2630.21
1557.117	2684.6
1560.352	2695.92
1563.587	2656.37
1566.821	2616.34
1570.055	2646.98
1573.289	2619.97
1576.523	2690.42
1579.756	2698.53
1582.989	2717.46
1586.222	2675.32
1589.454	2711.76
1592.686	2686.55
1595.918	2711.53
1599.15	2701.63
1602.381	2770.35
1605.612	2730.63
1608.843	2824.47
1612.073	2740.89
1615.303	2724.8
1618.533	2720.68
1621.762	2719.12
1624.992	2703.85
1628.221	2693.15
1631.449	2679.7
1634.678	2730.01
1637.906	2688.31
1641.134	2723.89
1644.361	2682.62
1647.588	2672.13
1650.815	2689.94
1654.042	2666.18
1657.269	2698.24
1660.495	2653.55
1663.72	2673.02
1666.946	2636.86
1670.171	2589.14
1673.396	2565.05
1676.621	2553.07
1679.845	2567.92
1683.069	2581.27
1686.293	2620.76
1689.517	2597.2
1692.74	2533.46
1695.963	2563.11
1699.185	2579.05
1702.408	2556.03
1705.63	2594.26
1708.852	2605.13
1712.073	2580.19
1715.294	2570.5
1718.515	2633.16
1721.736	2581.73
1724.956	2571.58
1728.176	2596.7
1731.396	2617.51
1734.616	2606.15
1737.835	2635.56
1741.054	2615.23
1744.272	2605.83
1747.491	2634.61
1750.709	2682.38
1753.927	2596.37
1757.144	2636.48
1760.361	2682.25
1763.578	2670.48
1766.795	2616.92
1770.011	2619.14
1773.227	2656.13
1776.443	2692.77
1779.658	2737.26
1782.874	2680.58
1786.089	2661.32
1789.303	2662.36
1792.518	2669.47
1795.732	2655.53
1798.945	2668.09
1802.159	2715.13
1805.372	2625.98
1808.585	2611.94
1811.797	2611.43
1815.01	2655.9
1818.222	2663.45
1821.434	2642.43
1824.645	2701.01
1827.856	2687.86
1831.067	2721.43
1834.278	2675.71
1837.488	2659.37
1840.698	2804.47
1843.908	2735.04
1847.117	2698.32
1850.326	2594.41
1853.535	2685.72
1856.744	2705.05
1859.952	2619.05
1863.16	2625.44
1866.368	2645.13
1869.575	2749.65
1872.782	2638.08
1875.989	2576.71
1879.196	2651.08
1882.402	2644.75
1885.608	2685.3
1888.814	2599.26
1892.019	2500.66
1895.224	2554.2
1898.429	2531.51
1901.634	2513.31
1904.838	2488.74
1908.042	2538.43
1911.246	2547.77
1914.449	2489.64
1917.652	2481.43
1920.855	2463.47
1924.058	2506.04
1927.26	2544.01
1930.462	2570.76
1933.664	2602.91
1936.865	2540.56
1940.066	2549.64
1943.267	2497.23
1946.467	2511.28
1949.668	2533.59
1952.868	2603.44
1956.067	2583.59
1959.267	2518.25
1962.466	2543.53
1965.665	2526.56
1968.863	2519.44
1972.061	2534.79
1975.259	2532.06
1978.457	2609.35
1981.654	2567.93
1984.852	2571.64
1988.048	2508.48
1991.245	2507.73
1994.441	2595.13
1997.637	2572.78
2000.833	2553.18
2004.028	2590.71
2007.223	2645.58
2010.418	2627.56
2013.613	2583.18
2016.807	2557.85
2020.001	2565.77
2023.194	2602.92
2026.388	2581.4
2029.581	2523.75
2032.774	2578.06
2035.966	2585.84
2039.158	2519.24
2042.35	2544.79
2045.542	2470.8
2048.733	2568.43
2051.924	2585.06
2055.115	2608.21
2058.306	2557.42
2061.496	2614.23
2064.686	2678.57
2067.875	2590.78
2071.065	2599.61
2074.254	2626.61
2077.442	2577.52
2080.631	2666.89
2083.819	2568.7
2087.007	2552.17
2090.195	2525.67
2093.382	2555.62
2096.569	2537.55
2099.756	2491.37
2102.942	2520.63
2106.128	2530.87
2109.314	2522.21
2112.5	2491.97
2115.685	2463.83
2118.87	2473.13
2122.055	2537.58
2125.239	2505.95
2128.424	2483.53
2131.608	2575.95
2134.791	2559.16
2137.974	2611.8
2141.157	2598.68
2144.34	2553.31
2147.523	2563.72
2150.705	2580.68
2153.887	2560.83
2157.068	2515.74
2160.25	2513.15
2163.431	2547.51
2166.611	2498.07
2169.792	2513.89
2172.972	2413.44
2176.152	2484.04
2179.331	2516.71
2182.511	2503.66
2185.69	2532.97
2188.868	2524.3
2192.047	2576.39
2195.225	2571.68
2198.403	2523.33
2201.58	2513.99
2204.758	2510.92
2207.935	2590.97
2211.111	2486.16
2214.288	2472.01
2217.464	2510.27
2220.64	2475.36
2223.815	2530.7
2226.991	2453.01
2230.166	2472.61
2233.34	2506.18
2236.515	2528.4
2239.689	2595.84
2242.863	2544.11
2246.036	2600.32
2249.209	2595.42
2252.382	2623.75
2255.555	2620.47
2258.727	2561.56
2261.9	2599.03
2265.071	2590.72
2268.243	2589.35
2271.414	2525.23
2274.585	2494.01
2277.756	2556.27
2280.926	2511.54
2284.096	2552.78
2287.266	2465.52
2290.436	2518.19
2293.605	2544.78
2296.774	2574.5
2299.942	2590.9
2303.111	2606.96
2306.279	2659.94
2309.447	2645.07
2312.614	2619.73
2315.781	2642.44
2318.948	2613.08
2322.115	2651.35
2325.281	2551.82
2328.447	2571.14
2331.613	2545.1
2334.779	2524.28
2337.944	2527.04
2341.109	2521.83
2344.274	2505.94
2347.438	2473.59
2350.602	2499.31
2353.766	2515.76
2356.929	2503.47
2360.092	2543.41
2363.255	2496.23
2366.418	2440.24
2369.58	2541.16
2372.742	2348.87
2375.904	2360.16
2379.066	2337.95
2382.227	2371.34
2385.388	2332.87
2388.548	2262.79
2391.709	2312.85
2394.869	2295.26
2398.029	2385.48
2401.188	2394.25
2404.347	2334.54
2407.506	2462.31
2410.665	2493.03
2413.823	2495.64
2416.981	2456.83
2420.139	2484.44
2423.296	2533.46
2426.453	2507.09
2429.61	2531
2432.767	2472.88
2435.923	2510.13
2439.079	2472.5
2442.235	2517.59
2445.391	2447.22
2448.546	2479.79
2451.701	2526.24
2454.855	2504
2458.009	2549.59
2461.163	2549.29
2464.317	2510.11
2467.471	2542.17
2470.624	2579.87
2473.777	2553.95
2476.929	2566.63
2480.082	2591.92
2483.234	2556.69
2486.385	2506.17
2489.537	2499.41
2492.688	2468
2495.839	2484.74
2498.989	2496.74
2502.14	2482.25
2505.29	2467.6
2508.439	2492.08
2511.589	2420.3
2514.738	2430.8
2517.887	2461.28
2521.035	2530.21
2524.183	2506.02
2527.331	2486.45
2530.479	2466.68
2533.627	2475.21
