Data from C_2_DIV_WI_4N_Splice17_12-18-40-677.txt Node
Date: Sat Mar 14 12:18:40 EDT 2020
User: sa697716
Spectrometer: FLMS03696
Trigger mode: 0
Integration Time (sec): 3.180400E-1
Scans to average: 20
Electric dark correction enabled: true
Nonlinearity correction enabled: true
Boxcar width: 5
XAxis mode: Wavelengths
Number of Pixels in Spectrum: 2048
>>>>>Begin Spectral Data<<<<<
187.83	-355997.58
188.298	2573.21
188.766	1403.7
189.233	1213.65
189.701	1625.93
190.169	2275.5
190.636	865.26
191.104	752.13
191.571	134.88
192.039	-57.03
192.506	-24.1
192.974	441.94
193.441	-625.62
193.908	-33.45
194.375	-49.86
194.842	21.77
195.31	49.53
195.777	142.97
196.244	375.69
196.711	440.92
197.177	524.76
197.644	750.95
198.111	1334.59
198.578	1838.24
199.045	1458.02
199.511	2386.88
199.978	2725.5
200.445	2367.02
200.911	2610.33
201.378	2902.26
201.844	2627.56
202.31	4460.78
202.777	4601.33
203.243	2540.51
203.709	2420.85
204.176	2903.88
204.642	2406.76
205.108	2275.16
205.574	1841.19
206.04	1680.35
206.506	1579.08
206.972	1488.54
207.438	1461.93
207.903	1676.86
208.369	1475.67
208.835	1482.97
209.301	1543.65
209.766	1571.37
210.232	1547.99
210.697	1922.16
211.163	2366.44
211.628	3576.99
212.094	3010.92
212.559	3696.3
213.024	2307.55
213.49	2818.32
213.955	2753.08
214.42	2722.83
214.885	2543.2
215.35	2451.71
215.815	2374.69
216.28	2541.96
216.745	2078.8
217.21	2260.13
217.675	2095.77
218.14	2381.18
218.604	2689.7
219.069	3094.27
219.534	3269.85
219.998	3847.84
220.463	4702.32
220.927	5858.81
221.392	5544.57
221.856	5661.42
222.32	7185.61
222.785	8914.25
223.249	11248.57
223.713	12572.48
224.177	12612.1
224.642	16271.78
225.106	20066.85
225.57	21970.92
226.034	16334.83
226.497	24950.17
226.961	22521.86
227.425	26263.8
227.889	29162.57
228.353	29193.9
228.816	60399.66
229.28	57809.43
229.744	48670.66
230.207	29579.58
230.671	29112.78
231.134	48241.52
231.597	55636.78
232.061	55711.2
232.524	54317.78
232.987	37439.89
233.45	33732.87
233.914	30260.1
234.377	31049.01
234.84	28470.88
235.303	33580.96
235.766	37517.75
236.229	38806.01
236.691	24421.87
237.154	27450.86
237.617	20668.27
238.08	21182.23
238.542	24818.24
239.005	17751.58
239.468	17615.71
239.93	16589.82
240.393	15066.75
240.855	13215.19
241.317	13520.64
241.78	16469.15
242.242	17026.25
242.704	18403.18
243.166	16023.57
243.629	14547.37
244.091	16750.9
244.553	18343.61
245.015	19727.48
245.477	25556.61
245.939	37476.51
246.4	39788.88
246.862	38718.36
247.324	36515.44
247.786	40796.5
248.247	53463.66
248.709	55197.41
249.17	41297.18
249.632	38968.19
250.093	45175.64
250.555	38984.51
251.016	23810.06
251.477	22560.02
251.939	24317.37
252.4	25521.14
252.861	30363.63
253.322	28253.3
253.783	33632.56
254.244	43649.03
254.705	34441.9
255.166	30661.31
255.627	30228.32
256.088	42586.72
256.549	45325.36
257.009	39067.26
257.47	47337.73
257.931	38564
258.391	28900.14
258.852	29799.05
259.312	31220.51
259.773	38510.34
260.233	32527.58
260.694	27435.42
261.154	31162.44
261.614	25014.27
262.074	22357.69
262.534	23254.89
262.994	21932.78
263.455	29208.91
263.915	24578.7
264.374	23186.79
264.834	25347.15
265.294	28102
265.754	29121.63
266.214	27584.66
266.673	25853.2
267.133	32643.76
267.593	32421.4
268.052	39669.72
268.512	34523.86
268.971	41657.94
269.431	45685.42
269.89	40927.65
270.349	61364.18
270.809	68419.6
271.268	61483.38
271.727	137812.97
272.186	89248.95
272.645	66957.46
273.104	48305.98
273.563	69983.83
274.022	55121.24
274.481	46886.35
274.94	36114.26
275.399	26865.05
275.857	31279.13
276.316	42302.56
276.775	37656.17
277.233	37096.25
277.692	34702.06
278.15	39273.17
278.609	40338.02
279.067	37284.75
279.525	34635.84
279.984	44726.77
280.442	53680.5
280.9	52934.63
281.358	34823.44
281.816	32433.98
282.274	31736.55
282.732	32780.71
283.19	32911.36
283.648	28420.62
284.106	30275.67
284.564	30753.12
285.021	28517.29
285.479	21239.78
285.937	19312.83
286.394	16921.61
286.852	17418.64
287.309	18311.7
287.767	17671.72
288.224	16799.27
288.682	18433.59
289.139	20226.79
289.596	18517.21
290.053	19229.3
290.511	24269.89
290.968	29419.78
291.425	39966.53
291.882	33267.67
292.339	28940.04
292.796	28715.25
293.252	27061.68
293.709	21510.74
294.166	19267.26
294.623	21295.1
295.079	20416.06
295.536	20516.37
295.992	18615.67
296.449	18391.84
296.905	19103.71
297.362	18330.51
297.818	19275.21
298.274	19996.26
298.731	20364.06
299.187	20147.09
299.643	21599.46
300.099	26145.45
300.555	28635.8
301.011	23915.23
301.467	23049.79
301.923	26952.82
302.379	26285.65
302.835	25823.57
303.291	25833.94
303.746	29367.18
304.202	37093.07
304.658	37244.84
305.113	25013.32
305.569	24534.52
306.024	26159.51
306.479	24909.13
306.935	20979.56
307.39	22898.27
307.845	21139.2
308.301	21263.74
308.756	20719.63
309.211	19946.42
309.666	20418.81
310.121	25334.88
310.576	25669.75
311.031	25448.34
311.486	29119.65
311.94	29132.54
312.395	38967.73
312.85	73121.51
313.305	358970.99
313.759	1855210.57
314.214	134490.9
314.668	106596.5
315.123	89749.68
315.577	32163.15
316.032	28639.14
316.486	35846.11
316.94	28274.74
317.394	19677.93
317.849	15309.57
318.303	14498.96
318.757	13672.26
319.211	15124.71
319.665	13229.87
320.119	13345.23
320.572	19127.69
321.026	17846.99
321.48	14838.5
321.934	16168.88
322.387	16196.22
322.841	17466.11
323.295	15687.37
323.748	18087.45
324.202	18322.14
324.655	21981.09
325.108	30747.89
325.562	21712.46
326.015	25754.95
326.468	19467.35
326.921	21765.74
327.374	20316.1
327.827	21163.31
328.28	23942.13
328.733	16037.52
329.186	14084.8
329.639	13436.56
330.092	11320.01
330.545	10785.98
330.997	10882.54
331.45	11890.43
331.903	13901.53
332.355	23835.52
332.808	23163.03
333.26	19104.51
333.713	20715.22
334.165	20894.07
334.617	27852.4
335.069	22500.09
335.522	40635.71
335.974	44991.48
336.426	41052.3
336.878	28447.4
337.33	14439.25
337.782	14092.54
338.234	17632.13
338.686	21112.84
339.137	24985.72
339.589	23549.29
340.041	18461.32
340.493	15848.86
340.944	16208.04
341.396	17476.88
341.847	14674.6
342.299	17330.68
342.75	21128.22
343.201	18481.53
343.653	21230.03
344.104	26053.19
344.555	20483.07
345.006	31867.97
345.457	24447.3
345.908	19452.3
346.359	18291.88
346.81	14922.78
347.261	15702.39
347.712	15467.37
348.163	16581.62
348.613	16777.57
349.064	15677.45
349.515	13731.94
349.965	14083.42
350.416	16911.57
350.866	18535.65
351.317	20951.13
351.767	34669.53
352.217	43823.77
352.668	36297.57
353.118	33197
353.568	31966.7
354.018	25261.5
354.468	26605.87
354.918	19080.56
355.368	16711.1
355.818	23599.79
356.268	67896.4
356.718	283669.27
357.168	70606.4
357.617	35463.92
358.067	39472.31
358.517	37038.98
358.966	43420.14
359.416	48761.35
359.865	52693.78
360.315	62731.23
360.764	29356.76
361.213	16453.58
361.663	15569.01
362.112	19180.07
362.561	30966.66
363.01	23321.3
363.459	19636.19
363.908	21241.84
364.357	18052.9
364.806	30428.02
365.255	20944.71
365.703	19187.2
366.152	19231.27
366.601	15645.67
367.05	12723.98
367.498	11590.18
367.947	12140.46
368.395	12632.59
368.844	11197.46
369.292	13496.85
369.74	9350.96
370.189	14340.29
370.637	16814.27
371.085	14506.72
371.533	17702.57
371.981	17085.51
372.429	16272.76
372.877	16975.54
373.325	14243.68
373.773	14557.46
374.221	12982.68
374.669	16120.88
375.116	13959.4
375.564	14092.49
376.012	15801.22
376.459	13026.26
376.907	15582.88
377.354	18916.86
377.801	17716.54
378.249	20430.22
378.696	26182.23
379.143	31813.19
379.591	34040.36
380.038	57725.96
380.485	41913.79
380.932	45367.26
381.379	41686.2
381.826	30835.56
382.273	21952.83
382.72	19208.31
383.166	18768.45
383.613	12216.1
384.06	11061.7
384.506	12840.16
384.953	9475.96
385.4	9566.86
385.846	8413.09
386.292	8221.3
386.739	8072.86
387.185	8016.37
387.631	8048.72
388.078	7828.65
388.524	8411.55
388.97	7786.8
389.416	6510.9
389.862	6941.05
390.308	6586.59
390.754	6703.35
391.2	7305.2
391.645	7485.57
392.091	7172.23
392.537	6939.87
392.983	6969.17
393.428	6853.24
393.874	7335.29
394.319	7363.92
394.765	6972.82
395.21	7177.14
395.655	6727.7
396.101	6304.13
396.546	5695.77
396.991	5752.94
397.436	5349.36
397.881	5167.53
398.326	4891.51
398.771	4628.03
399.216	4050.46
399.661	3648.28
400.106	3628.92
400.551	3704.98
400.995	3314.81
401.44	3262.37
401.885	3059.47
402.329	3078.54
402.774	2941.38
403.218	2841.37
403.663	2734.54
404.107	2802.64
404.551	2817.71
404.995	2574.95
405.44	2478.4
405.884	2504.6
406.328	2420.94
406.772	2405.13
407.216	2187.54
407.66	2107.94
408.104	1994.18
408.547	1863.11
408.991	1798.54
409.435	1725.7
409.879	1698.77
410.322	1672.4
410.766	1613.44
411.209	1531.21
411.653	1465.6
412.096	1429.58
412.54	1425.95
412.983	1413.69
413.426	1413.59
413.869	1408.58
414.312	1381.03
414.756	1325.47
415.199	1261.76
415.642	1224.31
416.085	1223.49
416.527	1211.54
416.97	1228.09
417.413	1164.63
417.856	1149.15
418.298	1133.59
418.741	1124.15
419.184	1117.27
419.626	1163.41
420.069	1161.63
420.511	1164.64
420.953	1141.54
421.396	1132.54
421.838	1104.03
422.28	1128.27
422.722	1134.38
423.164	1150.47
423.606	1129.71
424.048	1126.34
424.49	1067.92
424.932	1060.79
425.374	1045.54
425.816	1060.97
426.258	1078.01
426.699	1088.32
427.141	1071.23
427.582	1083.3
428.024	1073.83
428.465	1066.43
428.907	1039.06
429.348	1028.67
429.789	1029.63
430.231	1006.79
430.672	1017.77
431.113	991.72
431.554	974.88
431.995	948.39
432.436	912.01
432.877	892.99
433.318	877.38
433.759	873.36
434.2	871.07
434.64	859.41
435.081	861.35
435.522	816.48
435.962	786.69
436.403	772.17
436.843	782.61
437.284	770.11
437.724	750.39
438.164	752.89
438.604	735.98
439.045	710.12
439.485	682.89
439.925	667.77
440.365	649.39
440.805	641.92
441.245	633.95
441.685	612.1
442.125	607.26
442.564	609.74
443.004	594.8
443.444	593.95
443.883	592.43
444.323	586.24
444.762	587.48
445.202	596.24
445.641	607.79
446.081	603.45
446.52	609.34
446.959	604.04
447.398	591.93
447.837	585.48
448.276	575.22
448.716	581.66
449.154	587.87
449.593	574.12
450.032	574.08
450.471	563.13
450.91	564.77
451.349	562.74
451.787	559.33
452.226	566.69
452.664	568.68
453.103	569.7
453.541	569.68
453.98	569.55
454.418	574.35
454.856	564.8
455.295	563.34
455.733	567.48
456.171	570.58
456.609	573.54
457.047	573.07
457.485	580.66
457.923	582.41
458.361	574.69
458.798	575.88
459.236	574.58
459.674	578.47
460.111	582.53
460.549	576.02
460.987	573.54
461.424	569.53
461.862	567.23
462.299	558.19
462.736	557.97
463.173	560.11
463.611	555.54
464.048	554.67
464.485	559.13
464.922	553.67
465.359	551.6
465.796	547.26
466.233	544.3
466.67	539.59
467.106	539.31
467.543	532.89
467.98	525.35
468.416	511.02
468.853	506.12
469.29	491.73
469.726	486.24
470.162	473.69
470.599	465.97
471.035	461.31
471.471	450.32
471.907	446.61
472.344	445.42
472.78	447.34
473.216	452.39
473.652	445.98
474.088	444.73
474.523	443.02
474.959	447.02
475.395	441.88
475.831	439.43
476.266	441.51
476.702	439.92
477.138	434.87
477.573	433.17
478.008	431.88
478.444	435.28
478.879	439.72
479.314	441.73
479.75	441.8
480.185	443.88
480.62	446.48
481.055	448.62
481.49	451.68
481.925	457.27
482.36	465.72
482.795	478.19
483.229	490.6
483.664	498.9
484.099	500.16
484.534	507.72
484.968	513.08
485.403	515.32
485.837	514.09
486.271	514.06
486.706	514.62
487.14	509.22
487.574	501.56
488.009	497.04
488.443	493.6
488.877	500.4
489.311	502.22
489.745	508.24
490.179	513.84
490.613	525.07
491.046	529.67
491.48	534.74
491.914	535.97
492.348	541.3
492.781	545.78
493.215	548.13
493.648	549.26
494.082	554.37
494.515	556.78
494.948	564.98
495.382	569.91
495.815	575.52
496.248	581.42
496.681	592.96
497.114	603.71
497.547	614.4
497.98	628.8
498.413	636.41
498.846	646.74
499.279	655.65
499.711	661.46
500.144	665.73
500.577	677.8
501.009	690.09
501.442	701.09
501.874	705.74
502.306	709.94
502.739	718.98
503.171	734.71
503.603	740.01
504.036	751.75
504.468	759.06
504.9	772.54
505.332	781
505.764	787.21
506.196	796.7
506.627	811.35
507.059	826.04
507.491	836.34
507.923	837.83
508.354	854.76
508.786	867.08
509.217	886.23
509.649	902.08
510.08	921.4
510.512	939.38
510.943	956.12
511.374	969.88
511.805	991.65
512.237	1011.96
512.668	1043.8
513.099	1071.49
513.53	1099.22
513.961	1120.42
514.391	1151.47
514.822	1184.39
515.253	1219.71
515.684	1244.43
516.114	1274.31
516.545	1296.09
516.975	1322.21
517.406	1340.76
517.836	1345.03
518.267	1353.43
518.697	1372.67
519.127	1378.96
519.558	1387.97
519.988	1393.04
520.418	1404.57
520.848	1422.38
521.278	1430.38
521.708	1439.56
522.138	1452.45
522.567	1483.28
522.997	1506.91
523.427	1523.14
523.857	1540.28
524.286	1550.43
524.716	1566.06
525.145	1585.54
525.575	1596.99
526.004	1613.48
526.433	1616.7
526.863	1617.86
527.292	1608.19
527.721	1615.06
528.15	1620.28
528.579	1621.3
529.008	1632.55
529.437	1653.89
529.866	1666.56
530.295	1683.16
530.724	1694.01
531.152	1719.75
531.581	1734.87
532.01	1751.64
532.438	1760.67
532.867	1775.66
533.295	1794.63
533.723	1800.57
534.152	1799.48
534.58	1799.92
535.008	1784.37
535.436	1787.18
535.865	1795.73
536.293	1808.6
536.721	1824.9
537.149	1848.68
537.576	1850.29
538.004	1862.09
538.432	1869.39
538.86	1867.64
539.287	1873.56
539.715	1886.98
540.143	1889.7
540.57	1885.83
540.998	1882.24
541.425	1859.95
541.852	1839.55
542.28	1839.34
542.707	1823.03
543.134	1810.22
543.561	1806.43
543.988	1800.1
544.415	1799.38
544.842	1794.19
545.269	1787.12
545.696	1788.19
546.123	1800.4
546.549	1790.13
546.976	1776.45
547.403	1776.17
547.829	1777.59
548.256	1779.2
548.682	1774.62
549.108	1767.94
549.535	1766.17
549.961	1767.38
550.387	1754.48
550.813	1748.39
551.24	1754.34
551.666	1754.88
552.092	1743.95
552.518	1737.48
552.943	1731.98
553.369	1739.08
553.795	1744.33
554.221	1746.26
554.646	1742.63
555.072	1753.05
555.498	1757.67
555.923	1765.52
556.349	1780.23
556.774	1789.12
557.199	1790.02
557.625	1794.74
558.05	1789.28
558.475	1797.63
558.9	1794.79
559.325	1786.89
559.75	1780.65
560.175	1774.06
560.6	1768.26
561.025	1765.43
561.449	1766.57
561.874	1771.18
562.299	1775.97
562.723	1782.49
563.148	1773.03
563.572	1777.57
563.997	1787.73
564.421	1791.8
564.846	1792.1
565.27	1794.28
565.694	1791.72
566.118	1802.12
566.542	1808.77
566.966	1801.36
567.39	1796.12
567.814	1784.09
568.238	1781.34
568.662	1784.58
569.086	1787.12
569.509	1793.6
569.933	1778.82
570.357	1771.4
570.78	1750.4
571.204	1737.89
571.627	1726.31
572.05	1724.31
572.474	1723.87
572.897	1712.1
573.32	1703.9
573.743	1693.95
574.166	1675.16
574.589	1674
575.012	1665.68
575.435	1663.83
575.858	1654.38
576.281	1643.72
576.704	1627.31
577.126	1614.97
577.549	1603.58
577.972	1593.57
578.394	1583.42
578.817	1576.38
579.239	1558.36
579.661	1545.1
580.084	1529.44
580.506	1515.78
580.928	1511.65
581.35	1500.12
581.772	1496.16
582.194	1483.59
582.616	1471.86
583.038	1455.61
583.46	1445.27
583.882	1441.6
584.303	1444.74
584.725	1440.33
585.147	1441.43
585.568	1449.45
585.99	1461.6
586.411	1465.73
586.833	1478.21
587.254	1478.62
587.675	1491.97
588.096	1502.43
588.518	1496.73
588.939	1479.97
589.36	1477.14
589.781	1466.15
590.202	1439.58
590.623	1429.79
591.043	1427.77
591.464	1416.67
591.885	1412.26
592.305	1406.74
592.726	1393.38
593.147	1393.78
593.567	1388.87
593.987	1382.5
594.408	1377.06
594.828	1374.92
595.248	1369.08
595.669	1351.08
596.089	1343.43
596.509	1336.24
596.929	1324.28
597.349	1324.62
597.769	1315.38
598.189	1309.71
598.608	1309.24
599.028	1311.76
599.448	1311.87
599.867	1299.67
600.287	1295.79
600.706	1291.43
601.126	1282.52
601.545	1280.85
601.965	1280.51
602.384	1274.61
602.803	1277.22
603.222	1273.16
603.641	1266.38
604.061	1263.02
604.48	1259.13
604.898	1266.11
605.317	1270.4
605.736	1272.24
606.155	1268.97
606.574	1258.76
606.992	1263.65
607.411	1257.88
607.829	1249.88
608.248	1246.28
608.666	1242.88
609.085	1242.16
609.503	1234.17
609.921	1227.23
610.339	1228.62
610.758	1227.26
611.176	1222.39
611.594	1213.62
612.012	1208.85
612.43	1210.71
612.847	1215.05
613.265	1215.56
613.683	1218.57
614.101	1218.21
614.518	1213.89
614.936	1203.75
615.353	1189.99
615.771	1186.07
616.188	1185.54
616.606	1182.7
617.023	1175.75
617.44	1162.84
617.857	1156.12
618.274	1147.38
618.691	1140.89
619.108	1132.83
619.525	1126.65
619.942	1131.73
620.359	1133.72
620.776	1128.06
621.192	1123.88
621.609	1121.6
622.026	1126.55
622.442	1130.78
622.859	1133.77
623.275	1126.47
623.691	1130.72
624.108	1139.88
624.524	1152.89
624.94	1152.78
625.356	1160.38
625.772	1171.37
626.188	1181.31
626.604	1183.27
627.02	1178.4
627.436	1175.42
627.852	1182.32
628.268	1193.29
628.683	1185.9
629.099	1177.66
629.514	1173.35
629.93	1176.79
630.345	1180.21
630.761	1175.85
631.176	1178
631.591	1172.95
632.007	1166.12
632.422	1163.37
632.837	1152.24
633.252	1148.66
633.667	1139.03
634.082	1130.27
634.497	1119.15
634.911	1100.43
635.326	1095.71
635.741	1079.2
636.155	1069.35
636.57	1070.58
636.984	1068.65
637.399	1068.32
637.813	1066.65
638.228	1062.99
638.642	1064.96
639.056	1053.3
639.47	1052.13
639.884	1042.81
640.298	1034.53
640.712	1030.79
641.126	1018.46
641.54	1008.12
641.954	1000.9
642.368	987.86
642.781	979.15
643.195	960.69
643.609	958.79
644.022	950.61
644.436	945.08
644.849	933.31
645.262	921.03
645.676	918.86
646.089	913.2
646.502	899
646.915	892.89
647.328	876.65
647.741	874.03
648.154	860.96
648.567	857.84
648.98	845.63
649.393	844.75
649.805	840.56
650.218	834.15
650.631	821.07
651.043	814.11
651.456	808.09
651.868	807.41
652.28	820.03
652.693	830.14
653.105	833.69
653.517	840.41
653.929	839.86
654.341	844.08
654.753	832.76
655.165	835.88
655.577	833.23
655.989	828.67
656.401	820.87
656.813	791.14
657.224	774.55
657.636	751
658.047	735.77
658.459	718.6
658.87	708.36
659.282	696.81
659.693	679.67
660.104	666.32
660.515	653.55
660.926	650.79
661.338	646.1
661.749	638.13
662.159	628.67
662.57	621.49
662.981	615.74
663.392	608.82
663.803	609.44
664.213	604.79
664.624	600.16
665.035	599.21
665.445	585.7
665.855	578.27
666.266	572.04
666.676	568.18
667.086	560.15
667.497	557.49
667.907	551.59
668.317	544.37
668.727	541.49
669.137	540.47
669.547	538.56
669.956	539.31
670.366	539.44
670.776	539.93
671.186	542.2
671.595	545.49
672.005	547.32
672.414	547.36
672.824	545.48
673.233	547.68
673.642	548.2
674.052	551.12
674.461	554.77
674.87	558.62
675.279	556.87
675.688	558.5
676.097	559.97
676.506	559.1
676.915	568.76
677.323	571.25
677.732	571.34
678.141	572.26
678.549	564.98
678.958	564.14
679.366	565.64
679.775	570.73
680.183	580.7
680.592	586.42
681	592.49
681.408	590.57
681.816	599.36
682.224	607.8
682.632	619.59
683.04	646.75
683.448	669.52
683.856	695.83
684.264	726.59
684.671	755.95
685.079	792.54
685.487	831.58
685.894	885.06
686.302	930.4
686.709	969.45
687.116	1014.57
687.524	1052.38
687.931	1088.45
688.338	1120.67
688.745	1149.78
689.152	1180.94
689.559	1220.38
689.966	1260.11
690.373	1283.06
690.78	1322.53
691.187	1381.48
691.593	1425.87
692	1464.76
692.407	1522.28
692.813	1591.21
693.22	1645.53
693.626	1702.81
694.032	1749.72
694.439	1819.96
694.845	1875.06
695.251	1946.74
695.657	2008.19
696.063	2098.33
696.469	2167.59
696.875	2230.01
697.281	2266.58
697.687	2312.78
698.093	2347.82
698.498	2417.45
698.904	2473.87
699.31	2557.26
699.715	2614.07
700.12	2700.35
700.526	2720.91
700.931	2787.67
701.337	2837.36
701.742	2870.38
702.147	2948.82
702.552	2980.26
702.957	3038.91
703.362	3057.16
703.767	3085.02
704.172	3125.44
704.577	3082.72
704.981	3129.52
705.386	3143.74
705.791	3137.85
706.195	3210.34
706.6	3220.71
707.004	3298.02
707.408	3271.12
707.813	3300.65
708.217	3290.49
708.621	3292.06
709.025	3383.67
709.43	3385.63
709.834	3444.71
710.237	3512.06
710.641	3499
711.045	3520.94
711.449	3517.96
711.853	3545.57
712.256	3584.82
712.66	3622.13
713.064	3694.34
713.467	3736.78
713.87	3843.45
714.274	3887.63
714.677	3993.04
715.08	4145.88
715.484	4305.24
715.887	4494.81
716.29	4682.2
716.693	4878.17
717.096	5099.99
717.499	5223.16
717.901	5247.59
718.304	5271.03
718.707	5296.58
719.109	5200.16
719.512	5170.49
719.915	5043.76
720.317	4993.16
720.719	5037.69
721.122	5013.02
721.524	4970.2
721.926	4932.59
722.328	5027.19
722.731	5021.45
723.133	5049.61
723.535	5231.26
723.937	5252.22
724.338	5303.82
724.74	5343.21
725.142	5285.16
725.544	5283.07
725.945	5310.01
726.347	5308.48
726.748	5302.76
727.15	5316.05
727.551	5278.96
727.952	5251.77
728.354	5223.37
728.755	5220.9
729.156	5183.05
729.557	5171.16
729.958	5057.66
730.359	5005.53
730.76	4988.03
731.161	4932.1
731.562	4910.81
731.962	4915.86
732.363	4857.26
732.763	4800.17
733.164	4837.62
733.564	4772.64
733.965	4681.75
734.365	4650.11
734.766	4676.42
735.166	4639.07
735.566	4585.88
735.966	4559.26
736.366	4554.58
736.766	4497.2
737.166	4526.31
737.566	4487.7
737.966	4464.51
738.365	4503.71
738.765	4498.66
739.165	4428.52
739.564	4405.74
739.964	4450.31
740.363	4407.6
740.763	4405.63
741.162	4395.88
741.561	4364.8
741.96	4320.9
742.36	4337.83
742.759	4341.45
743.158	4378.61
743.557	4392.82
743.955	4429.98
744.354	4386.48
744.753	4439.89
745.152	4399.66
745.55	4450.3
745.949	4444.67
746.348	4446.44
746.746	4463.72
747.144	4426.55
747.543	4402.71
747.941	4448.7
748.339	4383.13
748.737	4375.85
749.136	4368.53
749.534	4431.17
749.932	4405.49
750.33	4427.96
750.727	4479.23
751.125	4456.75
751.523	4441.23
751.921	4482.72
752.318	4450.98
752.716	4506.42
753.113	4519.83
753.511	4543.81
753.908	4544.45
754.305	4528.32
754.703	4586.66
755.1	4643.15
755.497	4697.61
755.894	4877.05
756.291	5043.5
756.688	5349.27
757.085	5754.95
757.482	6328.22
757.878	6948.57
758.275	7505.2
758.672	8275.12
759.068	8900.14
759.465	9794.71
759.861	10956.1
760.258	12293.75
760.654	12980.64
761.05	12872.47
761.447	12283.29
761.843	11434.7
762.239	10562.22
762.635	10171.89
763.031	9801.63
763.427	9255.43
763.822	8684.51
764.218	8117.12
764.614	7381.03
765.01	6891.99
765.405	6573.87
765.801	6333.73
766.196	6026.83
766.592	5857.22
766.987	5567.95
767.382	5370.6
767.778	5290.73
768.173	5171.1
768.568	5107.15
768.963	4993.24
769.358	5008.52
769.753	4965.84
770.148	4887.48
770.542	4885.39
770.937	4855.74
771.332	4940.79
771.726	4960.16
772.121	4899.91
772.515	4952.84
772.91	4937.28
773.304	5002.45
773.699	4941.47
774.093	4989.6
774.487	5042.62
774.881	5082.08
775.275	5080.02
775.669	5039.81
776.063	5078.9
776.457	5113.21
776.851	5042.59
777.245	5035.03
777.638	5065.77
778.032	5172.97
778.425	5139.7
778.819	5176.27
779.212	5137.98
779.606	5101.3
779.999	5123.1
780.392	5109
780.786	5185.98
781.179	5205.85
781.572	5246.94
781.965	5259.74
782.358	5206.87
782.751	5260.7
783.143	5217.37
783.536	5287.54
783.929	5325.55
784.322	5428.82
784.714	5457.9
785.107	5452.14
785.499	5519.52
785.891	5497.26
786.284	5477.62
786.676	5610.36
787.068	5594.59
787.46	5642.49
787.852	5656.45
788.245	5735.7
788.636	5760.51
789.028	5818.81
789.42	5856.96
789.812	5864.71
790.204	5951.5
790.595	6044.23
790.987	5860.35
791.378	5877.81
791.77	5995.22
792.161	6122.81
792.553	6174.1
792.944	6073.48
793.335	6012.11
793.726	6079.12
794.117	6160.75
794.508	6290.62
794.899	6260.33
795.29	6388.18
795.681	6440.88
796.072	6309.28
796.463	6138.8
796.853	6146.19
797.244	6291.3
797.634	6320.77
798.025	6318.16
798.415	6328.71
798.806	6410.43
799.196	6487.93
799.586	6534.96
799.976	6496.78
800.366	6712.99
800.756	6931.89
801.146	6895.14
801.536	6918.12
801.926	6986.2
802.316	7006.59
802.706	7068.63
803.095	6954.64
803.485	7050.19
803.874	7084.48
804.264	7327.22
804.653	7295.1
805.043	7430.85
805.432	7530.8
805.821	7534
806.21	7551.99
806.599	7666.2
806.988	7710.15
807.377	7808.87
807.766	7925.56
808.155	8187.84
808.544	7943
808.933	7962.06
809.321	7938.4
809.71	8214.41
810.098	8359.68
810.487	8787.12
810.875	9229.33
811.264	9250.81
811.652	9509.04
812.04	9645.9
812.428	9797.43
812.816	10495.43
813.204	10878.71
813.592	11380.03
813.98	11684.09
814.368	11596.68
814.756	12032.97
815.144	11955.81
815.531	12381.49
815.919	12323.57
816.306	12596.84
816.694	12311.9
817.081	12366.61
817.469	12678.23
817.856	12682.8
818.243	12932.41
818.63	13295.43
819.017	12910.86
819.404	12967.18
819.791	13316.07
820.178	13872.87
820.565	14101.12
820.952	14955.87
821.339	14499.62
821.725	14674.48
822.112	13993.41
822.498	13951.21
822.885	14068.53
823.271	13980.87
823.657	14359.48
824.044	14369.39
824.43	14438.48
824.816	14412.13
825.202	14019.4
825.588	14952.06
825.974	14966.94
826.36	15441.72
826.746	15469.6
827.132	15798.81
827.517	15775.99
827.903	15055.65
828.289	15086.11
828.674	14371.73
829.06	14276.03
829.445	14631.88
829.83	14957.91
830.216	15390.36
830.601	15721.24
830.986	15353.95
831.371	15225.6
831.756	15733.05
832.141	15341.54
832.526	15333.47
832.911	15597.48
833.295	15494.57
833.68	15925.88
834.065	15360.06
834.449	14526.49
834.834	14458.43
835.218	14451.64
835.603	14762.85
835.987	14576.63
836.371	15335.95
836.755	15238.35
837.139	15598.14
837.524	15815.3
837.908	15650.48
838.291	15709.58
838.675	15776.51
839.059	15970.97
839.443	15961.79
839.827	15757.68
840.21	16190.72
840.594	16065.85
840.977	16264.75
841.361	16252.62
841.744	16597.99
842.127	16451.78
842.511	16681.77
842.894	17223.75
843.277	17568.6
843.66	18064.39
844.043	18132.03
844.426	17395.96
844.809	17100.9
845.191	17126.63
845.574	16701.29
845.957	16375.89
846.339	16279.32
846.722	15790.82
847.104	15851.76
847.487	15697.52
847.869	15712.12
848.252	15966.84
848.634	16273.07
849.016	16519.3
849.398	16631.75
849.78	17414.1
850.162	17407.62
850.544	17795.22
850.926	18380.62
851.307	18306.69
851.689	18567.56
852.071	18984.53
852.452	19293.26
852.834	19268.28
853.215	19641.81
853.597	19787.56
853.978	20055.78
854.359	20486.48
854.741	19574.53
855.122	19476.17
855.503	19199.58
855.884	19319.48
856.265	19259.34
856.646	19359.4
857.026	19003.59
857.407	18944.09
857.788	19081.82
858.169	19350.55
858.549	18565.7
858.93	19134.99
859.31	19188.83
859.69	19392.77
860.071	19011.17
860.451	18812.07
860.831	18132.98
861.211	19193.18
861.591	19687.26
861.971	19673.46
862.351	19852.49
862.731	20215.59
863.111	20457.05
863.491	20750.49
863.87	21544.82
864.25	21875.81
864.629	21499.08
865.009	21965.32
865.388	22744.25
865.768	24369.39
866.147	24264.57
866.526	22916.24
866.905	23184.83
867.284	24476.51
867.663	23234.61
868.042	22265.52
868.421	22183.61
868.8	22554.46
869.179	22771.62
869.558	21444.44
869.936	19775.05
870.315	20135.33
870.693	20622.02
871.072	22232.32
871.45	21189.6
871.828	21461.97
872.207	22562.98
872.585	22224.52
872.963	22825.57
873.341	22031.04
873.719	21778.29
874.097	21510.99
874.475	21910.54
874.853	22404.54
875.23	21473.8
875.608	22357.75
875.986	24178.29
876.363	23126.09
876.741	23834.11
877.118	23240.74
877.495	24404.67
877.873	24795.83
878.25	26089.53
878.627	25038.03
879.004	25394.8
879.381	25268.77
879.758	24608.52
880.135	22915.64
880.512	24235.16
880.889	23585.22
881.265	23345.92
881.642	23141.79
882.019	23540.53
882.395	23066.9
882.772	23964.72
883.148	22932.94
883.524	22839.47
883.901	22712.47
884.277	23050.42
884.653	22897.08
885.029	23564.88
885.405	26086.28
885.781	25885.59
886.157	24816.67
886.532	25112.16
886.908	25104.17
887.284	27912.26
887.659	28829.4
888.035	29719.2
888.411	30484.91
888.786	30894.22
889.161	31969.47
889.537	31396.61
889.912	32401.26
890.287	32385.5
890.662	33232.92
891.037	32636.86
891.412	30425.25
891.787	30115.7
892.162	29065.93
892.536	29756.05
892.911	28642.88
893.286	28036.54
893.66	26896.92
894.035	27581.4
894.409	30037.7
894.784	28821.79
895.158	29295.94
895.532	31036.11
895.906	31879.23
896.281	32640.28
896.655	32115.41
897.029	36688.04
897.402	38201.4
897.776	42532.3
898.15	42401.16
898.524	41925.68
898.898	42499.17
899.271	47583.26
899.645	41203.89
900.018	39606.34
900.392	41066.55
900.765	41382.82
901.138	38304.6
901.511	37737.95
901.884	34653.41
902.258	31963.56
902.631	33028.21
903.003	37991.8
903.376	34282.67
903.749	38467.25
904.122	41177.15
904.495	45339.5
904.867	45931.37
905.24	39861.64
905.612	37110.8
905.985	37951.29
906.357	39681.18
906.729	37863.3
907.102	32342.4
907.474	31106.02
907.846	31295.32
908.218	30860.23
908.59	27273.01
908.962	26387.56
909.334	28424.52
909.705	29860.09
910.077	28990.46
910.449	30170.88
910.82	31020.81
911.192	34155.07
911.563	35479.67
911.935	37950.67
912.306	37988.98
912.677	39205.5
913.048	38778.14
913.419	42077.58
913.79	42292.27
914.161	45330.92
914.532	43302.22
914.903	39781.14
915.274	37746.87
915.645	37190.03
916.015	32739.89
916.386	31219.49
916.756	33242.94
917.127	34288.77
917.497	30622.09
917.868	33307.95
918.238	31651.21
918.608	32560.96
918.978	33228.36
919.348	35199.01
919.718	36367.51
920.088	35031.07
920.458	36410.21
920.828	38319.51
921.198	36333.62
921.567	38830.14
921.937	30075.53
922.306	30357.59
922.676	32738.44
923.045	27327.19
923.415	25968.09
923.784	23645.4
924.153	24293.01
924.522	24267.08
924.891	22793.09
925.26	24420.93
925.629	23830.55
925.998	27407.52
926.367	26753.81
926.736	25486.4
927.104	30338.42
927.473	32612.31
927.842	39406.81
928.21	39047.75
928.578	41038.72
928.947	38854.95
929.315	39094.77
929.683	45869.92
930.051	46252.56
930.42	53736.05
930.788	45935.83
931.156	45614.56
931.523	42742.78
931.891	39493.58
932.259	37919.34
932.627	43969.64
932.994	62180.25
933.362	51393.14
933.729	44637.16
934.097	42722.1
934.464	36141.05
934.831	41700.78
935.199	41107.57
935.566	39868.83
935.933	40472.98
936.3	49070.51
936.667	38193.95
937.034	34443.47
937.401	34037.24
937.767	29382.92
938.134	26174.73
938.501	36961.51
938.867	39380.45
939.234	66666.02
939.6	56921.44
939.967	62553.1
940.333	41857.82
940.699	35605.23
941.065	28616.27
941.431	37561.91
941.798	36207.95
942.163	47534.39
942.529	29677.05
942.895	27326.5
943.261	17650.87
943.627	23150.83
943.992	20275.57
944.358	20341.03
944.723	20426.71
945.089	19877.89
945.454	18369.92
945.82	19594.54
946.185	18801.89
946.55	21795.08
946.915	19571.21
947.28	22952.52
947.645	20207.44
948.01	18672.13
948.375	19449.77
948.74	23316.65
949.104	27218.72
949.469	39318.85
949.834	69539.13
950.198	65979.13
950.562	39510.04
950.927	32885.18
951.291	39550.5
951.655	33710.62
952.02	31685.46
952.384	23986.99
952.748	20900.09
953.112	20397.39
953.476	17739.03
953.839	16412.19
954.203	16259.14
954.567	20336.34
954.931	32040.16
955.294	27434.39
955.658	27595.09
956.021	46855.49
956.385	79366.31
956.748	117037.82
957.111	181232.49
957.474	203588.39
957.837	228960.04
958.2	173200.7
958.563	62289.92
958.926	42083.95
959.289	63878.29
959.652	71344.01
960.015	53537.71
960.377	76802.98
960.74	87673.58
961.102	151380.38
961.465	162372.11
961.827	86971.84
962.189	166806.73
962.552	115695.34
962.914	92858.43
963.276	60221.41
963.638	49784.71
964	49340.47
964.362	33355.87
964.724	32260.42
965.085	23031.16
965.447	18893.52
965.809	21563.3
966.17	21593.54
966.532	23363.25
966.893	21439.97
967.255	19518.95
967.616	23019.7
967.977	18419.37
968.338	20101.46
968.699	16505.1
969.061	16487.21
969.421	16601.05
969.782	18614.75
970.143	15706.64
970.504	16271.39
970.865	18493.7
971.225	18896.55
971.586	18496.85
971.946	26390.02
972.307	22959.53
972.667	30056.04
973.027	30972.7
973.388	37539.23
973.748	25520.92
974.108	27817.38
974.468	37607.45
974.828	28978.71
975.188	22307.99
975.548	20491.55
975.907	17194.63
976.267	19263.19
976.627	16169.97
976.986	16751.47
977.346	15946.69
977.705	15358.16
978.064	13964.86
978.424	11631.19
978.783	12025.46
979.142	13731.48
979.501	13127.06
979.86	13871.85
980.219	13373.34
980.578	17235.17
980.937	19328.15
981.296	17247.96
981.654	17733.98
982.013	27639.8
982.371	35856.9
982.73	33492.01
983.088	37927.95
983.447	40538.99
983.805	57986.9
984.163	121165.09
984.521	134522.76
984.879	197045.97
985.237	-320399.1
985.595	308894.56
985.953	76826.2
986.311	44340.31
986.669	25764.79
987.026	22255.44
987.384	29966.74
987.741	30922.56
988.099	22070.69
988.456	17593.73
988.814	16470.74
989.171	14337.47
989.528	14160.4
989.885	14936.74
990.242	11827.06
990.599	14741.45
990.956	12033.3
991.313	8402.65
991.67	6889.2
992.027	7316.13
992.383	6509.53
992.74	5705.81
993.096	5981.4
993.453	6197.27
993.809	6424.63
994.165	8563.58
994.522	7841.05
994.878	8648.17
995.234	10844.86
995.59	10717.45
995.946	10139.82
996.302	11556.16
996.658	13370.08
997.013	14735.99
997.369	17482.27
997.725	22424.81
998.08	14519.28
998.436	22383.2
998.791	30935.03
999.147	30877.13
999.502	33660.06
999.857	24424.83
1000.212	39741.4
1000.567	56605.85
1000.922	32666.21
1001.277	20759.37
1001.632	15371.3
1001.987	19849.82
1002.342	14235.05
1002.696	11362.71
1003.051	9071.86
1003.406	11008.54
1003.76	10992.37
1004.114	10895.31
1004.469	9174.7
1004.823	7599.83
1005.177	8203.97
1005.531	6518.27
1005.885	5770.71
1006.239	6514.78
1006.593	8164.06
1006.947	10960.55
1007.301	8212.3
1007.655	8945.78
1008.008	6540.96
1008.362	7339.38
1008.715	10466.47
1009.069	9499.96
1009.422	14248.51
1009.776	28622.6
1010.129	18987.3
1010.482	15862.13
1010.835	13389.21
1011.188	27983.78
1011.541	26320.8
1011.894	-160742.83
1012.247	472807.02
1012.6	32065.82
1012.952	20156.33
1013.305	10388.96
1013.657	7470.2
1014.01	7065.67
1014.362	5812.02
1014.715	5155.62
1015.067	4465.09
1015.419	4375.57
1015.771	3886.8
1016.123	3455.86
1016.475	3556.37
1016.827	3789.56
1017.179	4080.02
1017.531	4097.49
1017.883	4183.32
1018.234	4067.88
1018.586	5150.27
1018.938	5469.02
1019.289	7518.41
1019.64	8595.6
1019.992	8032.32
1020.343	7343.09
1020.694	5815
1021.045	5140.99
1021.396	5937.58
1021.747	6406.69
1022.098	7688.07
1022.449	5573.25
1022.8	5176.72
1023.151	3593.94
1023.501	3186.14
1023.852	3459.37
1024.202	3601.38
1024.553	3966.81
1024.903	3856.53
1025.253	3256.03
1025.604	2929.36
1025.954	3624.28
1026.304	4402.82
1026.654	5132.59
1027.004	7581.76
1027.354	12225.35
1027.703	11496.3
1028.053	15038.3
1028.403	21756.91
1028.753	31632.26
1029.102	43116.64
1029.452	219758.59
1029.801	9445.55
1030.15	6095.48
1030.499	5132.42
897.758	2493.05
901.051	2446.95
904.343	2477.88
907.636	2480.16
910.928	2544.59
914.22	2457.17
917.511	2462.93
920.803	2520.61
924.094	2533.25
927.384	2521.06
930.675	2485.35
933.965	2443.23
937.255	2457.62
940.544	2424.16
943.834	2390.57
947.123	2328.7
950.411	2420.04
953.7	2396.09
956.988	2369.28
960.276	2308.97
963.563	2379.15
966.851	2381.58
970.138	2431.91
973.424	2425.51
976.711	2382.6
979.997	2480.92
983.283	2521.79
986.568	2438.48
989.853	2449.17
993.138	2475.18
996.423	2559.1
999.708	2502.32
1002.992	2551.52
1006.275	2419.58
1009.559	2449.22
1012.842	2557.28
1016.125	2495.9
1019.408	2476.95
1022.69	2553.69
1025.972	2575.34
1029.254	2550.76
1032.536	2492.55
1035.817	2516.47
1039.098	2469.71
1042.379	2579.87
1045.659	2591.65
1048.939	2529.01
1052.219	2544.15
1055.498	2549.23
1058.778	2538.87
1062.057	2520.96
1065.335	2542.57
1068.614	2558.49
1071.892	2543.48
1075.17	2614.64
1078.447	2607.18
1081.724	2599.28
1085.001	2632.19
1088.278	2610.76
1091.554	2622.24
1094.83	2616.68
1098.106	2646.8
1101.382	2688.05
1104.657	2689.81
1107.932	2688.59
1111.206	2657
1114.481	2616.82
1117.755	2618.41
1121.029	2603.29
1124.302	2657.05
1127.575	2615.26
1130.848	2606.88
1134.121	2569.55
1137.393	2522.19
1140.665	2584.18
1143.937	2561.36
1147.208	2517.41
1150.48	2559.26
1153.75	2547.71
1157.021	2569.88
1160.291	2542.98
1163.561	2589.29
1166.831	2575.02
1170.101	2605.39
1173.37	2575.72
1176.639	2526.64
1179.907	2581.15
1183.176	2592.48
1186.444	2597.77
1189.711	2626.57
1192.979	2642.35
1196.246	2597.24
1199.513	2611.61
1202.78	2610.39
1206.046	2619.71
1209.312	2643.86
1212.578	2668.17
1215.843	2621.79
1219.108	2595.16
1222.373	2620.07
1225.638	2582.69
1228.902	2568.58
1232.166	2534.49
1235.43	2517.83
1238.693	2541.27
1241.956	2536.64
1245.219	2581.87
1248.482	2568.32
1251.744	2565.13
1255.006	2704.55
1258.268	2656.59
1261.529	2604.81
1264.79	2611.13
1268.051	2713.23
1271.312	2726.67
1274.572	2694.23
1277.832	2684.97
1281.092	2672.16
1284.351	2651
1287.61	2633.15
1290.869	2554.99
1294.128	2537.33
1297.386	2614.32
1300.644	2604.67
1303.902	2613.93
1307.159	2480.66
1310.416	2531.19
1313.673	2555.64
1316.93	2543.07
1320.186	2586.34
1323.442	2625.9
1326.697	2621.29
1329.953	2603.7
1333.208	2632.82
1336.463	2610.03
1339.717	2554.91
1342.972	2679.02
1346.226	2654.61
1349.479	2592.04
1352.733	2566.1
1355.986	2581.88
1359.238	2560.72
1362.491	2561.04
1365.743	2564.82
1368.995	2557.56
1372.247	2570.43
1375.498	2592.73
1378.749	2614.86
1382	2571.57
1385.251	2620.66
1388.501	2578.12
1391.751	2567.85
1395	2534.36
1398.25	2566.61
1401.499	2580.81
1404.748	2512.35
1407.996	2498.66
1411.244	2486.87
1414.492	2468.14
1417.74	2445.51
1420.987	2453.75
1424.234	2512.05
1427.481	2485.34
1430.728	2544.27
1433.974	2517.38
1437.22	2525.88
1440.465	2529.15
1443.711	2503.05
1446.956	2534.02
1450.201	2517.54
1453.445	2561.25
1456.689	2542.21
1459.933	2554.93
1463.177	2588.39
1466.42	2560.07
1469.663	2542.92
1472.906	2544.15
1476.148	2602.73
1479.391	2588.25
1482.633	2555.67
1485.874	2568.22
1489.115	2561.72
1492.356	2562.25
1495.597	2539.21
1498.838	2541.75
1502.078	2516.33
1505.318	2471.51
1508.557	2512.5
1511.797	2501.8
1515.036	2542.08
1518.274	2533.77
1521.513	2504.39
1524.751	2522.26
1527.989	2535.45
1531.227	2552.35
1534.464	2552.11
1537.701	2566.9
1540.938	2585.5
1544.174	2535.09
1547.41	2532.17
1550.646	2572.52
1553.882	2612.77
1557.117	2665.12
1560.352	2679.56
1563.587	2639.27
1566.821	2598.92
1570.055	2629.16
1573.289	2600.55
1576.523	2670.67
1579.756	2680.52
1582.989	2700.15
1586.222	2660.47
1589.454	2696.29
1592.686	2675.32
1595.918	2701.5
1599.15	2694.48
1602.381	2760.97
1605.612	2723.66
1608.843	2820.32
1612.073	2735.87
1615.303	2722.52
1618.533	2713.34
1621.762	2716.96
1624.992	2699
1628.221	2689.58
1631.449	2674.02
1634.678	2722.57
1637.906	2680.1
1641.134	2716.63
1644.361	2678.05
1647.588	2664.36
1650.815	2682.69
1654.042	2657.12
1657.269	2688.01
1660.495	2647.97
1663.72	2660.01
1666.946	2627.31
1670.171	2579.61
1673.396	2556.62
1676.621	2539.88
1679.845	2551.18
1683.069	2570.65
1686.293	2607.57
1689.517	2588.27
1692.74	2522.7
1695.963	2550.6
1699.185	2572.26
1702.408	2544.87
1705.63	2583.66
1708.852	2594.41
1712.073	2570
1715.294	2562.98
1718.515	2615.44
1721.736	2568.95
1724.956	2554.78
1728.176	2578.8
1731.396	2600.98
1734.616	2588.99
1737.835	2620.9
1741.054	2597.03
1744.272	2589.87
1747.491	2621.05
1750.709	2665.65
1753.927	2585.31
1757.144	2623.26
1760.361	2670.68
1763.578	2657.59
1766.795	2601.39
1770.011	2602.23
1773.227	2636.71
1776.443	2674.59
1779.658	2719.36
1782.874	2659.58
1786.089	2643.1
1789.303	2644.55
1792.518	2645.53
1795.732	2634.36
1798.945	2645.76
1802.159	2694.7
1805.372	2608.28
1808.585	2596.56
1811.797	2596.41
1815.01	2637.07
1818.222	2647.01
1821.434	2621.89
1824.645	2676.02
1827.856	2669.25
1831.067	2700.97
1834.278	2654.45
1837.488	2635.43
1840.698	2777.55
1843.908	2706.91
1847.117	2670.15
1850.326	2567.14
1853.535	2656.05
1856.744	2675.39
1859.952	2591.13
1863.16	2593.63
1866.368	2612.27
1869.575	2712.94
1872.782	2601.92
1875.989	2540.35
1879.196	2609.26
1882.402	2599.33
1885.608	2638.23
1888.814	2552.94
1892.019	2451.75
1895.224	2504.99
1898.429	2481.02
1901.634	2460.28
1904.838	2437.67
1908.042	2484.11
1911.246	2490.46
1914.449	2435.49
1917.652	2427.78
1920.855	2410.6
1924.058	2449.25
1927.26	2489.08
1930.462	2515.17
1933.664	2542.03
1936.865	2484.47
1940.066	2493.72
1943.267	2442.64
1946.467	2455.29
1949.668	2479.31
1952.868	2548.22
1956.067	2527.66
1959.267	2465.69
1962.466	2491.03
1965.665	2474.89
1968.863	2470.28
1972.061	2480.57
1975.259	2478.53
1978.457	2554.51
1981.654	2514.84
1984.852	2515.16
1988.048	2454.42
1991.245	2454.61
1994.441	2540.1
1997.637	2517.52
2000.833	2497.89
2004.028	2538.17
2007.223	2592.08
2010.418	2573.2
2013.613	2532.93
2016.807	2509.86
2020.001	2514.83
2023.194	2551.79
2026.388	2529.29
2029.581	2475.03
2032.774	2528.16
2035.966	2536.05
2039.158	2471.48
2042.35	2500.4
2045.542	2426.06
2048.733	2519.87
2051.924	2535.32
2055.115	2560.31
2058.306	2510.75
2061.496	2568.42
2064.686	2626.87
2067.875	2538.56
2071.065	2552.55
2074.254	2577.22
2077.442	2525.96
2080.631	2615.4
2083.819	2518.99
2087.007	2503.65
2090.195	2478.47
2093.382	2507.54
2096.569	2489.78
2099.756	2446.56
2102.942	2478.58
2106.128	2482.47
2109.314	2473.55
2112.5	2446.52
2115.685	2418.49
2118.87	2428.45
2122.055	2491.73
2125.239	2462.92
2128.424	2442.89
2131.608	2530.68
2134.791	2512.16
2137.974	2563.51
2141.157	2550.93
2144.34	2508.72
2147.523	2518.49
2150.705	2536.21
2153.887	2511.92
2157.068	2468.49
2160.25	2462.92
2163.431	2494.31
2166.611	2447.38
2169.792	2465.36
2172.972	2367.48
2176.152	2436.77
2179.331	2468.53
2182.511	2451.87
2185.69	2479.92
2188.868	2475.2
2192.047	2525.95
2195.225	2524.19
2198.403	2475.25
2201.58	2464.32
2204.758	2461.85
2207.935	2538.74
2211.111	2434.18
2214.288	2421.81
2217.464	2462.28
2220.64	2427.65
2223.815	2482.18
2226.991	2407.36
2230.166	2424.51
2233.34	2455.22
2236.515	2478.32
2239.689	2544.14
2242.863	2491.13
2246.036	2549.53
2249.209	2542.69
2252.382	2571.49
2255.555	2566.31
2258.727	2509.58
2261.9	2544.96
2265.071	2537.74
2268.243	2540.97
2271.414	2478.59
2274.585	2446.97
2277.756	2510.57
2280.926	2467.57
2284.096	2506.85
2287.266	2421.47
2290.436	2471.84
2293.605	2498.27
2296.774	2529.41
2299.942	2545.79
2303.111	2561.83
2306.279	2610.3
2309.447	2596.46
2312.614	2573.24
2315.781	2591.17
2318.948	2561.16
2322.115	2598.91
2325.281	2503.03
2328.447	2518.08
2331.613	2490.11
2334.779	2468.55
2337.944	2469.23
2341.109	2469.79
2344.274	2454.07
2347.438	2418.17
2350.602	2444.93
2353.766	2459.1
2356.929	2446.54
2360.092	2485.23
2363.255	2443.96
2366.418	2390.26
2369.58	2487.72
2372.742	2305.04
2375.904	2311.63
2379.066	2291.01
2382.227	2325.17
2385.388	2285.58
2388.548	2220.33
2391.709	2269.6
2394.869	2255.4
2398.029	2338.32
2401.188	2345.03
2404.347	2289.56
2407.506	2409.28
2410.665	2439.98
2413.823	2439.38
2416.981	2402.41
2420.139	2430.91
2423.296	2478.06
2426.453	2450.88
2429.61	2472.01
2432.767	2416.64
2435.923	2454.48
2439.079	2414.37
2442.235	2457.17
2445.391	2390.37
2448.546	2424.48
2451.701	2471.13
2454.855	2448.18
2458.009	2491.4
2461.163	2490.95
2464.317	2454.03
2467.471	2484.34
2470.624	2521.32
2473.777	2497.02
2476.929	2512.12
2480.082	2537.2
2483.234	2503.26
2486.385	2450.71
2489.537	2443.99
2492.688	2415.36
2495.839	2432.76
2498.989	2446.29
2502.14	2430.99
2505.29	2418.1
2508.439	2439.98
2511.589	2369.26
2514.738	2376.03
2517.887	2404.03
2521.035	2473.12
2524.183	2450.26
2527.331	2431.17
2530.479	2410.66
2533.627	2416.8
