Data from C_2_DIV_PA_2N_Splice17_12-40-20-719.txt Node
Date: Sat Mar 14 12:40:20 EDT 2020
User: sa697716
Spectrometer: FLMS03696
Trigger mode: 0
Integration Time (sec): 3.180400E-1
Scans to average: 20
Electric dark correction enabled: true
Nonlinearity correction enabled: true
Boxcar width: 5
XAxis mode: Wavelengths
Number of Pixels in Spectrum: 2048
>>>>>Begin Spectral Data<<<<<
187.83	-416718.11
188.298	3075.33
188.766	1594.84
189.233	1405.9
189.701	1921.55
190.169	2677.33
190.636	1029.87
191.104	768.3
191.571	92.2
192.039	-85.94
192.506	-48.94
192.974	438.3
193.441	-502.37
193.908	-94.14
194.375	-31.7
194.842	-1.63
195.31	83.7
195.777	195.27
196.244	384.21
196.711	392.28
197.177	457.28
197.644	614.18
198.111	1082.1
198.578	1531.86
199.045	1234.13
199.511	2011.41
199.978	2325.13
200.445	1994.94
200.911	2205.93
201.378	2460.9
201.844	2268.97
202.31	3917.61
202.777	4123.3
203.243	2274.76
203.709	2150.99
204.176	2546.19
204.642	2091.43
205.108	1943.75
205.574	1576.61
206.04	1413.97
206.506	1326.35
206.972	1228.94
207.438	1191.58
207.903	1341.08
208.369	1182.91
208.835	1175.63
209.301	1254.89
209.766	1266.45
210.232	1261.85
210.697	1558.08
211.163	1915.69
211.628	2865.29
212.094	2430.01
212.559	3022.41
213.024	1902.35
213.49	2362.55
213.955	2321.48
214.42	2218.42
214.885	2085.44
215.35	2012.88
215.815	1992.17
216.28	2139.46
216.745	1744.76
217.21	1915.6
217.675	1755.6
218.14	1987.68
218.604	2223.88
219.069	2592.8
219.534	2807.65
219.998	3306.72
220.463	4056.57
220.927	5013.04
221.392	4765.91
221.856	4889.26
222.32	6178.47
222.785	7676.47
223.249	9747.54
223.713	10956.96
224.177	11017.46
224.642	14132.24
225.106	17441.35
225.57	19132.47
226.034	14310.52
226.497	21853.93
226.961	19765.46
227.425	23119.18
227.889	25715.56
228.353	25774.66
228.816	53330.9
229.28	51073.82
229.744	43177.13
230.207	26375.01
230.671	26027.5
231.134	43116.32
231.597	49878.52
232.061	49986.07
232.524	48848.63
232.987	33754.7
233.45	30490.71
233.914	27383.36
234.377	28110.4
234.84	25774.15
235.303	30385.02
235.766	33909.11
236.229	35071.01
236.691	22117.39
237.154	24888.82
237.617	18759
238.08	19214.12
238.542	22474.19
239.005	16082.57
239.468	15996.25
239.93	15111.27
240.393	13783.36
240.855	12136.15
241.317	12446.95
241.78	15147.49
242.242	15713.22
242.704	17008.57
243.166	14847.69
243.629	13542.93
244.091	15641.35
244.553	17169.99
245.015	18494.63
245.477	23939.36
245.939	35137.54
246.4	37342.12
246.862	36378.44
247.324	34326.53
247.786	38436.38
248.247	50489.61
248.709	52073.47
249.17	38994.79
249.632	36806.47
250.093	42743.31
250.555	36936.5
251.016	22572
251.477	21450.84
251.939	23196.19
252.4	24383.08
252.861	29063.18
253.322	27046.45
253.783	32236.08
254.244	41897.11
254.705	33049.42
255.166	29419.21
255.627	28996.13
256.088	40876.48
256.549	43457.84
257.009	37422.81
257.47	45361.66
257.931	36957.32
258.391	27728.74
258.852	28611.85
259.312	30012.56
259.773	37128.43
260.233	31394.3
260.694	26558.72
261.154	30180.2
261.614	24238.48
262.074	21681.07
262.534	22572.22
262.994	21289.32
263.455	28380.52
263.915	23956.76
264.374	22577.64
264.834	24671.9
265.294	27366.22
265.754	28312.31
266.214	26820.72
266.673	25161.03
267.133	31782.44
267.593	31541.84
268.052	38603.08
268.512	33596.97
268.971	40516.05
269.431	44464.3
269.89	39830.35
270.349	59759.29
270.809	66691.22
271.268	59980.36
271.727	134581.47
272.186	87241.97
272.645	65447.14
273.104	47199.77
273.563	68338.68
274.022	53748.93
274.481	45733.77
274.94	35196.8
275.399	26145.64
275.857	30446.37
276.316	41166.54
276.775	36618.91
277.233	36040.59
277.692	33739.78
278.15	38183.32
278.609	39331.35
279.067	36415.92
279.525	33844.45
279.984	43743.56
280.442	52578.52
280.9	51872.07
281.358	34124.5
281.816	31815.73
282.274	31170.43
282.732	32203.26
283.19	32354.9
283.648	27874.61
284.106	29689.3
284.564	30173.07
285.021	27979.82
285.479	20820.11
285.937	18913.04
286.394	16580.68
286.852	17051.5
287.309	17922.12
287.767	17345.91
288.224	16504.19
288.682	18124.85
289.139	19891.32
289.596	18196.71
290.053	18930.42
290.511	23912.89
290.968	29056.13
291.425	39468.49
291.882	32896.37
292.339	28654.19
292.796	28429.46
293.252	26782.68
293.709	21289.28
294.166	19086.86
294.623	21104.93
295.079	20237.59
295.536	20348.96
295.992	18469.3
296.449	18266.33
296.905	18975.07
297.362	18209.45
297.818	19141.06
298.274	19876.41
298.731	20255.34
299.187	20060.11
299.643	21538.84
300.099	26058.57
300.555	28577.04
301.011	23884.7
301.467	23076.69
301.923	27017.55
302.379	26383.04
302.835	25910.44
303.291	25967.29
303.746	29550.07
304.202	37286.15
304.658	37408.46
305.113	25185.01
305.569	24677.58
306.024	26301.23
306.479	24996.85
306.935	21072.16
307.39	23003.78
307.845	21228.05
308.301	21374.39
308.756	20826.73
309.211	20079.94
309.666	20591.87
310.121	25523.7
310.576	25905.79
311.031	25675.05
311.486	29388.21
311.94	29381.29
312.395	39305.98
312.85	73953.4
313.305	362783.56
313.759	1880534.4
314.214	136411.95
314.668	108104.5
315.123	90999.93
315.577	32653.7
316.032	29100.03
316.486	36513.08
316.94	28832.42
317.394	20091.59
317.849	15597.83
318.303	14785.79
318.757	13960.2
319.211	15434.77
319.665	13526.58
320.119	13703.1
320.572	19653.37
321.026	18349.29
321.48	15283.4
321.934	16654.88
322.387	16680.51
322.841	18068.56
323.295	16244.15
323.748	18718.17
324.202	18993.84
324.655	22821.64
325.108	31933.53
325.562	22555.42
326.015	26836.6
326.468	20298.63
326.921	22724.9
327.374	21200.2
327.827	22107.2
328.28	25048.11
328.733	16798.73
329.186	14795.51
329.639	14112.71
330.092	11903.84
330.545	11361.02
330.997	11470.96
331.45	12555.07
331.903	14717.55
332.355	25347.36
332.808	24589.54
333.26	20258
333.713	21991.26
334.165	22122.81
334.617	29540.72
335.069	23819.78
335.522	43075.34
335.974	47747.57
336.426	43536.99
336.878	30154.71
337.33	15279.1
337.782	14920.12
338.234	18717.7
338.686	22382.97
339.137	26500.25
339.589	24930.86
340.041	19593.42
340.493	16822.08
340.944	17187.73
341.396	18538.68
341.847	15617.97
342.299	18442.77
342.75	22561.31
343.201	19714.79
343.653	22691.5
344.104	27935.67
344.555	22041.69
345.006	34338.59
345.457	26339.52
345.908	20977.26
346.359	19755.03
346.81	16083.08
347.261	16955.46
347.712	16677.76
348.163	17901.21
348.613	18165.68
349.064	16996.33
349.515	14895.7
349.965	15269.11
350.416	18419.6
350.866	20222.52
351.317	22839.72
351.767	37845.35
352.217	47912.75
352.668	39814.54
353.118	36467.95
353.568	35127.13
354.018	27730.89
354.468	29250.41
354.918	20982.6
355.368	18356.41
355.818	25945.72
356.268	74674.42
356.718	312623.53
357.168	77825.17
357.617	39108.58
358.067	43556.68
358.517	40815.19
358.966	47932.47
359.416	53753.95
359.865	58106.19
360.315	69126.14
360.764	32314.1
361.213	18156.16
361.663	17196.5
362.112	21196.17
362.561	34198.58
363.01	25776.94
363.459	21705.48
363.908	23464.38
364.357	19951.21
364.806	33708.04
365.255	23193.14
365.703	21202.36
366.152	21236.25
366.601	17238.92
367.05	14027.08
367.498	12765.57
367.947	13326.94
368.395	13837.34
368.844	12271.5
369.292	14757.46
369.74	10176.98
370.189	15587.74
370.637	18268.65
371.085	15741.45
371.533	19176.03
371.981	18437.82
372.429	17577.96
372.877	18318.59
373.325	15355.46
373.773	15647.09
374.221	13955.69
374.669	17352.79
375.116	14996.29
375.564	15128.96
376.012	16939.41
376.459	13961.23
376.907	16704.37
377.354	20189.34
377.801	18858
378.249	21668.87
378.696	27663.9
379.143	33401.23
379.591	35578.91
380.038	60129.11
380.485	43464.35
380.932	46831.57
381.379	42875.01
381.826	31537.9
382.273	22378.52
382.72	19554.73
383.166	19035.49
383.613	12347.4
384.06	11146.08
384.506	12900.08
384.953	9462.75
385.4	9509.75
385.846	8312.31
386.292	8080.96
386.739	7900.49
387.185	7797.21
387.631	7771.25
388.078	7537.13
388.524	8038.5
388.97	7407.86
389.416	6158.92
389.862	6547.41
390.308	6188.97
390.754	6290.19
391.2	6811.5
391.645	6969.34
392.091	6663.28
392.537	6437.31
392.983	6431.2
393.428	6322.36
393.874	6762.35
394.319	6779.51
394.765	6406.73
395.21	6589.55
395.655	6172.62
396.101	5777.35
396.546	5202.43
396.991	5243.28
397.436	4872.36
397.881	4701.09
398.326	4447.28
398.771	4213.24
399.216	3687.73
399.661	3323.57
400.106	3312.4
400.551	3389.89
400.995	3042.75
401.44	3011.37
401.885	2833.35
402.329	2866.16
402.774	2759.25
403.218	2683.63
403.663	2591.64
404.107	2663.56
404.551	2692.92
404.995	2471.36
405.44	2382.2
405.884	2425.58
406.328	2353.93
406.772	2352.19
407.216	2148.38
407.66	2078.15
408.104	1975.14
408.547	1852.26
408.991	1801.62
409.435	1734.83
409.879	1720.05
410.322	1705.06
410.766	1651.47
411.209	1575.04
411.653	1517.66
412.096	1490.49
412.54	1495.81
412.983	1490.43
413.426	1499.95
413.869	1499.87
414.312	1480.17
414.756	1428.7
415.199	1367.92
415.642	1333.45
416.085	1338.13
416.527	1332.26
416.97	1357.54
417.413	1292.91
417.856	1284.05
418.298	1274.1
418.741	1272.53
419.184	1275.05
419.626	1333.18
420.069	1337.66
420.511	1350.23
420.953	1330.38
421.396	1323.14
421.838	1294.22
422.28	1328.4
422.722	1339.03
423.164	1364.11
423.606	1344.14
424.048	1345.32
424.49	1280.48
424.932	1275.96
425.374	1257.87
425.816	1279.76
426.258	1305.56
426.699	1322.88
427.141	1304.77
427.582	1326.86
428.024	1321.1
428.465	1316.04
428.907	1284.59
429.348	1270.37
429.789	1272.41
430.231	1246.86
430.672	1266.14
431.113	1237.73
431.554	1220.62
431.995	1191.85
432.436	1150.34
432.877	1125.72
433.318	1105.76
433.759	1102.33
434.2	1104.23
434.64	1093.56
435.081	1097.26
435.522	1037.34
435.962	1001.81
436.403	979.98
436.843	993.09
437.284	970.31
437.724	943.3
438.164	945.85
438.604	923.37
439.045	887.41
439.485	849.05
439.925	831
440.365	810
440.805	795.34
441.245	783.12
441.685	754.04
442.125	748.31
442.564	749.63
443.004	730.97
443.444	726.58
443.883	726.48
444.323	720.3
444.762	719.35
445.202	727.88
445.641	740.1
446.081	734.01
446.52	737.35
446.959	728.04
447.398	711.64
447.837	701.5
448.276	688.36
448.716	691.49
449.154	695.35
449.593	679.32
450.032	674.69
450.471	661.18
450.91	659.79
451.349	656.91
451.787	652.47
452.226	660.08
452.664	659.24
453.103	659.25
453.541	657.51
453.98	657
454.418	658.92
454.856	648.35
455.295	645.94
455.733	651.22
456.171	654.07
456.609	655.95
457.047	656.44
457.485	666.72
457.923	667.99
458.361	659.4
458.798	660.07
459.236	658.05
459.674	661.77
460.111	664.32
460.549	658.83
460.987	656.65
461.424	652.67
461.862	648.88
462.299	638.6
462.736	637.95
463.173	639.74
463.611	635.18
464.048	635.2
464.485	641.2
464.922	635.46
465.359	630.92
465.796	625.99
466.233	622.4
466.67	617.9
467.106	615.93
467.543	609.77
467.98	602.11
468.416	584.29
468.853	578.26
469.29	560.41
469.726	554.43
470.162	539.95
470.599	529.2
471.035	524.99
471.471	510.58
471.907	507.53
472.344	503.41
472.78	505.4
473.216	512.1
473.652	506.33
474.088	504.85
474.523	503.29
474.959	508.06
475.395	503.17
475.831	499.74
476.266	502.77
476.702	500.7
477.138	496.16
477.573	494.21
478.008	491.42
478.444	494.24
478.879	498.9
479.314	500.99
479.75	500.82
480.185	503.18
480.62	506.45
481.055	508.65
481.49	512.9
481.925	519.72
482.36	528.89
482.795	543.29
483.229	557.05
483.664	568.26
484.099	569.53
484.534	577.45
484.968	582.95
485.403	584.42
485.837	582.53
486.271	580.69
486.706	579.95
487.14	572.07
487.574	561.84
488.009	555.32
488.443	549.39
488.877	554.91
489.311	554.99
489.745	559.85
490.179	563.64
490.613	573.9
491.046	576.67
491.48	579.03
491.914	577.29
492.348	579.9
492.781	581.28
493.215	580.45
493.648	578.03
494.082	580.03
494.515	577.45
494.948	581.22
495.382	580.91
495.815	581.36
496.248	583.57
496.681	590.77
497.114	596.22
497.547	601.2
497.98	608.13
498.413	609.64
498.846	613.75
499.279	617.39
499.711	616.07
500.144	613.63
500.577	617.68
501.009	621.02
501.442	624.48
501.874	622.07
502.306	618.5
502.739	620.09
503.171	626.22
503.603	622.8
504.036	624.26
504.468	623.14
504.9	626.4
505.332	625.38
505.764	623.44
506.196	622.53
506.627	626.65
507.059	630.83
507.491	630.49
507.923	624.82
508.354	630.63
508.786	633.06
509.217	640.59
509.649	645.64
510.08	653.16
510.512	660.12
510.943	666.06
511.374	669.66
511.805	678.44
512.237	685.86
512.668	700.78
513.099	712.5
513.53	724.86
513.961	733.59
514.391	749.33
514.822	767.04
515.253	784.19
515.684	795.22
516.114	808.73
516.545	817.98
516.975	830.64
517.406	838.66
517.836	837.61
518.267	838.95
518.697	847.17
519.127	847.47
519.558	848.39
519.988	848.51
520.418	852.1
520.848	859.95
521.278	863.53
521.708	896.37
522.138	903.06
522.567	919.8
522.997	933.47
523.427	941.62
523.857	951.33
524.286	957.59
524.716	966.94
525.145	978.81
525.575	986.29
526.004	994.07
526.433	966.55
526.863	965.67
527.292	962.16
527.721	966.35
528.15	969.82
528.579	970.09
529.008	976.47
529.437	988.25
529.866	996.39
530.295	1006.2
530.724	1014.67
531.152	1031.17
531.581	1040.87
532.01	1050.55
532.438	1056.1
532.867	1064.89
533.295	1077.04
533.723	1081.4
534.152	1081.75
534.58	1082.57
535.008	1074.3
535.436	1077.09
535.865	1082.27
536.293	1090.69
536.721	1100.75
537.149	1116.37
537.576	1119.48
538.004	1127.47
538.432	1131.96
538.86	1131.68
539.287	1135.49
539.715	1143.71
540.143	1144.68
540.57	1142.72
540.998	1141.73
541.425	1129.59
541.852	1117.22
542.28	1116.25
542.707	1107.02
543.134	1099.71
543.561	1097.88
543.988	1094.26
544.415	1094.52
544.842	1091.47
545.269	1087.82
545.696	1089.26
546.123	1097.31
546.549	1091.44
546.976	1084.19
547.403	1084.09
547.829	1085.81
548.256	1087.13
548.682	1085.34
549.108	1082.28
549.535	1082.63
549.961	1083.85
550.387	1075.64
550.813	1072.86
551.24	1076.35
551.666	1077.02
552.092	1071.12
552.518	1066.82
552.943	1063.87
553.369	1067.57
553.795	1070.31
554.221	1070.91
554.646	1069.65
555.072	1077.35
555.498	1078.91
555.923	1084.97
556.349	1094.03
556.774	1099.03
557.199	1100.05
557.625	1103.17
558.05	1100.41
558.475	1105.47
558.9	1104.73
559.325	1100.32
559.75	1095.77
560.175	1092.56
560.6	1088.6
561.025	1087.66
561.449	1087.88
561.874	1091.08
562.299	1093.64
562.723	1097.94
563.148	1091.66
563.572	1093.99
563.997	1099.72
564.421	1102.78
564.846	1102.22
565.27	1105.44
565.694	1103.49
566.118	1110.97
566.542	1116.07
566.966	1112.56
567.39	1110.33
567.814	1104.43
568.238	1105.06
568.662	1107.83
569.086	1110.23
569.509	1115.19
569.933	1106.52
570.357	1102.25
570.78	1090.31
571.204	1083.4
571.627	1077.81
572.05	1077.12
572.474	1078.07
572.897	1070.65
573.32	1066.58
573.743	1060.43
574.166	1050.49
574.589	1049.87
575.012	1046.66
575.435	1046.22
575.858	1041.07
576.281	1033.79
576.704	1024.26
577.126	1017.74
577.549	1011.12
577.972	1004.97
578.394	999.05
578.817	995.9
579.239	984.56
579.661	977.21
580.084	968.93
580.506	960.84
580.928	958.7
581.35	953.2
581.772	950.28
582.194	942.73
582.616	935.8
583.038	927.49
583.46	920.79
583.882	920.05
584.303	921.7
584.725	918.62
585.147	923.86
585.568	932.5
585.99	940.3
586.411	945.24
586.833	955.18
587.254	957.24
587.675	966.81
588.096	974.95
588.518	972.93
588.939	964.48
589.36	964
589.781	954.03
590.202	938.23
590.623	932.9
591.043	931.78
591.464	924.65
591.885	922.98
592.305	919.81
592.726	912.01
593.147	913.03
593.567	909.92
593.987	905.51
594.408	901.66
594.828	898.56
595.248	895.76
595.669	885.09
596.089	880.59
596.509	876.39
596.929	868.09
597.349	868.76
597.769	862.25
598.189	858.41
598.608	860.39
599.028	863.38
599.448	863.54
599.867	856.11
600.287	852.77
600.706	850.94
601.126	845.54
601.545	845.92
601.965	845.2
602.384	842.03
602.803	843.93
603.222	840.79
603.641	836.57
604.061	835.31
604.48	832.65
604.898	839.14
605.317	842.55
605.736	844.61
606.155	844.4
606.574	839.24
606.992	843.05
607.411	841.2
607.829	836.86
608.248	835.37
608.666	834.29
609.085	834.74
609.503	828.62
609.921	825.88
610.339	827.08
610.758	825.54
611.176	823.56
611.594	819.08
612.012	816.93
612.43	819.65
612.847	823.89
613.265	825.57
613.683	829.87
614.101	832.35
614.518	829.59
614.936	824.73
615.353	817.28
615.771	816.67
616.188	817.28
616.606	816.14
617.023	812.85
617.44	805.01
617.857	800.59
618.274	794.81
618.691	792.09
619.108	787.27
619.525	783.77
619.942	788.33
620.359	790.16
620.776	787.27
621.192	786.36
621.609	785.78
622.026	790.75
622.442	795.96
622.859	798.65
623.275	794.24
623.691	798.23
624.108	805.87
624.524	815.19
624.94	815.62
625.356	823.43
625.772	831.16
626.188	838.02
626.604	838.89
627.02	835.53
627.436	835.01
627.852	840.75
628.268	849.36
628.683	843.59
629.099	838.76
629.514	835.89
629.93	837.88
630.345	841.29
630.761	839.07
631.176	842.13
631.591	840.71
632.007	837.91
632.422	836.24
632.837	828.79
633.252	829.04
633.667	823.01
634.082	818.44
634.497	811.92
634.911	801.22
635.326	800.76
635.741	790.9
636.155	784.75
636.57	788.25
636.984	791.25
637.399	796.1
637.813	798.15
638.228	801.16
638.642	805.84
639.056	801.34
639.47	803.72
639.884	800.97
640.298	800.82
640.712	803.69
641.126	797.01
641.54	794.09
641.954	792.16
642.368	787.39
642.781	785.7
643.195	777.72
643.609	781.93
644.022	781.46
644.436	781.11
644.849	775.65
645.262	770.33
645.676	775.47
646.089	773.6
646.502	767.4
646.915	766.13
647.328	756.18
647.741	757.53
648.154	750.85
648.567	752.33
648.98	746.68
649.393	749.38
649.805	749.54
650.218	745.34
650.631	736.07
651.043	732.38
651.456	728.84
651.868	729.53
652.28	741.97
652.693	752.13
653.105	756.07
653.517	763.29
653.929	764.88
654.341	769.51
654.753	761.71
655.165	767.67
655.577	766.46
655.989	765.39
656.401	761.19
656.813	737.64
657.224	725.22
657.636	706.32
658.047	695.9
658.459	683.31
658.87	678.72
659.282	673.97
659.693	662.04
660.104	654.48
660.515	646.36
660.926	649.55
661.338	649.66
661.749	647.36
662.159	643.97
662.57	642.57
662.981	642.29
663.392	639.98
663.803	644.65
664.213	645.45
664.624	645.83
665.035	652.03
665.445	643.05
665.855	641.26
666.266	638
666.676	638.17
667.086	633.41
667.497	634.82
667.907	631.34
668.317	625.12
668.727	625.1
669.137	624.92
669.547	623.82
669.956	626.34
670.366	627.83
670.776	630.55
671.186	634.76
671.595	639.29
672.005	641.81
672.414	641.95
672.824	641.08
673.233	642.8
673.642	645.14
674.052	648.09
674.461	650.43
674.87	654.37
675.279	651.29
675.688	651.92
676.097	651.91
676.506	649.19
676.915	660.25
677.323	660.86
677.732	658.56
678.141	658.02
678.549	646.31
678.958	643.2
679.366	640.67
679.775	642.7
680.183	649.35
680.592	650.74
681	652.28
681.408	642.97
681.816	646.06
682.224	648.43
682.632	652.74
683.04	672.41
683.448	686.2
683.856	704.47
684.264	726.08
684.671	743.89
685.079	767.49
685.487	791.5
685.894	828.68
686.302	855.78
686.709	876.32
687.116	898.84
687.524	915.2
687.931	928.72
688.338	935.23
688.745	936.69
689.152	940.78
689.559	953.17
689.966	966.95
690.373	965.68
690.78	977.1
691.187	1002.55
691.593	1017.69
692	1029.98
692.407	1053.55
692.813	1089.65
693.22	1116.22
693.626	1143.38
694.032	1162.61
694.439	1200.35
694.845	1227.82
695.251	1266.09
695.657	1298.94
696.063	1352.3
696.469	1390.88
696.875	1428.72
697.281	1447.03
697.687	1473.18
698.093	1495.98
698.498	1541.17
698.904	1573.55
699.31	1625.37
699.715	1666.13
700.12	1722.88
700.526	1738.06
700.931	1782.7
701.337	1819
701.742	1843.46
702.147	1898.56
702.552	1922.89
702.957	1965.13
703.362	1983.76
703.767	2007.48
704.172	2036.15
704.577	2011.86
704.981	2045.4
705.386	2062.91
705.791	2062.87
706.195	2116.5
706.6	2129.84
707.004	2184.56
707.408	2171.04
707.813	2195.61
708.217	2196.92
708.621	2204.75
709.025	2273.3
709.43	2281.48
709.834	2324.72
710.237	2376.33
710.641	2371.83
711.045	2392.71
711.449	2397.11
711.853	2425.2
712.256	2458.9
712.66	2489.13
713.064	2545.39
713.467	2580.3
713.87	2661.02
714.274	2700.03
714.677	2777.89
715.08	2891.17
715.484	3006.54
715.887	3147.4
716.29	3282.11
716.693	3426.84
717.096	3591.62
717.499	3685.71
717.901	3710.7
718.304	3732.67
718.707	3754.45
719.109	3694.2
719.512	3678.65
719.915	3598.13
720.317	3564.98
720.719	3601.62
721.122	3588.1
721.524	3562.28
721.926	3543.72
722.328	3618.5
722.731	3619.2
723.133	3644.97
723.535	3783.54
723.937	3806.09
724.338	3848.17
724.74	3885.24
725.142	3880.34
725.544	3886.98
725.945	3918.26
726.347	3916.61
726.748	3917.39
727.15	3932.99
727.551	3913.42
727.952	3896.96
728.354	3880.61
728.755	3882.05
729.156	3856.38
729.557	3820.78
729.958	3737.12
730.359	3697.12
730.76	3686.82
731.161	3645.69
731.562	3630.96
731.962	3633.21
732.363	3591.75
732.763	3549.98
733.164	3577.34
733.564	3533.19
733.965	3469
734.365	3448.75
734.766	3468.54
735.166	3446.97
735.566	3412.84
735.966	3398.18
736.366	3398.2
736.766	3358.57
737.166	3382.96
737.566	3357.17
737.966	3341.09
738.365	3371.18
738.765	3368.56
739.165	3316.14
739.564	3297.77
739.964	3329.39
740.363	3297.24
740.763	3296.26
741.162	3288.99
741.561	3266.98
741.96	3237.66
742.36	3251.93
742.759	3257.95
743.158	3285.19
743.557	3299.38
743.955	3328.35
744.354	3298.6
744.753	3341.48
745.152	3315.02
745.55	3353.78
745.949	3353.1
746.348	3353.14
746.746	3365.37
747.144	3338.62
747.543	3323.84
747.941	3357.57
748.339	3309.18
748.737	3304.07
749.136	3295.23
749.534	3340.17
749.932	3321.97
750.33	3337.37
750.727	3375.58
751.125	3359.64
751.523	3347.35
751.921	3379.67
752.318	3357.57
752.716	3401.15
753.113	3412.24
753.511	3431.65
753.908	3434.02
754.305	3424.29
754.703	3468.31
755.1	3513.91
755.497	3557.12
755.894	3693.63
756.291	3819
756.688	4051.67
757.085	4361.24
757.482	4800.45
757.878	5284.22
758.275	5719.22
758.672	6313.84
759.068	6798.85
759.465	7492.16
759.861	8389.69
760.258	9425.53
760.654	9964.98
761.05	9890.51
761.447	9442.88
761.843	8796.2
762.239	8120.14
762.635	7811.92
763.031	7519.13
763.427	7103.73
763.822	6663.88
764.218	6223.51
764.614	5657.43
765.01	5278.86
765.405	5036.61
765.801	4850.13
766.196	4610.86
766.592	4479.57
766.987	4259.07
767.382	4107.3
767.778	4044.72
768.173	3952.19
768.568	3903.53
768.963	3815.33
769.358	3827.55
769.753	3793.29
770.148	3733.44
770.542	3732.13
770.937	3709.79
771.332	3772.56
771.726	3789.13
772.121	3745.95
772.515	3786.59
772.91	3774.87
773.304	3825.86
773.699	3781.02
774.093	3817.91
774.487	3858.68
774.881	3889.28
775.275	3886.11
775.669	3857.78
776.063	3888.95
776.457	3912.42
776.851	3858.77
777.245	3854.38
777.638	3879.26
778.032	3959.14
778.425	3933.71
778.819	3964.08
779.212	3937.83
779.606	3909.52
779.999	3922.31
780.392	3911.06
780.786	3968.5
781.179	3981.85
781.572	4013.2
781.965	4022.28
782.358	3984.36
782.751	4027.16
783.143	3990.78
783.536	4040.18
783.929	4070.55
784.322	4153.26
784.714	4172.2
785.107	4171.12
785.499	4222.14
785.891	4206.8
786.284	4190.33
786.676	4287.06
787.068	4271.05
787.46	4310.96
787.852	4323.14
788.245	4382.93
788.636	4401.89
789.028	4451.81
789.42	4478.11
789.812	4486.06
790.204	4556.37
790.595	4628.72
790.987	4493.49
791.378	4510.36
791.77	4599.35
792.161	4699.29
792.553	4743.82
792.944	4666.59
793.335	4615.41
793.726	4667.53
794.117	4734.34
794.508	4826.72
794.899	4803.2
795.29	4902.75
795.681	4944.86
796.072	4847.34
796.463	4727.58
796.853	4732.13
797.244	4841.87
797.634	4866.84
798.025	4865.96
798.415	4868.43
798.806	4936.35
799.196	4999.28
799.586	5035.59
799.976	5009.52
800.366	5169.11
800.756	5320.15
801.146	5291.51
801.536	5315.22
801.926	5367.82
802.316	5390.42
802.706	5441.64
803.095	5351.51
803.485	5421.61
803.874	5452.25
804.264	5633.73
804.653	5619.86
805.043	5732.7
805.432	5811.7
805.821	5812.28
806.21	5831.11
806.599	5909.49
806.988	5942.74
807.377	6016.18
807.766	6109.51
808.155	6310.11
808.544	6123.61
808.933	6131.92
809.321	6114.17
809.71	6324.59
810.098	6437.34
810.487	6764.66
810.875	7108.27
811.264	7124.98
811.652	7340.46
812.04	7439.74
812.428	7554.05
812.816	8096.22
813.204	8396.69
813.592	8789.43
813.98	9026.56
814.368	8965.18
814.756	9306.67
815.144	9249.4
815.531	9583.97
815.919	9526.12
816.306	9750.86
816.694	9524.54
817.081	9561.99
817.469	9805.87
817.856	9795.68
818.243	9986.08
818.63	10252.7
819.017	9949.28
819.404	9988.77
819.791	10254.81
820.178	10678.88
820.565	10849.84
820.952	11513.93
821.339	11162.32
821.725	11290.5
822.112	10774.32
822.498	10746.48
822.885	10842.56
823.271	10773.5
823.657	11070.41
824.044	11073.16
824.43	11128.73
824.816	11117.52
825.202	10813.68
825.588	11534.03
825.974	11544.5
826.36	11898.85
826.746	11911.75
827.132	12161.69
827.517	12150.17
827.903	11599.1
828.289	11625.56
828.674	11074.85
829.06	11000.64
829.445	11277.04
829.83	11526.92
830.216	11864.94
830.601	12132.44
830.986	11855.53
831.371	11762.52
831.756	12154.33
832.141	11861.93
832.526	11861.77
832.911	12065.47
833.295	11976.4
833.68	12312.21
834.065	11877.67
834.449	11227.25
834.834	11170.08
835.218	11165.9
835.603	11405.53
835.987	11247.76
836.371	11825.98
836.755	11753.38
837.139	12032.25
837.524	12203.66
837.908	12072.13
838.291	12114.75
838.675	12160.4
839.059	12311.86
839.443	12296.45
839.827	12124.1
840.21	12466.35
840.594	12364.9
840.977	12508.49
841.361	12499.72
841.744	12760.95
842.127	12651.58
842.511	12817.99
842.894	13237.15
843.277	13501.55
843.66	13886.56
844.043	13958.92
844.426	13393.75
844.809	13166.14
845.191	13186.11
845.574	12854.55
845.957	12594.07
846.339	12520
846.722	12154.31
847.104	12209.68
847.487	12088.82
847.869	12098.52
848.252	12299.62
848.634	12534.8
849.016	12724.75
849.398	12816.61
849.78	13421.27
850.162	13435.85
850.544	13728.99
850.926	14178.48
851.307	14105.12
851.689	14303
852.071	14628.43
852.452	14844.49
852.834	14827.68
853.215	15107.79
853.597	15208.64
853.978	15412.67
854.359	15729.37
854.741	15026.18
855.122	14955.87
855.503	14755.06
855.884	14847.04
856.265	14800.01
856.646	14882.39
857.026	14608
857.407	14570.15
857.788	14686.22
858.169	14890.08
858.549	14284.51
858.93	14724.31
859.31	14752.24
859.69	14904.58
860.071	14618.87
860.451	14464.81
860.831	13949.13
861.211	14763.02
861.591	15136.48
861.971	15113.94
862.351	15249.12
862.731	15531.43
863.111	15712.62
863.491	15946.48
863.87	16566.2
864.25	16812.84
864.629	16530.19
865.009	16877.12
865.388	17475.63
865.768	18737.9
866.147	18675.72
866.526	17649.1
866.905	17858.1
867.284	18862.87
867.663	17904.34
868.042	17162.82
868.421	17104.3
868.8	17384.77
869.179	17570.03
869.558	16550.74
869.936	15251.98
870.315	15518.82
870.693	15893.31
871.072	17130.62
871.45	16318.95
871.828	16539.22
872.207	17392
872.585	17139.94
872.963	17612.66
873.341	17004.72
873.719	16804.72
874.097	16596.15
874.475	16917.51
874.853	17310.63
875.23	16601.76
875.608	17308.27
875.986	18724.74
876.363	17899.43
876.741	18448.21
877.118	17988.18
877.495	18873.67
877.873	19192.2
878.25	20209.21
878.627	19383.2
879.004	19648.91
879.381	19550.92
879.758	19036.44
880.135	17721.41
880.512	18743.51
880.889	18243.19
881.265	18054.21
881.642	17903.38
882.019	18208.78
882.395	17840.83
882.772	18542.27
883.148	17737.23
883.524	17675.97
883.901	17576.55
884.277	17842.04
884.653	17727.17
885.029	18236.64
885.405	20198.36
885.781	20041.95
886.157	19216.14
886.532	19448.55
886.908	19446.68
887.284	21627.67
887.659	22331.53
888.035	23024
888.411	23614.85
888.786	23932.84
889.161	24780.17
889.537	24328.29
889.912	25112.55
890.287	25094.87
890.662	25738.57
891.037	25265.55
891.412	23560.14
891.787	23322.23
892.162	22508.49
892.536	23048.49
892.911	22184.33
893.286	21704.25
893.66	20823.54
894.035	21355.25
894.409	23246.19
894.784	22313.64
895.158	22692.28
895.532	24040.86
895.906	24696.49
896.281	25275.43
896.655	24862.47
897.029	28406.78
897.402	29571.06
897.776	32909
898.15	32783.14
898.524	32421.9
898.898	32850.97
899.271	36764.75
899.645	31836.06
900.018	30576.02
900.392	31702.52
900.765	31938.17
901.138	29554.53
901.511	29123.85
901.884	26738.91
902.258	24675.11
902.631	25526.85
903.003	29385.82
903.376	26525.27
903.749	29762.32
904.122	31849.53
904.495	35071.17
904.867	35537.69
905.24	30852.55
905.612	28708.09
905.985	29382.67
906.357	30718.16
906.729	29304.44
907.102	25032.2
907.474	24065.22
907.846	24213.16
908.218	23886.28
908.59	21116.9
908.962	20419.12
909.334	21996.78
909.705	23115.71
910.077	22432.55
910.449	23360.25
910.82	24005.55
911.192	26412.16
911.563	27464.68
911.935	29375.42
912.306	29440.37
912.677	30398.54
913.048	30112.12
913.419	32659.3
913.79	32838.24
914.161	35223.91
914.532	33669.08
914.903	30949.62
915.274	29412.04
915.645	28961.17
916.015	25488.92
916.386	24307.93
916.756	25876.99
917.127	26677.67
917.497	23850.04
917.868	25969.18
918.238	24677.32
918.608	25381.72
918.978	25911.76
919.348	27447.31
919.718	28388.83
920.088	27378.15
920.458	28459.1
920.828	29945.61
921.198	28390.34
921.567	30342.08
921.937	23506.74
922.306	23732.42
922.676	25605.62
923.045	21378.52
923.415	20312.31
923.784	18485.83
924.153	19017.07
924.522	18999.56
924.891	17862.51
925.26	19147.17
925.629	18686.29
925.998	21483.76
926.367	20980.39
926.736	19991.77
927.104	23803.45
927.473	25572.37
927.842	30901.07
928.21	30583.9
928.578	32153.64
928.947	30403.08
929.315	30595.22
929.683	35912.96
930.051	36216.28
930.42	42056.52
930.788	35936.06
931.156	35654.45
931.523	33454.05
931.891	30917.77
932.259	29701.01
932.627	34421.41
932.994	48770.74
933.362	40331.48
933.729	35034.36
934.097	33537.17
934.464	28401.39
934.831	32781.87
935.199	32362.98
935.566	31410.79
935.933	31940
936.3	38742.75
936.667	30182.85
937.034	27272.49
937.401	26990.79
937.767	23295.54
938.134	20761.05
938.501	29303.38
938.867	31259.61
939.234	52836.06
939.6	45038.21
939.967	49486.28
940.333	33157.74
940.699	28204.99
941.065	22579.17
941.431	29596.17
941.798	28535.53
942.163	37425.78
942.529	23367.73
942.895	21501.91
943.261	13912.38
943.627	18278.11
943.992	15997.6
944.358	16006.14
944.723	16080.37
945.089	15658.35
945.454	14448.47
945.82	15413.36
946.185	14812.08
946.55	17153.27
946.915	15392.92
947.28	18052.82
947.645	15874.08
948.01	14645.48
948.375	15246.24
948.74	18260.3
949.104	21321.88
949.469	30808.03
949.834	54447.94
950.198	51675.79
950.562	30980.82
950.927	25773.45
951.291	30980.95
951.655	26405.56
952.02	24804.55
952.384	18779.65
952.748	16375.27
953.112	15982.03
953.476	13903.77
953.839	12839.7
954.203	12717.78
954.567	15914.22
954.931	25061.04
955.294	21456.23
955.658	21579.25
956.021	36659.79
956.385	62141.78
956.748	91568.95
957.111	141741.89
957.474	159056.61
957.837	179294.33
958.2	135555.84
958.563	48713.54
958.926	32952.9
959.289	49970.08
959.652	55857.96
960.015	41997.32
960.377	60194.79
960.74	68758.43
961.102	118752.07
961.465	127740.49
961.827	68678.29
962.189	131818.74
962.552	91361.97
962.914	73289.9
963.276	47580.83
963.638	39255.27
964	38795.71
964.362	26274.98
964.724	25359.25
965.085	18088.19
965.447	14819.2
965.809	16841.33
966.17	16843.26
966.532	18226.47
966.893	16725.5
967.255	15216.99
967.616	17968.15
967.977	14401.82
968.338	15715.72
968.699	12943.85
969.061	12941.94
969.421	13025.99
969.782	14610.51
970.143	12373.56
970.504	12857.82
970.865	14606.94
971.225	14951.3
971.586	14626.54
971.946	20835.51
972.307	18081.74
972.667	23588.68
973.027	24330.77
973.388	29475.5
973.748	20092.71
974.108	21873.43
974.468	29524.9
974.828	22818.71
975.188	17550.72
975.548	16140.71
975.907	13559.98
976.267	15201.69
976.627	12802.61
976.986	13249.66
977.346	12624.25
977.705	12139.76
978.064	11041.99
978.424	9198.14
978.783	9492.9
979.142	10835.15
979.501	10364.29
979.86	10973.65
980.219	10593.89
980.578	13646.79
980.937	15297.14
981.296	13669.53
981.654	14047.57
982.013	21869.92
982.371	28380.72
982.73	26504.58
983.088	29974.27
983.447	32049.73
983.805	45820.73
984.163	95654.65
984.521	106127.03
984.879	155801.23
985.237	-253547.57
985.595	244525.45
985.953	60766.96
986.311	35036.17
986.669	20367.68
987.026	17621.55
987.384	23688.23
987.741	24490.89
988.099	17555.34
988.456	14031.94
988.814	13127.48
989.171	11403.1
989.528	11256.78
989.885	11886.11
990.242	9446.38
990.599	11745.48
990.956	9607.07
991.313	6724.72
991.67	5520.21
992.027	5866.31
992.383	5208.47
992.74	4580.31
993.096	4820.81
993.453	5000.26
993.809	5186.62
994.165	6910.23
994.522	6379.21
994.878	7046.75
995.234	8856.01
995.59	8737.47
995.946	8243.47
996.302	9417
996.658	10861.13
997.013	11927.9
997.369	14132.06
997.725	18063.53
998.08	11681.18
998.436	17924.05
998.791	24708.16
999.147	24653.77
999.502	26852.24
999.857	19487.54
1000.212	31764.19
1000.567	45255.09
1000.922	26200.73
1001.277	16678.7
1001.632	12384.15
1001.987	15936.12
1002.342	11401.18
1002.696	9093.15
1003.051	7274.73
1003.406	8836.02
1003.76	8801.06
1004.114	8660.24
1004.469	7284.58
1004.823	6020.64
1005.177	6509.05
1005.531	5153.63
1005.885	4594.82
1006.239	5208.8
1006.593	6551.8
1006.947	8761.25
1007.301	6561.23
1007.655	7132.01
1008.008	5251.02
1008.362	5910.59
1008.715	8443.03
1009.069	7630.42
1009.422	11563.32
1009.776	23149.86
1010.129	15323.58
1010.482	12757.33
1010.835	10706.87
1011.188	22248
1011.541	20962.97
1011.894	-128078.4
1012.247	377519.72
1012.6	25609.12
1012.952	16139.88
1013.305	8262.05
1013.657	5968.22
1014.01	5672.9
1014.362	4693.11
1014.715	4216.72
1015.067	3689.73
1015.419	3622.35
1015.771	3198.79
1016.123	2849.72
1016.475	2922.01
1016.827	3118.85
1017.179	3372.49
1017.531	3384.26
1017.883	3448.86
1018.234	3355.11
1018.586	4223.66
1018.938	4504.73
1019.289	6217.21
1019.64	7151.4
1019.992	6615.43
1020.343	6073.21
1020.694	4838.52
1021.045	4263.6
1021.396	4865.27
1021.747	5207.71
1022.098	6230.51
1022.449	4515.36
1022.8	4170.63
1023.151	2909.69
1023.501	2593.11
1023.852	2826.51
1024.202	2943.24
1024.553	3216.76
1024.903	3176.46
1025.253	2736.96
1025.604	2468.59
1025.954	3055.3
1026.304	3701.02
1026.654	4266.4
1027.004	6253.76
1027.354	10013.89
1027.703	9451.77
1028.053	12363.3
1028.403	18067.77
1028.753	25840.62
1029.102	34860.39
1029.452	178483.84
1029.801	7663.83
1030.15	4969.07
1030.499	4238.4
897.758	3091.54
901.051	3078.07
904.343	3115.81
907.636	3107.46
910.928	3174.6
914.22	3078.43
917.511	3088.76
920.803	3170.36
924.094	3210.45
927.384	3163.59
930.675	3134.08
933.965	3077.96
937.255	3068.95
940.544	3034.87
943.834	2916.38
947.123	2871.1
950.411	2973.75
953.7	2938.55
956.988	2886.36
960.276	2836.68
963.563	2950.37
966.851	2931.25
970.138	3003.3
973.424	2981.34
976.711	2931.79
979.997	3150.57
983.283	3169.01
986.568	3046.7
989.853	3092.5
993.138	3121.12
996.423	3194.47
999.708	3112.38
1002.992	3214.94
1006.275	2977.09
1009.559	3070.27
1012.842	3199.07
1016.125	3111.25
1019.408	3088.27
1022.69	3204.02
1025.972	3205.79
1029.254	3177.32
1032.536	3080.82
1035.817	3124.47
1039.098	3036.08
1042.379	3268.49
1045.659	3229
1048.939	3147.95
1052.219	3180.82
1055.498	3213.47
1058.778	3186.21
1062.057	3178.75
1065.335	3196.26
1068.614	3223.66
1071.892	3184.46
1075.17	3285.53
1078.447	3259.69
1081.724	3245.23
1085.001	3288.27
1088.278	3261.35
1091.554	3280.7
1094.83	3277.19
1098.106	3294.92
1101.382	3356.35
1104.657	3358.51
1107.932	3355.77
1111.206	3303.09
1114.481	3265.5
1117.755	3273.39
1121.029	3240.33
1124.302	3280.94
1127.575	3214.87
1130.848	3194.74
1134.121	3148.57
1137.393	3083.17
1140.665	3160.26
1143.937	3130.21
1147.208	3071.36
1150.48	3089.06
1153.75	3071.29
1157.021	3137.73
1160.291	3100.82
1163.561	3133.6
1166.831	3154.54
1170.101	3189
1173.37	3183.83
1176.639	3110.84
1179.907	3186.78
1183.176	3206.2
1186.444	3221.37
1189.711	3254.7
1192.979	3250.25
1196.246	3209.14
1199.513	3235.22
1202.78	3222.43
1206.046	3229.04
1209.312	3254.67
1212.578	3284.31
1215.843	3219.58
1219.108	3204.04
1222.373	3224.59
1225.638	3177.41
1228.902	3151.17
1232.166	3129.81
1235.43	3102.75
1238.693	3125.37
1241.956	3130.06
1245.219	3156.33
1248.482	3162.88
1251.744	3153.28
1255.006	3327.87
1258.268	3290.18
1261.529	3223.35
1264.79	3241.51
1268.051	3349.67
1271.312	3373.53
1274.572	3324.34
1277.832	3318.58
1281.092	3318.92
1284.351	3270.44
1287.61	3243.01
1290.869	3138.53
1294.128	3095.26
1297.386	3224.93
1300.644	3206.46
1303.902	3217.19
1307.159	3073.42
1310.416	3130.22
1313.673	3144.67
1316.93	3119.98
1320.186	3180.79
1323.442	3237.6
1326.697	3213.59
1329.953	3223.91
1333.208	3232.87
1336.463	3228.05
1339.717	3149.23
1342.972	3263.44
1346.226	3258.96
1349.479	3177.03
1352.733	3130.86
1355.986	3177.64
1359.238	3146.12
1362.491	3144.79
1365.743	3153.32
1368.995	3157.74
1372.247	3161.08
1375.498	3186.7
1378.749	3213.33
1382	3169.73
1385.251	3242.02
1388.501	3217.72
1391.751	3182.27
1395	3163.08
1398.25	3199.95
1401.499	3191.77
1404.748	3096.75
1407.996	3054.71
1411.244	3041.9
1414.492	3018.47
1417.74	2988.73
1420.987	3008.57
1424.234	3055.3
1427.481	3058.6
1430.728	3114.9
1433.974	3090.55
1437.22	3121.73
1440.465	3132.28
1443.711	3105.85
1446.956	3146.17
1450.201	3155.36
1453.445	3201.2
1456.689	3162.89
1459.933	3182.92
1463.177	3205.23
1466.42	3173.94
1469.663	3152.3
1472.906	3121.5
1476.148	3245.95
1479.391	3156.64
1482.633	3139.13
1485.874	3135.77
1489.115	3101.26
1492.356	3130.09
1495.597	3095.62
1498.838	3109.02
1502.078	3059.92
1505.318	2986.35
1508.557	3034.98
1511.797	2962
1515.036	3102.84
1518.274	3092.47
1521.513	3077.73
1524.751	3109.61
1527.989	3109.4
1531.227	3117.53
1534.464	3085.6
1537.701	3135.69
1540.938	3161.05
1544.174	3124.74
1547.41	3132.82
1550.646	3170.03
1553.882	3187.45
1557.117	3237.69
1560.352	3263.11
1563.587	3213.39
1566.821	3166.04
1570.055	3224.89
1573.289	3183.98
1576.523	3278.29
1579.756	3273.95
1582.989	3287.49
1586.222	3247.27
1589.454	3297.74
1592.686	3262.24
1595.918	3279.44
1599.15	3260.52
1602.381	3365.76
1605.612	3290.61
1608.843	3392.37
1612.073	3294.98
1615.303	3276.51
1618.533	3259.15
1621.762	3265.44
1624.992	3268.69
1628.221	3231.78
1631.449	3217.06
1634.678	3310.2
1637.906	3251.4
1641.134	3304.4
1644.361	3247.2
1647.588	3233.33
1650.815	3243.27
1654.042	3242.44
1657.269	3276.1
1660.495	3214.69
1663.72	3192.53
1666.946	3172.29
1670.171	3076.72
1673.396	3056.93
1676.621	3056.7
1679.845	3103.15
1683.069	3139.77
1686.293	3194.76
1689.517	3145.87
1692.74	3050.66
1695.963	3073.55
1699.185	3140.7
1702.408	3099.18
1705.63	3152.17
1708.852	3156.16
1712.073	3128.51
1715.294	3088.33
1718.515	3150.41
1721.736	3086.16
1724.956	3084.77
1728.176	3115.3
1731.396	3137.61
1734.616	3127.86
1737.835	3140.08
1741.054	3138.1
1744.272	3133.71
1747.491	3147.24
1750.709	3234.04
1753.927	3107.82
1757.144	3177.39
1760.361	3208.66
1763.578	3224.47
1766.795	3155.11
1770.011	3183.49
1773.227	3245.38
1776.443	3266.47
1779.658	3308.21
1782.874	3263.16
1786.089	3222.34
1789.303	3227.02
1792.518	3237.3
1795.732	3229.74
1798.945	3228.99
1802.159	3293.45
1805.372	3154.99
1808.585	3123.24
1811.797	3126.93
1815.01	3209.27
1818.222	3203.5
1821.434	3114.48
1824.645	3212.31
1827.856	3167.62
1831.067	3205.73
1834.278	3166.26
1837.488	3146.47
1840.698	3320.74
1843.908	3229.26
1847.117	3190.56
1850.326	3025.9
1853.535	3160.55
1856.744	3257.57
1859.952	3143.91
1863.16	3148.33
1866.368	3182.14
1869.575	3298.23
1872.782	3189.24
1875.989	3137.3
1879.196	3262.3
1882.402	3256.61
1885.608	3306.67
1888.814	3172.95
1892.019	3055.73
1895.224	3109.19
1898.429	3108.41
1901.634	3074.69
1904.838	3063.53
1908.042	3106.27
1911.246	3109.16
1914.449	3005.07
1917.652	3019.61
1920.855	3004.53
1924.058	3083.64
1927.26	3110.55
1930.462	3146.6
1933.664	3160.7
1936.865	3096.39
1940.066	3089.11
1943.267	3039.2
1946.467	3061.52
1949.668	3096.84
1952.868	3160.97
1956.067	3125.18
1959.267	3044.87
1962.466	3077.91
1965.665	3061.18
1968.863	3060.67
1972.061	3088.42
1975.259	3095.84
1978.457	3178.78
1981.654	3135.01
1984.852	3130.88
1988.048	3043.42
1991.245	3059.55
1994.441	3139.07
1997.637	3152.57
2000.833	3136.81
2004.028	3175.85
2007.223	3221.24
2010.418	3181.17
2013.613	3155.7
2016.807	3097.25
2020.001	3119.24
2023.194	3190.05
2026.388	3158.21
2029.581	3107.76
2032.774	3137.96
2035.966	3133.14
2039.158	3051.66
2042.35	3087.52
2045.542	3018.06
2048.733	3138.5
2051.924	3195.24
2055.115	3238.76
2058.306	3155.43
2061.496	3217.4
2064.686	3299.47
2067.875	3222.52
2071.065	3252.69
2074.254	3286.26
2077.442	3238.75
2080.631	3336.24
2083.819	3181.72
2087.007	3154.5
2090.195	3108.27
2093.382	3164.46
2096.569	3142.45
2099.756	3083.26
2102.942	3085.7
2106.128	3077.3
2109.314	3074.38
2112.5	3011.52
2115.685	2998.18
2118.87	3011.26
2122.055	3080.61
2125.239	3031.34
2128.424	2988.78
2131.608	3137.49
2134.791	3123.48
2137.974	3203.28
2141.157	3185.6
2144.34	3115.35
2147.523	3156.9
2150.705	3156.11
2153.887	3150.21
2157.068	3074.67
2160.25	3102.07
2163.431	3158.9
2166.611	3078.44
2169.792	3086.04
2172.972	2962.93
2176.152	3071.99
2179.331	3116.88
2182.511	3073.56
2185.69	3107.91
2188.868	3092.22
2192.047	3170.53
2195.225	3132.1
2198.403	3082.47
2201.58	3083.53
2204.758	3086.18
2207.935	3176.05
2211.111	3037.57
2214.288	3014.08
2217.464	3061.12
2220.64	3054.5
2223.815	3113.54
2226.991	3022.82
2230.166	3046.19
2233.34	3057.54
2236.515	3095.89
2239.689	3180.09
2242.863	3118.45
2246.036	3177.54
2249.209	3198.41
2252.382	3250.06
2255.555	3212.09
2258.727	3136.43
2261.9	3186.18
2265.071	3177.43
2268.243	3186.83
2271.414	3102.58
2274.585	3038.56
2277.756	3116.32
2280.926	3071.12
2284.096	3126.51
2287.266	3012.45
2290.436	3076.4
2293.605	3113.77
2296.774	3136.05
2299.942	3176.79
2303.111	3195.28
2306.279	3238.12
2309.447	3230.36
2312.614	3205.38
2315.781	3222.46
2318.948	3181.48
2322.115	3219.26
2325.281	3124.34
2328.447	3159.02
2331.613	3138.92
2334.779	3091.96
2337.944	3102.84
2341.109	3092.53
2344.274	3065.6
2347.438	3031.99
2350.602	3061.94
2353.766	3086.85
2356.929	3069.47
2360.092	3116.66
2363.255	3046.62
2366.418	2945.54
2369.58	3106.81
2372.742	2809.6
2375.904	2844.42
2379.066	2810.48
2382.227	2856.51
2385.388	2819.36
2388.548	2719.08
2391.709	2788.12
2394.869	2756.02
2398.029	2904.86
2401.188	2935.83
2404.347	2840.12
2407.506	3039.61
2410.665	3063.8
2413.823	3090.72
2416.981	3022.08
2420.139	3070.2
2423.296	3128.31
2426.453	3101.41
2429.61	3134.16
2432.767	3025.9
2435.923	3073.37
2439.079	2976.43
2442.235	3056.61
2445.391	2962.99
2448.546	2972.9
2451.701	3046.61
2454.855	2986.61
2458.009	3067.53
2461.163	3088.15
2464.317	3030.8
2467.471	3072.37
2470.624	3114.28
2473.777	3144.37
2476.929	3139.53
2480.082	3168.22
2483.234	3132.43
2486.385	3027.72
2489.537	3027.59
2492.688	2954.85
2495.839	2977.52
2498.989	2976.45
2502.14	2959.09
2505.29	2929.17
2508.439	2955.7
2511.589	2861.6
2514.738	2894.06
2517.887	2923.37
2521.035	3050.15
2524.183	3051.02
2527.331	3020.23
2530.479	2966.79
2533.627	2989.43
