Data from C_2_DEC_ON_6N_Splice17_12-15-39-611.txt Node
Date: Sat Mar 14 12:15:39 EDT 2020
User: sa697716
Spectrometer: FLMS03696
Trigger mode: 0
Integration Time (sec): 3.180400E-1
Scans to average: 20
Electric dark correction enabled: true
Nonlinearity correction enabled: true
Boxcar width: 5
XAxis mode: Wavelengths
Number of Pixels in Spectrum: 2048
>>>>>Begin Spectral Data<<<<<
187.83	-319018.41
188.298	2333.77
188.766	1238.96
189.233	1123.93
189.701	1556.53
190.169	2180.75
190.636	836.76
191.104	739.27
191.571	166.03
192.039	-15.12
192.506	28.88
192.974	469.13
193.441	-643.06
193.908	-63.78
194.375	28.09
194.842	88.69
195.31	211.37
195.777	199.33
196.244	1046.6
196.711	2760.07
197.177	3899.01
197.644	6139.34
198.111	10663.16
198.578	15022.02
199.045	12055.12
199.511	19831.98
199.978	23419.11
200.445	19400.43
200.911	21566.25
201.378	24398.06
201.844	21338.56
202.31	36132.56
202.777	36957.99
203.243	20262.61
203.709	19090.47
204.176	22468.21
204.642	18290.1
205.108	16849.06
205.574	13830.54
206.04	12736.86
206.506	11820.12
206.972	11272.14
207.438	10811.68
207.903	12286.12
208.369	10560.41
208.835	10334.7
209.301	10699.37
209.766	10962.45
210.232	10720.46
210.697	13149.1
211.163	16061.24
211.628	24143.88
212.094	19741.2
212.559	23362.42
213.024	14241.78
213.49	17063.83
213.955	16526.68
214.42	16146.71
214.885	14703.01
215.35	13844.63
215.815	12642.19
216.28	13012.23
216.745	10276.54
217.21	10567.44
217.675	9367.65
218.14	9867.65
218.604	10310.45
219.069	10822.17
219.534	10308.58
219.998	11063.43
220.463	12338.03
220.927	14173.93
221.392	12326.62
221.856	11564.63
222.32	13703.34
222.785	15860.77
223.249	18845.23
223.713	19972.41
224.177	19058.37
224.642	23486.1
225.106	27816.58
225.57	29309.93
226.034	21032.02
226.497	31094.35
226.961	27219.88
227.425	30769.87
227.889	33204.45
228.353	32320.43
228.816	64994.98
229.28	60713.31
229.744	50060.7
230.207	29767.33
230.671	28697.67
231.134	46531.31
231.597	52634.08
232.061	51711.86
232.524	49595.85
232.987	33679.52
233.45	29926.18
233.914	26553.35
234.377	26853.42
234.84	24283.65
235.303	28331.96
235.766	31297.52
236.229	32082.68
236.691	20038.2
237.154	22389.7
237.617	16743.33
238.08	17060.86
238.542	19873.27
239.005	14144.78
239.468	13994.36
239.93	13162.39
240.393	11931.62
240.855	10435.54
241.317	10653.18
241.78	12888.04
242.242	13256.15
242.704	14278.89
243.166	12366.01
243.629	11180.95
244.091	12803.52
244.553	13949.33
245.015	14932.25
245.477	19210.48
245.939	28045.92
246.4	29594.16
246.862	28680.58
247.324	26941.76
247.786	30024.36
248.247	39274.2
248.709	40383.08
249.17	30136.45
249.632	28397.58
250.093	32849.44
250.555	28300.38
251.016	17235.5
251.477	16320.1
251.939	17577.77
252.4	18420.91
252.861	21877.64
253.322	20359.6
253.783	24254.98
254.244	31501.42
254.705	24795.55
255.166	22023.18
255.627	21683.54
256.088	30566.47
256.549	32462.34
257.009	27950.63
257.47	33865.29
257.931	27496.23
258.391	20474.11
258.852	20968.6
259.312	21816.21
259.773	26767.27
260.233	22486.04
260.694	18847.29
261.154	21216.35
261.614	16939.04
262.074	15008.03
262.534	15466.96
262.994	14463.49
263.455	19116.02
263.915	15984.16
264.374	14920.52
264.834	16144.64
265.294	17725.01
265.754	18188.85
266.214	17053.54
266.673	15802.07
267.133	19786.87
267.593	19471.36
268.052	23643.03
268.512	20442.94
268.971	24549.84
269.431	26825.67
269.89	23953.66
270.349	35749.64
270.809	39818.9
271.268	35764.93
271.727	80232.4
272.186	51951.25
272.645	38935.08
273.104	28074.38
273.563	40686.92
274.022	31995.03
274.481	27290.25
274.94	21087.97
275.399	15758.64
275.857	18400.88
276.316	24964.98
276.775	22317.3
277.233	22117.15
277.692	20860.97
278.15	23735.56
278.609	24595.47
279.067	22924.84
279.525	21443.68
279.984	27875.05
280.442	33698.16
280.9	33507.36
281.358	22233.48
281.816	20902.99
282.274	20626.83
282.732	21509.64
283.19	21851.62
283.648	19035.92
284.106	20464.69
284.564	21059.09
285.021	19733.31
285.479	14839.46
285.937	13611.28
286.394	12061.37
286.852	12520.34
287.309	13267.35
287.767	12890.69
288.224	12327.58
288.682	13571.36
289.139	14930.76
289.596	13663.71
290.053	14188.47
290.511	17907.44
290.968	21660.51
291.425	29236.72
291.882	24194.9
292.339	20936.61
292.796	20635.9
293.252	19316.29
293.709	15281.94
294.166	13644.1
294.623	15010.18
295.079	14352.85
295.536	14390.42
295.992	13027.82
296.449	12885.67
296.905	13386.19
297.362	12816.11
297.818	13450.81
298.274	13957.05
298.731	14218.03
299.187	14088.62
299.643	15123.91
300.099	18347.15
300.555	20139.84
301.011	16904.45
301.467	16346.16
301.923	19166.9
302.379	18825.05
302.835	18631.13
303.291	18763.57
303.746	21502.62
304.202	27276.17
304.658	27581.04
305.113	18656.48
305.569	18406.59
306.024	19742.08
306.479	18925.02
306.935	16118.48
307.39	17758.21
307.845	16527.33
308.301	16758.6
308.756	16452.84
309.211	16003.1
309.666	16529.22
310.121	20699.42
310.576	21181.05
311.031	21221.05
311.486	24552.97
311.94	24723.18
312.395	33348.02
312.85	63194.19
313.305	313715.76
313.759	1639154.71
314.214	119664.16
314.668	95608.97
315.123	81020.06
315.577	29233.1
316.032	26086.4
316.486	32726.72
316.94	25879.62
317.394	18033.18
317.849	14034.71
318.303	13268.4
318.757	12467.8
319.211	13747.36
319.665	11994.53
320.119	12072.47
320.572	17255.02
321.026	16053.55
321.48	13345.97
321.934	14528.7
322.387	14557.14
322.841	15695.83
323.295	14121.26
323.748	16309.32
324.202	16587.28
324.655	19984.88
325.108	27997.01
325.562	19833.14
326.015	23709.41
326.468	17979.15
326.921	20204.12
327.374	18911.19
327.827	19789.68
328.28	22498.08
328.733	15135.04
329.186	13393.4
329.639	12810.32
330.092	10898.65
330.545	10478.45
330.997	10649.93
331.45	11724.38
331.903	13812.53
332.355	23941.1
332.808	23455.59
333.26	19498.07
333.713	21358.97
334.165	21665.97
334.617	29167.58
335.069	23684.22
335.522	43028.55
335.974	47882.63
336.426	44082.52
336.878	30820.1
337.33	15717.97
337.782	15449.53
338.234	19439.14
338.686	23313.1
339.137	27752.66
339.589	26224.11
340.041	20645.14
340.493	17782.31
340.944	18227.19
341.396	19626.27
341.847	16484.66
342.299	19417.27
342.75	23629.8
343.201	20618.09
343.653	23635.82
344.104	28919.57
344.555	22665.64
345.006	35094.49
345.457	26738.95
345.908	21165.02
346.359	19882.73
346.81	16147.46
347.261	16980.21
347.712	16713.92
348.163	17914.66
348.613	18170.07
349.064	16986.09
349.515	14876.62
349.965	15312.91
350.416	18527.94
350.866	20447.49
351.317	23181.69
351.767	38488.18
352.217	48866.69
352.668	40679.46
353.118	37414.87
353.568	36244.11
354.018	28809.9
354.468	30657.67
354.918	22060.81
355.368	19408.71
355.818	27533.24
356.268	79569.18
356.718	335108.21
357.168	83835.88
357.617	42355.46
358.067	47409.41
358.517	44613.68
358.966	52639.39
359.416	59267.17
359.865	64406.06
360.315	77039.96
360.764	36151.68
361.213	20321.69
361.663	19357.49
362.112	24014.41
362.561	38962.77
363.01	29553.03
363.459	25028.11
363.908	27134.72
364.357	23094.91
364.806	39193.85
365.255	27066.86
365.703	24872.25
366.152	25083.3
366.601	20430.4
367.05	16648.44
367.498	15188.08
367.947	15940.42
368.395	16671.6
368.844	14839.12
369.292	18014.75
369.74	12523.65
370.189	19273.77
370.637	22743.42
371.085	19711.17
371.533	24055.47
371.981	23267.28
372.429	22259.14
372.877	23268.39
373.325	19537.77
373.773	20020.35
374.221	17937.36
374.669	22298.4
375.116	19353.97
375.564	19573.62
376.012	22004.91
376.459	18255.08
376.907	21965.85
377.354	26733.74
377.801	25071
378.249	29009.27
378.696	37413.24
379.143	45587.13
379.591	49139.26
380.038	84064.6
380.485	61497.63
380.932	67435.69
381.379	62815.02
381.826	47248.01
382.273	34545.12
382.72	31245.67
383.166	31595.22
383.613	21328.3
384.06	20203.19
384.506	24647.29
384.953	19238.82
385.4	20781.76
385.846	19748.32
386.292	21225.72
386.739	23121.38
387.185	25562.58
387.631	28694.95
388.078	31178.93
388.524	37182.51
388.97	37741.54
389.416	34000.04
389.862	38455.99
390.308	38617.67
390.754	41701.53
391.2	48465.58
391.645	52960.71
392.091	53479.95
392.537	54373.15
392.983	57007.63
393.428	57701.92
393.874	64179.74
394.319	67171.94
394.765	67139.63
395.21	73000.58
395.655	71929.46
396.101	70070.14
396.546	65580.25
396.991	68924.28
397.436	66342.46
397.881	66636.58
398.326	66115.86
398.771	64948.11
399.216	59221.34
399.661	55294.25
400.106	56656.6
400.551	59419.32
400.995	54490.4
401.44	54860.52
401.885	52247.27
402.329	53324.59
402.774	51494.25
403.218	49905.88
403.663	48563.49
404.107	50296.3
404.551	51025.54
404.995	47294.59
405.44	46102.88
405.884	47283.57
406.328	46222.31
406.772	46467.2
407.216	42762.01
407.66	41897.56
408.104	40502.98
408.547	38285.78
408.991	37347.88
409.435	36188.98
409.879	35777.51
410.322	35486.81
410.766	34382.73
411.209	32886.13
411.653	31866.88
412.096	31416.54
412.54	31718.49
412.983	31760.8
413.426	32013.78
413.869	32282.2
414.312	31948.19
414.756	31202.63
415.199	30128.92
415.642	29563.04
416.085	29911.29
416.527	29997.17
416.97	30794.85
417.413	29338.9
417.856	29119.44
418.298	28843.22
418.741	28651.78
419.184	28582.53
419.626	29811.81
420.069	29715.16
420.511	29860.62
420.953	29134.26
421.396	28883.29
421.838	28230.9
422.28	28933.53
422.722	29242.79
423.164	30025.82
423.606	29846.06
424.048	30124
424.49	28759.89
424.932	28893.47
425.374	28736.48
425.816	29500.47
426.258	30116.1
426.699	30303.54
427.141	29562.65
427.582	29864.68
428.024	29579.91
428.465	29413.68
428.907	28733.08
429.348	28538.75
429.789	28579.19
430.231	27997.28
430.672	28367.96
431.113	27849.09
431.554	27708.28
431.995	27576.5
432.436	26867.05
432.877	26574.42
433.318	26268.6
433.759	26421.98
434.2	26623.73
434.64	26585.88
435.081	26882.69
435.522	25786.74
435.962	25128.65
436.403	24896.43
436.843	25571.94
437.284	25369.04
437.724	25002.96
438.164	25402.08
438.604	25020.9
439.045	24109.98
439.485	23112.2
439.925	22753.52
440.365	22273.55
440.805	22071.76
441.245	21706.8
441.685	20901.51
442.125	20758.27
442.564	20871.47
443.004	20308.59
443.444	20240.98
443.883	20260.3
444.323	20230.69
444.762	20406.99
445.202	20706.99
445.641	20997.89
446.081	21030.07
446.52	21095.78
446.959	20841.68
447.398	20281.95
447.837	20024.64
448.276	19649.46
448.716	19798.97
449.154	19962.77
449.593	19348.55
450.032	19153.87
450.471	18757.62
450.91	18632.98
451.349	18416.19
451.787	18228.56
452.226	18336.88
452.664	18178.59
453.103	18030.42
453.541	17824.19
453.98	17458.93
454.418	17333.11
454.856	16783.9
455.295	16558.24
455.733	16420.18
456.171	16331.82
456.609	16126.1
457.047	15875.23
457.485	15882.07
457.923	15731.69
458.361	15418.38
458.798	15423.94
459.236	15323.11
459.674	15462.05
460.111	15474.4
460.549	15343.24
460.987	15340.37
461.424	15311.83
461.862	15304.21
462.299	15109.08
462.736	15084.71
463.173	15188.51
463.611	14984.2
464.048	14987.99
464.485	15134.73
464.922	15068.01
465.359	15069.77
465.796	14665.61
466.233	14632.95
466.67	14512.75
467.106	14519.13
467.543	14494.93
467.98	14374.8
468.416	14140.41
468.853	14108.16
469.29	13739.92
469.726	13631.71
470.162	13293.35
470.599	13328.11
471.035	13224.28
471.471	12922.14
471.907	12886.52
472.344	12787.41
472.78	12747.08
473.216	12851.01
473.652	12610.21
474.088	12508.13
474.523	12331.52
474.959	12340
475.395	12116.99
475.831	11902.74
476.266	11848.95
476.702	11690.92
477.138	11411.65
477.573	11241.06
478.008	11041.16
478.444	10911.65
478.879	10817.56
479.314	10717.4
479.75	10553.55
480.185	10466.09
480.62	10410.98
481.055	10317.94
481.49	10218.47
481.925	10203.78
482.36	10168.46
482.795	10290.72
483.229	10421.77
483.664	10472.54
484.099	10349.88
484.534	10333.33
484.968	10273.59
485.403	10163.4
485.837	10031.69
486.271	9891.01
486.706	9781
487.14	9608.02
487.574	9358.46
488.009	9185.08
488.443	9028.59
488.877	9017.17
489.311	8969.68
489.745	8983.21
490.179	8974.91
490.613	9018.08
491.046	9018.25
491.48	9011.26
491.914	8940.27
492.348	8934.42
492.781	8913.91
493.215	8876.23
493.648	8854.17
494.082	8865.54
494.515	8811.4
494.948	8838.53
495.382	8859
495.815	8843.08
496.248	8837.49
496.681	8927.02
497.114	9001.23
497.547	9040.19
497.98	9095.09
498.413	9057.14
498.846	9072.02
499.279	9084.76
499.711	9054.83
500.144	8992.75
500.577	9007.67
501.009	9041.35
501.442	9040.11
501.874	8940.71
502.306	8882.4
502.739	8841.92
503.171	8925.96
503.603	8866.73
504.036	8865.59
504.468	8820.73
504.9	8830.75
505.332	8798.49
505.764	8730.74
506.196	8697.22
506.627	8730.09
507.059	8738.58
507.491	8737.67
507.923	8583.68
508.354	8597.24
508.786	8573.59
509.217	8605.31
509.649	8612.58
510.08	8654.83
510.512	8665.21
510.943	8667.42
511.374	8638.85
511.805	8675.25
512.237	8707.84
512.668	8848.16
513.099	8936.23
513.53	9006.8
513.961	9017.21
514.391	9104.66
514.822	9179.42
515.253	9286.54
515.684	9314.99
516.114	9370.03
516.545	9358.45
516.975	9380.39
517.406	9345.34
517.836	9219.2
518.267	9123.84
518.697	9103.89
519.127	9004.72
519.558	8933.09
519.988	8836.47
520.418	8785.27
520.848	8774.02
521.278	8717.26
521.708	8485.59
522.138	8460.61
522.567	8535.85
522.997	8574.82
523.427	8564.37
523.857	8555.29
524.286	8521.71
524.716	8514.99
525.145	8525.35
525.575	8505.97
526.004	8512.6
526.433	8607.77
526.863	8545.77
527.292	8428.58
527.721	8402
528.15	8388.2
528.579	8348.86
529.008	8361.8
529.437	8435.34
529.866	8461.78
530.295	8501.13
530.724	8509.74
531.152	8593.82
531.581	8613.45
532.01	8661.55
532.438	8666.83
532.867	8702.63
533.295	8758.26
533.723	8756.7
534.152	8717.61
534.58	8688.71
535.008	8592.35
535.436	8578.23
535.865	8596.4
536.293	8649.22
536.721	8705.25
537.149	8800.46
537.576	8789.95
538.004	8836.87
538.432	8865.12
538.86	8847.88
539.287	8878.97
539.715	8937.62
540.143	8959.63
540.57	8947.68
540.998	8941.55
541.425	8832.71
541.852	8755.42
542.28	8767.39
542.707	8711.67
543.134	8660.82
543.561	8657.03
543.988	8637.78
544.415	8656.88
544.842	8649.52
545.269	8629.4
545.696	8649.76
546.123	8738.97
546.549	8704.13
546.976	8654.47
547.403	8664.02
547.829	8692.48
548.256	8724.1
548.682	8721.87
549.108	8697.94
549.535	8712.05
549.961	8738.17
550.387	8690.13
550.813	8670.66
551.24	8716.89
551.666	8737.77
552.092	8705.43
552.518	8689.87
552.943	8666.14
553.369	8719.93
553.795	8761.37
554.221	8772.09
554.646	8766.36
555.072	8812.09
555.498	8846.76
555.923	8895.74
556.349	8970.23
556.774	9015.02
557.199	9020.83
557.625	9064.76
558.05	9033.85
558.475	9089.78
558.9	9087.54
559.325	9048.56
559.75	9029.76
560.175	9006.7
560.6	8984.21
561.025	8979.77
561.449	8991.16
561.874	9021.36
562.299	9032.36
562.723	9070.13
563.148	9013.55
563.572	9031.13
563.997	9078.64
564.421	9104.07
564.846	9098.36
565.27	9101.93
565.694	9083.44
566.118	9121.93
566.542	9140.55
566.966	9096.61
567.39	9055.19
567.814	8988.45
568.238	8977.92
568.662	8998.34
569.086	9005.22
569.509	9050.85
569.933	8981.92
570.357	8967.57
570.78	8891.07
571.204	8852.33
571.627	8840.37
572.05	8878.17
572.474	8924.47
572.897	8920.46
573.32	8936.97
573.743	8958.77
574.166	8921.72
574.589	8994.94
575.012	9019.79
575.435	9089.96
575.858	9119.03
576.281	9136.79
576.704	9130.59
577.126	9148.95
577.549	9163.85
577.972	9194.75
578.394	9208.16
578.817	9231.79
579.239	9203.68
579.661	9200.43
580.084	9169.1
580.506	9167.24
580.928	9218.56
581.35	9225.9
581.772	9264.62
582.194	9248.05
582.616	9229.3
583.038	9211.03
583.46	9218.62
583.882	9252.34
584.303	9338.27
584.725	9379.56
585.147	9404.68
585.568	9504.85
585.99	9605.72
586.411	9674.45
586.833	9793.51
587.254	9831.22
587.675	9952.63
588.096	10065.13
588.518	10063.28
588.939	9982.73
589.36	9993.97
589.781	9996.19
590.202	9817.11
590.623	9795.99
591.043	9810.24
591.464	9748.91
591.885	9737.17
592.305	9710.48
592.726	9625.41
593.147	9624.17
593.567	9581.69
593.987	9517.58
594.408	9467.75
594.828	9460.89
595.248	9386.82
595.669	9226.82
596.089	9146.7
596.509	9075.85
596.929	8942.65
597.349	8902.78
597.769	8798.03
598.189	8709.02
598.608	8673.14
599.028	8635.44
599.448	8592.77
599.867	8479.98
600.287	8428.72
600.706	8364.47
601.126	8268.25
601.545	8231.35
601.965	8203.64
602.384	8157.01
602.803	8164.72
603.222	8122.82
603.641	8082.59
604.061	8056.12
604.48	8039.66
604.898	8097.8
605.317	8146.79
605.736	8179.78
606.155	8181.56
606.574	8150.44
606.992	8210.48
607.411	8209.49
607.829	8202.42
608.248	8223.18
608.666	8252.34
609.085	8285.81
609.503	8267.91
609.921	8266.87
610.339	8321.51
610.758	8367.25
611.176	8384.57
611.594	8369.68
612.012	8394.76
612.43	8451.4
612.847	8535.41
613.265	8573.36
613.683	8648.14
614.101	8705.44
614.518	8734.76
614.936	8716.38
615.353	8662.37
615.771	8682.69
616.188	8729.03
616.606	8749.08
617.023	8747.8
617.44	8693.64
617.857	8699.98
618.274	8685.25
618.691	8675.94
619.108	8647.78
619.525	8641.13
619.942	8714.08
620.359	8759.16
620.776	8751.11
621.192	8740.27
621.609	8744.93
622.026	8803.66
622.442	8861.81
622.859	8902.6
623.275	8872.59
623.691	8925.42
624.108	9019.98
624.524	9140.37
624.94	9156.24
625.356	9239.2
625.772	9352.93
626.188	9455.89
626.604	9483.47
627.02	9468.87
627.436	9461.67
627.852	9516.76
628.268	9611.47
628.683	9566.44
629.099	9522.96
629.514	9513.64
629.93	9563.22
630.345	9619.11
630.761	9617.11
631.176	9670.99
631.591	9640.81
632.007	9629.22
632.422	9663.44
632.837	9623.79
633.252	9635.55
633.667	9604.46
634.082	9576.78
634.497	9526.43
634.911	9417.55
635.326	9443.32
635.741	9370.83
636.155	9370.06
636.57	9437.88
636.984	9502.5
637.399	9575.7
637.813	9659.24
638.228	9725.67
638.642	9851.58
639.056	9859.3
639.47	9966.2
639.884	9991.84
640.298	10037.54
640.712	10122.28
641.126	10122.58
641.54	10159.09
641.954	10241.44
642.368	10236.11
642.781	10251.67
643.195	10201.17
643.609	10313.05
644.022	10369.79
644.436	10441.52
644.849	10448.19
645.262	10447.45
645.676	10579.9
646.089	10630.84
646.502	10566.41
646.915	10614.41
647.328	10564.23
647.741	10624.88
648.154	10578.09
648.567	10593.77
648.98	10524.92
649.393	10594.9
649.805	10626.84
650.218	10613.01
650.631	10491.87
651.043	10489.1
651.456	10472.65
651.868	10533.85
652.28	10772.92
652.693	10961.25
653.105	11079
653.517	11211.49
653.929	11232.05
654.341	11320.19
654.753	11215.29
655.165	11348.19
655.577	11384.88
655.989	11415.33
656.401	11416.54
656.813	11075.31
657.224	10945.84
657.636	10754.68
658.047	10659.59
658.459	10560.61
658.87	10593.08
659.282	10586.7
659.693	10441.35
660.104	10368.89
660.515	10312.32
660.926	10397.09
661.338	10486.56
661.749	10524.06
662.159	10496.14
662.57	10564.64
662.981	10614.63
663.392	10614.02
663.803	10760.09
664.213	10840.35
664.624	10892.94
665.035	11033.32
665.445	10939.75
665.855	10911.42
666.266	10862.3
666.676	10910.54
667.086	10852.57
667.497	10889.59
667.907	10860.41
668.317	10785.54
668.727	10727.95
669.137	10784.47
669.547	10782.01
669.956	10855.23
670.366	10911.87
670.776	10959.56
671.186	11040.47
671.595	11094.71
672.005	11171.88
672.414	11153.01
672.824	11115.37
673.233	11235.26
673.642	11256.35
674.052	11278.11
674.461	11278.16
674.87	11341.83
675.279	11275.56
675.688	11300.01
676.097	11283.61
676.506	11211.8
676.915	11412.65
677.323	11438.19
677.732	11391.83
678.141	11367.42
678.549	11205.3
678.958	11182.53
679.366	11149.07
679.775	11210.02
680.183	11262.23
680.592	11305.43
681	11327.44
681.408	11157.42
681.816	11188.56
682.224	11231.37
682.632	11233.68
683.04	11509.71
683.448	11688.67
683.856	11888.82
684.264	12108.9
684.671	12303.44
685.079	12544.06
685.487	12796.34
685.894	13228.84
686.302	13486.07
686.709	13576.49
687.116	13733.26
687.524	13737.28
687.931	13662.31
688.338	13554.35
688.745	13416.34
689.152	13289.49
689.559	13245.34
689.966	13160.47
690.373	12870.06
690.78	12742.16
691.187	12789.91
691.593	12696.35
692	12560.11
692.407	12562.52
692.813	12629.72
693.22	12597.47
693.626	12602.88
694.032	12507.26
694.439	12585.37
694.845	12579.82
695.251	12662.31
695.657	12693.47
696.063	12919.37
696.469	12985.46
696.875	13020.03
697.281	12916.59
697.687	12852.81
698.093	12738.13
698.498	12816.64
698.904	12820.03
699.31	12957.35
699.715	12966.24
700.12	13124.53
700.526	12962.2
700.931	13047.97
701.337	13059.87
701.742	13006.85
702.147	13170.44
702.552	13117.98
702.957	13199.19
703.362	13119.12
703.767	13082.71
704.172	13105.95
704.577	12790.88
704.981	12849.09
705.386	12779.81
705.791	12630.85
706.195	12788.06
706.6	12705.78
707.004	12895.22
707.408	12677.64
707.813	12670.9
708.217	12523.21
708.621	12435.52
709.025	12681.89
709.43	12587.33
709.834	12703.89
710.237	12861.49
710.641	12727.33
711.045	12720.71
711.449	12619.54
711.853	12627.75
712.256	12694.58
712.66	12747.96
713.064	12920.31
713.467	12963.47
713.87	13224.62
714.274	13255.56
714.677	13466.46
715.08	13827.68
715.484	14191.5
715.887	14629.74
716.29	15080.76
716.693	15521.39
717.096	16052.98
717.499	16274.23
717.901	16230.38
718.304	16239.22
718.707	16287.67
719.109	16006.62
719.512	15953.36
719.915	15585.78
720.317	15471.88
720.719	15617.15
721.122	15550.76
721.524	15415.92
721.926	15280.18
722.328	15549.56
722.731	15473.78
723.133	15492.55
723.535	15968.22
723.937	15939.86
724.338	16018.17
724.74	16056.02
725.142	15660.12
725.544	15624.86
725.945	15629.73
726.347	15603.72
726.748	15558.14
727.15	15571.35
727.551	15426.56
727.952	15328.33
728.354	15232.7
728.755	15229.12
729.156	15127.55
729.557	15263.83
729.958	14938.36
730.359	14846.95
730.76	14824.93
731.161	14694.36
731.562	14664.94
731.962	14728.4
732.363	14580.7
732.763	14432.58
733.164	14565.74
733.564	14390.94
733.965	14127.37
734.365	14040.09
734.766	14125.18
735.166	14013.99
735.566	13847.29
735.966	13763.02
736.366	13730.37
736.766	13553.99
737.166	13644.76
737.566	13526.44
737.966	13451.99
738.365	13559.47
738.765	13536.38
739.165	13326.29
739.564	13255.54
739.964	13394.62
740.363	13277.2
740.763	13291.65
741.162	13264.98
741.561	13180.92
741.96	13060.88
742.36	13136.81
742.759	13170.21
743.158	13304.38
743.557	13368.02
743.955	13495.41
744.354	13375
744.753	13552.53
745.152	13434.25
745.55	13608.19
745.949	13595.66
746.348	13600.77
746.746	13648.37
747.144	13515.63
747.543	13436.45
747.941	13555.46
748.339	13335.82
748.737	13293.96
749.136	13236.93
749.534	13395.29
749.932	13275.37
750.33	13306.56
750.727	13426.35
751.125	13311.88
751.523	13232.49
751.921	13298.17
752.318	13155.1
752.716	13266.93
753.113	13259.76
753.511	13281.39
753.908	13235.55
754.305	13132.37
754.703	13259.96
755.1	13375.99
755.497	13499.97
755.894	13962.42
756.291	14361.75
756.688	15084.16
757.085	15985.51
757.482	17193.73
757.878	18393.1
758.275	19383.21
758.672	20930.82
759.068	22070.38
759.465	23829.68
759.861	26095.4
760.258	28705.22
760.654	29804.18
761.05	29241.37
761.447	27882.57
761.843	26201.6
762.239	24614.35
762.635	24105.6
763.031	23560.7
763.427	22546.41
763.822	21462.49
764.218	20409.97
764.614	18907.48
765.01	17992.73
765.405	17480.79
765.801	17133.35
766.196	16549.8
766.592	16301.44
766.987	15675.83
767.382	15287.92
767.778	15201.97
768.173	14978.34
768.568	14885.14
768.963	14621.99
769.358	14737.43
769.753	14670.24
770.148	14486.97
770.542	14532.32
770.937	14487.93
771.332	14777.55
771.726	14861.73
772.121	14697.73
772.515	14874.75
772.91	14855.7
773.304	15088.48
773.699	14926.86
774.093	15100.96
774.487	15278.16
774.881	15417.3
775.275	15413.57
775.669	15310.58
776.063	15448.1
776.457	15569.25
776.851	15366.31
777.245	15349.01
777.638	15445.39
778.032	15782.77
778.425	15682.74
778.819	15792.89
779.212	15668.95
779.606	15561.19
779.999	15625.14
780.392	15577.19
780.786	15821.09
781.179	15888.85
781.572	16009.51
781.965	16049.36
782.358	15888.67
782.751	16050.63
783.143	15925.27
783.536	16139.57
783.929	16263.41
784.322	16580.35
784.714	16666.25
785.107	16637.46
785.499	16818.74
785.891	16744.77
786.284	16669.73
786.676	17043.52
787.068	16956.7
787.46	17078.94
787.852	17110.14
788.245	17318.02
788.636	17386.04
789.028	17539.2
789.42	17623.78
789.812	17634.8
790.204	17886.21
790.595	18139.28
790.987	17574.2
791.378	17624.44
791.77	17974.36
792.161	18333.56
792.553	18473.34
792.944	18134.46
793.335	17935.83
793.726	18117.07
794.117	18330.26
794.508	18693.06
794.899	18587.82
795.29	18956.65
795.681	19091.08
796.072	18672.74
796.463	18074.1
796.853	18060.33
797.244	18452.1
797.634	18500.45
798.025	18463.18
798.415	18469.34
798.806	18654.87
799.196	18841.3
799.586	18904.25
799.976	18748.5
800.366	19300.08
800.756	19950.28
801.146	19790.38
801.536	19813.17
801.926	19956.62
802.316	19968.82
802.706	20095.66
803.095	19718.54
803.485	19936.18
803.874	20000.38
804.264	20622.85
804.653	20498.67
805.043	20800.33
805.432	21012.06
805.821	20945.15
806.21	20915.05
806.599	21138.89
806.988	21155.68
807.377	21334.65
807.766	21543.13
808.155	22131.23
808.544	21357.34
808.933	21263.82
809.321	21076.53
809.71	21665.92
810.098	21887.72
810.487	22825.55
810.875	23767.4
811.264	23611.14
811.652	24025.76
812.04	24114.1
812.428	24228.61
812.816	25677.05
813.204	26305.97
813.592	27227.83
813.98	27639.65
814.368	27132.3
814.756	27882.44
815.144	27458.82
815.531	28198.81
815.919	27863.94
816.306	28322.72
816.694	27538.82
817.081	27522.99
817.469	28150.77
817.856	28106.1
818.243	28628.55
818.63	29400.25
819.017	28480.28
819.404	28486.18
819.791	29082.76
820.178	30111.73
820.565	30406.28
820.952	32057.78
821.339	30922.93
821.725	31121.2
822.112	29498.25
822.498	29239.91
822.885	29317.36
823.271	29004.59
823.657	29736.56
824.044	29705.23
824.43	29810.82
824.816	29661.28
825.202	28744.24
825.588	30520.51
825.974	30374.24
826.36	31150.7
826.746	31028.97
827.132	31507.15
827.517	31272.25
827.903	29660.24
828.289	29556.9
828.674	28016.12
829.06	27711.47
829.445	28287.25
829.83	28813.82
830.216	29543.51
830.601	30053.51
830.986	29227.92
831.371	28897.43
831.756	29768.41
832.141	28925.14
832.526	28844.27
832.911	29260.41
833.295	29003.93
833.68	29754.42
834.065	28635.97
834.449	27029.36
834.834	26867.85
835.218	26808.45
835.603	27325.16
835.987	26925.91
836.371	28303.59
836.755	28071.11
837.139	28699.4
837.524	29062.81
837.908	28706.35
838.291	28742.27
838.675	28793.83
839.059	29103.8
839.443	29049.39
839.827	28618.64
840.21	29363.22
840.594	29026.21
840.977	29296.7
841.361	29185.2
841.744	29721.21
842.127	29402.82
842.511	29743.3
842.894	30670.66
843.277	31215.18
843.66	32017.6
844.043	32083.21
844.426	30692.11
844.809	30139.92
845.191	30143.05
845.574	29347.17
845.957	28700.3
846.339	28449.37
846.722	27506.64
847.104	27514.38
847.487	27145.96
847.869	27082.53
848.252	27429.87
848.634	27870.25
849.016	28200.29
849.398	28305.77
849.78	29554.28
850.162	29470.19
850.544	30018.83
850.926	30895.34
851.307	30632.16
851.689	30930.71
852.071	31497.7
852.452	31876.38
852.834	31753.31
853.215	32263.74
853.597	32429.72
853.978	32790.93
854.359	33410.05
854.741	31884.64
855.122	31741.67
855.503	31344.83
855.884	31583.93
856.265	31511.82
856.646	31704.78
857.026	31098.99
857.407	30976.56
857.788	31178.68
858.169	31574.04
858.549	30257.77
858.93	31153.87
859.31	31174.35
859.69	31436.52
860.071	30774.82
860.451	30403.29
860.831	29251.87
861.211	30921.33
861.591	31685.86
861.971	31589.84
862.351	31795.84
862.731	32278.82
863.111	32527.24
863.491	32858.66
863.87	33968.3
864.25	34320.95
864.629	33600.32
865.009	34203.4
865.388	35281.05
865.768	37667.15
866.147	37385.87
866.526	35220.26
866.905	35584.45
867.284	37579.98
867.663	35702.39
868.042	34231.4
868.421	34133.8
868.8	34717.61
869.179	35050.88
869.558	33014
869.936	30429.76
870.315	30970.43
870.693	31704.89
871.072	34172.89
871.45	32524.15
871.828	32894.24
872.207	34545.08
872.585	33978.88
872.963	34842.71
873.341	33595.98
873.719	33142.94
874.097	32701.11
874.475	33286.66
874.853	34010.15
875.23	32558.27
875.608	33860.75
875.986	36570.24
876.363	34941.15
876.741	35952.08
877.118	35002.45
877.495	36654.21
877.873	37178.09
878.25	39026.47
878.627	37335.52
879.004	37772.84
879.381	37475.48
879.758	36387.47
880.135	33797.78
880.512	35616.71
880.889	34569.46
881.265	34109.86
881.642	33733.9
882.019	34208.6
882.395	33403.67
882.772	34598.11
883.148	32970.63
883.524	32697.82
883.901	32377.84
884.277	32704.69
884.653	32346.46
885.029	33112.49
885.405	36488.19
885.781	36038.16
886.157	34387.77
886.532	34644.26
886.908	34473.78
887.284	38142.76
887.659	39225.89
888.035	40266.78
888.411	41143.7
888.786	41509.92
889.161	42757.9
889.537	41769.3
889.912	42865.07
890.287	42582.12
890.662	43441.56
891.037	42406.61
891.412	39291.86
891.787	38637.51
892.162	37005.16
892.536	37561.57
892.911	35841.24
893.286	34775.18
893.66	33053.74
894.035	33550.21
894.409	36152.03
894.784	34329.05
895.158	34513.12
895.532	36135.37
895.906	36662.67
896.281	37047.17
896.655	35988.23
897.029	40620.42
897.402	41830.43
897.776	46051.95
898.15	45418.05
898.524	44512.61
898.898	44699.14
899.271	49649.76
899.645	42736.83
900.018	40900.55
900.392	42415.05
900.765	42866.91
901.138	39822.58
901.511	39449.94
901.884	36485.89
902.258	33983.1
902.631	35446.67
903.003	41192.11
903.376	37502.47
903.749	42392.08
904.122	45659.24
904.495	50449.55
904.867	51081.87
905.24	44251.38
905.612	40966.02
905.985	41604.4
906.357	43087.67
906.729	40699.2
907.102	34354.03
907.474	32660.12
907.846	32518.25
908.218	31769.86
908.59	27827.83
908.962	26738.85
909.334	28632.22
909.705	29955.57
910.077	28987.9
910.449	30056.54
910.82	30788.71
911.192	33774.4
911.563	34996.17
911.935	37391.66
912.306	37350.01
912.677	38439.85
913.048	37871.02
913.419	40899.8
913.79	40982.76
914.161	43768.89
914.532	41753.42
914.903	38269.77
915.274	36271.22
915.645	35664.18
916.015	31336.71
916.386	29883.04
916.756	31856.08
917.127	32988.39
917.497	29613.63
917.868	32412.27
918.238	30973.28
918.608	32059.98
918.978	32953.2
919.348	35153.68
919.718	36607.76
920.088	35463.94
920.458	37049.83
920.828	39143.63
921.198	37198.14
921.567	39768.46
921.937	30749.87
922.306	30998.47
922.676	33333.28
923.045	27738.72
923.415	26283.76
923.784	23855.08
924.153	24442.82
924.522	24330.01
924.891	22773.31
925.26	24282.58
925.629	23573.4
925.998	26918.95
926.367	26070.24
926.736	24601.87
927.104	28979.3
927.473	30726.98
927.842	36526.45
928.21	35548.93
928.578	36594.16
928.947	33850.56
929.315	33244.19
929.683	38064.69
930.051	37415.34
930.42	42293.3
930.788	35213.2
931.156	34033.04
931.523	31071.85
931.891	27966.98
932.259	26201.16
932.627	29687.12
932.994	41127.15
933.362	33376.27
933.729	28483.78
934.097	26877.19
934.464	22524.23
934.831	25739.18
935.199	25221.19
935.566	24379.26
935.933	24625.71
936.3	29894.78
936.667	23379.91
937.034	21282.72
937.401	21286.76
937.767	18656.66
938.134	16888.03
938.501	24216.13
938.867	26296.38
939.234	45360.57
939.6	39429.83
939.967	44485.74
940.333	30360.15
940.699	26297.6
941.065	21371.39
941.431	28297.23
941.798	27445.34
942.163	36168.5
942.529	22620.29
942.895	20833.16
943.261	13447.44
943.627	17607.34
943.992	15357.42
944.358	15307.64
944.723	15279.1
945.089	14832.71
945.454	13652.76
945.82	14543.73
946.185	13939.28
946.55	16155.81
946.915	14499.96
947.28	17013.58
947.645	14991.39
948.01	13820.33
948.375	14384.3
948.74	17234.43
949.104	20103.92
949.469	29048.04
949.834	51276.78
950.198	48692.94
950.562	29133.65
950.927	24141.69
951.291	28947.56
951.655	24603.49
952.02	23117.27
952.384	17504.85
952.748	15237.31
953.112	14843.8
953.476	12871.71
953.839	11880.86
954.203	11733.03
954.567	14675.41
954.931	23162.02
955.294	19836.76
955.658	19939.42
956.021	33871.28
956.385	57447.28
956.748	84917.16
957.111	131886.52
957.474	148366.26
957.837	167260.94
958.2	126578.59
958.563	45552.42
958.926	30840.33
959.289	46844.91
959.652	52484.91
960.015	39483.01
960.377	56683.45
960.74	64698.86
961.102	111695.64
961.465	120279.65
961.827	64834.19
962.189	125005.43
962.552	87144.38
962.914	70129.41
963.276	45802.41
963.638	38008.38
964	37792.28
964.362	25708.51
964.724	24996.68
965.085	17939.1
965.447	14764.21
965.809	16869.52
966.17	16961.57
966.532	18450.07
966.893	17052.26
967.255	15611.81
967.616	18582.19
967.977	15043.06
968.338	16579.47
968.699	13765.91
969.061	13920.8
969.421	14194.64
969.782	16103.06
970.143	13753.16
970.504	14385.83
970.865	16487.67
971.225	16984.74
971.586	16723.65
971.946	23878.71
972.307	20783.52
972.667	27171.55
973.027	27994.55
973.388	33895.42
973.748	22997.19
974.108	24975.07
974.468	33624.2
974.828	25832.03
975.188	19782.92
975.548	18112.95
975.907	15184.43
976.267	16989.02
976.627	14269.76
976.986	14767.43
977.346	14091.27
977.705	13580.99
978.064	12384.05
978.424	10343.65
978.783	10727.3
979.142	12297.81
979.501	11788.25
979.86	12494.98
980.219	12087.6
980.578	15633.52
980.937	17603.71
981.296	15743.03
981.654	16282.81
982.013	25498.9
982.371	33217.6
982.73	31198.39
983.088	35471.29
983.447	38130.19
983.805	54823.65
984.163	114987.4
984.521	128335.67
984.879	188608.36
985.237	-308115.62
985.595	298632.99
985.953	74408.57
986.311	43162.01
986.669	25128.95
987.026	21764.59
987.384	29371.67
987.741	30444.92
988.099	21871.77
988.456	17486.64
988.814	16425.21
989.171	14331.02
989.528	14180.38
989.885	15015.63
990.242	11940.46
990.599	14897.83
990.956	12227.87
991.313	8573.6
991.67	7051.95
992.027	7494.39
992.383	6680
992.74	5881.16
993.096	6184.94
993.453	6414.69
993.809	6676.81
994.165	8897.99
994.522	8196.54
994.878	9055.2
995.234	11387.14
995.59	11291.14
995.946	10714.76
996.302	12242.91
996.658	14189.99
997.013	15656.27
997.369	18591.85
997.725	23833.17
998.08	15509.84
998.436	23955.04
998.791	33082.6
999.147	33133.73
999.502	36235.52
999.857	26352.6
1000.212	43097.09
1000.567	61400.43
1000.922	35498.39
1001.277	22605.01
1001.632	16768.28
1001.987	21559.7
1002.342	15438.81
1002.696	12351.29
1003.051	9865.96
1003.406	11944.39
1003.76	11926.98
1004.114	11752.75
1004.469	9918.9
1004.823	8224.64
1005.177	8914.09
1005.531	7069.36
1005.885	6288.86
1006.239	7126.34
1006.593	8978.68
1006.947	12010.53
1007.301	9026.86
1007.655	9844.85
1008.008	7249.89
1008.362	8135.29
1008.715	11608.32
1009.069	10514.2
1009.422	15860.56
1009.776	31918.19
1010.129	21262.95
1010.482	17835.65
1010.835	15148.68
1011.188	31611.6
1011.541	29887.57
1011.894	-183308.34
1012.247	542022.71
1012.6	37031.45
1012.952	23522.13
1013.305	12187.4
1013.657	8808.38
1014.01	8363.32
1014.362	6906.33
1014.715	6152.45
1015.067	5380.79
1015.419	5270.34
1015.771	4689.29
1016.123	4174.56
1016.475	4315.87
1016.827	4616.98
1017.179	4968.15
1017.531	5018.11
1017.883	5147.57
1018.234	4985.78
1018.586	6316.67
1018.938	6696.58
1019.289	9277.36
1019.64	10677.42
1019.992	10005.11
1020.343	9174.26
1020.694	7241.46
1021.045	6454.63
1021.396	7420.42
1021.747	7969.39
1022.098	9637.57
1022.449	7007.45
1022.8	6557.58
1023.151	4586.96
1023.501	4053.62
1023.852	4430.93
1024.202	4596.99
1024.553	5074.34
1024.903	4963.44
1025.253	4252.03
1025.604	3839.28
1025.954	4757.2
1026.304	5840.51
1026.654	6842.77
1027.004	10107.23
1027.354	16471.29
1027.703	15495.57
1028.053	20638.47
1028.403	30125.61
1028.753	43990.76
1029.102	60266.81
1029.452	312325.17
1029.801	13578.46
1030.15	8788.64
1030.499	7445.82
897.758	2430.83
901.051	2380.68
904.343	2414.7
907.636	2418.02
910.928	2480.52
914.22	2395.56
917.511	2403.49
920.803	2458.06
924.094	2469.45
927.384	2458.37
930.675	2422.95
933.965	2381.29
937.255	2397.9
940.544	2362.1
943.834	2337.06
947.123	2274.18
950.411	2365.18
953.7	2341.49
956.988	2317.01
960.276	2256.31
963.563	2322.4
966.851	2325.83
970.138	2375.49
973.424	2372.06
976.711	2328.21
979.997	2413.49
983.283	2458.06
986.568	2375.1
989.853	2382.27
993.138	2409.56
996.423	2489
999.708	2435.51
1002.992	2480.49
1006.275	2358.64
1009.559	2383.29
1012.842	2488.5
1016.125	2429.39
1019.408	2409.75
1022.69	2482.28
1025.972	2506.75
1029.254	2481.91
1032.536	2428.56
1035.817	2450
1039.098	2408.15
1042.379	2507.27
1045.659	2520.47
1048.939	2459.9
1052.219	2476.41
1055.498	2479.37
1058.778	2471.55
1062.057	2449.83
1065.335	2472.51
1068.614	2488.04
1071.892	2475.01
1075.17	2543.95
1078.447	2533.98
1081.724	2528.72
1085.001	2562.33
1088.278	2538.36
1091.554	2548.05
1094.83	2543.48
1098.106	2574.01
1101.382	2612.02
1104.657	2613.22
1107.932	2611.06
1111.206	2579.11
1114.481	2538.69
1117.755	2540.35
1121.029	2524.08
1124.302	2581.36
1127.575	2539.86
1130.848	2530.76
1134.121	2496.64
1137.393	2450.96
1140.665	2513.48
1143.937	2489.89
1147.208	2446.91
1150.48	2491.95
1153.75	2477.32
1157.021	2498.86
1160.291	2468.01
1163.561	2517.27
1166.831	2499.48
1170.101	2528.59
1173.37	2500.28
1176.639	2450.24
1179.907	2502.9
1183.176	2513.02
1186.444	2518.84
1189.711	2547.54
1192.979	2562.67
1196.246	2518.35
1199.513	2533.32
1202.78	2533.24
1206.046	2544.32
1209.312	2566.64
1212.578	2589.42
1215.843	2546.85
1219.108	2520.08
1222.373	2543.31
1225.638	2508.32
1228.902	2495.82
1232.166	2464.17
1235.43	2447.84
1238.693	2473.19
1241.956	2465.75
1245.219	2510.57
1248.482	2498.7
1251.744	2495.42
1255.006	2629.8
1258.268	2582.91
1261.529	2533.61
1264.79	2535.92
1268.051	2636.83
1271.312	2650.03
1274.572	2615.52
1277.832	2604.43
1281.092	2593.2
1284.351	2572.58
1287.61	2554.02
1290.869	2480.11
1294.128	2463.9
1297.386	2536.66
1300.644	2528.35
1303.902	2537.58
1307.159	2401.81
1310.416	2455.37
1313.673	2482.33
1316.93	2470.88
1320.186	2510.6
1323.442	2548.68
1326.697	2545.38
1329.953	2529.26
1333.208	2556.11
1336.463	2535.25
1339.717	2482.59
1342.972	2606.79
1346.226	2578.85
1349.479	2519.21
1352.733	2493.43
1355.986	2509.2
1359.238	2487.75
1362.491	2488.75
1365.743	2491.71
1368.995	2486.74
1372.247	2500.69
1375.498	2522.98
1378.749	2545.81
1382	2502.94
1385.251	2549.1
1388.501	2507.87
1391.751	2498.23
1395	2466.83
1398.25	2498.54
1401.499	2512.24
1404.748	2448.39
1407.996	2431.44
1411.244	2419.51
1414.492	2402.9
1417.74	2379.79
1420.987	2390.57
1424.234	2445.38
1427.481	2419.76
1430.728	2476.52
1433.974	2450.58
1437.22	2457.76
1440.465	2458.09
1443.711	2437.1
1446.956	2464.27
1450.201	2446.87
1453.445	2493
1456.689	2472.18
1459.933	2485.12
1463.177	2519.05
1466.42	2492.43
1469.663	2473.71
1472.906	2475.41
1476.148	2531.12
1479.391	2525.67
1482.633	2495.49
1485.874	2510.08
1489.115	2505.02
1492.356	2499.7
1495.597	2477.19
1498.838	2477.47
1502.078	2454.47
1505.318	2414.33
1508.557	2453.61
1511.797	2441.92
1515.036	2473.35
1518.274	2460.74
1521.513	2428.03
1524.751	2445.73
1527.989	2464
1531.227	2479.3
1534.464	2478.35
1537.701	2487.11
1540.938	2502.34
1544.174	2455.34
1547.41	2453.77
1550.646	2488.5
1553.882	2531.3
1557.117	2581.5
1560.352	2593.5
1563.587	2554.45
1566.821	2516.27
1570.055	2545.55
1573.289	2519.65
1576.523	2586.72
1579.756	2596.96
1582.989	2612.85
1586.222	2576.88
1589.454	2611.68
1592.686	2591
1595.918	2618.19
1599.15	2606.99
1602.381	2671.66
1605.612	2636.86
1608.843	2732.09
1612.073	2652.47
1615.303	2633.48
1618.533	2629.62
1621.762	2630.55
1624.992	2613.8
1628.221	2606.49
1631.449	2591.43
1634.678	2637.3
1637.906	2597.8
1641.134	2631.79
1644.361	2593.74
1647.588	2579.39
1650.815	2600.89
1654.042	2574.23
1657.269	2601.65
1660.495	2562.83
1663.72	2574.38
1666.946	2541.11
1670.171	2497.21
1673.396	2473.12
1676.621	2456.76
1679.845	2468.42
1683.069	2484.1
1686.293	2520.18
1689.517	2500.58
1692.74	2440.95
1695.963	2466.43
1699.185	2490.71
1702.408	2464.36
1705.63	2501.15
1708.852	2513.23
1712.073	2488.12
1715.294	2482.4
1718.515	2538.72
1721.736	2490.26
1724.956	2476.32
1728.176	2499.95
1731.396	2521.93
1734.616	2507.95
1737.835	2540.42
1741.054	2518.16
1744.272	2509.79
1747.491	2542.02
1750.709	2582.61
1753.927	2504.06
1757.144	2541.76
1760.361	2589.65
1763.578	2578.89
1766.795	2523.59
1770.011	2524.18
1773.227	2556.71
1776.443	2592.94
1779.658	2636.76
1782.874	2578.77
1786.089	2563.08
1789.303	2564.98
1792.518	2569.58
1795.732	2558.42
1798.945	2567.97
1802.159	2613.64
1805.372	2531.96
1808.585	2519.76
1811.797	2521.61
1815.01	2560.76
1818.222	2572.33
1821.434	2548.59
1824.645	2599.12
1827.856	2592.19
1831.067	2625.32
1834.278	2575.1
1837.488	2561.27
1840.698	2697.01
1843.908	2631.78
1847.117	2594.55
1850.326	2496.84
1853.535	2581.67
1856.744	2600.05
1859.952	2518.8
1863.16	2521.55
1866.368	2540.49
1869.575	2645.52
1872.782	2532.73
1875.989	2470.18
1879.196	2537.73
1882.402	2529.81
1885.608	2567.37
1888.814	2485.73
1892.019	2389.49
1895.224	2442.91
1898.429	2417
1901.634	2397.28
1904.838	2372.99
1908.042	2422.66
1911.246	2433.74
1914.449	2379.31
1917.652	2370.24
1920.855	2353.07
1924.058	2392.54
1927.26	2432.31
1930.462	2458.05
1933.664	2488.74
1936.865	2431.28
1940.066	2443.48
1943.267	2388.34
1946.467	2402.65
1949.668	2425.93
1952.868	2496.17
1956.067	2478.36
1959.267	2413.98
1962.466	2439.64
1965.665	2422.87
1968.863	2417.66
1972.061	2427.41
1975.259	2422.92
1978.457	2500.62
1981.654	2458.61
1984.852	2460.35
1988.048	2399.9
1991.245	2395.41
1994.441	2480.75
1997.637	2456.61
2000.833	2436.19
2004.028	2473.86
2007.223	2529.45
2010.418	2509.59
2013.613	2469.28
2016.807	2448.48
2020.001	2451.14
2023.194	2485.54
2026.388	2464.4
2029.581	2410.86
2032.774	2463.17
2035.966	2474.54
2039.158	2414.16
2042.35	2436.41
2045.542	2364.75
2048.733	2455.75
2051.924	2468
2055.115	2490.19
2058.306	2443.48
2061.496	2502.54
2064.686	2558.36
2067.875	2470.25
2071.065	2479.35
2074.254	2501.1
2077.442	2454.28
2080.631	2542.58
2083.819	2450.25
2087.007	2436.61
2090.195	2412.65
2093.382	2439.86
2096.569	2421.66
2099.756	2380.99
2102.942	2416.24
2106.128	2422.54
2109.314	2415.09
2112.5	2388.39
2115.685	2360.71
2118.87	2371.31
2122.055	2431.29
2125.239	2403.69
2128.424	2384.83
2131.608	2468.37
2134.791	2452.43
2137.974	2498.94
2141.157	2488.85
2144.34	2447.98
2147.523	2454.37
2150.705	2472.58
2153.887	2448.24
2157.068	2409.48
2160.25	2402.75
2163.431	2432.25
2166.611	2388.88
2169.792	2403.55
2172.972	2308.45
2176.152	2373.16
2179.331	2404.58
2182.511	2393.42
2185.69	2419.1
2188.868	2416.79
2192.047	2462.64
2195.225	2464.27
2198.403	2416.85
2201.58	2405.1
2204.758	2397.87
2207.935	2476.86
2211.111	2376.69
2214.288	2363.72
2217.464	2400.31
2220.64	2367.46
2223.815	2418.36
2226.991	2344.97
2230.166	2361.69
2233.34	2394.86
2236.515	2416.07
2239.689	2485.95
2242.863	2431.81
2246.036	2488.85
2249.209	2480.66
2252.382	2509.1
2255.555	2503.73
2258.727	2448.62
2261.9	2484.4
2265.071	2477.65
2268.243	2475.88
2271.414	2416.34
2274.585	2384.82
2277.756	2447.72
2280.926	2403.78
2284.096	2440.74
2287.266	2359.1
2290.436	2410.58
2293.605	2436.68
2296.774	2469.61
2299.942	2480.81
2303.111	2499.09
2306.279	2547.4
2309.447	2534.9
2312.614	2509.73
2315.781	2528.72
2318.948	2502.06
2322.115	2538.38
2325.281	2439.26
2328.447	2453.82
2331.613	2426.8
2334.779	2410.31
2337.944	2410.92
2341.109	2409.97
2344.274	2397.09
2347.438	2361.72
2350.602	2387.41
2353.766	2400.37
2356.929	2387.79
2360.092	2431.89
2363.255	2388.91
2366.418	2338.73
2369.58	2430.03
2372.742	2257.76
2375.904	2263.28
2379.066	2242.16
2382.227	2273.57
2385.388	2235.68
2388.548	2171.75
2391.709	2221.81
2394.869	2201.77
2398.029	2282.61
2401.188	2287.89
2404.347	2233.38
2407.506	2345.59
2410.665	2378.11
2413.823	2377.7
2416.981	2345.89
2420.139	2371.84
2423.296	2417.67
2426.453	2388.5
2429.61	2414.43
2432.767	2364.12
2435.923	2400.77
2439.079	2359.74
2442.235	2401.7
2445.391	2334.87
2448.546	2366.11
2451.701	2412.88
2454.855	2391.88
2458.009	2434.82
2461.163	2431.7
2464.317	2393.21
2467.471	2423.28
2470.624	2458.21
2473.777	2436.87
2476.929	2448.98
2480.082	2474.97
2483.234	2444.22
2486.385	2390.42
2489.537	2384.67
2492.688	2359.67
2495.839	2377.62
2498.989	2390.3
2502.14	2375.35
2505.29	2361.61
2508.439	2385.94
2511.589	2318.92
2514.738	2326.19
2517.887	2352.3
2521.035	2421.2
2524.183	2394.64
2527.331	2375.17
2530.479	2357.23
2533.627	2364
