Data from C_2_DEC_ON_6N_Splice17_12-15-54-451.txt Node
Date: Sat Mar 14 12:15:54 EDT 2020
User: sa697716
Spectrometer: FLMS03696
Trigger mode: 0
Integration Time (sec): 3.180400E-1
Scans to average: 20
Electric dark correction enabled: true
Nonlinearity correction enabled: true
Boxcar width: 5
XAxis mode: Wavelengths
Number of Pixels in Spectrum: 2048
>>>>>Begin Spectral Data<<<<<
187.83	-326474.53
188.298	2397.12
188.766	1311.83
189.233	1164.16
189.701	1598.23
190.169	2161.09
190.636	833.05
191.104	682.16
191.571	121.68
192.039	-76.04
192.506	-19.08
192.974	455.13
193.441	-667.4
193.908	-112.92
194.375	2.47
194.842	43.55
195.31	89.68
195.777	168.6
196.244	354.91
196.711	426.35
197.177	542.35
197.644	794.91
198.111	1414.51
198.578	1973.95
199.045	1600.95
199.511	2570.91
199.978	2999.6
200.445	2533.67
200.911	2806.75
201.378	3169.71
201.844	2896.62
202.31	4936.74
202.777	5112.92
203.243	2802.74
203.709	2655.85
204.176	3139.28
204.642	2608.69
205.108	2457.74
205.574	2021.02
206.04	1848.62
206.506	1729.36
206.972	1625.86
207.438	1580.01
207.903	1808.93
208.369	1583.84
208.835	1602.7
209.301	1677.82
209.766	1715.87
210.232	1688.54
210.697	2107.92
211.163	2600
211.628	3926.79
212.094	3306.48
212.559	4088.85
213.024	2558.15
213.49	3152.33
213.955	3106.49
214.42	3088.34
214.885	2895.57
215.35	2785.65
215.815	2666.78
216.28	2846.35
216.745	2329.34
217.21	2529.77
217.675	2342.49
218.14	2662.51
218.604	3002.89
219.069	3469.63
219.534	3674.58
219.998	4335.78
220.463	5335.24
220.927	6698.67
221.392	6382.37
221.856	6532.32
222.32	8326.31
222.785	10357.58
223.249	13135.52
223.713	14747.2
224.177	14784.82
224.642	19058
225.106	23510.55
225.57	25801.23
226.034	19193.5
226.497	29239.53
226.961	26384.99
227.425	30752.7
227.889	34214.21
228.353	34256.72
228.816	70833.25
229.28	67872.58
229.744	57336.94
230.207	34861.51
230.671	34317.06
231.134	56818.08
231.597	65543.01
232.061	65737.27
232.524	64142.17
232.987	44216.57
233.45	39831.86
233.914	35738.19
234.377	36645.12
234.84	33544.75
235.303	39619.87
235.766	44235.55
236.229	45764.24
236.691	28849.61
237.154	32427.88
237.617	24445.18
238.08	25036.21
238.542	29317.02
239.005	20995.94
239.468	20842.92
239.93	19648.47
240.393	17858.89
240.855	15675.82
241.317	16074.01
241.78	19585.04
242.242	20243.18
242.704	21822.19
243.166	19020.12
243.629	17282.88
244.091	19930.66
244.553	21879.22
245.015	23535.79
245.477	30489.25
245.939	44762.62
246.4	47482.02
246.862	46187.03
247.324	43612.91
247.786	48916.62
248.247	64167.18
248.709	66361.09
249.17	49667.63
249.632	46766.65
250.093	54298.28
250.555	46885.13
251.016	28627.31
251.477	27181.78
251.939	29348.61
252.4	30838.57
252.861	36725.13
253.322	34158.59
253.783	40677.13
254.244	52738.36
254.705	41651.29
255.166	37039.85
255.627	36498.66
256.088	51444.97
256.549	54638.26
257.009	47049.54
257.47	56987.58
257.931	46349.06
258.391	34726.76
258.852	35741.34
259.312	37441.74
259.773	46242.56
260.233	39053.68
260.694	32939.54
261.154	37356.86
261.614	29989.51
262.074	26812.11
262.534	27876.88
262.994	26286.58
263.455	35034.16
263.915	29550.31
264.374	27878.65
264.834	30449.84
265.294	33769
265.754	34968.59
266.214	33129.21
266.673	31045.83
267.133	39241.18
267.593	38929.65
268.052	47632.72
268.512	41451.6
268.971	49914.14
269.431	54720.21
269.89	48987.81
270.349	73457.11
270.809	81925.89
271.268	73622.2
271.727	165264.82
272.186	107020.33
272.645	80242.17
273.104	57917.87
273.563	83886.43
274.022	66029.67
274.481	56131.35
274.94	43242.12
275.399	32117.91
275.857	37408.26
276.316	50596.29
276.775	44977.76
277.233	44251.29
277.692	41429.31
278.15	46853.82
278.609	48141
279.067	44552.54
279.525	41379.51
279.984	53459.72
280.442	64179.51
280.9	63203.43
281.358	41560.74
281.816	38721.28
282.274	37903.2
282.732	39167.94
283.19	39322.88
283.648	33922.99
284.106	36097.78
284.564	36690.74
285.021	33966.21
285.479	25297.66
285.937	23013.46
286.394	20171.6
286.852	20754.32
287.309	21804.9
287.767	21023.82
288.224	19982.68
288.682	21942.98
289.139	24082.66
289.596	22029.73
290.053	22917.93
290.511	28975.09
290.968	35133.5
291.425	47697.76
291.882	39697.17
292.339	34530.41
292.796	34324.15
293.252	32391.13
293.709	25718.55
294.166	23095.77
294.623	25549.85
295.079	24525.4
295.536	24634.61
295.992	22374.48
296.449	22144.92
296.905	23029.03
297.362	22109.68
297.818	23288.95
298.274	24172.29
298.731	24660.08
299.187	24401.13
299.643	26224.51
300.099	31722.67
300.555	34828.95
301.011	29147.6
301.467	28080.87
301.923	32938.74
302.379	32211.84
302.835	31632.16
303.291	31650.37
303.746	36058.21
304.202	45583.21
304.658	45822.46
305.113	30867.93
305.569	30247.43
306.024	32275.76
306.479	30806.87
306.935	25946.62
307.39	28333.94
307.845	26187.88
308.301	26400.12
308.756	25735.77
309.211	24798.61
309.666	25414.03
310.121	31549.99
310.576	32100.75
311.031	31868.92
311.486	36531.88
311.94	36571.72
312.395	48912.02
312.85	92041.67
313.305	452422.66
313.759	2341390.21
314.214	169838.9
314.668	134775.37
315.123	113360.02
315.577	40599.81
316.032	36062.04
316.486	45204.96
316.94	35662.02
317.394	24860.62
317.849	19343.88
318.303	18355.51
318.757	17360.68
319.211	19223.47
319.665	16832.79
320.119	17042.24
320.572	24518.82
321.026	22937
321.48	19105.41
321.934	20870.36
322.387	20934.51
322.841	22625.17
323.295	20313.08
323.748	23406.29
324.202	23731.29
324.655	28505.34
325.108	39846.73
325.562	28154.87
326.015	33544.59
326.468	25361.49
326.921	28394.67
327.374	26472.24
327.827	27531.35
328.28	31211.78
328.733	20912.06
329.186	18418.14
329.639	17555.62
330.092	14814.06
330.545	14099.63
330.997	14197.84
331.45	15527.74
331.903	18175.04
332.355	31336.92
332.808	30468.56
333.26	25137.67
333.713	27315.88
334.165	27506.03
334.617	36771.16
335.069	29739.95
335.522	53760.68
335.974	59617.67
336.426	54460.89
336.878	37751.01
337.33	19124.04
337.782	18697.1
338.234	23401.83
338.686	28008.88
339.137	33191.9
339.589	31249.45
340.041	24489.57
340.493	21064.67
340.944	21554.39
341.396	23213.69
341.847	19496.99
342.299	23000.1
342.75	28072.31
343.201	24565.75
343.653	28221.12
344.104	34722.15
344.555	27317.27
345.006	42567.47
345.457	32626.04
345.908	25978.7
346.359	24471.96
346.81	19966.15
347.261	21098.21
347.712	20791.5
348.163	22264.45
348.613	22565.87
349.064	21102.79
349.515	18516.75
349.965	19000.87
350.416	22905.47
350.866	25156.3
351.317	28472.93
351.767	47199.87
352.217	59651.27
352.668	49578.28
353.118	45534.29
353.568	43937.83
354.018	34712.49
354.468	36608.48
354.918	26265.76
355.368	22991.57
355.818	32470.65
356.268	93493.98
356.718	390632.71
357.168	97203.26
357.617	48743.02
358.067	54287.7
358.517	50910.03
358.966	59715.42
359.416	67011.01
359.865	72491.71
360.315	86328.94
360.764	40298.14
361.213	22558.39
361.663	21406.99
362.112	26452.04
362.561	42800.95
363.01	32290.31
363.459	27208.57
363.908	29474.39
364.357	25022.74
364.806	42261.42
365.255	29092.11
365.703	26666.3
366.152	26732.62
366.601	21707.87
367.05	17616.98
367.498	15998.72
367.947	16692.27
368.395	17360.81
368.844	15370.34
369.292	18540.72
369.74	12819.23
370.189	19631.21
370.637	23017.92
371.085	19873.86
371.533	24221.12
371.981	23328.93
372.429	22239.08
372.877	23199.36
373.325	19418.44
373.773	19805.11
374.221	17652.64
374.669	21887.7
375.116	18936.99
375.564	19102.72
376.012	21351.88
376.459	17582.84
376.907	21015.87
377.354	25381.46
377.801	23669.97
378.249	27193.4
378.696	34722.02
379.143	41978.08
379.591	44740.93
380.038	75633.08
380.485	54671.07
380.932	59009.56
381.379	53898.72
381.826	39696.02
382.273	28266.29
382.72	24727.8
383.166	24063.71
383.613	15618.01
384.06	14097.4
384.506	16329.42
384.953	11982.85
385.4	12071.28
385.846	10559.05
386.292	10318.76
386.739	10095.91
387.185	9983.03
387.631	9973.15
388.078	9680.39
388.524	10346.5
388.97	9552.16
389.416	7951.44
389.862	8448.22
390.308	7991.86
390.754	8125.99
391.2	8795.53
391.645	8995.05
392.091	8572.51
392.537	8290.14
392.983	8309.29
393.428	8165.87
393.874	8746.81
394.319	8773.34
394.765	8313.08
395.21	8546.8
395.655	8009.03
396.101	7513.05
396.546	6785.71
396.991	6867.2
397.436	6373.23
397.881	6153.62
398.326	5835.54
398.771	5515.6
399.216	4833.37
399.661	4357.79
400.106	4339.96
400.551	4446.96
400.995	3988.85
401.44	3952.24
401.885	3714.94
402.329	3754.87
402.774	3606.54
403.218	3486.62
403.663	3364.24
404.107	3458.86
404.551	3486.42
404.995	3200.81
405.44	3089.23
405.884	3140.09
406.328	3039.13
406.772	3026.75
407.216	2757.76
407.66	2666.32
408.104	2536.81
408.547	2378.13
408.991	2297.8
409.435	2210.45
409.879	2180.02
410.322	2151.16
410.766	2075.05
411.209	1972.37
411.653	1897.13
412.096	1860.85
412.54	1863.56
412.983	1851
413.426	1854.02
413.869	1855.28
414.312	1821.81
414.756	1756.25
415.199	1673.65
415.642	1624.75
416.085	1626.48
416.527	1613.49
416.97	1636.07
417.413	1548.75
417.856	1533.88
418.298	1519.26
418.741	1511.55
419.184	1509.82
419.626	1574.63
420.069	1576.9
420.511	1586.8
420.953	1551.96
421.396	1538.74
421.838	1501.22
422.28	1535.33
422.722	1541.52
423.164	1562.85
423.606	1533.4
424.048	1529.67
424.49	1455.35
424.932	1446.64
425.374	1425.73
425.816	1451.89
426.258	1481.06
426.699	1497.35
427.141	1477.1
427.582	1499.95
428.024	1494.01
428.465	1487.8
428.907	1451.08
429.348	1429.7
429.789	1427.06
430.231	1398.28
430.672	1416.6
431.113	1381.67
431.554	1360.2
431.995	1325.07
432.436	1277.09
432.877	1245.84
433.318	1221.96
433.759	1217.19
434.2	1216.8
434.64	1204.61
435.081	1207.95
435.522	1143.13
435.962	1101.25
436.403	1077.86
436.843	1093.67
437.284	1070.34
437.724	1041.75
438.164	1045.35
438.604	1021.01
439.045	981.4
439.485	940.41
439.925	918.5
440.365	895.58
440.805	881.53
441.245	870.88
441.685	838.48
442.125	832.09
442.564	837.79
443.004	816.81
443.444	815.34
443.883	817.49
444.323	811.55
444.762	814.22
445.202	825.53
445.641	842.17
446.081	835.98
446.52	841.17
446.959	832.55
447.398	811.78
447.837	802.57
448.276	786.44
448.716	792.62
449.154	798.38
449.593	777.66
450.032	774.27
450.471	758.53
450.91	758.28
451.349	756.43
451.787	752.92
452.226	763.62
452.664	763.67
453.103	765.13
453.541	764.44
453.98	763.07
454.418	767.92
454.856	755.49
455.295	753.66
455.733	759.62
456.171	763.96
456.609	766.03
457.047	766.09
457.485	778.51
457.923	780.3
458.361	769.67
458.798	773.11
459.236	770.78
459.674	776.25
460.111	782.01
460.549	773.62
460.987	771.78
461.424	769.02
461.862	766.28
462.299	753.15
462.736	753.73
463.173	756.09
463.611	747.6
464.048	746.89
464.485	752.27
464.922	744.32
465.359	740.75
465.796	728.54
466.233	722.01
466.67	713.74
467.106	712.77
467.543	704.06
467.98	695.01
468.416	677.13
468.853	672.1
469.29	652.24
469.726	645.71
470.162	629.35
470.599	622.1
471.035	617.18
471.471	603.81
471.907	598.66
472.344	594.49
472.78	595.89
473.216	603.76
473.652	596.43
474.088	594.92
474.523	592.02
474.959	596.59
475.395	591.87
475.831	588.26
476.266	590.06
476.702	587.96
477.138	581.21
477.573	578.76
478.008	575.31
478.444	576.24
478.879	580.32
479.314	581.56
479.75	581.53
480.185	584.1
480.62	588.43
481.055	591
481.49	595.9
481.925	604.49
482.36	614.32
482.795	631.38
483.229	648.81
483.664	663.48
484.099	667.04
484.534	677.48
484.968	683.2
485.403	685.91
485.837	685.83
486.271	684.46
486.706	685.53
487.14	678.83
487.574	668.43
488.009	663.51
488.443	657.4
488.877	664.4
489.311	666.6
489.745	674.53
490.179	680.45
490.613	693.23
491.046	699.59
491.48	704.67
491.914	706.07
492.348	712.18
492.781	716.63
493.215	718.69
493.648	719.85
494.082	725.38
494.515	725.91
494.948	734.59
495.382	739.61
495.815	744.36
496.248	750.44
496.681	763.75
497.114	775.72
497.547	786.8
497.98	801.48
498.413	808.49
498.846	818.71
499.279	829.1
499.711	833.06
500.144	835.46
500.577	846.8
501.009	858.96
501.442	869.59
501.874	871.67
502.306	873.69
502.739	881.18
503.171	897.63
503.603	901.92
504.036	911.25
504.468	918.64
504.9	931.4
505.332	939.02
505.764	944.23
506.196	950.92
506.627	965.5
507.059	979.88
507.491	989.53
507.923	986.77
508.354	1002.52
508.786	1013.25
509.217	1031.2
509.649	1047.05
510.08	1066.21
510.512	1083.04
510.943	1099.09
511.374	1110.36
511.805	1129.74
512.237	1149.01
512.668	1181.49
513.099	1209.13
513.53	1237.7
513.961	1258.6
514.391	1288.77
514.822	1321.05
515.253	1356.33
515.684	1380.83
516.114	1410.26
516.545	1430.37
516.975	1456.24
517.406	1473.65
517.836	1474.18
518.267	1478.25
518.697	1494.91
519.127	1498.32
519.558	1505.28
519.988	1507.89
520.418	1517.96
520.848	1533.78
521.278	1541.5
521.708	1555.37
522.138	1566.66
522.567	1596.66
522.997	1621.09
523.427	1635.16
523.857	1651.86
524.286	1660.42
524.716	1672.96
525.145	1689.69
525.575	1699.67
526.004	1712.6
526.433	1706.16
526.863	1704.3
527.292	1693.14
527.721	1698.45
528.15	1702.7
528.579	1701.04
529.008	1711.43
529.437	1734.27
529.866	1746.35
530.295	1762.06
530.724	1774.67
531.152	1800.97
531.581	1815.2
532.01	1831.54
532.438	1838.52
532.867	1851.59
533.295	1870.3
533.723	1874.96
534.152	1872.23
534.58	1872
535.008	1855.94
535.436	1856.32
535.865	1862.65
536.293	1877.01
536.721	1893.07
537.149	1919.49
537.576	1923.02
538.004	1936.08
538.432	1944.05
538.86	1942.19
539.287	1949.76
539.715	1963.73
540.143	1967.32
540.57	1963.4
540.998	1959.19
541.425	1935.48
541.852	1912.97
542.28	1911.31
542.707	1893.81
543.134	1879.19
543.561	1874.96
543.988	1867.09
544.415	1866.31
544.842	1860.33
545.269	1853.33
545.696	1855.26
546.123	1868.3
546.549	1857.08
546.976	1843.43
547.403	1841.84
547.829	1843.36
548.256	1843.71
548.682	1838.68
549.108	1830
549.535	1828.64
549.961	1829.92
550.387	1815.44
550.813	1809.32
551.24	1814.15
551.666	1813.23
552.092	1804.26
552.518	1796.9
552.943	1791.07
553.369	1797.46
553.795	1803.29
554.221	1804.66
554.646	1800.43
555.072	1810.47
555.498	1815.08
555.923	1825.95
556.349	1842.36
556.774	1849.79
557.199	1851
557.625	1857.19
558.05	1852.51
558.475	1862.78
558.9	1860.05
559.325	1853.07
559.75	1847.06
560.175	1839.58
560.6	1831.15
561.025	1828.11
561.449	1828.85
561.874	1834.21
562.299	1837.73
562.723	1844.85
563.148	1834.96
563.572	1841.45
563.997	1851.11
564.421	1856.82
564.846	1856.83
565.27	1860.22
565.694	1859.17
566.118	1870.85
566.542	1878.82
566.966	1872.57
567.39	1868.09
567.814	1855.66
568.238	1853.78
568.662	1858.91
569.086	1861.32
569.509	1870.48
569.933	1855.88
570.357	1847.43
570.78	1826.44
571.204	1813.26
571.627	1803.5
572.05	1801.01
572.474	1802.29
572.897	1788.85
573.32	1782.2
573.743	1773.59
574.166	1754.01
574.589	1755.82
575.012	1749.31
575.435	1749.24
575.858	1740.86
576.281	1729.01
576.704	1713.96
577.126	1701.03
577.549	1691.82
577.972	1680.81
578.394	1669.87
578.817	1663.38
579.239	1643.72
579.661	1629.49
580.084	1612.43
580.506	1598.51
580.928	1594.1
581.35	1582.2
581.772	1578.22
582.194	1564.4
582.616	1552.07
583.038	1537.39
583.46	1525.82
583.882	1521.98
584.303	1526.36
584.725	1522.55
585.147	1524.6
585.568	1536.42
585.99	1549.52
586.411	1555.53
586.833	1570.11
587.254	1570.83
587.675	1584.7
588.096	1597.82
588.518	1592.93
588.939	1576
589.36	1573.92
589.781	1564.1
590.202	1534.56
590.623	1524.23
591.043	1522.17
591.464	1508.68
591.885	1505.32
592.305	1498.14
592.726	1485.61
593.147	1487.43
593.567	1483.44
593.987	1475.67
594.408	1469.8
594.828	1467.89
595.248	1463.57
595.669	1444.27
596.089	1437.48
596.509	1430.32
596.929	1417.85
597.349	1417.51
597.769	1406.68
598.189	1398.99
598.608	1400.26
599.028	1401.23
599.448	1400.84
599.867	1387.33
600.287	1383.43
600.706	1378.9
601.126	1370.68
601.545	1369.85
601.965	1368.68
602.384	1362.98
602.803	1366.31
603.222	1361.17
603.641	1355
604.061	1351.33
604.48	1347.59
604.898	1356.18
605.317	1361.02
605.736	1362.05
606.155	1358.78
606.574	1349.96
606.992	1355.97
607.411	1350.91
607.829	1343.64
608.248	1341.49
608.666	1339.5
609.085	1339.61
609.503	1332.28
609.921	1326.67
610.339	1328.68
610.758	1328.66
611.176	1324.94
611.594	1316.87
612.012	1314.32
612.43	1317.95
612.847	1324.78
613.265	1327.13
613.683	1331.83
614.101	1333.11
614.518	1330.43
614.936	1322.62
615.353	1309.02
615.771	1306.63
616.188	1306.95
616.606	1303.78
617.023	1297.92
617.44	1283.36
617.857	1277.59
618.274	1269.98
618.691	1263.85
619.108	1255.03
619.525	1248.06
619.942	1255.31
620.359	1258.3
620.776	1253.62
621.192	1249.77
621.609	1247.62
622.026	1255.79
622.442	1260.54
622.859	1263.48
623.275	1256.58
623.691	1262
624.108	1275.06
624.524	1289.66
624.94	1289.12
625.356	1298.93
625.772	1312.31
626.188	1324.91
626.604	1326.54
627.02	1323.5
627.436	1321.27
627.852	1328.34
628.268	1341.32
628.683	1331.73
629.099	1323.4
629.514	1318.61
629.93	1322.57
630.345	1326.69
630.761	1321.97
631.176	1324.48
631.591	1318.33
632.007	1312.33
632.422	1309.33
632.837	1296.18
633.252	1292.16
633.667	1279.75
634.082	1269.76
634.497	1256.13
634.911	1235.82
635.326	1231.29
635.741	1212.57
636.155	1201.1
636.57	1201.03
636.984	1199.74
637.399	1200.31
637.813	1198.68
638.228	1196.83
638.642	1200.28
639.056	1188.86
639.47	1187.98
639.884	1178.07
640.298	1170.79
640.712	1168.4
641.126	1154.78
641.54	1144.22
641.954	1138.1
642.368	1126.02
642.781	1117.33
643.195	1099.62
643.609	1099.5
644.022	1093.04
644.436	1088.64
644.849	1077.12
645.262	1066.23
645.676	1067.35
646.089	1064
646.502	1049.56
646.915	1044.1
647.328	1027.77
647.741	1025.03
648.154	1013.06
648.567	1010.74
648.98	997.47
649.393	998.23
649.805	994.85
650.218	987.33
650.631	972.1
651.043	966.19
651.456	960.66
651.868	961.1
652.28	979.27
652.693	992.29
653.105	999
653.517	1010.12
653.929	1010.97
654.341	1016.57
654.753	1006.33
655.165	1014.3
655.577	1013.64
655.989	1009.83
656.401	1003.85
656.813	969.87
657.224	951.52
657.636	925.41
658.047	909.13
658.459	891.46
658.87	884.47
659.282	875.14
659.693	855.25
660.104	842.03
660.515	830.4
660.926	829.01
661.338	826.99
661.749	821.97
662.159	813.67
662.57	810.88
662.981	807.24
663.392	800.17
663.803	805.1
664.213	803.7
664.624	800.02
665.035	805.36
665.445	795.18
665.855	789.12
666.266	781.73
666.676	780.33
667.086	771.07
667.497	772.03
667.907	767.68
668.317	759.28
668.727	757.25
669.137	759.65
669.547	758.34
669.956	761.23
670.366	763.82
670.776	767.69
671.186	773.67
671.595	778.83
672.005	783.94
672.414	784.26
672.824	783.6
673.233	789.55
673.642	792.61
674.052	797.15
674.461	800.37
674.87	806.25
675.279	803.98
675.688	806.24
676.097	808.3
676.506	806.66
676.915	821.76
677.323	826.33
677.732	825.4
678.141	826.47
678.549	817.02
678.958	816.73
679.366	816.93
679.775	822.93
680.183	835.35
680.592	843.05
681	847.87
681.408	841.59
681.816	849.81
682.224	859.48
682.632	870.99
683.04	902.36
683.448	927.88
683.856	960.5
684.264	997.58
684.671	1029.15
685.079	1070.42
685.487	1116.86
685.894	1180.4
686.302	1232.39
686.709	1272.92
687.116	1319.81
687.524	1355.68
687.931	1388.2
688.338	1412.75
688.745	1433.02
689.152	1456.87
689.559	1491.8
689.966	1527.1
690.373	1541.06
690.78	1571.84
691.187	1627.44
691.593	1666.74
692	1701.65
692.407	1757.43
692.813	1828.3
693.22	1883.18
693.626	1941.25
694.032	1986.22
694.439	2056.33
694.845	2108.36
695.251	2179.07
695.657	2241.03
696.063	2336.48
696.469	2405.7
696.875	2468.89
697.281	2503.08
697.687	2545.47
698.093	2581.11
698.498	2652.37
698.904	2707.79
699.31	2793.8
699.715	2852.64
700.12	2941.03
700.526	2958.5
700.931	3026.09
701.337	3075.41
701.742	3106.93
702.147	3191.48
702.552	3220.89
702.957	3280.9
703.362	3298.39
703.767	3325.77
704.172	3366.56
704.577	3319.52
704.981	3365.17
705.386	3380.32
705.791	3372.08
706.195	3447.5
706.6	3455.49
707.004	3533.44
707.408	3500.47
707.813	3529.61
708.217	3519.56
708.621	3521.95
709.025	3619.5
709.43	3619.3
709.834	3682.26
710.237	3753.32
710.641	3737.11
711.045	3759.41
711.449	3755.64
711.853	3786.05
712.256	3827.08
712.66	3864.35
713.064	3939.97
713.467	3982.19
713.87	4095.4
714.274	4139.25
714.677	4248.55
715.08	4409.27
715.484	4577.52
715.887	4780.84
716.29	4980.59
716.693	5188.9
717.096	5429.67
717.499	5561.98
717.901	5587.27
718.304	5614.56
718.707	5641.94
719.109	5543.05
719.512	5514.72
719.915	5379.29
720.317	5321.75
720.719	5365.88
721.122	5340.05
721.524	5290.62
721.926	5246.9
722.328	5348.81
722.731	5342.79
723.133	5371.7
723.535	5564.47
723.937	5583.53
724.338	5636.88
724.74	5679.92
725.142	5606.5
725.544	5601.3
725.945	5628.49
726.347	5626.45
726.748	5617.56
727.15	5628.99
727.551	5588.86
727.952	5560.07
728.354	5533.52
728.755	5533.58
729.156	5490.46
729.557	5489.27
729.958	5367.87
730.359	5312.19
730.76	5292.79
731.161	5232.57
731.562	5210.09
731.962	5213.43
732.363	5149.92
732.763	5083.3
733.164	5118.23
733.564	5051.7
733.965	4955.11
734.365	4920.09
734.766	4948.33
735.166	4908.43
735.566	4855.24
735.966	4824.36
736.366	4820.92
736.766	4760.3
737.166	4792.8
737.566	4750.35
737.966	4722.95
738.365	4761.81
738.765	4757.11
739.165	4682.21
739.564	4656.95
739.964	4701.06
740.363	4659.18
740.763	4654.86
741.162	4642.32
741.561	4609.44
741.96	4565.84
742.36	4587.63
742.759	4593.27
743.158	4630.98
743.557	4643.68
743.955	4684.67
744.354	4638.68
744.753	4695.52
745.152	4655.24
745.55	4709.1
745.949	4703.3
746.348	4702.25
746.746	4716.61
747.144	4677.22
747.543	4653.8
747.941	4702.43
748.339	4632.17
748.737	4624.33
749.136	4615.07
749.534	4679.16
749.932	4652.18
750.33	4674.85
750.727	4733.39
751.125	4712.23
751.523	4697.32
751.921	4741.78
752.318	4707.64
752.716	4766.18
753.113	4781.15
753.511	4806.43
753.908	4805.49
754.305	4789.2
754.703	4851.84
755.1	4910.81
755.497	4968.24
755.894	5154.17
756.291	5328.97
756.688	5657.63
757.085	6093.75
757.482	6703.4
757.878	7367.97
758.275	7972.31
758.672	8802
759.068	9478.38
759.465	10444.6
759.861	11693.88
760.258	13145.35
760.654	13898.22
761.05	13783.71
761.447	13155.4
761.843	12253.08
762.239	11313.07
762.635	10888.64
763.031	10477.95
763.427	9889.7
763.822	9272.64
764.218	8660.79
764.614	7866.12
765.01	7338.24
765.405	6997.06
765.801	6735.79
766.196	6404.75
766.592	6224.73
766.987	5912.4
767.382	5703.59
767.778	5615.02
768.173	5486.27
768.568	5412.5
768.963	5290.04
769.358	5307.47
769.753	5260.35
770.148	5178.2
770.542	5175.43
770.937	5141.72
771.332	5234.27
771.726	5255.2
772.121	5193.41
772.515	5247.28
772.91	5236.86
773.304	5307.39
773.699	5243.06
774.093	5296.39
774.487	5348.11
774.881	5390.54
775.275	5388
775.669	5343.12
776.063	5383.71
776.457	5419.66
776.851	5346.01
777.245	5337.21
777.638	5368.19
778.032	5478.81
778.425	5442.54
778.819	5483.52
779.212	5443.23
779.606	5402.98
779.999	5421.69
780.392	5406.37
780.786	5486.23
781.179	5506.15
781.572	5549.25
781.965	5564.36
782.358	5508.26
782.751	5564.28
783.143	5518.1
783.536	5589.06
783.929	5633.65
784.322	5748.37
784.714	5776.65
785.107	5773.12
785.499	5844.77
785.891	5821.58
786.284	5799.23
786.676	5941.18
787.068	5920.96
787.46	5973.1
787.852	5991.75
788.245	6073.03
788.636	6101.95
789.028	6170.79
789.42	6207.76
789.812	6215.59
790.204	6309.05
790.595	6407.81
790.987	6210.59
791.378	6233.72
791.77	6361.66
792.161	6497.18
792.553	6552.2
792.944	6442.97
793.335	6374.89
793.726	6447.77
794.117	6538.87
794.508	6674.89
794.899	6644.04
795.29	6783.27
795.681	6843
796.072	6698.82
796.463	6513.55
796.853	6523.34
797.244	6675.99
797.634	6710.19
798.025	6713.56
798.415	6724.93
798.806	6812.37
799.196	6900.33
799.586	6954.03
799.976	6917.74
800.366	7149.65
800.756	7392.05
801.146	7353.47
801.536	7389.16
801.926	7462.43
802.316	7481.75
802.706	7552.27
803.095	7432.19
803.485	7531.06
803.874	7572.79
804.264	7827.78
804.653	7803.37
805.043	7942.87
805.432	8049.82
805.821	8048.47
806.21	8071.49
806.599	8191.5
806.988	8236.34
807.377	8342.72
807.766	8471.25
808.155	8748
808.544	8488.13
808.933	8497.28
809.321	8478.55
809.71	8769.67
810.098	8927.2
810.487	9380.08
810.875	9853.8
811.264	9878.09
811.652	10161.32
812.04	10308.19
812.428	10471.55
812.816	11221.8
813.204	11634.22
813.592	12177.1
813.98	12505.41
814.368	12407.13
814.756	12878.68
815.144	12797.09
815.531	13249.25
815.919	13170.21
816.306	13466.68
816.694	13158.42
817.081	13209.66
817.469	13549.42
817.856	13543.48
818.243	13803.28
818.63	14190.34
819.017	13770.41
819.404	13833.87
819.791	14210.05
820.178	14822.38
820.565	15067.76
820.952	15987.13
821.339	15495.91
821.725	15677.21
822.112	14947.11
822.498	14916.64
822.885	15047.62
823.271	14956.84
823.657	15369.98
824.044	15374.79
824.43	15440.26
824.816	15400.99
825.202	14974.07
825.588	15980.31
825.974	16003.4
826.36	16514.7
826.746	16546.14
827.132	16895.82
827.517	16875.86
827.903	16097.35
828.289	16135.63
828.674	15383.29
829.06	15291.41
829.445	15683.22
829.83	16032.16
830.216	16497.89
830.601	16861.19
830.986	16463.16
831.371	16334.81
831.756	16878.74
832.141	16468.04
832.526	16474.81
832.911	16748.69
833.295	16635.39
833.68	17096.58
834.065	16498.18
834.449	15602.96
834.834	15529.18
835.218	15528.52
835.603	15866.26
835.987	15666.15
836.371	16483.18
836.755	16370.86
837.139	16767.32
837.524	17009.17
837.908	16837.15
838.291	16895.01
838.675	16965.79
839.059	17168.8
839.443	17156.68
839.827	16922.81
840.21	17394.7
840.594	17250.78
840.977	17455.84
841.361	17436.98
841.744	17808.36
842.127	17652.37
842.511	17903.05
842.894	18483.58
843.277	18870.8
843.66	19405.39
844.043	19494.6
844.426	18705.24
844.809	18403.13
845.191	18437.27
845.574	17990.63
845.957	17626.7
846.339	17522.45
846.722	16993.31
847.104	17064.72
847.487	16889.97
847.869	16902.2
848.252	17176.72
848.634	17502.27
849.016	17757.27
849.398	17884.11
849.78	18715.5
850.162	18722.65
850.544	19127.95
850.926	19749.03
851.307	19659.27
851.689	19935.98
852.071	20382.61
852.452	20699.55
852.834	20674.94
853.215	21062.84
853.597	21203.44
853.978	21493.47
854.359	21947.31
854.741	20967.4
855.122	20868.92
855.503	20582.57
855.884	20709.91
856.265	20648.11
856.646	20758.99
857.026	20376.12
857.407	20321.05
857.788	20483.63
858.169	20755.08
858.549	19906.96
858.93	20526.81
859.31	20579.33
859.69	20792.18
860.071	20394.82
860.451	20177.2
860.831	19441.2
861.211	20575
861.591	21105.09
861.971	21081.79
862.351	21282.69
862.731	21667.97
863.111	21912
863.491	22221.95
863.87	23080.48
864.25	23416.85
864.629	23025.67
865.009	23536.87
865.388	24373.23
865.768	26126.53
866.147	26009.74
866.526	24563.78
866.905	24858.46
867.284	26266.63
867.663	24946.01
868.042	23900.65
868.421	23833.14
868.8	24230.36
869.179	24466.68
869.558	23044.67
869.936	21239.97
870.315	21624.44
870.693	22154.83
871.072	23899.22
871.45	22767.58
871.828	23056.21
872.207	24240.51
872.585	23877.02
872.963	24522.56
873.341	23671.11
873.719	23398.99
874.097	23113.55
874.475	23550.92
874.853	24085.97
875.23	23069.96
875.608	24033.34
875.986	26005.07
876.363	24883.81
876.741	25638.92
877.118	25000.78
877.495	26236.51
877.873	26671.3
878.25	28077.69
878.627	26935.33
879.004	27316.53
879.381	27195.02
879.758	26478.92
880.135	24643.68
880.512	26055.28
880.889	25362.22
881.265	25097.67
881.642	24896.84
882.019	25314.44
882.395	24786.12
882.772	25766.73
883.148	24646.54
883.524	24547.28
883.901	24406.53
884.277	24779.57
884.653	24621.22
885.029	25329.93
885.405	28061
885.781	27840.29
886.157	26684.18
886.532	27009.63
886.908	26995.65
887.284	30019.58
887.659	30999.74
888.035	31963.07
888.411	32781.46
888.786	33200.6
889.161	34348.02
889.537	33694.52
889.912	34775.54
890.287	34742.63
890.662	35655.22
891.037	35016.77
891.412	32646.91
891.787	32322.01
892.162	31196.89
892.536	31926.26
892.911	30739.27
893.286	30092.25
893.66	28886.38
894.035	29618.9
894.409	32251.33
894.784	30946.2
895.158	31453.95
895.532	33324.3
895.906	34220.78
896.281	35023.17
896.655	34466.53
897.029	39365
897.402	40996.13
897.776	45649.81
898.15	45496.38
898.524	45021.55
898.898	45594.99
899.271	51042.66
899.645	44202.2
900.018	42462.45
900.392	44031.58
900.765	44386.26
901.138	41099.91
901.511	40479.14
901.884	37153.98
902.258	34275.67
902.631	35392.45
903.003	40767.96
903.376	36790.26
903.749	41245.37
904.122	44153.8
904.495	48626.21
904.867	49234.51
905.24	42714.34
905.612	39745.7
905.985	40639.86
906.357	42470.81
906.729	40549.3
907.102	34619.76
907.474	33277.83
907.846	33507.09
908.218	33054.1
908.59	29186.06
908.962	28219.19
909.334	30388.91
909.705	31908.1
910.077	30984.87
910.449	32243.41
910.82	33132.78
911.192	36432.02
911.563	37845.6
911.935	40476.86
912.306	40511.76
912.677	41823.86
913.048	41403.94
913.419	44921.59
913.79	45173.77
914.161	48400.65
914.532	46278.14
914.903	42533.97
915.274	40408.38
915.645	39825.74
916.015	35054.6
916.386	33447.07
916.756	35599.34
917.127	36735.02
917.497	32812.74
917.868	35731.62
918.238	33978.86
918.608	34943.25
918.978	35671.86
919.348	37765.41
919.718	39000.81
920.088	37562.48
920.458	39001.89
920.828	41032.76
921.198	38898.93
921.567	41562.95
921.937	32198.88
922.306	32490.22
922.676	35046.37
923.045	29228.71
923.415	27772.98
923.784	25313.68
924.153	26028.72
924.522	26009.13
924.891	24471.45
925.26	26210.8
925.629	25588.77
925.998	29405.89
926.367	28696.44
926.736	27310.31
927.104	32530.75
927.473	34981.12
927.842	42214.35
928.21	41796.27
928.578	43941.53
928.947	41529.51
929.315	41776.24
929.683	49015.75
930.051	49395.19
930.42	57387.64
930.788	49089.63
931.156	48718.44
931.523	45650.83
931.891	42201.39
932.259	40528.15
932.627	46969.92
932.994	66485.08
933.362	54923.16
933.729	47694.42
934.097	45673.39
934.464	38620.34
934.831	44517.72
935.199	43875.5
935.566	42553.12
935.933	43105.67
936.3	52238.32
936.667	40693.63
937.034	36687.69
937.401	36311.86
937.767	31322.47
938.134	27877.92
938.501	39359.76
938.867	41972.44
939.234	70981.13
939.6	60571.77
939.967	66775.07
940.333	44686.62
940.699	37982.42
941.065	30498.23
941.431	39975.6
941.798	38524.31
942.163	50607.78
942.529	31623.49
942.895	29083.31
943.261	18831.86
943.627	24748.71
943.992	21654.07
944.358	21683.49
944.723	21787.13
945.089	21239.02
945.454	19621.65
945.82	20952.98
946.185	20135.87
946.55	23311.92
946.915	20935.8
947.28	24533.16
947.645	21565.03
948.01	19927.2
948.375	20788.25
948.74	24938.35
949.104	29097.33
949.469	42007.32
949.834	74326.99
950.198	70451.43
950.562	42228.39
950.927	35157.8
951.291	42314.28
951.655	36079.63
952.02	33856.58
952.384	25582.04
952.748	22245.69
953.112	21678.72
953.476	18866.02
953.839	17441.64
954.203	17231.46
954.567	21526.04
954.931	33920.05
955.294	29029.32
955.658	29175.29
956.021	49590.42
956.385	84204.3
956.748	124300.72
957.111	192699.88
957.474	216086.58
957.837	243189.46
958.2	184354.27
958.563	66373.57
958.926	44870.62
959.289	68085.06
959.652	76015.85
960.015	57095.03
960.377	81822.76
960.74	93262.41
961.102	161057.21
961.465	172887.31
961.827	92570.03
962.189	177598.68
962.552	123174.06
962.914	98792.11
963.276	64019.14
963.638	52834.82
964	52246.71
964.362	35299.93
964.724	34100.36
965.085	24324.31
965.447	19944.7
965.809	22731.84
966.17	22759.4
966.532	24632.64
966.893	22572.12
967.255	20555.46
967.616	24301.8
967.977	19464.25
968.338	21283.25
968.699	17514.19
969.061	17496.96
969.421	17610.13
969.782	19766.02
970.143	16676.45
970.504	17248.75
970.865	19626.25
971.225	20053.12
971.586	19607.52
971.946	27958.45
972.307	24247.17
972.667	31697.98
973.027	32650.12
973.388	39594.84
973.748	26894.14
974.108	29294.75
974.468	39635.53
974.828	30548.1
975.188	23524.1
975.548	21608.56
975.907	18140.69
976.267	20349.58
976.627	17084.47
976.986	17697.8
977.346	16871.68
977.705	16236.31
978.064	14780.82
978.424	12301.28
978.783	12713.02
979.142	14495.88
979.501	13861.57
979.86	14653.41
980.219	14120.09
980.578	18221.59
980.937	20407.5
981.296	18211.66
981.654	18751.14
982.013	29195.71
982.371	37876.98
982.73	35388.21
983.088	40083.73
983.447	42832.31
983.805	61188.36
984.163	127912.7
984.521	141960.61
984.879	208147.2
985.237	-337662.32
985.595	325584.96
985.953	81007.96
986.311	46785.33
986.669	27133.5
987.026	23411.84
987.384	31488.4
987.741	32565.18
988.099	23250.05
988.456	18499.02
988.814	17322.36
989.171	15077.79
989.528	14872.96
989.885	15683.49
990.242	12428.02
990.599	15493.84
990.956	12676.58
991.313	8870.39
991.67	7284.85
992.027	7726.19
992.383	6870.24
992.74	6031.24
993.096	6326.9
993.453	6552.84
993.809	6775.67
994.165	9014.08
994.522	8250.99
994.878	9095.31
995.234	11417.08
995.59	11256.9
995.946	10667.39
996.302	12177.67
996.658	14072.45
997.013	15489.67
997.369	18370.92
997.725	23554.35
998.08	15267.53
998.436	23638.37
998.791	32602.48
999.147	32523.93
999.502	35570.83
999.857	25803.75
1000.212	41941.27
1000.567	59708.32
1000.922	34460.99
1001.277	21869.72
1001.632	16226.68
1001.987	20937.09
1002.342	14962.89
1002.696	11983.38
1003.051	9546.64
1003.406	11517.33
1003.76	11481.77
1004.114	11333.55
1004.469	9522.49
1004.823	7893.24
1005.177	8517.11
1005.531	6753.08
1005.885	5983.21
1006.239	6752.04
1006.593	8462.14
1006.947	11353.61
1007.301	8553.82
1007.655	9300.03
1008.008	6838.36
1008.362	7682.7
1008.715	10967.72
1009.069	9967.75
1009.422	14939.87
1009.776	30006.09
1010.129	19921.03
1010.482	16647.71
1010.835	14077.43
1011.188	29142.21
1011.541	27511.88
1011.894	-168306.64
1012.247	495385.58
1012.6	33637.1
1012.952	21247.09
1013.305	10999.41
1013.657	7904.92
1014.01	7504.1
1014.362	6170.96
1014.715	5467.38
1015.067	4787.33
1015.419	4664.75
1015.771	4125.25
1016.123	3683.86
1016.475	3777.28
1016.827	4033.61
1017.179	4348.43
1017.531	4376.69
1017.883	4458.94
1018.234	4318.39
1018.586	5456.26
1018.938	5762.36
1019.289	7962.06
1019.64	9117.29
1019.992	8467.27
1020.343	7778.6
1020.694	6149.89
1021.045	5422.79
1021.396	6196.53
1021.747	6651.68
1022.098	7981.61
1022.449	5790.18
1022.8	5365.03
1023.151	3754.7
1023.501	3352.85
1023.852	3654.49
1024.202	3787.98
1024.553	4151.56
1024.903	4047.65
1025.253	3472.41
1025.604	3142.16
1025.954	3875.9
1026.304	4719.94
1026.654	5495.94
1027.004	8006.95
1027.354	12858.92
1027.703	12081.98
1028.053	15884.57
1028.403	23046.31
1028.753	33473.67
1029.102	45571.02
1029.452	232951.56
1029.801	10136.7
1030.15	6563.4
1030.499	5577.36
897.758	2436.33
901.051	2386.74
904.343	2419.15
907.636	2422.63
910.928	2484.8
914.22	2399.05
917.511	2407.07
920.803	2463.76
924.094	2472.96
927.384	2461.97
930.675	2427.57
933.965	2385.37
937.255	2401.95
940.544	2366.9
943.834	2341.04
947.123	2278.54
950.411	2370.83
953.7	2345.41
956.988	2321.03
960.276	2260.84
963.563	2328.29
966.851	2329.23
970.138	2380.1
973.424	2375.82
976.711	2331.3
979.997	2418.99
983.283	2461.97
986.568	2380.02
989.853	2387.6
993.138	2414.02
996.423	2491.94
999.708	2438.67
1002.992	2483.49
1006.275	2360.07
1009.559	2384.42
1012.842	2490.93
1016.125	2430
1019.408	2411.39
1022.69	2484.04
1025.972	2506.5
1029.254	2481.03
1032.536	2430.75
1035.817	2449.88
1039.098	2409.2
1042.379	2508.68
1045.659	2521.39
1048.939	2460.46
1052.219	2477.36
1055.498	2481.03
1058.778	2470.08
1062.057	2449.07
1065.335	2472.27
1068.614	2487.59
1071.892	2472.75
1075.17	2542.81
1078.447	2532.4
1081.724	2527.97
1085.001	2559.07
1088.278	2534.45
1091.554	2544.14
1094.83	2540.17
1098.106	2570.04
1101.382	2608.3
1104.657	2609.15
1107.932	2607.78
1111.206	2576.43
1114.481	2536.58
1117.755	2538.86
1121.029	2524.98
1124.302	2579.35
1127.575	2538.88
1130.848	2529.72
1134.121	2496.86
1137.393	2451.42
1140.665	2512.69
1143.937	2491.91
1147.208	2445.4
1150.48	2491.06
1153.75	2476.74
1157.021	2497.31
1160.291	2469.67
1163.561	2514.94
1166.831	2498.63
1170.101	2527.63
1173.37	2498.71
1176.639	2448.89
1179.907	2500.13
1183.176	2512.88
1186.444	2516.75
1189.711	2544.21
1192.979	2558.75
1196.246	2513.96
1199.513	2530.41
1202.78	2529.62
1206.046	2538.1
1209.312	2564.6
1212.578	2585.14
1215.843	2544.03
1219.108	2515.06
1222.373	2539.93
1225.638	2504.31
1228.902	2493.19
1232.166	2461.55
1235.43	2444.26
1238.693	2468.86
1241.956	2464.08
1245.219	2505.37
1248.482	2496.26
1251.744	2491.49
1255.006	2626.92
1258.268	2577.67
1261.529	2529.35
1264.79	2530.47
1268.051	2630.71
1271.312	2645.39
1274.572	2610.37
1277.832	2601.33
1281.092	2587.75
1284.351	2567.09
1287.61	2548.94
1290.869	2475.36
1294.128	2461.11
1297.386	2531.68
1300.644	2525.59
1303.902	2534.19
1307.159	2399.03
1310.416	2452.58
1313.673	2476.42
1316.93	2466.1
1320.186	2506.33
1323.442	2545.11
1326.697	2538.38
1329.953	2522.93
1333.208	2551.43
1336.463	2529.89
1339.717	2477.42
1342.972	2601.91
1346.226	2575.07
1349.479	2515.45
1352.733	2489.55
1355.986	2507.5
1359.238	2484.66
1362.491	2487.46
1365.743	2490.92
1368.995	2484.15
1372.247	2498.18
1375.498	2520.58
1378.749	2543.32
1382	2500.26
1385.251	2546.65
1388.501	2506.07
1391.751	2494.14
1395	2464.72
1398.25	2496.34
1401.499	2510.07
1404.748	2447.47
1407.996	2431.24
1411.244	2419.87
1414.492	2403.2
1417.74	2382.58
1420.987	2392.09
1424.234	2447.19
1427.481	2422.44
1430.728	2478.54
1433.974	2454.84
1437.22	2462.18
1440.465	2461.21
1443.711	2440.05
1446.956	2466.03
1450.201	2448.65
1453.445	2493.3
1456.689	2474.86
1459.933	2488.7
1463.177	2520.97
1466.42	2494.57
1469.663	2473.14
1472.906	2473.73
1476.148	2535.53
1479.391	2528.94
1482.633	2500.06
1485.874	2513.64
1489.115	2507.45
1492.356	2503.41
1495.597	2480.46
1498.838	2478.92
1502.078	2455.11
1505.318	2416.75
1508.557	2454.39
1511.797	2442.58
1515.036	2470.6
1518.274	2460.29
1521.513	2425.64
1524.751	2445.08
1527.989	2460.07
1531.227	2474.27
1534.464	2474.42
1537.701	2485.72
1540.938	2500.85
1544.174	2454.94
1547.41	2451.72
1550.646	2485.18
1553.882	2525.33
1557.117	2579.66
1560.352	2591.05
1563.587	2552.28
1566.821	2515.35
1570.055	2544.45
1573.289	2515.9
1576.523	2584.08
1579.756	2592.77
1582.989	2607.16
1586.222	2573.22
1589.454	2609.15
1592.686	2586.12
1595.918	2610.01
1599.15	2599.92
1602.381	2664.49
1605.612	2630.31
1608.843	2725.99
1612.073	2641.29
1615.303	2624.43
1618.533	2619.45
1621.762	2624.33
1624.992	2604.39
1628.221	2597.92
1631.449	2584.8
1634.678	2630.81
1637.906	2589.99
1641.134	2623.32
1644.361	2585.73
1647.588	2576.6
1650.815	2596.84
1654.042	2571.66
1657.269	2598.33
1660.495	2560.56
1663.72	2570.63
1666.946	2538.82
1670.171	2494.82
1673.396	2470.34
1676.621	2454.64
1679.845	2467.04
1683.069	2481.04
1686.293	2517.67
1689.517	2497.34
1692.74	2436.73
1695.963	2463.45
1699.185	2485.84
1702.408	2459.45
1705.63	2496.37
1708.852	2509.51
1712.073	2485.74
1715.294	2477.83
1718.515	2534.14
1721.736	2485.18
1724.956	2473.83
1728.176	2497.72
1731.396	2519.32
1734.616	2506.3
1737.835	2538.05
1741.054	2514.98
1744.272	2506.3
1747.491	2539.02
1750.709	2580.49
1753.927	2503.23
1757.144	2540.77
1760.361	2585.94
1763.578	2573.26
1766.795	2518.66
1770.011	2520.84
1773.227	2553.19
1776.443	2589.58
1779.658	2632.34
1782.874	2573.91
1786.089	2557.58
1789.303	2558.91
1792.518	2563.44
1795.732	2552.1
1798.945	2564.07
1802.159	2610.22
1805.372	2527.07
1808.585	2515.72
1811.797	2517.86
1815.01	2557.76
1818.222	2568.16
1821.434	2546.93
1824.645	2595.69
1827.856	2591.44
1831.067	2624.65
1834.278	2574.7
1837.488	2560.06
1840.698	2697.24
1843.908	2631.4
1847.117	2594.1
1850.326	2497.26
1853.535	2582.71
1856.744	2598.34
1859.952	2520.55
1863.16	2520.37
1866.368	2539.92
1869.575	2642.41
1872.782	2532.36
1875.989	2469.86
1879.196	2539.94
1882.402	2532.91
1885.608	2571.29
1888.814	2488.82
1892.019	2393.35
1895.224	2445.37
1898.429	2422.19
1901.634	2402.7
1904.838	2379.79
1908.042	2428.41
1911.246	2439.4
1914.449	2384.33
1917.652	2376.3
1920.855	2357.29
1924.058	2399.47
1927.26	2440.04
1930.462	2465.68
1933.664	2496
1936.865	2437.62
1940.066	2451.05
1943.267	2393.27
1946.467	2408.67
1949.668	2430.9
1952.868	2499.38
1956.067	2482.78
1959.267	2417.41
1962.466	2442.64
1965.665	2428.19
1968.863	2422.25
1972.061	2432.57
1975.259	2426.62
1978.457	2508.27
1981.654	2465.03
1984.852	2467.67
1988.048	2408.64
1991.245	2404.37
1994.441	2488.59
1997.637	2464.94
2000.833	2441.89
2004.028	2480.76
2007.223	2535.82
2010.418	2517.39
2013.613	2475.61
2016.807	2455.68
2020.001	2457.35
2023.194	2493.05
2026.388	2470.73
2029.581	2418.57
2032.774	2471.22
2035.966	2481.64
2039.158	2418.43
2042.35	2441.67
2045.542	2369.95
2048.733	2459.67
2051.924	2473.2
2055.115	2495.48
2058.306	2446.52
2061.496	2505.11
2064.686	2562.2
2067.875	2470.19
2071.065	2480.96
2074.254	2504
2077.442	2457.25
2080.631	2545.23
2083.819	2454.45
2087.007	2439.77
2090.195	2415.28
2093.382	2442.55
2096.569	2425.56
2099.756	2384.62
2102.942	2422.05
2106.128	2428.77
2109.314	2419.33
2112.5	2393.52
2115.685	2366.16
2118.87	2374.76
2122.055	2434.66
2125.239	2407.18
2128.424	2389.42
2131.608	2471.25
2134.791	2452.23
2137.974	2500.89
2141.157	2489.74
2144.34	2450.53
2147.523	2456.76
2150.705	2474.61
2153.887	2452.13
2157.068	2412.69
2160.25	2405.22
2163.431	2433.1
2166.611	2392.73
2169.792	2408.46
2172.972	2311.11
2176.152	2377.34
2179.331	2408.27
2182.511	2395.47
2185.69	2422
2188.868	2417.37
2192.047	2464.35
2195.225	2466.82
2198.403	2421.49
2201.58	2407.15
2204.758	2401.53
2207.935	2482.56
2211.111	2380.77
2214.288	2367.76
2217.464	2404.51
2220.64	2370.94
2223.815	2423.74
2226.991	2350.02
2230.166	2366.59
2233.34	2400.29
2236.515	2420.38
2239.689	2489.12
2242.863	2433.73
2246.036	2491.34
2249.209	2483.05
2252.382	2512.92
2255.555	2507.48
2258.727	2451.9
2261.9	2486.13
2265.071	2480.73
2268.243	2476.91
2271.414	2419.99
2274.585	2387.87
2277.756	2452.67
2280.926	2408.58
2284.096	2446.36
2287.266	2363.15
2290.436	2413.95
2293.605	2440.54
2296.774	2474.14
2299.942	2482.89
2303.111	2502.59
2306.279	2549.45
2309.447	2536.24
2312.614	2509.19
2315.781	2529.76
2318.948	2505.27
2322.115	2541.47
2325.281	2444.4
2328.447	2457.36
2331.613	2430.5
2334.779	2415.66
2337.944	2414.04
2341.109	2413.44
2344.274	2401.79
2347.438	2368.19
2350.602	2391.02
2353.766	2402.51
2356.929	2391.13
2360.092	2432.71
2363.255	2390.9
2366.418	2340.31
2369.58	2431.62
2372.742	2260.35
2375.904	2266.68
2379.066	2244.4
2382.227	2275.58
2385.388	2239.74
2388.548	2175.49
2391.709	2225.56
2394.869	2205.01
2398.029	2288.16
2401.188	2294.58
2404.347	2240.41
2407.506	2352.36
2410.665	2387.84
2413.823	2385.94
2416.981	2353.1
2420.139	2377.89
2423.296	2423.78
2426.453	2394.37
2429.61	2418.97
2432.767	2366.75
2435.923	2403.12
2439.079	2361.08
2442.235	2404.48
2445.391	2336.05
2448.546	2368.79
2451.701	2413.56
2454.855	2393.35
2458.009	2437.01
2461.163	2434.3
2464.317	2399.03
2467.471	2430.06
2470.624	2463.1
2473.777	2442.77
2476.929	2455.33
2480.082	2478.04
2483.234	2447.53
2486.385	2396.15
2489.537	2390.04
2492.688	2362.68
2495.839	2380.04
2498.989	2392.43
2502.14	2376.68
2505.29	2364.93
2508.439	2389.61
2511.589	2321.51
2514.738	2329.55
2517.887	2355.83
2521.035	2424.63
2524.183	2398.89
2527.331	2381.81
2530.479	2364.4
2533.627	2371.36
