Data from C_2_DIV_OH_2N_Splice17_12-22-29-217.txt Node
Date: Sat Mar 14 12:22:29 EDT 2020
User: sa697716
Spectrometer: FLMS03696
Trigger mode: 0
Integration Time (sec): 3.180400E-1
Scans to average: 20
Electric dark correction enabled: true
Nonlinearity correction enabled: true
Boxcar width: 5
XAxis mode: Wavelengths
Number of Pixels in Spectrum: 2048
>>>>>Begin Spectral Data<<<<<
187.83	-326597.95
188.298	2323.2
188.766	1237.42
189.233	1089.31
189.701	1555.1
190.169	2248.19
190.636	874.3
191.104	813.02
191.571	195.83
192.039	11.33
192.506	-47.63
192.974	409.05
193.441	-823.57
193.908	-93.33
194.375	-29.04
194.842	49.91
195.31	229.9
195.777	224.82
196.244	679.64
196.711	1300.92
197.177	1752.41
197.644	2668.49
198.111	4670.03
198.578	6565.3
199.045	5234.35
199.511	8587.09
199.978	10097.77
200.445	8382.8
200.911	9290.77
201.378	10467.47
201.844	9227.8
202.31	15650.11
202.777	16085.61
203.243	8787.48
203.709	8291.83
204.176	9769.39
204.642	7958.99
205.108	7335.76
205.574	5993.02
206.04	5489.15
206.506	5091.76
206.972	4815.89
207.438	4611.55
207.903	5207.04
208.369	4486.27
208.835	4385.28
209.301	4546.25
209.766	4631.09
210.232	4541.9
210.697	5581.51
211.163	6808.03
211.628	10236.13
212.094	8415.23
212.559	10036.2
213.024	6126.3
213.49	7382.5
213.955	7161.53
214.42	6984.02
214.885	6399.88
215.35	6025.56
215.815	5563.6
216.28	5754.87
216.745	4546.64
217.21	4697.78
217.675	4149.13
218.14	4398.54
218.604	4595.84
219.069	4857.69
219.534	4685.4
219.998	5044.04
220.463	5644.64
220.927	6450.92
221.392	5672.77
221.856	5372.97
222.32	6386.52
222.785	7479.17
223.249	8954.85
223.713	9572.52
224.177	9212.32
224.642	11386.76
225.106	13623.17
225.57	14505.98
226.034	10554.81
226.497	15641.84
226.961	13830.46
227.425	15765.84
227.889	17099.82
228.353	16754.51
228.816	33923.26
229.28	31916.81
229.744	26460.12
230.207	15852.14
230.671	15380.61
231.134	24967.02
231.597	28491.73
232.061	28086.37
232.524	27022.63
232.987	18423.07
233.45	16448.87
233.914	14614.46
234.377	14776.37
234.84	13445.07
235.303	15689.03
235.766	17350.74
236.229	17816.44
236.691	11132.19
237.154	12465.27
237.617	9342.65
238.08	9533.55
238.542	11114.53
239.005	7931.78
239.468	7880.86
239.93	7395.33
240.393	6713.83
240.855	5889.93
241.317	6029.62
241.78	7319.09
242.242	7561.32
242.704	8191.83
243.166	7125.18
243.629	6478.12
244.091	7452.69
244.553	8139.72
245.015	8731.43
245.477	11271.24
245.939	16487.78
246.4	17481.21
246.862	16961.96
247.324	15947.13
247.786	17740.86
248.247	23199.74
248.709	23831.17
249.17	17794.52
249.632	16823.88
250.093	19562.47
250.555	16890.15
251.016	10318.6
251.477	9781.43
251.939	10556.41
252.4	11074.82
252.861	13193.97
253.322	12263.1
253.783	14608.58
254.244	18946.39
254.705	14907.46
255.166	13235.17
255.627	13019.93
256.088	18377.5
256.549	19515.2
257.009	16784.58
257.47	20318.72
257.931	16514.08
258.391	12385.04
258.852	12714.08
259.312	13299.81
259.773	16367
260.233	13806.04
260.694	11659.01
261.154	13132.69
261.614	10549.17
262.074	9389.61
262.534	9729.99
262.994	9132.65
263.455	12098.56
263.915	10151.06
264.374	9504.14
264.834	10313.49
265.294	11331.47
265.754	11650.75
266.214	10967.41
266.673	10210.2
267.133	12821.61
267.593	12651.65
268.052	15425.76
268.512	13357.41
268.971	16126.96
269.431	17665.12
269.89	15817.39
270.349	23744.48
270.809	26465.58
271.268	23831.56
271.727	53319.66
272.186	34552.01
272.645	25941.17
273.104	18658.97
273.563	27039.08
274.022	21214.63
274.481	18101.41
274.94	13981.03
275.399	10384.21
275.857	12102.26
276.316	16387.55
276.775	14638.6
277.233	14474.35
277.692	13623.88
278.15	15508.61
278.609	16043.4
279.067	14894.06
279.525	13882.29
279.984	17992.27
280.442	21792.69
280.9	21651.21
281.358	14322.61
281.816	13404.26
282.274	13180.63
282.732	13648.09
283.19	13778.18
283.648	11959.13
284.106	12822.26
284.564	13118.8
285.021	12224.81
285.479	9148.33
285.937	8345.71
286.394	7389.24
286.852	7649.07
287.309	8104.61
287.767	7897.51
288.224	7544.31
288.682	8302.97
289.139	9154.28
289.596	8399.2
290.053	8738.65
290.511	11013.5
290.968	13354.96
291.425	18012.87
291.882	14993.46
292.339	12978.6
292.796	12811.63
293.252	12063.73
293.709	9584.19
294.166	8559.07
294.623	9422.65
295.079	9023.79
295.536	9070.64
295.992	8224.8
296.449	8127.97
296.905	8425.27
297.362	8115.51
297.818	8528.37
298.274	8842.73
298.731	8994.46
299.187	8906.05
299.643	9573.91
300.099	11603.98
300.555	12713.15
301.011	10636.85
301.467	10319.12
301.923	12089.66
302.379	11798.54
302.835	11604.76
303.291	11655.16
303.746	13312.25
304.202	16860.4
304.658	16990.6
305.113	11451.06
305.569	11270.59
306.024	12057.47
306.479	11491.61
306.935	9751.22
307.39	10703.45
307.845	9951.66
308.301	10074.59
308.756	9849.87
309.211	9549.34
309.666	9829.24
310.121	12336.14
310.576	12609.19
311.031	12580.11
311.486	14485.57
311.94	14537.36
312.395	19547.99
312.85	36934.55
313.305	182486.7
313.759	952654.6
314.214	69438.88
314.668	55406.52
315.123	46623.7
315.577	16791.22
316.032	15006.53
316.486	18853.66
316.94	14961.13
317.394	10451.62
317.849	8128.74
318.303	7668.64
318.757	7241.02
319.211	7992.8
319.665	6990.94
320.119	7066.98
320.572	10101.4
321.026	9433.65
321.48	7865.85
321.934	8537.97
322.387	8521.48
322.841	9213.89
323.295	8337.88
323.748	9583
324.202	9733.14
324.655	11709.42
325.108	16424.8
325.562	11652.96
326.015	13859.18
326.468	10483.94
326.921	11772.13
327.374	11032.96
327.827	11542.59
328.28	13090.88
328.733	8813.46
329.186	7791.11
329.639	7444.77
330.092	6293.4
330.545	6033.7
330.997	6118.12
331.45	6725.1
331.903	7911.6
332.355	13690.76
332.808	13335.91
333.26	11046.99
333.713	12072.11
334.165	12202.42
334.617	16369.82
335.069	13274.83
335.522	24036.58
335.974	26751.03
336.426	24581.43
336.878	17101.55
337.33	8710.51
337.782	8557.76
338.234	10779.84
338.686	12934.16
339.137	15390.21
339.589	14516.02
340.041	11420.22
340.493	9835.76
340.944	10078.63
341.396	10851.55
341.847	9164.4
342.299	10810.56
342.75	13183.95
343.201	11481.99
343.653	13158.45
344.104	16136.06
344.555	12714.65
345.006	19659.34
345.457	15074.67
345.908	11975.08
346.359	11268.89
346.81	9158.87
347.261	9635.71
347.712	9481.73
348.163	10181.62
348.613	10347.2
349.064	9670.94
349.515	8461.67
349.965	8732.57
350.416	10515.86
350.866	11561.5
351.317	13063.99
351.767	21681.68
352.217	27440.03
352.668	22864.66
353.118	21002.39
353.568	20255.23
354.018	16097.82
354.468	17078.41
354.918	12305.19
355.368	10825.08
355.818	15326.94
356.268	44325.24
356.718	186035.07
357.168	46562.26
357.617	23427.78
358.067	26083.23
358.517	24596.67
358.966	28917.56
359.416	32623.25
359.865	35320.98
360.315	42107.12
360.764	19701.67
361.213	11067.47
361.663	10521.82
362.112	13049.19
362.561	21154.7
363.01	16031.35
363.459	13482.61
363.908	14620.22
364.357	12456.03
364.806	21055.55
365.255	14530.4
365.703	13415.39
366.152	13517.44
366.601	10987.6
367.05	8936.04
367.498	8159.63
367.947	8553.46
368.395	8949.77
368.844	7981.4
369.292	9613.23
369.74	6687.44
370.189	10295.13
370.637	12079.66
371.085	10439.43
371.533	12779.7
371.981	12373.11
372.429	11851.39
372.877	12433.55
373.325	10457.79
373.773	10687.45
374.221	9545
374.669	11897.84
375.116	10328.07
375.564	10477.42
376.012	11785.17
376.459	9745.72
376.907	11688.09
377.354	14174.76
377.801	13280.44
378.249	15406.03
378.696	19818.52
379.143	24246.41
379.591	26019.83
380.038	44509.99
380.485	32564.84
380.932	35553.06
381.379	33134.84
381.826	24912.59
382.273	18083.21
382.72	16186.8
383.166	16158.14
383.613	10833.34
384.06	10124.6
384.506	12200.01
384.953	9365.99
385.4	9913.47
385.846	9253.19
386.292	9705.44
386.739	10310.38
387.185	11167.62
387.631	12307.22
388.078	13220.07
388.524	15600.76
388.97	15720.39
389.416	14072.36
389.862	15845.72
390.308	15872.32
390.754	17203.22
391.2	20300.43
391.645	22918.73
392.091	24122.78
392.537	25506.51
392.983	27568.49
393.428	28577.31
393.874	32564.96
394.319	35442.99
394.765	37366.74
395.21	43239.91
395.655	45367.81
396.101	46905.78
396.546	46203.63
396.991	50787.03
397.436	50987.28
397.881	53308.82
398.326	54993.94
398.771	55982.54
399.216	52538.26
399.661	50112.59
400.106	52123.19
400.551	55314.54
400.995	51209.29
401.44	51989
401.885	49880.88
402.329	51269.92
402.774	49815.15
403.218	48568.42
403.663	47532.2
404.107	49496.31
404.551	50527.09
404.995	47162.6
405.44	46327.21
405.884	47896.7
406.328	47180.53
406.772	47754.76
407.216	44219.8
407.66	43647.29
408.104	42559.44
408.547	40602.04
408.991	39962.48
409.435	39057.04
409.879	38903.4
410.322	38841.19
410.766	37895.4
411.209	36489.26
411.653	35614.72
412.096	35374.09
412.54	35949.33
412.983	36179.88
413.426	36640.15
413.869	37115.58
414.312	36844.67
414.756	36094.15
415.199	34956.23
415.642	34387.35
416.085	34859.6
416.527	35027.71
416.97	36008.97
417.413	34371.91
417.856	34214.38
418.298	33976.95
418.741	33810.28
419.184	33800.31
419.626	35316.76
420.069	35285.24
420.511	35511.46
420.953	34747.43
421.396	34531.94
421.838	33835.97
422.28	34750.98
422.722	35140.15
423.164	36114.19
423.606	35923.3
424.048	36328.51
424.49	34746.32
424.932	34957.72
425.374	34824.25
425.816	35742.22
426.258	36443.83
426.699	36597.53
427.141	35589.46
427.582	35834.17
428.024	35419.19
428.465	35250.52
428.907	34520.27
429.348	34425.71
429.789	34595.38
430.231	33990.9
430.672	34572.6
431.113	34081.41
431.554	34126.69
431.995	34215.96
432.436	33624.48
432.877	33493.22
433.318	33279.51
433.759	33577.57
434.2	33899.86
434.64	33921.99
435.081	34373.09
435.522	33021.36
435.962	32275.84
436.403	32017.96
436.843	32937.76
437.284	32719.42
437.724	32276.31
438.164	32828.21
438.604	32372.34
439.045	31257.15
439.485	30040.77
439.925	29661.85
440.365	29140.55
440.805	28952.2
441.245	28577.55
441.685	27584.3
442.125	27458.77
442.564	27666.24
443.004	26966.14
443.444	26922.87
443.883	26999.28
444.323	27008.57
444.762	27293.45
445.202	27746.53
445.641	28188.33
446.081	28272.57
446.52	28436.89
446.959	28153.19
447.398	27460.16
447.837	27185.14
448.276	26742.84
448.716	26999.05
449.154	27256.12
449.593	26446.68
450.032	26214.73
450.471	25711.26
450.91	25574.91
451.349	25303.89
451.787	25071.93
452.226	25251.44
452.664	25063.07
453.103	24894.19
453.541	24648.51
453.98	24193.21
454.418	24075.15
454.856	23363.66
455.295	23087.5
455.733	22939.24
456.171	22854.66
456.609	22603.33
457.047	22301.81
457.485	22347.26
457.923	22165.14
458.361	21752.4
458.798	21786.48
459.236	21671.58
459.674	21890.28
460.111	21942.87
460.549	21777.71
460.987	21795.62
461.424	21782.98
461.862	21784.59
462.299	21525.83
462.736	21514.55
463.173	21676.84
463.611	21395.88
464.048	21410.32
464.485	21635.93
464.922	21560.36
465.359	21585.61
465.796	21032.05
466.233	21003.95
466.67	20849.3
467.106	20878.14
467.543	20859.56
467.98	20712.7
468.416	20402.16
468.853	20386.51
469.29	19884.28
469.726	19750.08
470.162	19284.39
470.599	19360.56
471.035	19237.79
471.471	18829.29
471.907	18807.11
472.344	18691.36
472.78	18654.54
473.216	18832.97
473.652	18499.87
474.088	18367.73
474.523	18131.2
474.959	18166.22
475.395	17856.92
475.831	17557.48
476.266	17494.11
476.702	17277.15
477.138	16881.55
477.573	16648.93
478.008	16367.48
478.444	16187.8
478.879	16064.54
479.314	15925.5
479.75	15691.57
480.185	15569.19
480.62	15496.06
481.055	15364.78
481.49	15225.43
481.925	15208.81
482.36	15159.56
482.795	15348.24
483.229	15548.16
483.664	15628.13
484.099	15452.18
484.534	15432.45
484.968	15349.04
485.403	15190.16
485.837	14999.52
486.271	14790.47
486.706	14626.42
487.14	14369.15
487.574	13994.96
488.009	13738.79
488.443	13504.79
488.877	13487.73
489.311	13418.54
489.745	13438.17
490.179	13427.62
490.613	13489.13
491.046	13488.74
491.48	13480.11
491.914	13373.38
492.348	13364.3
492.781	13335.29
493.215	13278.62
493.648	13244.21
494.082	13257.3
494.515	13176.96
494.948	13217.3
495.382	13252.2
495.815	13230.53
496.248	13225
496.681	13363.7
497.114	13478.98
497.547	13539.97
497.98	13626.99
498.413	13574.49
498.846	13603.78
499.279	13627.18
499.711	13584.52
500.144	13492.06
500.577	13516.56
501.009	13568.41
501.442	13565.8
501.874	13415.47
502.306	13326.03
502.739	13258.3
503.171	13380.16
503.603	13284.61
504.036	13279.26
504.468	13207.83
504.9	13219.18
505.332	13166.14
505.764	13059.01
506.196	13004.3
506.627	13047.95
507.059	13056.16
507.491	13053.55
507.923	12816.12
508.354	12829.05
508.786	12784.42
509.217	12824.96
509.649	12829.29
510.08	12885.47
510.512	12894.75
510.943	12894.42
511.374	12847.98
511.805	12896.77
512.237	12938.83
512.668	13145.97
513.099	13277.47
513.53	13385.26
513.961	13403.33
514.391	13535.69
514.822	13645.05
515.253	13802.54
515.684	13836.77
516.114	13909.42
516.545	13880.89
516.975	13900.45
517.406	13833.09
517.836	13628.55
518.267	13461.24
518.697	13403.56
519.127	13229.47
519.558	13099.27
519.988	12934.4
520.418	12835.35
520.848	12796.41
521.278	12692.18
521.708	12315.82
522.138	12260
522.567	12351.52
522.997	12397.88
523.427	12373.39
523.857	12351.21
524.286	12294.18
524.716	12273.78
525.145	12277.89
525.575	12238.78
526.004	12235.66
526.433	12379.19
526.863	12278.78
527.292	12095.24
527.721	12038.67
528.15	12001.14
528.579	11928.16
529.008	11934.5
529.437	12028.81
529.866	12058.92
530.295	12111.14
530.724	12118.88
531.152	12235.25
531.581	12258.54
532.01	12324.62
532.438	12328.94
532.867	12377.36
533.295	12453.21
533.723	12445.18
534.152	12383.97
534.58	12337.87
535.008	12193.94
535.436	12171.18
535.865	12193.82
536.293	12268.27
536.721	12348.77
537.149	12486.65
537.576	12477.15
538.004	12548.4
538.432	12591.25
538.86	12568.37
539.287	12614.06
539.715	12700.84
540.143	12732.92
540.57	12718.57
540.998	12710.61
541.425	12554.66
541.852	12444.06
542.28	12458.06
542.707	12378.79
543.134	12306.65
543.561	12300.47
543.988	12273.02
544.415	12301.49
544.842	12293.12
545.269	12265.65
545.696	12296.02
546.123	12427.63
546.549	12381
546.976	12313.87
547.403	12328.71
547.829	12372.13
548.256	12420.02
548.682	12418.77
549.108	12386.45
549.535	12411.35
549.961	12452.53
550.387	12386.48
550.813	12361.09
551.24	12429.84
551.666	12462.08
552.092	12416.9
552.518	12398.03
552.943	12368.68
553.369	12452.56
553.795	12520.23
554.221	12540.01
554.646	12538.5
555.072	12611.55
555.498	12670.57
555.923	12750.61
556.349	12867.57
556.774	12943.55
557.199	12960.88
557.625	13033.3
558.05	12994.75
558.475	13078.72
558.9	13081.8
559.325	13029.39
559.75	13007.2
560.175	12974.92
560.6	12946.21
561.025	12942.18
561.449	12961.07
561.874	13007.29
562.299	13027.93
562.723	13088.82
563.148	13011.89
563.572	13039.13
563.997	13111.15
564.421	13150.51
564.846	13149.49
565.27	13157.44
565.694	13134.52
566.118	13192.41
566.542	13223.52
566.966	13161.78
567.39	13102.37
567.814	13007.8
568.238	12995.77
568.662	13025.91
569.086	13038.18
569.509	13103.32
569.933	13003.13
570.357	12982.51
570.78	12872.79
571.204	12815.08
571.627	12798
572.05	12855.56
572.474	12925.36
572.897	12924.96
573.32	12957.35
573.743	12996.62
574.166	12951.24
574.589	13069.77
575.012	13118.8
575.435	13233.92
575.858	13288.39
576.281	13329.04
576.704	13335.37
577.126	13375.78
577.549	13408.9
577.972	13466.74
578.394	13499.65
578.817	13547.09
579.239	13518.51
579.661	13525.34
580.084	13492.1
580.506	13507.49
580.928	13597.16
581.35	13623.89
581.772	13697.4
582.194	13694.5
582.616	13686.55
583.038	13682.96
583.46	13718.27
583.882	13791.72
584.303	13944.27
584.725	14030.64
585.147	14090
585.568	14269.87
585.99	14450.85
586.411	14589.2
586.833	14800.8
587.254	14888.67
587.675	15098.7
588.096	15297.99
588.518	15320.11
588.939	15223.22
589.36	15263.87
589.781	15293.05
590.202	15035.02
590.623	15017.75
591.043	15052.25
591.464	14969.52
591.885	14965.43
592.305	14938.92
592.726	14817.19
593.147	14828.01
593.567	14772.12
593.987	14682.17
594.408	14611.02
594.828	14609.3
595.248	14497.93
595.669	14249.19
596.089	14124.12
596.509	14012.95
596.929	13805.59
597.349	13742.69
597.769	13577.94
598.189	13437.66
598.608	13382.15
599.028	13323.84
599.448	13255.13
599.867	13078.28
600.287	12996.92
600.706	12894.26
601.126	12740.37
601.545	12677.37
601.965	12632.26
602.384	12558.2
602.803	12569.39
603.222	12502.65
603.641	12440.76
604.061	12401.36
604.48	12381.51
604.898	12478.11
605.317	12562.72
605.736	12625.42
606.155	12641.48
606.574	12605.65
606.992	12712.91
607.411	12723.66
607.829	12728.62
608.248	12775.6
608.666	12836.46
609.085	12903.73
609.503	12891.76
609.921	12906.61
610.339	13007.62
610.758	13095.31
611.176	13137.9
611.594	13130.6
612.012	13186.09
612.43	13288.58
612.847	13437.76
613.265	13513.47
613.683	13649.03
614.101	13754.4
614.518	13814.76
614.936	13797.36
615.353	13721.85
615.771	13763.84
616.188	13846.05
616.606	13887.06
617.023	13895.33
617.44	13813.48
617.857	13830.78
618.274	13811.57
618.691	13803.15
619.108	13766.94
619.525	13765.96
619.942	13892.18
620.359	13975.68
620.776	13973.71
621.192	13967.39
621.609	13986.93
622.026	14095.7
622.442	14201.91
622.859	14279.53
623.275	14243.11
623.691	14335.87
624.108	14498.73
624.524	14704.14
624.94	14740.53
625.356	14885.68
625.772	15080.78
626.188	15255.05
626.604	15307.31
627.02	15290.19
627.436	15287.05
627.852	15383.76
628.268	15545.71
628.683	15480.99
629.099	15418.02
629.514	15407.33
629.93	15491.69
630.345	15588.56
630.761	15590.35
631.176	15683.47
631.591	15639.51
632.007	15624.94
632.422	15687.06
632.837	15629.46
633.252	15654.14
633.667	15608
634.082	15570.05
634.497	15495.31
634.911	15322.06
635.326	15370.99
635.741	15258.6
636.155	15264.01
636.57	15382.78
636.984	15496.71
637.399	15623.85
637.813	15768.11
638.228	15887.47
638.642	16103.1
639.056	16126.54
639.47	16311.43
639.884	16364.3
640.298	16451.08
640.712	16599.3
641.126	16606.96
641.54	16676.24
641.954	16821.37
642.368	16821.48
642.781	16852.54
643.195	16779.43
643.609	16972.78
644.022	17079
644.436	17208.96
644.849	17229.35
645.262	17241.06
645.676	17472.12
646.089	17566.5
646.502	17468.14
646.915	17556.44
647.328	17481.48
647.741	17588.56
648.154	17515.19
648.567	17539.85
648.98	17428.52
649.393	17548.38
649.805	17601.11
650.218	17581.87
650.631	17383.85
651.043	17383.78
651.456	17359.15
651.868	17466.12
652.28	17868.93
652.693	18191.95
653.105	18398.15
653.517	18622.47
653.929	18661.79
654.341	18819.4
654.753	18650.05
655.165	18877.5
655.577	18944.34
655.989	19003.82
656.401	19011.85
656.813	18445.78
657.224	18230.64
657.636	17916.09
658.047	17761.71
658.459	17600.62
658.87	17657.65
659.282	17651.26
659.693	17410.94
660.104	17293.23
660.515	17201.46
660.926	17348.72
661.338	17501.48
661.749	17568.02
662.159	17524.28
662.57	17644.29
662.981	17731.85
663.392	17733.71
663.803	17983.43
664.213	18124.89
664.624	18216.52
665.035	18456.26
665.445	18301.79
665.855	18257.79
666.266	18178.4
666.676	18262.28
667.086	18167.91
667.497	18233.67
667.907	18187.93
668.317	18061.6
668.727	17960.16
669.137	18056.57
669.547	18049.6
669.956	18172.53
670.366	18267.67
670.776	18345.56
671.186	18480.29
671.595	18568.2
672.005	18694.88
672.414	18661.46
672.824	18599.55
673.233	18801.98
673.642	18836.95
674.052	18872.97
674.461	18870.82
674.87	18976.44
675.279	18866.42
675.688	18908.11
676.097	18878.67
676.506	18756.64
676.915	19089.63
677.323	19128.87
677.732	19049.27
678.141	19005.71
678.549	18732.84
678.958	18692.45
679.366	18632.88
679.775	18732.24
680.183	18811.07
680.592	18883.5
681	18914.3
681.408	18625.57
681.816	18673.48
682.224	18737.73
682.632	18733.36
683.04	19185.01
683.448	19466.7
683.856	19778.42
684.264	20107.26
684.671	20389.68
685.079	20745.94
685.487	21128.12
685.894	21806.37
686.302	22196.77
686.709	22310.03
687.116	22536.4
687.524	22511.46
687.931	22370.32
688.338	22180.3
688.745	21958.43
689.152	21764.11
689.559	21695.85
689.966	21552.53
690.373	21069.72
690.78	20842.37
691.187	20902.65
691.593	20724.72
692	20477.12
692.407	20452.11
692.813	20531.73
693.22	20449.64
693.626	20426.53
694.032	20244.19
694.439	20342.61
694.845	20302.14
695.251	20409.06
695.657	20430.67
696.063	20764.22
696.469	20835.52
696.875	20856.47
697.281	20652.96
697.687	20503.26
698.093	20275.19
698.498	20347.17
698.904	20302.47
699.31	20471.25
699.715	20432.36
700.12	20635.46
700.526	20337.22
700.931	20433.94
701.337	20412.21
701.742	20288.63
702.147	20511.46
702.552	20397.92
702.957	20493.5
703.362	20338.92
703.767	20252.12
704.172	20262.15
704.577	19749.99
704.981	19808.56
705.386	19668.73
705.791	19404.87
706.195	19621.56
706.6	19465.62
707.004	19725.52
707.408	19362.95
707.813	19321.96
708.217	19068.18
708.621	18903.62
709.025	19248.17
709.43	19070.11
709.834	19216.73
710.237	19424.31
710.641	19190.51
711.045	19148.35
711.449	18959.42
711.853	18933.88
712.256	18999.55
712.66	19041.65
713.064	19255.95
713.467	19265.02
713.87	19585.94
714.274	19527.56
714.677	19713.34
715.08	20086.66
715.484	20443.04
715.887	20881.49
716.29	21311.24
716.693	21705.51
717.096	22207.72
717.499	22290.51
717.901	22057.42
718.304	21962.25
718.707	22004.08
719.109	21646.14
719.512	21625.75
719.915	21183.77
720.317	21080.9
720.719	21329.33
721.122	21280.19
721.524	21129.87
721.926	20952.79
722.328	21300.24
722.731	21138.16
723.133	21070.66
723.535	21619.44
723.937	21476.04
724.338	21483.44
724.74	21461.11
725.142	20868.62
725.544	20782.41
725.945	20765.02
726.347	20710.18
726.748	20621.54
727.15	20627.58
727.551	20423.84
727.952	20274.24
728.354	20130.15
728.755	20123.84
729.156	20000.34
729.557	20219.85
729.958	19828.51
730.359	19750.83
730.76	19782.57
731.161	19676.74
731.562	19696.25
731.962	19840.62
732.363	19697.34
732.763	19547.66
733.164	19769.57
733.564	19553.44
733.965	19206.8
734.365	19092.88
734.766	19210.06
735.166	19049.37
735.566	18807.86
735.966	18670.48
736.366	18609.93
736.766	18355.51
737.166	18469.17
737.566	18300.45
737.966	18196.29
738.365	18334.96
738.765	18287.77
739.165	17986.94
739.564	17877.86
739.964	18058.81
740.363	17899.72
740.763	17911.96
741.162	17871.02
741.561	17749.73
741.96	17577.93
742.36	17667.03
742.759	17700.89
743.158	17874.77
743.557	17948.98
743.955	18111.39
744.354	17936.37
744.753	18156.17
745.152	17981.15
745.55	18189.8
745.949	18150.06
746.348	18133.94
746.746	18174.48
747.144	17973.62
747.543	17852.16
747.941	17989.52
748.339	17676.19
748.737	17597.68
749.136	17504.58
749.534	17703
749.932	17532.33
750.33	17566.25
750.727	17724.24
751.125	17578.88
751.523	17480.24
751.921	17569.35
752.318	17389.33
752.716	17544.99
753.113	17542.16
753.511	17578.2
753.908	17514.9
754.305	17382.2
754.703	17548.23
755.1	17694.02
755.497	17843.03
755.894	18416.61
756.291	18828.38
756.688	19529.84
757.085	20269.39
757.482	21176.06
757.878	21900.22
758.275	22263.39
758.672	23197.93
759.068	23601.68
759.465	24539.38
759.861	25770.2
760.258	27092.74
760.654	27032.78
761.05	25840.65
761.447	24514.55
761.843	23357.36
762.239	22435.19
762.635	22500.03
763.031	22444.91
763.427	21898.75
763.822	21281.41
764.218	20730.63
764.614	19715.53
765.01	19252.34
765.405	19167.17
765.801	19184.73
766.196	18887.06
766.592	18906.81
766.987	18434.63
767.382	18183.74
767.778	18241.55
768.173	18092.95
768.568	18058.32
768.963	17796.22
769.358	17960.7
769.753	17883.15
770.148	17664.66
770.542	17710.32
770.937	17638.91
771.332	17963.52
771.726	18032.83
772.121	17798.96
772.515	17972.38
772.91	17918.79
773.304	18154.81
773.699	17926.53
774.093	18097.21
774.487	18267.4
774.881	18386.98
775.275	18339.46
775.669	18177
776.063	18297.69
776.457	18400.44
776.851	18119.44
777.245	18049.09
777.638	18111.64
778.032	18454.46
778.425	18284.43
778.819	18367.19
779.212	18177.64
779.606	18005.24
779.999	18029.51
780.392	17921.52
780.786	18149.41
781.179	18162.94
781.572	18250.45
781.965	18241.6
782.358	17994.48
782.751	18124.05
783.143	17917.24
783.536	18088.28
783.929	18156.06
784.322	18438.88
784.714	18461.2
785.107	18352.12
785.499	18479.74
785.891	18303.29
786.284	18131.57
786.676	18445.6
787.068	18250.24
787.46	18279.83
787.852	18218.91
788.245	18354.85
788.636	18321.85
789.028	18394.32
789.42	18386.88
789.812	18299.25
790.204	18479.86
790.595	18665.53
790.987	18021.46
791.378	18014.07
791.77	18310.67
792.161	18618.15
792.553	18689.59
792.944	18293.26
793.335	18017.27
793.726	18135.06
794.117	18305.17
794.508	18614.66
794.899	18471.33
795.29	18787.85
795.681	18875.05
796.072	18410.91
796.463	17770.18
796.853	17701.81
797.244	18026.54
797.634	18023.94
798.025	17929.56
798.415	17869.33
798.806	17986.29
799.196	18080.04
799.586	18069.74
799.976	17821.17
800.366	18272.46
800.756	18800.41
801.146	18576.57
801.536	18528.53
801.926	18600.34
802.316	18562.49
802.706	18632.07
803.095	18240.96
803.485	18402.8
803.874	18425.73
804.264	18976.46
804.653	18818.98
805.043	19059.73
805.432	19206.89
805.821	19094.31
806.21	19015.09
806.599	19141.17
806.988	19078.61
807.377	19141.86
807.766	19232.91
808.155	19643.77
808.544	18838.85
808.933	18628.72
809.321	18337.13
809.71	18704.32
810.098	18737.81
810.487	19345.52
810.875	19939.06
811.264	19576.89
811.652	19672.85
812.04	19479.12
812.428	19296.15
812.816	20153.34
813.204	20339.89
813.592	20710.83
813.98	20719.07
814.368	20067.09
814.756	20375.56
815.144	19840.41
815.531	20185.49
815.919	19796.78
816.306	19992.86
816.694	19340.81
817.081	19294.95
817.469	19764.79
817.856	19816.16
818.243	20272.05
818.63	20891.02
819.017	20298.26
819.404	20293.87
819.791	20636.96
820.178	21237.24
820.565	21339.01
820.952	22440.79
821.339	21609.77
821.725	21701.96
822.112	20507.66
822.498	20254.52
822.885	20237.94
823.271	19987.37
823.657	20554.22
824.044	20662.72
824.43	20864.66
824.816	20856.18
825.202	20226.9
825.588	21437.12
825.974	21257.36
826.36	21701.13
826.746	21530.94
827.132	21785.05
827.517	21521.56
827.903	20299.1
828.289	20131.26
828.674	19005.04
829.06	18742.02
829.445	19093.77
829.83	19404.15
830.216	19860.55
830.601	20182.45
830.986	19591.36
831.371	19340.89
831.756	19923.46
832.141	19362.55
832.526	19300.24
832.911	19582.59
833.295	19423.76
833.68	19939.78
834.065	19205.08
834.449	18148.4
834.834	18057.96
835.218	18045.27
835.603	18413.44
835.987	18131.01
836.371	19044.13
836.755	18887.22
837.139	19296.32
837.524	19514.05
837.908	19251.02
838.291	19254.96
838.675	19261.21
839.059	19428.59
839.443	19345.33
839.827	19014.55
840.21	19464.7
840.594	19208.61
840.977	19337.73
841.361	19221.29
841.744	19538.87
842.127	19286.65
842.511	19474.57
842.894	20033.35
843.277	20349.13
843.66	20827.78
844.043	20820.92
844.426	19896.38
844.809	19493.02
845.191	19448.28
845.574	18892.47
845.957	18427
846.339	18202.36
846.722	17529.24
847.104	17443.93
847.487	17129.74
847.869	17010.09
848.252	17154.08
848.634	17336.06
849.016	17463.72
849.398	17460.09
849.78	18146.42
850.162	18018.25
850.544	18266.08
850.926	18676.99
851.307	18404.29
851.689	18456.2
852.071	18682.38
852.452	18807.8
852.834	18655.1
853.215	18884.15
853.597	18885.05
853.978	19033.66
854.359	19329.39
854.741	18419.26
855.122	18348.14
855.503	18147.11
855.884	18325.52
856.265	18311.63
856.646	18413.26
857.026	18048.81
857.407	17954.32
857.788	18052.8
858.169	18249.18
858.549	17460.24
858.93	17923.99
859.31	17886.19
859.69	17994.57
860.071	17574.7
860.451	17312.62
860.831	16617.53
861.211	17505.86
861.591	17873.5
861.971	17759.16
862.351	17807.97
862.731	17976.03
863.111	18026.3
863.491	18107.29
863.87	18605.78
864.25	18692.86
864.629	18202.2
865.009	18430.29
865.388	18931.55
865.768	20129.57
866.147	19904.59
866.526	18688.77
866.905	18850.6
867.284	19873.38
867.663	18868.48
868.042	18102.1
868.421	18036.39
868.8	18315.93
869.179	18492.13
869.558	17393.23
869.936	16017.09
870.315	16271.64
870.693	16629.02
871.072	17883.52
871.45	16995.25
871.828	17161.96
872.207	17978.15
872.585	17643.12
872.963	18056.88
873.341	17368.3
873.719	17109.83
874.097	16838.35
874.475	17104.82
874.853	17446.23
875.23	16682.17
875.608	17329.15
875.986	18687.98
876.363	17822.4
876.741	18332.85
877.118	17818.45
877.495	18630.56
877.873	18866.37
878.25	19764.65
878.627	18877.73
879.004	19079.51
879.381	18909.03
879.758	18352.71
880.135	17025.2
880.512	17932.32
880.889	17373.85
881.265	17142.23
881.642	16939.89
882.019	17180.26
882.395	16793.49
882.772	17422
883.148	16599.5
883.524	16475.4
883.901	16320.59
884.277	16498.75
884.653	16324.12
885.029	16738.85
885.405	18465.46
885.781	18261.28
886.157	17444.33
886.532	17596.8
886.908	17521.32
887.284	19417.01
887.659	19984.64
888.035	20539.71
888.411	21002.85
888.786	21227.52
889.161	21879.94
889.537	21387.6
889.912	21956.36
890.287	21803.15
890.662	22216.18
891.037	21666.34
891.412	20061.68
891.787	19702.35
892.162	18828.24
892.536	19065
892.911	18123.33
893.286	17501.52
893.66	16566.4
894.035	16742.55
894.409	17961.2
894.784	16993.53
895.158	17015.05
895.532	17741.3
895.906	17921.49
896.281	18035.69
896.655	17460.87
897.029	19658.14
897.402	20220.89
897.776	22230.84
898.15	21919.81
898.524	21461.72
898.898	21529.89
899.271	23908.21
899.645	20558.36
900.018	19668.28
900.392	20401.95
900.765	20628.12
901.138	19179.33
901.511	18989.4
901.884	17567.06
902.258	16346.62
902.631	17047.27
903.003	19796.97
903.376	18000.96
903.749	20342.19
904.122	21887
904.495	24128.71
904.867	24400.24
905.24	21101.73
905.612	19518.44
905.985	19810.36
906.357	20501.42
906.729	19358.48
907.102	16355.15
907.474	15551.63
907.846	15462.89
908.218	15118.44
908.59	13270.75
908.962	12748.91
909.334	13656.69
909.705	14299.86
910.077	13821.87
910.449	14327.03
910.82	14678.28
911.192	16100.64
911.563	16686.91
911.935	17828.31
912.306	17810.99
912.677	18338.32
913.048	18123.33
913.419	19585.66
913.79	19596.88
914.161	20941.69
914.532	19994.62
914.903	18315.75
915.274	17360.77
915.645	17103
916.015	15037.26
916.386	14334.47
916.756	15288.98
917.127	15812
917.497	14200.96
917.868	15560.93
918.238	14890.09
918.608	15411.06
918.978	15857.41
919.348	16913.59
919.718	17593.03
920.088	17083.11
920.458	17855.54
920.828	18859.93
921.198	17917.83
921.567	19133.42
921.937	14799.82
922.306	14905.36
922.676	16052.01
923.045	13370.38
923.415	12665.02
923.784	11498.77
924.153	11760.9
924.522	11711.04
924.891	10953.67
925.26	11671.29
925.629	11332.42
925.998	12947.86
926.367	12541.88
926.736	11834.1
927.104	13936.4
927.473	14793.57
927.842	17590.21
928.21	17118.03
928.578	17619.09
928.947	16334.5
929.315	16100.21
929.683	18472.44
930.051	18168.96
930.42	20598.03
930.788	17168.16
931.156	16610.82
931.523	15225.94
931.891	13733.46
932.259	12922.21
932.627	14709.36
932.994	20408.08
933.362	16609.77
933.729	14204.05
934.097	13423.9
934.464	11267.04
934.831	12903.7
935.199	12662.09
935.566	12234.94
935.933	12479.57
936.3	15188.07
936.667	11876.31
937.034	10882.68
937.401	10860.95
937.767	9522.15
938.134	8632.44
938.501	12344.77
938.867	13424.43
939.234	23120.06
939.6	20051.86
939.967	22384.09
940.333	15256.93
940.699	13173.74
941.065	10619.02
941.431	14057.67
941.798	13687.17
942.163	18055.91
942.529	11319.07
942.895	10384.78
943.261	6727.24
943.627	8840.39
943.992	7721.89
944.358	7690.91
944.723	7704.54
945.089	7480.52
945.454	6881.29
945.82	7288.09
946.185	6971.15
946.55	8062.34
946.915	7231.16
947.28	8483.62
947.645	7487.27
948.01	6913.99
948.375	7207.01
948.74	8612.11
949.104	10056.11
949.469	14523.71
949.834	25678.53
950.198	24463.51
950.562	14659.28
950.927	12202.6
951.291	14639.03
951.655	12394.02
952.02	11609.14
952.384	8783.47
952.748	7678.3
953.112	7502.37
953.476	6507.87
953.839	6010.56
954.203	5932.74
954.567	7418.61
954.931	11637.06
955.294	9962.31
955.658	10020.32
956.021	17011.79
956.385	28807.65
956.748	42430.53
957.111	65618.65
957.474	73699.96
957.837	83087.34
958.2	62736.48
958.563	22548.33
958.926	15285.64
959.289	23201.45
959.652	25968.69
960.015	19518.53
960.377	28029.79
960.74	32003.39
961.102	55199.35
961.465	59592.85
961.827	32328.55
962.189	62409.29
962.552	43545.75
962.914	35150.55
963.276	22897.77
963.638	19040.92
964	18928.5
964.362	12858.51
964.724	12459.69
965.085	8941.6
965.447	7358.89
965.809	8350.09
966.17	8369.03
966.532	9095.65
966.893	8404.33
967.255	7707.28
967.616	9142.09
967.977	7386.73
968.338	8136.06
968.699	6765.79
969.061	6848.22
969.421	6972.57
969.782	7903.55
970.143	6758.49
970.504	7079.28
970.865	8115.2
971.225	8362.79
971.586	8216.8
971.946	11739.05
972.307	10215.58
972.667	13375.28
973.027	13733.37
973.388	16581.99
973.748	11247.35
974.108	12232.05
974.468	16413.27
974.828	12609.29
975.188	9646.61
975.548	8837.27
975.907	7416.14
976.267	8309.69
976.627	6995.06
976.986	7254.27
977.346	6927.92
977.705	6689.26
978.064	6100.54
978.424	5112.53
978.783	5293.29
979.142	6062.58
979.501	5822.27
979.86	6184.25
980.219	5962.03
980.578	7689.34
980.937	8645.76
981.296	7759.99
981.654	8026.9
982.013	12539.16
982.371	16322.44
982.73	15295.9
983.088	17428.89
983.447	18734.84
983.805	26937.92
984.163	56689.55
984.521	63237.96
984.879	93178.24
985.237	-152297.33
985.595	147298.14
985.953	36715.61
986.311	21269.87
986.669	12415.4
987.026	10726.76
987.384	14484.47
987.741	15008.48
988.099	10812.99
988.456	8652.88
988.814	8130.13
989.171	7076.29
989.528	6990.77
989.885	7396.21
990.242	5898.01
990.599	7352.35
990.956	6049.78
991.313	4244.97
991.67	3497.59
992.027	3743.36
992.383	3342.12
992.74	2943.17
993.096	3111.41
993.453	3237.53
993.809	3374.97
994.165	4498.95
994.522	4168.56
994.878	4597.3
995.234	5769.01
995.59	5705.69
995.946	5358.38
996.302	6121.9
996.658	7103.99
997.013	7833.19
997.369	9341.6
997.725	12014.66
998.08	7788.77
998.436	11969.99
998.791	16565.04
999.147	16689.65
999.502	18277.49
999.857	13335.21
1000.212	21776.93
1000.567	30980.44
1000.922	17975.09
1001.277	11398.27
1001.632	8439.35
1001.987	10964.61
1002.342	7878.82
1002.696	6335.31
1003.051	5062.73
1003.406	6154.4
1003.76	6148.04
1004.114	6100.66
1004.469	5163.04
1004.823	4280.07
1005.177	4646.44
1005.531	3710.18
1005.885	3290.86
1006.239	3733.64
1006.593	4700.67
1006.947	6305.72
1007.301	4734.83
1007.655	5169.95
1008.008	3806.19
1008.362	4297.97
1008.715	6132.12
1009.069	5604.93
1009.422	8495.38
1009.776	17112.8
1010.129	11415.05
1010.482	9563.94
1010.835	8129.88
1011.188	17084.74
1011.541	16174.36
1011.894	-99334.26
1012.247	294245.42
1012.6	20085.91
1012.952	12730.08
1013.305	6551.91
1013.657	4735.25
1014.01	4505.63
1014.362	3741.5
1014.715	3359.73
1015.067	2932.15
1015.419	2898.92
1015.771	2594.42
1016.123	2319.56
1016.475	2392.24
1016.827	2550.25
1017.179	2775.5
1017.531	2816.42
1017.883	2877.42
1018.234	2821.1
1018.586	3594.17
1018.938	3847.37
1019.289	5308.15
1019.64	6094.35
1019.992	5692.55
1020.343	5263.58
1020.694	4233.5
1021.045	3743.89
1021.396	4281.42
1021.747	4632.01
1022.098	5537.38
1022.449	4013.53
1022.8	3750.98
1023.151	2631.61
1023.501	2361.08
1023.852	2581.21
1024.202	2693.96
1024.553	2957.86
1024.903	2912.58
1025.253	2540.77
1025.604	2305.83
1025.954	2885.06
1026.304	3523.36
1026.654	4118.39
1027.004	6065.14
1027.354	9807.04
1027.703	9329.07
1028.053	12321.25
1028.403	18132.89
1028.753	26507.23
1029.102	36073.16
1029.452	186515.92
1029.801	8100.55
1030.15	5268.34
1030.499	4474.74
897.758	2538.65
901.051	2492.79
904.343	2528.91
907.636	2531.21
910.928	2595.2
914.22	2506.52
917.511	2513.24
920.803	2573.18
924.094	2584.79
927.384	2570.17
930.675	2534.89
933.965	2493.11
937.255	2505.71
940.544	2470.32
943.834	2429.49
947.123	2369.15
950.411	2463.57
953.7	2437.21
956.988	2409.88
960.276	2354.21
963.563	2425.29
966.851	2424.16
970.138	2477.92
973.424	2473.55
976.711	2423.97
979.997	2531.55
983.283	2569.73
986.568	2480.34
989.853	2492.95
993.138	2520.38
996.423	2600.85
999.708	2544.37
1002.992	2597.74
1006.275	2456.2
1009.559	2489.09
1012.842	2600.79
1016.125	2536.56
1019.408	2519.65
1022.69	2599.57
1025.972	2621.1
1029.254	2594.99
1032.536	2532.84
1035.817	2557.78
1039.098	2509.18
1042.379	2627.78
1045.659	2635.55
1048.939	2572.57
1052.219	2589.74
1055.498	2595.41
1058.778	2584.46
1062.057	2565.66
1065.335	2588.03
1068.614	2605.12
1071.892	2590.26
1075.17	2663.12
1078.447	2651.38
1081.724	2644.95
1085.001	2678.54
1088.278	2656
1091.554	2667.12
1094.83	2661.19
1098.106	2692.37
1101.382	2731.78
1104.657	2733.53
1107.932	2727.42
1111.206	2692.08
1114.481	2653.28
1117.755	2653.16
1121.029	2636.86
1124.302	2690.48
1127.575	2646.31
1130.848	2637.84
1134.121	2599.42
1137.393	2552.96
1140.665	2618.08
1143.937	2594.73
1147.208	2553.58
1150.48	2595.99
1153.75	2583.97
1157.021	2609.46
1160.291	2579.58
1163.561	2627.26
1166.831	2610.27
1170.101	2639.18
1173.37	2613.25
1176.639	2559.81
1179.907	2616.54
1183.176	2624.04
1186.444	2631.42
1189.711	2659.11
1192.979	2672.11
1196.246	2627.85
1199.513	2643.9
1202.78	2643.05
1206.046	2652.91
1209.312	2676.81
1212.578	2700.18
1215.843	2657.52
1219.108	2631.08
1222.373	2654.12
1225.638	2619.99
1228.902	2606.16
1232.166	2570.38
1235.43	2552.79
1238.693	2578
1241.956	2574.66
1245.219	2615.62
1248.482	2604.6
1251.744	2597.91
1255.006	2740.61
1258.268	2693.05
1261.529	2639.15
1264.79	2643.51
1268.051	2750.38
1271.312	2762.99
1274.572	2727.43
1277.832	2716.32
1281.092	2706.88
1284.351	2683.02
1287.61	2663.93
1290.869	2585.13
1294.128	2567.38
1297.386	2646.15
1300.644	2637.34
1303.902	2644.92
1307.159	2509.61
1310.416	2562.22
1313.673	2589.74
1316.93	2574.79
1320.186	2616.85
1323.442	2659.21
1326.697	2650.66
1329.953	2637.46
1333.208	2665.46
1336.463	2639.83
1339.717	2583.7
1342.972	2712.58
1346.226	2691.59
1349.479	2626.2
1352.733	2600.18
1355.986	2621.02
1359.238	2597.22
1362.491	2599.22
1365.743	2601.22
1368.995	2593.47
1372.247	2610.48
1375.498	2633.48
1378.749	2652.02
1382	2605.59
1385.251	2655.21
1388.501	2616.51
1391.751	2603.03
1395	2572.98
1398.25	2606.56
1401.499	2618.44
1404.748	2552.53
1407.996	2536.37
1411.244	2522.88
1414.492	2506.95
1417.74	2484.99
1420.987	2492.85
1424.234	2548.2
1427.481	2525.43
1430.728	2583.41
1433.974	2556.09
1437.22	2567.42
1440.465	2567.31
1443.711	2542.43
1446.956	2574.86
1450.201	2556.46
1453.445	2602.82
1456.689	2582.68
1459.933	2595.8
1463.177	2627.78
1466.42	2601.08
1469.663	2582.39
1472.906	2580.09
1476.148	2640.87
1479.391	2621.84
1482.633	2587.59
1485.874	2600.92
1489.115	2589.1
1492.356	2593.65
1495.597	2566.46
1498.838	2569.31
1502.078	2540.78
1505.318	2495.74
1508.557	2535.46
1511.797	2522.47
1515.036	2570.87
1518.274	2564.3
1521.513	2531.85
1524.751	2552.86
1527.989	2565.33
1531.227	2581.64
1534.464	2580.43
1537.701	2593.6
1540.938	2611.71
1544.174	2564.99
1547.41	2561.1
1550.646	2599.26
1553.882	2637.85
1557.117	2693.63
1560.352	2703.65
1563.587	2663.45
1566.821	2625.72
1570.055	2655.19
1573.289	2628.05
1576.523	2699.8
1579.756	2707.56
1582.989	2726.75
1586.222	2687.78
1589.454	2721.05
1592.686	2696.18
1595.918	2725.37
1599.15	2715.08
1602.381	2782.46
1605.612	2742.92
1608.843	2839.8
1612.073	2753.21
1615.303	2740.31
1618.533	2732.93
1621.762	2732.3
1624.992	2718.73
1628.221	2708.63
1631.449	2694.04
1634.678	2743.88
1637.906	2700.49
1641.134	2737.17
1644.361	2696.46
1647.588	2686.55
1650.815	2701.73
1654.042	2680.81
1657.269	2709.12
1660.495	2666.55
1663.72	2683.44
1666.946	2648.66
1670.171	2599.54
1673.396	2576.57
1676.621	2563.55
1679.845	2576.54
1683.069	2591.52
1686.293	2630.98
1689.517	2606.51
1692.74	2544.38
1695.963	2572.6
1699.185	2593.92
1702.408	2568.66
1705.63	2606.94
1708.852	2619.54
1712.073	2592.6
1715.294	2584.46
1718.515	2643.71
1721.736	2593.65
1724.956	2583.28
1728.176	2607.61
1731.396	2629.04
1734.616	2615.77
1737.835	2644.55
1741.054	2623.52
1744.272	2614.69
1747.491	2646.24
1750.709	2693.14
1753.927	2608.11
1757.144	2650.48
1760.361	2695.65
1763.578	2682.94
1766.795	2630.07
1770.011	2630.18
1773.227	2666.73
1776.443	2703.89
1779.658	2749.24
1782.874	2691.58
1786.089	2669.88
1789.303	2671.42
1792.518	2676.69
1795.732	2662.89
1798.945	2674.22
1802.159	2720.69
1805.372	2632.95
1808.585	2620.89
1811.797	2620.11
1815.01	2662.41
1818.222	2668.79
1821.434	2651.88
1824.645	2709.87
1827.856	2696.36
1831.067	2731.69
1834.278	2686.1
1837.488	2669.7
1840.698	2812.79
1843.908	2740.74
1847.117	2704.87
1850.326	2602.01
1853.535	2693.53
1856.744	2710.53
1859.952	2624.9
1863.16	2629.87
1866.368	2648.46
1869.575	2752.35
1872.782	2639.02
1875.989	2576.73
1879.196	2652.3
1882.402	2643
1885.608	2682.34
1888.814	2594.27
1892.019	2496.01
1895.224	2547.91
1898.429	2524.98
1901.634	2505.08
1904.838	2482.4
1908.042	2531.26
1911.246	2541.37
1914.449	2481.39
1917.652	2476.37
1920.855	2458.68
1924.058	2500.01
1927.26	2537.6
1930.462	2564.63
1933.664	2594.33
1936.865	2532.57
1940.066	2540.74
1943.267	2489.36
1946.467	2501.26
1949.668	2527.1
1952.868	2595.76
1956.067	2575.55
1959.267	2513.29
1962.466	2537.99
1965.665	2523.18
1968.863	2518.48
1972.061	2529.57
1975.259	2528.87
1978.457	2606.12
1981.654	2564.93
1984.852	2566.75
1988.048	2503.95
1991.245	2503.57
1994.441	2588.15
1997.637	2565.81
2000.833	2546.6
2004.028	2582.24
2007.223	2643.12
2010.418	2621.98
2013.613	2580.37
2016.807	2557.67
2020.001	2561.39
2023.194	2599.54
2026.388	2574.45
2029.581	2520.51
2032.774	2575.44
2035.966	2580.82
2039.158	2518.05
2042.35	2540.18
2045.542	2466.5
2048.733	2563.59
2051.924	2578.26
2055.115	2601.48
2058.306	2550.21
2061.496	2610.38
2064.686	2672.2
2067.875	2582
2071.065	2594.21
2074.254	2618.33
2077.442	2571.42
2080.631	2661.37
2083.819	2560.53
2087.007	2547.42
2090.195	2521.84
2093.382	2552.58
2096.569	2533.1
2099.756	2488.28
2102.942	2520.29
2106.128	2527.46
2109.314	2518.08
2112.5	2488.17
2115.685	2462.14
2118.87	2472.98
2122.055	2535.16
2125.239	2505.28
2128.424	2481.85
2131.608	2574.5
2134.791	2557.03
2137.974	2611.4
2141.157	2598.86
2144.34	2556.68
2147.523	2564.67
2150.705	2579.66
2153.887	2556.97
2157.068	2513.02
2160.25	2508.85
2163.431	2543.14
2166.611	2494.84
2169.792	2512.19
2172.972	2408.63
2176.152	2479.83
2179.331	2511.36
2182.511	2497.46
2185.69	2527.85
2188.868	2521.72
2192.047	2572.34
2195.225	2569.57
2198.403	2520.87
2201.58	2511.44
2204.758	2506.06
2207.935	2588.72
2211.111	2481.73
2214.288	2468.56
2217.464	2507.26
2220.64	2473.87
2223.815	2527.65
2226.991	2450.34
2230.166	2471.64
2233.34	2502.22
2236.515	2523.25
2239.689	2590.78
2242.863	2538.31
2246.036	2594.21
2249.209	2590.91
2252.382	2621.48
2255.555	2614.6
2258.727	2556.63
2261.9	2595.78
2265.071	2585.21
2268.243	2586.75
2271.414	2524.6
2274.585	2491.92
2277.756	2555.2
2280.926	2511.39
2284.096	2549.43
2287.266	2462.47
2290.436	2513.94
2293.605	2540.51
2296.774	2571.29
2299.942	2587.47
2303.111	2606.2
2306.279	2656.27
2309.447	2642.88
2312.614	2615.56
2315.781	2638.43
2318.948	2608.03
2322.115	2647.02
2325.281	2551.63
2328.447	2567.74
2331.613	2541.87
2334.779	2520.19
2337.944	2519.34
2341.109	2516.95
2344.274	2501.4
2347.438	2469.28
2350.602	2494.08
2353.766	2510.19
2356.929	2496.05
2360.092	2536.11
2363.255	2492.83
2366.418	2434.28
2369.58	2537.17
2372.742	2346.56
2375.904	2355.99
2379.066	2334.22
2382.227	2365.5
2385.388	2326.78
2388.548	2259.97
2391.709	2310.2
2394.869	2290.02
2398.029	2379.95
2401.188	2388.01
2404.347	2329.29
2407.506	2454.42
2410.665	2485.84
2413.823	2487.47
2416.981	2451.17
2420.139	2478.68
2423.296	2524.99
2426.453	2499.98
2429.61	2523.23
2432.767	2464.88
2435.923	2503.26
2439.079	2463.71
2442.235	2508.87
2445.391	2438.42
2448.546	2471.45
2451.701	2516.42
2454.855	2494.49
2458.009	2541.49
2461.163	2540.09
2464.317	2500.96
2467.471	2533.57
2470.624	2571.44
2473.777	2547.37
2476.929	2559.54
2480.082	2587.33
2483.234	2553.52
2486.385	2502.16
2489.537	2496.09
2492.688	2463.12
2495.839	2481.94
2498.989	2495.22
2502.14	2480.08
2505.29	2464.22
2508.439	2483.22
2511.589	2413.98
2514.738	2422.73
2517.887	2450.43
2521.035	2522.94
2524.183	2497.42
2527.331	2479.31
2530.479	2456.2
2533.627	2464.34
