Data from C_2_DEC_VA_2N_Splice17_12-08-32-219.txt Node
Date: Sat Mar 14 12:08:32 EDT 2020
User: sa697716
Spectrometer: FLMS03696
Trigger mode: 0
Integration Time (sec): 3.180400E-1
Scans to average: 20
Electric dark correction enabled: true
Nonlinearity correction enabled: true
Boxcar width: 5
XAxis mode: Wavelengths
Number of Pixels in Spectrum: 2048
>>>>>Begin Spectral Data<<<<<
187.83	-296165.79
188.298	2128.43
188.766	1083.71
189.233	953.33
189.701	1405.8
190.169	2093.41
190.636	773.59
191.104	582.01
191.571	89.6
192.039	-66.91
192.506	-107.45
192.974	401.52
193.441	-867.1
193.908	-397.98
194.375	-167.71
194.842	-53.8
195.31	60.34
195.777	117.14
196.244	318
196.711	438.78
197.177	589.24
197.644	875.3
198.111	1510.41
198.578	2153.29
199.045	1721.82
199.511	2837.63
199.978	3300.45
200.445	2806.74
200.911	3133.29
201.378	3499.36
201.844	3166.42
202.31	5376.93
202.777	5535.4
203.243	3087.81
203.709	2935.09
204.176	3502.83
204.642	2887.65
205.108	2685.84
205.574	2192.96
206.04	1995.61
206.506	1876.76
206.972	1776.19
207.438	1719.72
207.903	1959.06
208.369	1714.4
208.835	1714.14
209.301	1789.32
209.766	1824.28
210.232	1809.69
210.697	2230.65
211.163	2736.17
211.628	4115.08
212.094	3439.8
212.559	4189.2
213.024	2602.07
213.49	3145.41
213.955	3054.77
214.42	2951.65
214.885	2733.43
215.35	2603.39
215.815	2503.29
216.28	2652.37
216.745	2127.36
217.21	2269.14
217.675	2061.65
218.14	2281.55
218.604	2507.41
219.069	2797.9
219.534	2909.35
219.998	3332
220.463	3986.95
220.927	4795.63
221.392	4457.17
221.856	4477.95
222.32	5598.82
222.785	6836.74
223.249	8556.46
223.713	9502.2
224.177	9471.35
224.642	12081.55
225.106	14786.48
225.57	16095.52
226.034	11979.3
226.497	18188.51
226.961	16405.34
227.425	19048.81
227.889	21148.77
228.353	21111.29
228.816	43523.54
229.28	41603.77
229.744	35022.06
230.207	21281.73
230.671	20906.77
231.134	34547.49
231.597	39806.26
232.061	39839.47
232.524	38823.17
232.987	26676.16
233.45	24002.88
233.914	21490.5
234.377	22006.05
234.84	20127.1
235.303	23719.44
235.766	26461.3
236.229	27319.94
236.691	17187.28
237.154	19286.57
237.617	14498.28
238.08	14864.34
238.542	17400.29
239.005	12456.84
239.468	12370.41
239.93	11674.06
240.393	10634.36
240.855	9335.68
241.317	9562.19
241.78	11632.84
242.242	12033.91
242.704	13019.88
243.166	11338.42
243.629	10297.71
244.091	11856.77
244.553	12991.07
245.015	13952.87
245.477	18023.51
245.939	26409.42
246.4	28031.15
246.862	27243.05
247.324	25642.84
247.786	28670.25
248.247	37541.77
248.709	38728.04
249.17	28928.6
249.632	27268.15
250.093	31629.5
250.555	27281.07
251.016	16653.27
251.477	15783.55
251.939	17020.73
252.4	17832.28
252.861	21177.18
253.322	19691.26
253.783	23393.33
254.244	30378.21
254.705	23894.2
255.166	21223.97
255.627	20890.5
256.088	29425.86
256.549	31234.96
257.009	26875.98
257.47	32572.68
257.931	26517.97
258.391	19869.9
258.852	20475.45
259.312	21421.08
259.773	26445.03
260.233	22325.07
260.694	18794.08
261.154	21270.47
261.614	17048.08
262.074	15212.44
262.534	15786.97
262.994	14845.4
263.455	19694.59
263.915	16555.47
264.374	15557.81
264.834	16942.62
265.294	18718.65
265.754	19345.33
266.214	18276.34
266.673	17106.94
267.133	21557.91
267.593	21350.97
268.052	26088.03
268.512	22671.57
268.971	27325.74
269.431	29911.32
269.89	26758.39
270.349	40042.18
270.809	44638.39
271.268	40108.79
271.727	89725.16
272.186	58009.57
272.645	43482.38
273.104	31318.38
273.563	45330.59
274.022	35578.68
274.481	30264.28
274.94	23331.48
275.399	17341.01
275.857	20174.32
276.316	27255.68
276.775	24242.15
277.233	23909.23
277.692	22382.84
278.15	25307.28
278.609	26041.7
279.067	24115.74
279.525	22430.54
279.984	28896.49
280.442	34742.67
280.9	34301.19
281.358	22596.68
281.816	21066
282.274	20622.44
282.732	21300.88
283.19	21429.3
283.648	18503.91
284.106	19691.46
284.564	20027.98
285.021	18623.27
285.479	13872.52
285.937	12599.74
286.394	11071.12
286.852	11391.54
287.309	11972.81
287.767	11588.74
288.224	11037.51
288.682	12107.77
289.139	13324.85
289.596	12196.75
290.053	12657.54
290.511	15971.44
290.968	19352.59
291.425	26163.87
291.882	21821.58
292.339	18984.51
292.796	18823.62
293.252	17715.92
293.709	14055.76
294.166	12572.93
294.623	13872.1
295.079	13294.69
295.536	13357.87
295.992	12139.58
296.449	12027.07
296.905	12480.73
297.362	11979.13
297.818	12601.73
298.274	13066.64
298.731	13322.5
299.187	13174.77
299.643	14161.68
300.099	17141.97
300.555	18794.94
301.011	15715
301.467	15161.39
301.923	17746.94
302.379	17326.85
302.835	16994.28
303.291	17032.97
303.746	19399.07
304.202	24516.82
304.658	24598.62
305.113	16573.64
305.569	16251.69
306.024	17324.2
306.479	16470.74
306.935	13913.01
307.39	15205.19
307.845	14049.15
308.301	14160.59
308.756	13823.43
309.211	13346.37
309.666	13691.35
310.121	16992.2
310.576	17291.68
311.031	17162.1
311.486	19724.47
311.94	19725.46
312.395	26427.87
312.85	49802.86
313.305	244429.67
313.759	1266812.45
314.214	91958.6
314.668	73004.68
315.123	61596.69
315.577	22077.5
316.032	19681.74
316.486	24600.74
316.94	19395.96
317.394	13492.25
317.849	10510.55
318.303	9947.89
318.757	9390.9
319.211	10383.41
319.665	9084.66
320.119	9174.19
320.572	13136.98
321.026	12255.39
321.48	10214.75
321.934	11137.83
322.387	11157.56
322.841	12029.78
323.295	10840.65
323.748	12454.57
324.202	12634.94
324.655	15172.95
325.108	21214.61
325.562	15000.55
326.015	17833.22
326.468	13477.68
326.921	15076.92
327.374	14080.75
327.827	14669.57
328.28	16582.02
328.733	11124.26
329.186	9790.73
329.639	9332.02
330.092	7866.42
330.545	7511.29
330.997	7584.7
331.45	8295.87
331.903	9734.67
332.355	16711.02
332.808	16226.91
333.26	13417.35
333.713	14593.15
334.165	14681.52
334.617	19556.05
335.069	15816.95
335.522	28601.62
335.974	31698.34
336.426	28965.69
336.878	20073.05
337.33	10202.68
337.782	9969.55
338.234	12479.09
338.686	14924.31
339.137	17712.57
339.589	16725.47
340.041	13113.41
340.493	11262.78
340.944	11519.38
341.396	12389.32
341.847	10407.85
342.299	12293.81
342.75	15010.67
343.201	13094.3
343.653	15032.94
344.104	18467.43
344.555	14545.35
345.006	22562.86
345.457	17309.89
345.908	13772.43
346.359	12969.61
346.81	10573.52
347.261	11126.2
347.712	10939.88
348.163	11702.86
348.613	11852.9
349.064	11056.85
349.515	9671.65
349.965	9926.7
350.416	11938.77
350.866	13101.35
351.317	14803.37
351.767	24475.29
352.217	30936.45
352.668	25707.27
353.118	23622.44
353.568	22778.66
354.018	17998.59
354.468	19022.45
354.918	13677.67
355.368	11962.22
355.818	16906.37
356.268	48664.93
356.718	204383.87
357.168	50935.94
357.617	25550.82
358.067	28533.56
358.517	26717.2
358.966	31418.42
359.416	35145.24
359.865	37928.64
360.315	45145.53
360.764	21050.19
361.213	11796.26
361.663	11138.22
362.112	13732.95
362.561	22210.86
363.01	16689.61
363.459	14078.54
363.908	15196.81
364.357	12941.39
364.806	21851.95
365.255	15017.78
365.703	13785.28
366.152	13847.22
366.601	11243.52
367.05	9143.49
367.498	8306.72
367.947	8681.57
368.395	9039.48
368.844	8022.16
369.292	9663.44
369.74	6689.15
370.189	10254.46
370.637	11994.7
371.085	10327
371.533	12573.49
371.981	12148.42
372.429	11623.15
372.877	12120.88
373.325	10142.53
373.773	10337.88
374.221	9213.51
374.669	11451.55
375.116	9941.51
375.564	10080.99
376.012	11318.34
376.459	9363.77
376.907	11170.08
377.354	13514.96
377.801	12697.3
378.249	14645.19
378.696	18762
379.143	22860.66
379.591	24417.22
380.038	41398.35
380.485	30011.27
380.932	32489.25
381.379	29938.32
381.826	22224.55
382.273	15859.46
382.72	13896.92
383.166	13609.15
383.613	8878.81
384.06	8033.08
384.506	9367.85
384.953	6905.49
385.4	6985.91
385.846	6162.56
386.292	6035.08
386.739	5924.21
387.185	5916.25
387.631	5957.23
388.078	5823.27
388.524	6278.9
388.97	5843.77
389.416	4910.94
389.862	5273.7
390.308	5035.59
390.754	5150.4
391.2	5637.07
391.645	5823.34
392.091	5616.41
392.537	5470.33
392.983	5536.52
393.428	5505.82
393.874	5943.71
394.319	6032.12
394.765	5767.68
395.21	5980.15
395.655	5651.97
396.101	5333.18
396.546	4854.09
396.991	4927.53
397.436	4612.87
397.881	4481.88
398.326	4275.07
398.771	4076.78
399.216	3583.43
399.661	3256.6
400.106	3272.6
400.551	3385.39
400.995	3064.85
401.44	3055.21
401.885	2896.68
402.329	2946.38
402.774	2848.74
403.218	2777.33
403.663	2696.62
404.107	2789.24
404.551	2827.49
404.995	2608.15
405.44	2528.69
405.884	2579.44
406.328	2507.6
406.772	2509.42
407.216	2298.4
407.66	2236.96
408.104	2131.55
408.547	2006.35
408.991	1949.97
409.435	1883.84
409.879	1865.57
410.322	1846.23
410.766	1791.34
411.209	1710.44
411.653	1651.04
412.096	1625.48
412.54	1630.61
412.983	1628.16
413.426	1639.08
413.869	1645.53
414.312	1622.07
414.756	1568.81
415.199	1503.98
415.642	1464.71
416.085	1471.06
416.527	1463.51
416.97	1490.09
417.413	1417.67
417.856	1407
418.298	1395.22
418.741	1389.99
419.184	1389.72
419.626	1452.96
420.069	1455.05
420.511	1464.15
420.953	1437.23
421.396	1425.1
421.838	1391.12
422.28	1425.1
422.722	1433.22
423.164	1453.47
423.606	1430.57
424.048	1427.85
424.49	1356.57
424.932	1348.61
425.374	1331.88
425.816	1352.83
426.258	1379.53
426.699	1393.81
427.141	1369.8
427.582	1387.21
428.024	1382.46
428.465	1372.53
428.907	1338.96
429.348	1322.01
429.789	1321.55
430.231	1291.42
430.672	1308.74
431.113	1275.14
431.554	1254.56
431.995	1223.37
432.436	1180.26
432.877	1150.16
433.318	1130.39
433.759	1126.69
434.2	1125.54
434.64	1113.25
435.081	1118.77
435.522	1060.72
435.962	1023.99
436.403	1003.93
436.843	1021.11
437.284	998.9
437.724	975.79
438.164	982.55
438.604	962.56
439.045	927.97
439.485	894.46
439.925	878.13
440.365	859.38
440.805	853.35
441.245	847.05
441.685	819.26
442.125	821.89
442.564	832.32
443.004	817.73
443.444	821.46
443.883	830.17
444.323	830.34
444.762	838.91
445.202	859.47
445.641	881.16
446.081	883.12
446.52	898.44
446.959	897.26
447.398	882.91
447.837	880.67
448.276	873.01
448.716	889.24
449.154	904.94
449.593	890.62
450.032	892.42
450.471	883.54
450.91	892.05
451.349	895.11
451.787	897.62
452.226	916.92
452.664	922.58
453.103	929.6
453.541	931.99
453.98	934.04
454.418	944.51
454.856	933.07
455.295	935.49
455.733	945.66
456.171	954.51
456.609	956.81
457.047	959.19
457.485	973.2
457.923	974.37
458.361	965.43
458.798	969.88
459.236	968.22
459.674	978.6
460.111	981.62
460.549	972.21
460.987	969.93
461.424	967.9
461.862	964.11
462.299	950.97
462.736	951.61
463.173	954.38
463.611	943.44
464.048	941.13
464.485	947.46
464.922	941.64
465.359	936.89
465.796	920.9
466.233	914.68
466.67	904.03
467.106	900.59
467.543	891.47
467.98	880.7
468.416	858.92
468.853	853.29
469.29	828.02
469.726	818.95
470.162	798.08
470.599	790.63
471.035	783.94
471.471	765.79
471.907	763
472.344	758.89
472.78	759.15
473.216	770.06
473.652	761.74
474.088	761.59
474.523	759.64
474.959	768.15
475.395	763.13
475.831	759.62
476.266	765.1
476.702	764.38
477.138	758.09
477.573	757.32
478.008	754.51
478.444	758.12
478.879	764.24
479.314	768.35
479.75	769
480.185	773.31
480.62	781.03
481.055	787.48
481.49	795.1
481.925	808.16
482.36	823.4
482.795	849.52
483.229	875.16
483.664	896.97
484.099	902.92
484.534	919.58
484.968	931.81
485.403	938.63
485.837	940.21
486.271	941.05
486.706	946.13
487.14	940.68
487.574	928.95
488.009	925
488.443	921.26
488.877	935.63
489.311	943.07
489.745	959.14
490.179	972.17
490.613	994.79
491.046	1009.18
491.48	1021.49
491.914	1028.01
492.348	1042.18
492.781	1055.02
493.215	1064.64
493.648	1073.51
494.082	1088.59
494.515	1095.86
494.948	1115.18
495.382	1130.21
495.815	1144.46
496.248	1160.52
496.681	1189.78
497.114	1216.66
497.547	1240.39
497.98	1269.15
498.413	1286.51
498.846	1310.98
499.279	1333.83
499.711	1349.77
500.144	1362.12
500.577	1387.24
501.009	1413.98
501.442	1436.43
501.874	1445.13
502.306	1456.11
502.739	1473.16
503.171	1505.65
503.603	1517.34
504.036	1539.75
504.468	1554.1
504.9	1579.82
505.332	1596.88
505.764	1609.85
506.196	1627.58
506.627	1656.07
507.059	1682.21
507.491	1702.79
507.923	1700.4
508.354	1726.7
508.786	1744.95
509.217	1776.8
509.649	1801.07
510.08	1834.07
510.512	1860.25
510.943	1883.08
511.374	1900.33
511.805	1932.6
512.237	1962.91
512.668	2016
513.099	2059.91
513.53	2102.5
513.961	2132.37
514.391	2180.97
514.822	2227.97
515.253	2280.5
515.684	2315.97
516.114	2356.88
516.545	2382.89
516.975	2417.74
517.406	2437.7
517.836	2431.63
518.267	2430.06
518.697	2448.5
519.127	2445.42
519.558	2447.77
519.988	2443.66
520.418	2450.48
520.848	2469.41
521.278	2472
521.708	2460.84
522.138	2469.34
522.567	2508.98
522.997	2539.64
523.427	2552.43
523.857	2568.33
524.286	2575.3
524.716	2588.61
525.145	2607.96
525.575	2614.23
526.004	2627.38
526.433	2631.44
526.863	2623.53
527.292	2597.26
527.721	2597.61
528.15	2598.92
528.579	2592.02
529.008	2600.1
529.437	2628.53
529.866	2641.61
530.295	2661.13
530.724	2673.95
531.152	2710.35
531.581	2726.43
532.01	2748.97
532.438	2755.92
532.867	2773.26
533.295	2797.7
533.723	2802.83
534.152	2795.33
534.58	2791.47
535.008	2766.55
535.436	2765.85
535.865	2774.4
536.293	2794.36
536.721	2815.56
537.149	2852.66
537.576	2854.29
538.004	2871.26
538.432	2882.83
538.86	2878.85
539.287	2889.5
539.715	2906.52
540.143	2910.01
540.57	2903.75
540.998	2896.56
541.425	2860.38
541.852	2827.76
542.28	2825.85
542.707	2799.02
543.134	2775.86
543.561	2769.35
543.988	2755.94
544.415	2754.03
544.842	2744.58
545.269	2732.1
545.696	2733.05
546.123	2751.22
546.549	2733.79
546.976	2712.14
547.403	2710.86
547.829	2712.61
548.256	2713.17
548.682	2706.64
549.108	2694.43
549.535	2692.33
549.961	2693.33
550.387	2672.51
550.813	2663.42
551.24	2672.23
551.666	2673.17
552.092	2658.57
552.518	2649.33
552.943	2640.05
553.369	2650
553.795	2658.53
554.221	2659.79
554.646	2655.8
555.072	2671.95
555.498	2681.11
555.923	2697.46
556.349	2722.4
556.774	2737.98
557.199	2740.63
557.625	2752.64
558.05	2746.88
558.475	2763.76
558.9	2767.68
559.325	2758.76
559.75	2751.41
560.175	2745.26
560.6	2738.12
561.025	2738.57
561.449	2743.32
561.874	2756.25
562.299	2767.02
562.723	2782.56
563.148	2773.67
563.572	2783.84
563.997	2805.19
564.421	2822.81
564.846	2829.64
565.27	2842.03
565.694	2845.72
566.118	2870.88
566.542	2889.48
566.966	2887.8
567.39	2888.93
567.814	2880.59
568.238	2887.06
568.662	2903.63
569.086	2915.68
569.509	2937.19
569.933	2920.73
570.357	2918.17
570.78	2893.19
571.204	2880.13
571.627	2870.62
572.05	2876.68
572.474	2883.49
572.897	2871.61
573.32	2866.2
573.743	2858.31
574.166	2834.24
574.589	2842.39
575.012	2835.49
575.435	2841.02
575.858	2832.91
576.281	2820.63
576.704	2799.62
577.126	2786.57
577.549	2774.13
577.972	2763.89
578.394	2750.06
578.817	2741.67
579.239	2715.32
579.661	2697.71
580.084	2673.67
580.506	2655.54
580.928	2655.07
581.35	2640.11
581.772	2635.74
582.194	2618.18
582.616	2601.45
583.038	2581.8
583.46	2568.83
583.882	2566.25
584.303	2577.11
584.725	2574.44
585.147	2576.91
585.568	2596.25
585.99	2622.23
586.411	2636.85
586.833	2663.38
587.254	2668.94
587.675	2697.25
588.096	2722.77
588.518	2716.68
588.939	2691.57
589.36	2692.05
589.781	2682.46
590.202	2632.98
590.623	2617.43
591.043	2615.75
591.464	2596.84
591.885	2590.96
592.305	2581.31
592.726	2558.97
593.147	2563.16
593.567	2553.98
593.987	2542.05
594.408	2534.94
594.828	2536.73
595.248	2529.42
595.669	2497.66
596.089	2488.26
596.509	2480.42
596.929	2458.67
597.349	2461.1
597.769	2446.08
598.189	2437.74
598.608	2440.99
599.028	2445.84
599.448	2448.27
599.867	2428.33
600.287	2424.77
600.706	2417.84
601.126	2401.33
601.545	2400.63
601.965	2400.82
602.384	2393.26
602.803	2402.02
603.222	2395.62
603.641	2386.49
604.061	2382.59
604.48	2378.41
604.898	2394.64
605.317	2406.13
605.736	2412.83
606.155	2411.31
606.574	2397.15
606.992	2409.3
607.411	2403.1
607.829	2393.05
608.248	2391.15
608.666	2389.45
609.085	2392.1
609.503	2380.05
609.921	2373
610.339	2380.45
610.758	2382.7
611.176	2379.26
611.594	2366.1
612.012	2362.53
612.43	2371.06
612.847	2386.1
613.265	2391.45
613.683	2402.36
614.101	2408.49
614.518	2406.63
614.936	2392.28
615.353	2369.83
615.771	2367.83
616.188	2372.51
616.606	2370.18
617.023	2360.86
617.44	2338.43
617.857	2331.22
618.274	2319.86
618.691	2311.13
619.108	2294.81
619.525	2286.19
619.942	2300.86
620.359	2307.66
620.776	2300.65
621.192	2294.77
621.609	2293.65
622.026	2306.9
622.442	2317.91
622.859	2325.02
623.275	2314.05
623.691	2326.31
624.108	2347.65
624.524	2374.98
624.94	2376.88
625.356	2397.09
625.772	2423.46
626.188	2445.24
626.604	2449.36
627.02	2442.11
627.436	2438.76
627.852	2451.35
628.268	2474.59
628.683	2460.05
629.099	2445.6
629.514	2436.9
629.93	2444.87
630.345	2452.56
630.761	2447.3
631.176	2454.55
631.591	2442.9
632.007	2432.68
632.422	2430.81
632.837	2412.1
633.252	2406.63
633.667	2388.92
634.082	2373.92
634.497	2349.62
634.911	2313.9
635.326	2307.23
635.741	2276.52
636.155	2260.34
636.57	2262.83
636.984	2263.7
637.399	2264.94
637.813	2267.4
638.228	2266.73
638.642	2274.54
639.056	2256.79
639.47	2260.14
639.884	2244.93
640.298	2233.72
640.712	2232.59
641.126	2210.22
641.54	2194.98
641.954	2188.37
642.368	2163.99
642.781	2145.46
643.195	2113.11
643.609	2114.64
644.022	2101.46
644.436	2093.95
644.849	2071.48
645.262	2048.78
645.676	2051.68
646.089	2041.09
646.502	2009.79
646.915	1999
647.328	1967.23
647.741	1960.6
648.154	1932.04
648.567	1922.74
648.98	1895.55
649.393	1895.42
649.805	1886.83
650.218	1871.01
650.631	1839.84
651.043	1828.67
651.456	1817.02
651.868	1818.11
652.28	1850.28
652.693	1876.61
653.105	1890.1
653.517	1907.49
653.929	1906.85
654.341	1915.4
654.753	1891.75
655.165	1902.73
655.577	1894.6
655.989	1884.2
656.401	1868.49
656.813	1799.25
657.224	1760.89
657.636	1706.93
658.047	1671.45
658.459	1632.43
658.87	1613.68
659.282	1589.26
659.693	1546.27
660.104	1514.9
660.515	1486.02
660.926	1476.62
661.338	1465.45
661.749	1446.33
662.159	1421.37
662.57	1406.13
662.981	1388.85
663.392	1367.49
663.803	1364.76
664.213	1351.72
664.624	1336.77
665.035	1331.56
665.445	1299.84
665.855	1277.96
666.266	1254.41
666.676	1241.55
667.086	1217.46
667.497	1205.56
667.907	1186.4
668.317	1162.99
668.727	1146.11
669.137	1138.82
669.547	1127.02
669.956	1123.82
670.366	1118.44
670.776	1112.82
671.186	1111.12
671.595	1109.49
672.005	1110.23
672.414	1103.25
672.824	1095.25
673.233	1100.62
673.642	1098.58
674.052	1098
674.461	1097.3
674.87	1101.32
675.279	1096.54
675.688	1097.54
676.097	1097
676.506	1090.46
676.915	1110.73
677.323	1114.98
677.732	1112.48
678.141	1114.11
678.549	1104.95
678.958	1107.11
679.366	1109.95
679.775	1122.87
680.183	1145.1
680.592	1161.06
681	1181.04
681.408	1181.71
681.816	1207.32
682.224	1234.48
682.632	1264.67
683.04	1325.36
683.448	1383.03
683.856	1451.41
684.264	1530.14
684.671	1606.03
685.079	1698.81
685.487	1796.28
685.894	1927.36
686.302	2038.7
686.709	2134.69
687.116	2242.86
687.524	2333.12
687.931	2407.41
688.338	2473.5
688.745	2527.42
689.152	2583.95
689.559	2655.61
689.966	2722.83
690.373	2747.67
690.78	2803.16
691.187	2895.99
691.593	2957.05
692	3003.13
692.407	3083.12
692.813	3181.41
693.22	3252.6
693.626	3323.65
694.032	3370.46
694.439	3460.82
694.845	3517.92
695.251	3601.86
695.657	3669.77
696.063	3790.84
696.469	3869.5
696.875	3936.51
697.281	3956.09
697.687	3987.21
698.093	4008.51
698.498	4084.28
698.904	4133.59
699.31	4227.24
699.715	4281.3
700.12	4378.05
700.526	4364.96
700.931	4427.95
701.337	4464.9
701.742	4477.57
702.147	4561.2
702.552	4569.48
702.957	4619.13
703.362	4611.56
703.767	4620.93
704.172	4643.06
704.577	4546.81
704.981	4581.12
705.386	4572.21
705.791	4532.25
706.195	4604.48
706.6	4588.31
707.004	4666.56
707.408	4600.48
707.813	4611.55
708.217	4568.67
708.621	4547.12
709.025	4649.03
709.43	4626.43
709.834	4680.75
710.237	4748.4
710.641	4706.63
711.045	4712.6
711.449	4682.29
711.853	4696.55
712.256	4725.23
712.66	4751.63
713.064	4823.9
713.467	4854.14
713.87	4971.64
714.274	5008.06
714.677	5120.27
715.08	5293.94
715.484	5475.82
715.887	5697.35
716.29	5916.5
716.693	6145.34
717.096	6409.11
717.499	6543.12
717.901	6552.43
718.304	6561.25
718.707	6569.42
719.109	6430.39
719.512	6374.67
719.915	6201.09
720.317	6122.84
720.719	6156.2
721.122	6108.37
721.524	6035.66
721.926	5973.17
722.328	6074.17
722.731	6053.63
723.133	6073.63
723.535	6282.93
723.937	6297.59
724.338	6344.31
724.74	6376.2
725.142	6280.05
725.544	6266.49
725.945	6284.48
726.347	6269.59
726.748	6251.71
727.15	6258.17
727.551	6205.27
727.952	6164.52
728.354	6121.64
728.755	6114.37
729.156	6061.84
729.557	6053.11
729.958	5910.36
730.359	5844.58
730.76	5819.55
731.161	5745.31
731.562	5711.35
731.962	5710.98
732.363	5634.73
732.763	5559.45
733.164	5593.71
733.564	5512.25
733.965	5399.68
734.365	5357.52
734.766	5382.92
735.166	5335.11
735.566	5272.36
735.966	5239.8
736.366	5230.59
736.766	5159.53
737.166	5189.87
737.566	5139.85
737.966	5110.53
738.365	5152.54
738.765	5143.31
739.165	5059.9
739.564	5029
739.964	5074.73
740.363	5021.86
740.763	5014.24
741.162	4999.15
741.561	4963.6
741.96	4913.55
742.36	4933.02
742.759	4935.66
743.158	4974.55
743.557	4988.7
743.955	5029.44
744.354	4979.74
744.753	5039
745.152	4995.82
745.55	5054.8
745.949	5045.63
746.348	5046.48
746.746	5060.65
747.144	5015.96
747.543	4990.85
747.941	5041.37
748.339	4967.56
748.737	4957.54
749.136	4946.4
749.534	5012.25
749.932	4979.73
750.33	5004.27
750.727	5062.57
751.125	5039.04
751.523	5023.25
751.921	5069.25
752.318	5031.02
752.716	5091.71
753.113	5107.42
753.511	5137.53
753.908	5139.11
754.305	5118.34
754.703	5181.65
755.1	5244.77
755.497	5305.96
755.894	5506.11
756.291	5693.11
756.688	6043.38
757.085	6505.63
757.482	7156.91
757.878	7867.54
758.275	8513.1
758.672	9403.65
759.068	10128.36
759.465	11159.96
759.861	12489.13
760.258	14035.07
760.654	14833.32
761.05	14710.72
761.447	14043.68
761.843	13071.92
762.239	12066.27
762.635	11611.61
763.031	11182.55
763.427	10554.44
763.822	9898.13
764.218	9249.95
764.614	8401.69
765.01	7837.77
765.405	7473.94
765.801	7195.6
766.196	6845.36
766.592	6644.11
766.987	6309.63
767.382	6080.43
767.778	5987.34
768.173	5849.71
768.568	5773.88
768.963	5645.62
769.358	5665.62
769.753	5616.58
770.148	5525.92
770.542	5522.63
770.937	5492.64
771.332	5589.62
771.726	5611.01
772.121	5544.2
772.515	5600.43
772.91	5586.02
773.304	5658.52
773.699	5589.88
774.093	5646.55
774.487	5705.98
774.881	5751.43
775.275	5745.98
775.669	5702.48
776.063	5752.2
776.457	5791.4
776.851	5712.57
777.245	5705.21
777.638	5739.01
778.032	5861.76
778.425	5822.8
778.819	5866.84
779.212	5823.84
779.606	5782.61
779.999	5802.49
780.392	5782.21
780.786	5867.88
781.179	5890.52
781.572	5934
781.965	5949.19
782.358	5884.2
782.751	5943.27
783.143	5893.53
783.536	5968.32
783.929	6015.91
784.322	6138.51
784.714	6170.37
785.107	6162.85
785.499	6239.2
785.891	6212.65
786.284	6192.63
786.676	6344.19
787.068	6324.51
787.46	6377.97
787.852	6398.33
788.245	6486.16
788.636	6511.73
789.028	6584.69
789.42	6627.23
789.812	6633.3
790.204	6737.23
790.595	6839.6
790.987	6632.23
791.378	6653.36
791.77	6789.03
792.161	6933.81
792.553	6992.3
792.944	6877.39
793.335	6804.87
793.726	6880.46
794.117	6976.14
794.508	7118.65
794.899	7090.61
795.29	7238.85
795.681	7299.79
796.072	7150
796.463	6952.88
796.853	6961.53
797.244	7128.09
797.634	7160.22
798.025	7162.46
798.415	7172.41
798.806	7263.52
799.196	7352.39
799.586	7405.75
799.976	7364.62
800.366	7606.13
800.756	7859.04
801.146	7819.52
801.536	7848.71
801.926	7928.21
802.316	7952.53
802.706	8030.82
803.095	7900.9
803.485	8001.4
803.874	8041.75
804.264	8313.83
804.653	8287.6
805.043	8440.29
805.432	8554.84
805.821	8556.13
806.21	8579.49
806.599	8704.86
806.988	8754.9
807.377	8871.15
807.766	9011.19
808.155	9309.77
808.544	9035.26
808.933	9049.95
809.321	9028.3
809.71	9335.46
810.098	9500.79
810.487	9980.68
810.875	10488.24
811.264	10508.28
811.652	10811.28
812.04	10971.64
812.428	11145.54
812.816	11960.38
813.204	12405.45
813.592	12987.35
813.98	13346.52
814.368	13248.87
814.756	13755.88
815.144	13673.21
815.531	14169.51
815.919	14094.11
816.306	14411.21
816.694	14080.01
817.081	14126.86
817.469	14485.3
817.856	14484.06
818.243	14763.2
818.63	15181.72
819.017	14745.41
819.404	14811.87
819.791	15206.47
820.178	15851.82
820.565	16112.67
820.952	17098.22
821.339	16578.58
821.725	16772.04
822.112	15985.33
822.498	15944.09
822.885	16080.67
823.271	15977.18
823.657	16412.33
824.044	16414.53
824.43	16493.23
824.816	16457.29
825.202	16001.09
825.588	17066.07
825.974	17088.24
826.36	17634.62
826.746	17667.21
827.132	18034.29
827.517	18012.03
827.903	17187.96
828.289	17234.35
828.674	16420.55
829.06	16309.42
829.445	16723.41
829.83	17097.56
830.216	17597.78
830.601	17980.62
830.986	17560.03
831.371	17413.17
831.756	17984.61
832.141	17529.7
832.526	17524.49
832.911	17818.39
833.295	17699.43
833.68	18190.31
834.065	17543.87
834.449	16582.71
834.834	16506.38
835.218	16495.73
835.603	16855.91
835.987	16643.05
836.371	17523.62
836.755	17416.99
837.139	17832.47
837.524	18093.98
837.908	17911.21
838.291	17968.07
838.675	18042.15
839.059	18268.59
839.443	18259.66
839.827	18026.16
840.21	18539.79
840.594	18378.42
840.977	18597.94
841.361	18582.18
841.744	18972.19
842.127	18812.48
842.511	19081.32
842.894	19715.96
843.277	20113.6
843.66	20688.31
844.043	20774.57
844.426	19920.13
844.809	19594.19
845.191	19626.06
845.574	19141.01
845.957	18765.55
846.339	18655.04
846.722	18105.56
847.104	18169.94
847.487	17991.79
847.869	18003.02
848.252	18299.45
848.634	18658.5
849.016	18940.64
849.398	19071.52
849.78	19981.02
850.162	19981.57
850.544	20413.08
850.926	21060.85
851.307	20975.33
851.689	21277.95
852.071	21764.45
852.452	22101.57
852.834	22071.02
853.215	22490.05
853.597	22657.67
853.978	22952.14
854.359	23435.67
854.741	22395.77
855.122	22307.58
855.503	22004.3
855.884	22131.49
856.265	22058.57
856.646	22177.2
857.026	21764.59
857.407	21701.1
857.788	21863.88
858.169	22167.17
858.549	21272.16
858.93	21921.47
859.31	21969.46
859.69	22183.73
860.071	21754.15
860.451	21528.13
860.831	20753.53
861.211	21971.82
861.591	22539.36
861.971	22503.93
862.351	22718.08
862.731	23120.89
863.111	23393.24
863.491	23738.1
863.87	24665.56
864.25	25034.66
864.629	24605.05
865.009	25139.85
865.388	26028
865.768	27895.01
866.147	27786.14
866.526	26237.79
866.905	26540.43
867.284	28026.95
867.663	26608.77
868.042	25506.51
868.421	25424.16
868.8	25844.34
869.179	26095.64
869.558	24581.06
869.936	22656.13
870.315	23068.06
870.693	23632.96
871.072	25499.03
871.45	24300.33
871.828	24608.64
872.207	25856.57
872.585	25457.85
872.963	26155.27
873.341	25256.4
873.719	24950.23
874.097	24646.88
874.475	25102.7
874.853	25660.92
875.23	24587.45
875.608	25613.37
875.986	27704.95
876.363	26491.18
876.741	27305.69
877.118	26620.82
877.495	27926.39
877.873	28386.87
878.25	29870.2
878.627	28649.59
879.004	29056.45
879.381	28922.96
879.758	28160.07
880.135	26213.45
880.512	27723.82
880.889	26998.87
881.265	26730.36
881.642	26515.9
882.019	26973.41
882.395	26425.46
882.772	27484.14
883.148	26280.04
883.524	26174.35
883.901	26024.04
884.277	26420.48
884.653	26254.49
885.029	26998.54
885.405	29888.71
885.781	29655.69
886.157	28431.59
886.532	28785.54
886.908	28774.79
887.284	32008.85
887.659	33059.92
888.035	34092.83
888.411	34974.66
888.786	35419.58
889.161	36660.88
889.537	35985.7
889.912	37132.63
890.287	37108.84
890.662	38069.61
891.037	37373.45
891.412	34857.71
891.787	34511.54
892.162	33298.63
892.536	34066.61
892.911	32811.04
893.286	32111.63
893.66	30820.73
894.035	31607.16
894.409	34421.73
894.784	33043.71
895.158	33608.66
895.532	35606.14
895.906	36568.9
896.281	37454.08
896.655	36874.81
897.029	42124.45
897.402	43881.86
897.776	48866.65
898.15	48720.98
898.524	48181.89
898.898	48802.7
899.271	54637.66
899.645	47308.37
900.018	45465.87
900.392	47122.57
900.765	47496.2
901.138	43968.55
901.511	43281.93
901.884	39719.31
902.258	36612.86
902.631	37823.64
903.003	43513.14
903.376	39263.76
903.749	44047.37
904.122	47103.42
904.495	51883.04
904.867	52554.96
905.24	45627.11
905.612	42498.67
905.985	43470.14
906.357	45480.91
906.729	43426.7
907.102	37117.98
907.474	35674.03
907.846	35888.71
908.218	35426.86
908.59	31306.73
908.962	30266.51
909.334	32575.4
909.705	34211.44
910.077	33197.6
910.449	34534.95
910.82	35496.12
911.192	39054.41
911.563	40584.27
911.935	43410.19
912.306	43467.04
912.677	44851.44
913.048	44384.55
913.419	48167.49
913.79	48431.11
914.161	51922.3
914.532	49634.96
914.903	45604.76
915.274	43279.27
915.645	42634.38
916.015	37537.41
916.386	35774.26
916.756	38058.62
917.127	39258.57
917.497	35046.86
917.868	38130.44
918.238	36244.75
918.608	37273.25
918.978	38026.96
919.348	40279.35
919.718	41620.83
920.088	40084.96
920.458	41654.18
920.828	43857
921.198	41579.29
921.567	44430.43
921.937	34422.61
922.306	34751.65
922.676	37477.62
923.045	31271.14
923.415	29720.92
923.784	27069.01
924.153	27837.37
924.522	27806.26
924.891	26139.44
925.26	27993.27
925.629	27336.44
925.998	31430.19
926.367	30672.95
926.736	29202.21
927.104	34806.98
927.473	37398.41
927.842	45149.93
928.21	44701.36
928.578	46991.02
928.947	44437.18
929.315	44713.02
929.683	52433.57
930.051	52841.58
930.42	61380.18
930.788	52484.73
931.156	52063.04
931.523	48796.36
931.891	45078.47
932.259	43299.12
932.627	50169.38
932.994	70992.11
933.362	58678.18
933.729	50970.51
934.097	48767.16
934.464	41239.64
934.831	47589.9
935.199	46926.5
935.566	45519.36
935.933	46174.13
936.3	55912.34
936.667	43542.73
937.034	39250.9
937.401	38835.1
937.767	33505.1
938.134	29828.07
938.501	42087.54
938.867	44835.07
939.234	75759.25
939.6	64651.61
939.967	71186.9
940.333	47642.13
940.699	40566.84
941.065	32555.68
941.431	42635.62
941.798	41121.33
942.163	53976.13
942.529	33726.19
942.895	31050.6
943.261	20069.75
943.627	26321.17
943.992	23050.47
944.358	23092.5
944.723	23172.28
945.089	22608.37
945.454	20920.44
945.82	22334.91
946.185	21465.85
946.55	24884.77
946.915	22340.02
947.28	26250.42
947.645	23109.24
948.01	21293.09
948.375	22197.77
948.74	26603.9
949.104	31031.55
949.469	44762.76
949.834	79135.37
950.198	75065.92
950.562	44940
950.927	37404.66
951.291	44962.41
951.655	38334.25
952.02	36046.8
952.384	27268.72
952.748	23713.13
953.112	23098.01
953.476	20098.21
953.839	18582.47
954.203	18378.74
954.567	23002.95
954.931	36253.71
955.294	31040.37
955.658	31204.54
956.021	53033.32
956.385	89941.01
956.748	132943.81
957.111	206445.35
957.474	231783.05
957.837	261216.94
958.2	197888.08
958.563	71195.04
958.926	48125.56
959.289	72932.65
959.652	81496.23
960.015	61211.75
960.377	87882.62
960.74	100245.41
961.102	173066.11
961.465	185796.95
961.827	99339.25
962.189	190556.49
962.552	132086.97
962.914	105943.93
963.276	68882.48
963.638	56939.19
964	56390.01
964.362	38087.93
964.724	36822.96
965.085	26267.46
965.447	21534.8
965.809	24544.39
966.17	24595.2
966.532	26625.74
966.893	24425.09
967.255	22206.81
967.616	26194.59
967.977	20952.59
968.338	22892.63
968.699	18809.57
969.061	18799.31
969.421	18928.64
969.782	21259.81
970.143	17936.97
970.504	18567.13
970.865	21110.37
971.225	21572.15
971.586	21129.33
971.946	30163.15
972.307	26198.95
972.667	34232.91
973.027	35262.13
973.388	42784.69
973.748	29126.31
974.108	31734.3
974.468	42969.1
974.828	33110.13
975.188	25522.07
975.548	23438.58
975.907	19664.89
976.267	22038.04
976.627	18533.58
976.986	19210.46
977.346	18293.1
977.705	17580.7
978.064	16022.94
978.424	13325.18
978.783	13794.09
979.142	15721.7
979.501	15027.01
979.86	15869.67
980.219	15287.07
980.578	19716.57
980.937	22060.11
981.296	19684.48
981.654	20241.3
982.013	31502.5
982.371	40917.25
982.73	38181.94
983.088	43264.22
983.447	46266.97
983.805	66197.01
984.163	138476.39
984.521	153697.33
984.879	225723.82
985.237	-366740.14
985.595	353666.99
985.953	87821.85
986.311	50680.15
986.669	29447.69
987.026	25384.96
987.384	34108.31
987.741	35269.97
988.099	25196.47
988.456	20088.43
988.814	18784.63
989.171	16326.62
989.528	16097.92
989.885	16975.62
990.242	13460.64
990.599	16751.87
990.956	13702.5
991.313	9589.87
991.67	7870.46
992.027	8337.49
992.383	7403.67
992.74	6505.93
993.096	6832.76
993.453	7083.92
993.809	7361.68
994.165	9798.61
994.522	8987.7
994.878	9912.57
995.234	12432.46
995.59	12265.04
995.946	11614.99
996.302	13261.14
996.658	15314.24
997.013	16872
997.369	20000.13
997.725	25546.09
998.08	16543.39
998.436	25522.89
998.791	35223.55
999.147	35198.84
999.502	38392.82
999.857	27953.26
1000.212	45534.4
1000.567	64873.34
1000.922	37408.81
1001.277	23817.9
1001.632	17709.06
1001.987	22805.64
1002.342	16341.64
1002.696	13069.71
1003.051	10436.84
1003.406	12626.27
1003.76	12539.85
1004.114	12360.91
1004.469	10371.08
1004.823	8596.93
1005.177	9288.47
1005.531	7357.33
1005.885	6528.22
1006.239	7365.28
1006.593	9246.57
1006.947	12358.82
1007.301	9304.43
1007.655	10144.88
1008.008	7437.24
1008.362	8345.72
1008.715	11893.56
1009.069	10775.1
1009.422	16160.88
1009.776	32455.91
1010.129	21557.02
1010.482	17986.61
1010.835	15235.56
1011.188	31745.46
1011.541	29959.29
1011.894	-183812.87
1012.247	541977.55
1012.6	36858.13
1012.952	23334.75
1013.305	12070.98
1013.657	8675.54
1014.01	8212.97
1014.362	6761.51
1014.715	5985.16
1015.067	5193.88
1015.419	5062.68
1015.771	4483.5
1016.123	3993.87
1016.475	4113.9
1016.827	4382.24
1017.179	4707.92
1017.531	4759.35
1017.883	4855.77
1018.234	4687.59
1018.586	5896.54
1018.938	6244.17
1019.289	8651.5
1019.64	9918.76
1019.992	9234.29
1020.343	8473.86
1020.694	6698.99
1021.045	5922.49
1021.396	6750.41
1021.747	7253.47
1022.098	8749.81
1022.449	6395.25
1022.8	5946.04
1023.151	4114.77
1023.501	3637.66
1023.852	3963.85
1024.202	4092.69
1024.553	4494.52
1024.903	4374.26
1025.253	3738.84
1025.604	3376.44
1025.954	4185.71
1026.304	5087.51
1026.654	5925.99
1027.004	8741.29
1027.354	14120.07
1027.703	13248.88
1028.053	17490.78
1028.403	25294.88
1028.753	36753.9
1029.102	50151.53
1029.452	256885.17
1029.801	11068.33
1030.15	7164.41
1030.499	6068.88
897.758	2271.77
901.051	2204.4
904.343	2241.06
907.636	2249.51
910.928	2310.95
914.22	2228.12
917.511	2232.95
920.803	2283.2
924.094	2285.84
927.384	2283.62
930.675	2248.19
933.965	2209.75
937.255	2237.87
940.544	2202.2
943.834	2198.03
947.123	2135.83
950.411	2228.04
953.7	2207.15
956.988	2190.27
960.276	2128.03
963.563	2181.38
966.851	2190.07
970.138	2233.85
973.424	2234.82
976.711	2189.79
979.997	2244.4
983.283	2289.28
986.568	2214.63
989.853	2209.22
993.138	2236.81
996.423	2319.11
999.708	2272.38
1002.992	2304.86
1006.275	2210.28
1009.559	2218.8
1012.842	2318.74
1016.125	2267.39
1019.408	2247.4
1022.69	2309.98
1025.972	2343.65
1029.254	2315.57
1032.536	2272.69
1035.817	2287.4
1039.098	2257.67
1042.379	2318.11
1045.659	2346.35
1048.939	2292.05
1052.219	2303.06
1055.498	2299.73
1058.778	2294.77
1062.057	2269.27
1065.335	2294.39
1068.614	2309.24
1071.892	2302.6
1075.17	2358.67
1078.447	2361.83
1081.724	2354.49
1085.001	2382.74
1088.278	2356.28
1091.554	2363.55
1094.83	2356.83
1098.106	2393.82
1101.382	2426.55
1104.657	2426.73
1107.932	2422.73
1111.206	2399.44
1114.481	2355.01
1117.755	2354.62
1121.029	2344.88
1124.302	2407.41
1127.575	2371.97
1130.848	2367.74
1134.121	2335.34
1137.393	2295.81
1140.665	2355.13
1143.937	2334.87
1147.208	2284.39
1150.48	2338.73
1153.75	2329.45
1157.021	2336.65
1160.291	2311.49
1163.561	2362.85
1166.831	2335.69
1170.101	2362.82
1173.37	2324.02
1176.639	2277.38
1179.907	2324.95
1183.176	2345
1186.444	2347.13
1189.711	2373.27
1192.979	2394.58
1196.246	2348.18
1199.513	2361.6
1202.78	2366.21
1206.046	2374.48
1209.312	2401.61
1212.578	2421.95
1215.843	2385.66
1219.108	2354.45
1222.373	2378.77
1225.638	2348.54
1228.902	2338.55
1232.166	2300.37
1235.43	2286.05
1238.693	2307.62
1241.956	2300.48
1245.219	2348.21
1248.482	2331.59
1251.744	2331.15
1255.006	2456.02
1258.268	2403.49
1261.529	2357
1264.79	2357.35
1268.051	2456.17
1271.312	2468.47
1274.572	2439.16
1277.832	2427.07
1281.092	2411.6
1284.351	2398.06
1287.61	2381.38
1290.869	2313.95
1294.128	2308.37
1297.386	2363.51
1300.644	2357.67
1303.902	2366.02
1307.159	2234.37
1310.416	2285.85
1313.673	2313.86
1316.93	2310.61
1320.186	2343.41
1323.442	2378.04
1326.697	2377.83
1329.953	2353.6
1333.208	2386.53
1336.463	2360.84
1339.717	2318.27
1342.972	2427.48
1346.226	2401.75
1349.479	2348.34
1352.733	2324.41
1355.986	2333.52
1359.238	2314.52
1362.491	2321.74
1365.743	2321.51
1368.995	2314.8
1372.247	2327.77
1375.498	2350.8
1378.749	2388.91
1382	2338.47
1385.251	2379.09
1388.501	2333.18
1391.751	2330.71
1395	2296.33
1398.25	2322.01
1401.499	2343.51
1404.748	2289.59
1407.996	2267.94
1411.244	2255.24
1414.492	2240.07
1417.74	2223.81
1420.987	2228.22
1424.234	2286
1427.481	2253.67
1430.728	2311.33
1433.974	2285.55
1437.22	2286.08
1440.465	2283.56
1443.711	2277.2
1446.956	2300.83
1450.201	2276.99
1453.445	2318.38
1456.689	2304.98
1459.933	2318.26
1463.177	2356.21
1466.42	2329.3
1469.663	2311.99
1472.906	2323.49
1476.148	2374.8
1479.391	2356.56
1482.633	2330.08
1485.874	2351.47
1489.115	2356.58
1492.356	2343.66
1495.597	2322.55
1498.838	2317.38
1502.078	2300.44
1505.318	2268.69
1508.557	2303.43
1511.797	2300.43
1515.036	2337.8
1518.274	2314.2
1521.513	2270.74
1524.751	2285.54
1527.989	2308.28
1531.227	2323.74
1534.464	2334.82
1537.701	2331.85
1540.938	2346.91
1544.174	2296.78
1547.41	2285.82
1550.646	2324.56
1553.882	2373.79
1557.117	2429.09
1560.352	2436.97
1563.587	2399.26
1566.821	2365.44
1570.055	2382.38
1573.289	2364.6
1576.523	2424.16
1579.756	2435.92
1582.989	2457.59
1586.222	2419.43
1589.454	2450.18
1592.686	2433.95
1595.918	2461.09
1599.15	2455.15
1602.381	2505.36
1605.612	2483.51
1608.843	2576.63
1612.073	2498.76
1615.303	2487.48
1618.533	2484.86
1621.762	2482.63
1624.992	2460.11
1628.221	2458.72
1631.449	2446.03
1634.678	2478.84
1637.906	2443.85
1641.134	2474.13
1644.361	2436.83
1647.588	2423.08
1650.815	2443.62
1654.042	2409.91
1657.269	2438.39
1660.495	2410.95
1663.72	2405.06
1666.946	2372.22
1670.171	2341.3
1673.396	2316.54
1676.621	2296.29
1679.845	2298.25
1683.069	2309.54
1686.293	2342.53
1689.517	2328.54
1692.74	2277.31
1695.963	2299.14
1699.185	2335.21
1702.408	2308.41
1705.63	2338.39
1708.852	2354.74
1712.073	2328.26
1715.294	2334.3
1718.515	2379.19
1721.736	2334.86
1724.956	2317.36
1728.176	2339.33
1731.396	2362.84
1734.616	2346.47
1737.835	2383.21
1741.054	2356.35
1744.272	2348.58
1747.491	2386.79
1750.709	2414.09
1753.927	2356.41
1757.144	2385.11
1760.361	2440.39
1763.578	2418.37
1766.795	2367.05
1770.011	2359.57
1773.227	2387.46
1776.443	2427.52
1779.658	2470.54
1782.874	2410.83
1786.089	2401.98
1789.303	2403.77
1792.518	2404.01
1795.732	2390.92
1798.945	2404.73
1802.159	2448.18
1805.372	2384.52
1808.585	2376.03
1811.797	2377.64
1815.01	2402.54
1818.222	2422.15
1821.434	2384.9
1824.645	2430.05
1827.856	2432.16
1831.067	2464.11
1834.278	2406.64
1837.488	2389.68
1840.698	2516.94
1843.908	2455.18
1847.117	2423.56
1850.326	2342.65
1853.535	2410.36
1856.744	2441.56
1859.952	2362.8
1863.16	2366.37
1866.368	2379.75
1869.575	2491.3
1872.782	2372.83
1875.989	2306.47
1879.196	2360.51
1882.402	2350.28
1885.608	2385.75
1888.814	2319.07
1892.019	2226.28
1895.224	2277.23
1898.429	2245.37
1901.634	2229.28
1904.838	2201.32
1908.042	2257.68
1911.246	2269.99
1914.449	2228.49
1917.652	2211.63
1920.855	2190.5
1924.058	2220.27
1927.26	2262.31
1930.462	2285.29
1933.664	2320.73
1936.865	2263.71
1940.066	2280.06
1943.267	2225.83
1946.467	2235.66
1949.668	2254.07
1952.868	2325.74
1956.067	2315.38
1959.267	2254.92
1962.466	2279.51
1965.665	2261.92
1968.863	2256.05
1972.061	2258.88
1975.259	2255.78
1978.457	2328.6
1981.654	2289.25
1984.852	2294.92
1988.048	2243.14
1991.245	2234.61
1994.441	2320.62
1997.637	2282.92
2000.833	2265.54
2004.028	2303.9
2007.223	2366.01
2010.418	2348.33
2013.613	2303.93
2016.807	2293.82
2020.001	2287.97
2023.194	2313.06
2026.388	2297.76
2029.581	2241.15
2032.774	2302.95
2035.966	2313.91
2039.158	2255.01
2042.35	2278.39
2045.542	2203.89
2048.733	2290.96
2051.924	2286.97
2055.115	2308.2
2058.306	2270.82
2061.496	2324.4
2064.686	2379.37
2067.875	2286.9
2071.065	2289.45
2074.254	2310.1
2077.442	2262.88
2080.631	2347.81
2083.819	2269.06
2087.007	2261.29
2090.195	2241.3
2093.382	2263.13
2096.569	2246.19
2099.756	2204.12
2102.942	2247.38
2106.128	2261.3
2109.314	2250.02
2112.5	2230.08
2115.685	2203.67
2118.87	2211.13
2122.055	2272.56
2125.239	2250.53
2128.424	2233.83
2131.608	2300.2
2134.791	2285.88
2137.974	2328.68
2141.157	2317.32
2144.34	2285.95
2147.523	2279.8
2150.705	2301.08
2153.887	2273.03
2157.068	2242.28
2160.25	2226.79
2163.431	2250.92
2166.611	2217.08
2169.792	2239.7
2172.972	2145.57
2176.152	2200.17
2179.331	2228
2182.511	2228.77
2185.69	2251.48
2188.868	2251.71
2192.047	2292.4
2195.225	2304.26
2198.403	2255.41
2201.58	2242.49
2204.758	2228.47
2207.935	2304.52
2211.111	2216.29
2214.288	2206.63
2217.464	2239.83
2220.64	2199.72
2223.815	2252.36
2226.991	2178.83
2230.166	2197.12
2233.34	2234.5
2236.515	2250.73
2239.689	2314.03
2242.863	2263.98
2246.036	2318.59
2249.209	2301.68
2252.382	2324.76
2255.555	2329.51
2258.727	2276.68
2261.9	2309.11
2265.071	2299.1
2268.243	2298.78
2271.414	2244.05
2274.585	2226.45
2277.756	2289.33
2280.926	2240.41
2284.096	2273.18
2287.266	2199.69
2290.436	2247.86
2293.605	2269.71
2296.774	2306
2299.942	2311.93
2303.111	2327.11
2306.279	2379.13
2309.447	2363.79
2312.614	2334.06
2315.781	2362.58
2318.948	2338.27
2322.115	2373.63
2325.281	2273.3
2328.447	2281.55
2331.613	2252.52
2334.779	2241.58
2337.944	2239.8
2341.109	2238.8
2344.274	2228.4
2347.438	2197.77
2350.602	2217.94
2353.766	2228.25
2356.929	2217.93
2360.092	2256.3
2363.255	2224.5
2366.418	2185.27
2369.58	2259.16
2372.742	2118.76
2375.904	2118.01
2379.066	2100.19
2382.227	2123.69
2385.388	2087.48
2388.548	2033.08
2391.709	2077.11
2394.869	2063.4
2398.029	2124.27
2401.188	2125.21
2404.347	2083.31
2407.506	2173.51
2410.665	2209.52
2413.823	2198.48
2416.981	2176.15
2420.139	2193.32
2423.296	2238.65
2426.453	2209.18
2429.61	2230.24
2432.767	2196.36
2435.923	2233.66
2439.079	2186.1
2442.235	2220.96
2445.391	2162.37
2448.546	2202.37
2451.701	2238.62
2454.855	2232.71
2458.009	2261.57
2461.163	2255.68
2464.317	2226.19
2467.471	2252.43
2470.624	2285.31
2473.777	2268.72
2476.929	2287.89
2480.082	2308.4
2483.234	2281.3
2486.385	2221.69
2489.537	2215.13
2492.688	2202.11
2495.839	2217.21
2498.989	2232.17
2502.14	2219.02
2505.29	2206.88
2508.439	2233.36
2511.589	2168.8
2514.738	2173.02
2517.887	2197.8
2521.035	2271.81
2524.183	2236.91
2527.331	2222.8
2530.479	2214.49
2533.627	2217.62
