Data from C_2_HIR_IL_4N_Splice17_12-11-45-140.txt Node
Date: Sat Mar 14 12:11:45 EDT 2020
User: sa697716
Spectrometer: FLMS03696
Trigger mode: 0
Integration Time (sec): 3.180400E-1
Scans to average: 20
Electric dark correction enabled: true
Nonlinearity correction enabled: true
Boxcar width: 5
XAxis mode: Wavelengths
Number of Pixels in Spectrum: 2048
>>>>>Begin Spectral Data<<<<<
187.83	-256752.86
188.298	1937.76
188.766	1070.41
189.233	963.06
189.701	1367.12
190.169	1893.86
190.636	721.03
191.104	552.69
191.571	82.89
192.039	-78.53
192.506	-136.37
192.974	365.66
193.441	-561.95
193.908	-109.88
194.375	-27.24
194.842	9.62
195.31	89.38
195.777	151.1
196.244	354.67
196.711	438.29
197.177	554.78
197.644	769.79
198.111	1335.01
198.578	1880.27
199.045	1513.26
199.511	2450.94
199.978	2872.54
200.445	2410.45
200.911	2641.17
201.378	2905.52
201.844	2618.83
202.31	4421.73
202.777	4623.23
203.243	2535.64
203.709	2352
204.176	2773.45
204.642	2287.44
205.108	2119.19
205.574	1713.94
206.04	1566
206.506	1477.07
206.972	1381.24
207.438	1321.36
207.903	1487.7
208.369	1304.04
208.835	1311.3
209.301	1361.99
209.766	1381.66
210.232	1359.1
210.697	1673.12
211.163	2034.72
211.628	2983.34
212.094	2470.64
212.559	2994.25
213.024	1845.15
213.49	2224.94
213.955	2135.26
214.42	2065.6
214.885	1907.27
215.35	1804.98
215.815	1755.24
216.28	1840.54
216.745	1478.2
217.21	1579.09
217.675	1407.98
218.14	1531.08
218.604	1644.5
219.069	1824.51
219.534	1856.68
219.998	2072.36
220.463	2425.65
220.927	2814.47
221.392	2579.86
221.856	2562.63
222.32	3112.44
222.785	3765.82
223.249	4641.82
223.713	5079.51
224.177	5009.09
224.642	6294.57
225.106	7664.82
225.57	8285.49
226.034	6178.26
226.497	9309.93
226.961	8361.85
227.425	9705.58
227.889	10711.75
228.353	10625.3
228.816	21796.71
229.28	20726.99
229.744	17446.58
230.207	10609.47
230.671	10382.78
231.134	16999.26
231.597	19605.38
232.061	19505.24
232.524	18915
232.987	12979.82
233.45	11685.48
233.914	10458.62
234.377	10683.5
234.84	9746.59
235.303	11423.24
235.766	12724.29
236.229	13087.28
236.691	8203.94
237.154	9206.92
237.617	6937.51
238.08	7085.75
238.542	8283.06
239.005	5934.38
239.468	5903.62
239.93	5562.42
240.393	5048.73
240.855	4434.06
241.317	4537.86
241.78	5507.81
242.242	5683.08
242.704	6172.06
243.166	5395.11
243.629	4926.48
244.091	5681.33
244.553	6215.96
245.015	6685.29
245.477	8637.82
245.939	12628.14
246.4	13414.77
246.862	13016.48
247.324	12293.38
247.786	13703.76
248.247	17862.64
248.709	18309.55
249.17	13678.07
249.632	12944.22
250.093	15093.51
250.555	13033.2
251.016	7972.08
251.477	7577.06
251.939	8199.17
252.4	8582.09
252.861	10184.76
253.322	9520.69
253.783	11320.5
254.244	14684.44
254.705	11524.08
255.166	10177.46
255.627	10014.03
256.088	14156.44
256.549	15049.45
257.009	12905.66
257.47	15623.68
257.931	12695.12
258.391	9493.56
258.852	9771.15
259.312	10232.91
259.773	12609.62
260.233	10692.18
260.694	9025.56
261.154	10208.86
261.614	8204.5
262.074	7347.37
262.534	7658.97
262.994	7224.9
263.455	9610.93
263.915	8106.2
264.374	7626.14
264.834	8329.25
265.294	9192.74
265.754	9532.58
266.214	9002.18
266.673	8419.15
267.133	10588.55
267.593	10469.48
268.052	12812.04
268.512	11116.04
268.971	13456.33
269.431	14741.07
269.89	13184.57
270.349	19791.6
270.809	22073.51
271.268	19855.13
271.727	44473.01
272.186	28852.56
272.645	21631.09
273.104	15524.77
273.563	22459.18
274.022	17572.8
274.481	14985.25
274.94	11540.87
275.399	8545.39
275.857	9912.09
276.316	13403
276.775	11912.36
277.233	11729.79
277.692	11022.25
278.15	12530.67
278.609	12978.89
279.067	12006.85
279.525	11156.88
279.984	14394.02
280.442	17355.56
280.9	17204.68
281.358	11297.13
281.816	10545.92
282.274	10344.63
282.732	10656.09
283.19	10702.82
283.648	9206.61
284.106	9835.78
284.564	9982.28
285.021	9300.57
285.479	6920.02
285.937	6261.73
286.394	5519.35
286.852	5678.89
287.309	5967.88
287.767	5799.2
288.224	5532.8
288.682	6061.44
289.139	6651.09
289.596	6107.44
290.053	6343.98
290.511	7991.68
290.968	9702.76
291.425	13165.08
291.882	10997.52
292.339	9577.7
292.796	9470.82
293.252	8908.69
293.709	7096.93
294.166	6355.33
294.623	7004.93
295.079	6695.01
295.536	6746.24
295.992	6128.19
296.449	6040.8
296.905	6244.92
297.362	6001.91
297.818	6297.95
298.274	6543.31
298.731	6641.2
299.187	6569.09
299.643	7050.4
300.099	8532.87
300.555	9345.75
301.011	7801.88
301.467	7567.14
301.923	8853.92
302.379	8637.82
302.835	8473.92
303.291	8469.32
303.746	9631.96
304.202	12170.55
304.658	12213.22
305.113	8226.01
305.569	8084.33
306.024	8621.82
306.479	8169.79
306.935	6921.14
307.39	7550.18
307.845	7001.34
308.301	7061.92
308.756	6904.71
309.211	6681.73
309.666	6860.72
310.121	8568.47
310.576	8681.48
311.031	8626.49
311.486	9901.12
311.94	9886.31
312.395	13231.42
312.85	24926.14
313.305	122043.93
313.759	636157.59
314.214	45962.25
314.668	36516.93
315.123	30716.36
315.577	11053.09
316.032	9838.34
316.486	12305.64
316.94	9747.92
317.394	6802.31
317.849	5268.49
318.303	4986.9
318.757	4697.99
319.211	5193.53
319.665	4541.34
320.119	4583.6
320.572	6567.25
321.026	6151.62
321.48	5121.56
321.934	5552.14
322.387	5543.56
322.841	5989.12
323.295	5426.45
323.748	6210.87
324.202	6317
324.655	7574.06
325.108	10649.4
325.562	7508.86
326.015	8891.05
326.468	6744.53
326.921	7552.1
327.374	7058.52
327.827	7382.78
328.28	8318.75
328.733	5594.21
329.186	4916.16
329.639	4699.62
330.092	3949
330.545	3776.32
330.997	3832.42
331.45	4214.34
331.903	4958.21
332.355	8515.72
332.808	8276.37
333.26	6852.49
333.713	7480.04
334.165	7552.26
334.617	10082.37
335.069	8097.21
335.522	14586.05
335.974	16046.78
336.426	14624.37
336.878	10065.85
337.33	5136.24
337.782	5017.81
338.234	6319.53
338.686	7533.69
339.137	8927.22
339.589	8357
340.041	6603.63
340.493	5688.19
340.944	5854.9
341.396	6296.43
341.847	5349.2
342.299	6312.57
342.75	7749.43
343.201	6732.37
343.653	7707.91
344.104	9420.63
344.555	7439.54
345.006	11507.44
345.457	8883.78
345.908	7053.92
346.359	6670.59
346.81	5420.77
347.261	5699.3
347.712	5552.72
348.163	5936.91
348.613	6071.16
349.064	5683.74
349.515	4993.72
349.965	5123.61
350.416	6155.11
350.866	6739.96
351.317	7552.64
351.767	12477.05
352.217	15781.18
352.668	13187.92
353.118	12080.94
353.568	11575.64
354.018	9205.04
354.468	9708.78
354.918	7014.06
355.368	6143.66
355.818	8686.36
356.268	24925.42
356.718	104933.27
357.168	26229.19
357.617	13160.74
358.067	14594.01
358.517	13694.6
358.966	16068.55
359.416	18100.22
359.865	19473.88
360.315	23015.22
360.764	10779.38
361.213	6066.75
361.663	5687.3
362.112	6980.19
362.561	11265.03
363.01	8547.43
363.459	7164.34
363.908	7732.07
364.357	6581.93
364.806	11107.01
365.255	7674.88
365.703	7067.59
366.152	7093.1
366.601	5788.34
367.05	4721.7
367.498	4302.93
367.947	4482.61
368.395	4673.35
368.844	4143.32
369.292	4944.99
369.74	3437.56
370.189	5230.43
370.637	6134.01
371.085	5293.4
371.533	6447.57
371.981	6179.4
372.429	5894.12
372.877	6119.25
373.325	5131.39
373.773	5216.15
374.221	4629.48
374.669	5721.73
375.116	4973.83
375.564	4993.29
376.012	5553.3
376.459	4584.3
376.907	5482.81
377.354	6615.16
377.801	6222.53
378.249	7147.99
378.696	9143.12
379.143	11111.23
379.591	11808.87
380.038	19972.55
380.485	14509.01
380.932	15643.02
381.379	14385.47
381.826	10688.49
382.273	7573.15
382.72	6611.38
383.166	6449.41
383.613	4200.82
384.06	3794.58
384.506	4422.81
384.953	3254.04
385.4	3272.76
385.846	2895.31
386.292	2819.15
386.739	2760.31
387.185	2767.18
387.631	2812.82
388.078	2792.57
388.524	3035.8
388.97	2862.72
389.416	2419.6
389.862	2611.1
390.308	2502.75
390.754	2592.21
391.2	2880.62
391.645	3038.66
392.091	3021.27
392.537	3023.83
392.983	3108.39
393.428	3154.42
393.874	3479.2
394.319	3659
394.765	3668.87
395.21	4033.66
395.655	4063.01
396.101	4093.63
396.546	3971.22
396.991	4294.18
397.436	4278.74
397.881	4463.88
398.326	4583.96
398.771	4699.29
399.216	4436.26
399.661	4295.67
400.106	4565.13
400.551	4971.45
400.995	4727.48
401.44	4924.51
401.885	4858.41
402.329	5135.8
402.774	5134.56
403.218	5164.96
403.663	5188.42
404.107	5555.98
404.551	5840
404.995	5608.7
405.44	5671.91
405.884	6030.15
406.328	6099.14
406.772	6328.67
407.216	5998.98
407.66	6059.77
408.104	6059.87
408.547	5944.63
408.991	5999
409.435	6004.97
409.879	6115.41
410.322	6218.46
410.766	6190.49
411.209	6074.73
411.653	6041.07
412.096	6115.31
412.54	6321.18
412.983	6447.63
413.426	6618
413.869	6790.89
414.312	6812.61
414.756	6734.87
415.199	6578.13
415.642	6519.54
416.085	6657.57
416.527	6735.16
416.97	6964.08
417.413	6693.07
417.856	6719.15
418.298	6732.83
418.741	6743.68
419.184	6784.42
419.626	7123.68
420.069	7168.9
420.511	7262.02
420.953	7168.21
421.396	7171.4
421.838	7074.28
422.28	7311.48
422.722	7420.6
423.164	7651.84
423.606	7638.75
424.048	7766.66
424.49	7477.94
424.932	7557.48
425.374	7563.73
425.816	7763.01
426.258	7900.86
426.699	7907.51
427.141	7643.89
427.582	7644.13
428.024	7518.63
428.465	7495.64
428.907	7392.12
429.348	7453.07
429.789	7570.13
430.231	7494.44
430.672	7699.52
431.113	7669.47
431.554	7793.45
431.995	7943.51
432.436	7966
432.877	8073.68
433.318	8131.48
433.759	8271.22
434.2	8385.65
434.64	8415.83
435.081	8558.73
435.522	8237.21
435.962	8095.73
436.403	8045.74
436.843	8292.41
437.284	8250.32
437.724	8137.12
438.164	8275.3
438.604	8167.23
439.045	7916.68
439.485	7662.72
439.925	7620.19
440.365	7547.72
440.805	7542.15
441.245	7514.43
441.685	7284.08
442.125	7281.02
442.564	7359.29
443.004	7196.97
443.444	7200.77
443.883	7245.27
444.323	7261.95
444.762	7354.67
445.202	7503.16
445.641	7647.09
446.081	7672.3
446.52	7767.42
446.959	7725.47
447.398	7581.21
447.837	7559.2
448.276	7490.62
448.716	7600.67
449.154	7691.25
449.593	7474.02
450.032	7420.2
450.471	7293.38
450.91	7281.56
451.349	7225.06
451.787	7172.46
452.226	7241.03
452.664	7199.49
453.103	7166.96
453.541	7126.42
453.98	7044.85
454.418	7069.69
454.856	6909.95
455.295	6864.46
455.733	6859.43
456.171	6863.23
456.609	6816.44
457.047	6772.97
457.485	6815.06
457.923	6784.91
458.361	6673.77
458.798	6694.11
459.236	6672.34
459.674	6746.1
460.111	6784.09
460.549	6737.29
460.987	6745.98
461.424	6754.42
461.862	6746.81
462.299	6670.38
462.736	6674.95
463.173	6721.09
463.611	6632.63
464.048	6627.21
464.485	6698.19
464.922	6675.51
465.359	6690.94
465.796	6543.3
466.233	6537.23
466.67	6499.47
467.106	6517.27
467.543	6514.44
467.98	6483.74
468.416	6404.3
468.853	6423.31
469.29	6287.72
469.726	6262.5
470.162	6131.98
470.599	6167.12
471.035	6150.93
471.471	6040.24
471.907	6055.41
472.344	6039.81
472.78	6048.04
473.216	6122.33
473.652	6030.19
474.088	6005.04
474.523	5955
474.959	5992.65
475.395	5915.87
475.831	5841.43
476.266	5844.43
476.702	5795.98
477.138	5690.41
477.573	5637.44
478.008	5572.73
478.444	5545.57
478.879	5533.27
479.314	5509.85
479.75	5453.44
480.185	5432.28
480.62	5430.94
481.055	5404.25
481.49	5374.69
481.925	5383.42
482.36	5373.46
482.795	5432.08
483.229	5483.9
483.664	5500.91
484.099	5433.79
484.534	5428.17
484.968	5404.54
485.403	5353.98
485.837	5294.66
486.271	5233.76
486.706	5200.3
487.14	5135.78
487.574	5041.78
488.009	4991.1
488.443	4938.49
488.877	4957.6
489.311	4951.13
489.745	4976.97
490.179	4990.11
490.613	5034.39
491.046	5049.85
491.48	5058.77
491.914	5034.35
492.348	5042.84
492.781	5044.16
493.215	5039.62
493.648	5044.28
494.082	5070.07
494.515	5053.74
494.948	5081.94
495.382	5101.78
495.815	5102.54
496.248	5106.88
496.681	5165.44
497.114	5213.6
497.547	5242.96
497.98	5278.38
498.413	5260.98
498.846	5271.96
499.279	5288.68
499.711	5284.38
500.144	5265.48
500.577	5288.12
501.009	5319.46
501.442	5335.63
501.874	5300.58
502.306	5290.91
502.739	5300.06
503.171	5381.34
503.603	5379.35
504.036	5408.49
504.468	5406.45
504.9	5437.45
505.332	5447.02
505.764	5437.8
506.196	5449.28
506.627	5501.1
507.059	5535.3
507.491	5560.81
507.923	5497.08
508.354	5538.98
508.786	5557.16
509.217	5615.4
509.649	5652.45
510.08	5712.32
510.512	5748.34
510.943	5774.14
511.374	5779.79
511.805	5832.58
512.237	5882.18
512.668	6000.78
513.099	6078.34
513.53	6137.04
513.961	6150.51
514.391	6221.7
514.822	6288.04
515.253	6380.63
515.684	6423.67
516.114	6490.41
516.545	6517.49
516.975	6569.64
517.406	6585.24
517.836	6541.6
518.267	6529.57
518.697	6576.27
519.127	6564.46
519.558	6567.74
519.988	6547.5
520.418	6558.76
520.848	6599.07
521.278	6599.15
521.708	6476.69
522.138	6491.15
522.567	6582.6
522.997	6637.22
523.427	6645.82
523.857	6652.41
524.286	6640.31
524.716	6652.42
525.145	6682.5
525.575	6682.63
526.004	6703.73
526.433	6778.88
526.863	6743.48
527.292	6665.03
527.721	6664.59
528.15	6678.89
528.579	6673.82
529.008	6703.8
529.437	6776.86
529.866	6804.23
530.295	6842.5
530.724	6852.95
531.152	6925.57
531.581	6946.3
532.01	6991.01
532.438	7000.13
532.867	7031.49
533.295	7077.04
533.723	7078.36
534.152	7050.36
534.58	7034.56
535.008	6962.63
535.436	6955.68
535.865	6973.48
536.293	7018
536.721	7059.27
537.149	7130.25
537.576	7114.78
538.004	7146.56
538.432	7166.32
538.86	7153.01
539.287	7176.13
539.715	7221.08
540.143	7235.25
540.57	7224.05
540.998	7216.89
541.425	7134.22
541.852	7074.18
542.28	7090.15
542.707	7051.28
543.134	7015.81
543.561	7015.78
543.988	7001.18
544.415	7016
544.842	7009.68
545.269	6992.98
545.696	7011.3
546.123	7082.28
546.549	7056.03
546.976	7016.91
547.403	7024.89
547.829	7046.61
548.256	7070.43
548.682	7068.94
549.108	7051.47
549.535	7065
549.961	7087.37
550.387	7046.94
550.813	7030.15
551.24	7065.71
551.666	7082.37
552.092	7055.98
552.518	7042.34
552.943	7022.61
553.369	7061.09
553.795	7089.09
554.221	7092.44
554.646	7082.31
555.072	7117.28
555.498	7138.71
555.923	7168.61
556.349	7217.72
556.774	7243.2
557.199	7239.5
557.625	7266.01
558.05	7239.1
558.475	7279.62
558.9	7275.78
559.325	7241.42
559.75	7219.93
560.175	7198.26
560.6	7179.44
561.025	7175.6
561.449	7182.44
561.874	7204.85
562.299	7210.33
562.723	7232.75
563.148	7182.46
563.572	7189.48
563.997	7222.51
564.421	7239.3
564.846	7231.86
565.27	7230.41
565.694	7207.64
566.118	7234.56
566.542	7244.68
566.966	7205.69
567.39	7168.65
567.814	7112.35
568.238	7098.07
568.662	7107.83
569.086	7110.75
569.509	7141.07
569.933	7083.86
570.357	7069.58
570.78	7006.65
571.204	6970.88
571.627	6953.91
572.05	6976.11
572.474	7000.48
572.897	6985.53
573.32	6985.7
573.743	6984.5
574.166	6939.68
574.589	6977.36
575.012	6975.75
575.435	7003.85
575.858	7000.35
576.281	6992.55
576.704	6966.68
577.126	6962.17
577.549	6956.16
577.972	6959.66
578.394	6951.96
578.817	6952.51
579.239	6915.53
579.661	6899.19
580.084	6865.71
580.506	6853.02
580.928	6877.13
581.35	6867.89
581.772	6881.64
582.194	6850.46
582.616	6818.35
583.038	6783.08
583.46	6766.46
583.882	6768.53
584.303	6807.02
584.725	6808.75
585.147	6800.81
585.568	6836.25
585.99	6865.58
586.411	6865.48
586.833	6905.68
587.254	6893.46
587.675	6944.38
588.096	6990.04
588.518	6956.02
588.939	6870.9
589.36	6852.92
589.781	6833.34
590.202	6707.51
590.623	6693.13
591.043	6711.44
591.464	6674.18
591.885	6667.41
592.305	6647.45
592.726	6588.54
593.147	6592.82
593.567	6568.93
593.987	6532.44
594.408	6501.43
594.828	6496.07
595.248	6452.09
595.669	6351.2
596.089	6308.6
596.509	6271.11
596.929	6194.3
597.349	6178.57
597.769	6115.76
598.189	6064
598.608	6045.16
599.028	6028.18
599.448	6007.99
599.867	5938.55
600.287	5909.26
600.706	5874.82
601.126	5818.44
601.545	5799.31
601.965	5786.02
602.384	5756.61
602.803	5763.27
603.222	5736.67
603.641	5708.73
604.061	5688.28
604.48	5671.74
604.898	5702.74
605.317	5724
605.736	5731.38
606.155	5718.03
606.574	5678.28
606.992	5700.97
607.411	5681.22
607.829	5652.8
608.248	5644.69
608.666	5643.39
609.085	5643.5
609.503	5612.28
609.921	5589.61
610.339	5603.14
610.758	5609.07
611.176	5596.63
611.594	5565.05
612.012	5560.03
612.43	5577.09
612.847	5608.16
613.265	5608.04
613.683	5628.76
614.101	5640.15
614.518	5633.86
614.936	5601.64
615.353	5547.95
615.771	5544
616.188	5555.33
616.606	5551.72
617.023	5536.69
617.44	5491.35
617.857	5484.34
618.274	5465.62
618.691	5449.24
619.108	5419.52
619.525	5400.9
619.942	5432.48
620.359	5444.5
620.776	5423.37
621.192	5399.96
621.609	5383.24
622.026	5398.46
622.442	5411.94
622.859	5419.96
623.275	5384.35
623.691	5402.11
624.108	5445.11
624.524	5498.98
624.94	5490.35
625.356	5523.11
625.772	5575.66
626.188	5623.5
626.604	5626.54
627.02	5603.51
627.436	5586.54
627.852	5605.82
628.268	5645.94
628.683	5603.12
629.099	5564.76
629.514	5551.55
629.93	5572.22
630.345	5595.23
630.761	5583.53
631.176	5607.24
631.591	5585.11
632.007	5566.76
632.422	5576.35
632.837	5542.94
633.252	5539.12
633.667	5510.81
634.082	5485.04
634.497	5442.61
634.911	5368.85
635.326	5372.66
635.741	5316.4
636.155	5298.37
636.57	5322.17
636.984	5337.95
637.399	5360.26
637.813	5386.07
638.228	5403.4
638.642	5446.04
639.056	5426.61
639.47	5456.66
639.884	5442.64
640.298	5441.56
640.712	5460.75
641.126	5436.07
641.54	5430.78
641.954	5451.17
642.368	5424.56
642.781	5407.53
643.195	5354.99
643.609	5385.3
644.022	5384.28
644.436	5391.45
644.849	5359.32
645.262	5329.87
645.676	5364.18
646.089	5355.61
646.502	5288.09
646.915	5281.74
647.328	5229.43
647.741	5238.44
648.154	5194.86
648.567	5187.99
648.98	5138.15
649.393	5159.83
649.805	5162.87
650.218	5143.34
650.631	5083.34
651.043	5077.14
651.456	5062
651.868	5078.04
652.28	5172.67
652.693	5231.74
653.105	5248.9
653.517	5267.2
653.929	5237.31
654.341	5244.25
654.753	5169.18
655.165	5202.58
655.577	5197.83
655.989	5191.75
656.401	5178.8
656.813	5019.11
657.224	4966.71
657.636	4891.35
658.047	4867.14
658.459	4837.09
658.87	4858.65
659.282	4856.79
659.693	4786.96
660.104	4747.61
660.515	4711.58
660.926	4735.71
661.338	4760.11
661.749	4760.67
662.159	4733.13
662.57	4744.95
662.981	4747.75
663.392	4728.6
663.803	4774.76
664.213	4790.93
664.624	4791.82
665.035	4834.91
665.445	4778.51
665.855	4749.99
666.266	4714.37
666.676	4717.89
667.086	4678.99
667.497	4683.3
667.907	4656.08
668.317	4607.82
668.727	4569.76
669.137	4580.46
669.547	4564.28
669.956	4580.26
670.366	4591.22
670.776	4596.66
671.186	4617.22
671.595	4627.85
672.005	4645.24
672.414	4626
672.824	4603.92
673.233	4641.99
673.642	4643.23
674.052	4642.88
674.461	4635.23
674.87	4653.08
675.279	4617.91
675.688	4619.11
676.097	4604.2
676.506	4567.9
676.915	4640.85
677.323	4639.85
677.732	4613.47
678.141	4593.54
678.549	4520.93
678.958	4503.76
679.366	4481.45
679.775	4500.5
680.183	4519.07
680.592	4530.38
681	4532.71
681.408	4460.02
681.816	4469.22
682.224	4481.76
682.632	4483.35
683.04	4591.23
683.448	4648.02
683.856	4702.71
684.264	4752.61
684.671	4786.52
685.079	4846.84
685.487	4918.14
685.894	5063.06
686.302	5143.49
686.709	5163.56
687.116	5214.4
687.524	5220.05
687.931	5218.45
688.338	5223.99
688.745	5232.29
689.152	5257.11
689.559	5304.48
689.966	5333.44
690.373	5275.06
690.78	5277.39
691.187	5354.92
691.593	5366.88
692	5359.42
692.407	5410.62
692.813	5493.44
693.22	5536.21
693.626	5592.22
694.032	5615.01
694.439	5716.68
694.845	5777.21
695.251	5880.03
695.657	5956.05
696.063	6119.96
696.469	6207.88
696.875	6278.51
697.281	6272.1
697.687	6277.74
698.093	6256.22
698.498	6323.31
698.904	6347.56
699.31	6439.15
699.715	6473.81
700.12	6584.5
700.526	6540.96
700.931	6620.37
701.337	6663.83
701.742	6678.78
702.147	6807.8
702.552	6824.71
702.957	6902.49
703.362	6902.86
703.767	6925
704.172	6972.87
704.577	6841.02
704.981	6901.15
705.386	6894.52
705.791	6839.54
706.195	6948.25
706.6	6924.17
707.004	7048.64
707.408	6956.21
707.813	6969.56
708.217	6908.66
708.621	6877.68
709.025	7029.02
709.43	6990.98
709.834	7070.85
710.237	7169.97
710.641	7107.61
711.045	7114.86
711.449	7062.62
711.853	7066.73
712.256	7105.12
712.66	7127.96
713.064	7209.68
713.467	7207.47
713.87	7309.92
714.274	7262.3
714.677	7303.12
715.08	7406.05
715.484	7501.14
715.887	7627.54
716.29	7742.7
716.693	7846.97
717.096	7994.03
717.499	7991.24
717.901	7890.96
718.304	7863.29
718.707	7897.73
719.109	7796.74
719.512	7824.12
719.915	7699.89
720.317	7685.11
720.719	7797.85
721.122	7797.26
721.524	7761.49
721.926	7717.18
722.328	7858.46
722.731	7805.27
723.133	7780.97
723.535	7984.34
723.937	7932.42
724.338	7930.99
724.74	7929.26
725.142	7773.33
725.544	7752.39
725.945	7765.34
726.347	7752.54
726.748	7733.23
727.15	7746.76
727.551	7685.58
727.952	7635.85
728.354	7589.1
728.755	7597.93
729.156	7565.47
729.557	7617.75
729.958	7494.12
730.359	7475.34
730.76	7512.28
731.161	7495.88
731.562	7529.85
731.962	7602.4
732.363	7570.88
732.763	7534.91
733.164	7637.56
733.564	7570.16
733.965	7443.92
734.365	7406.99
734.766	7461.92
735.166	7408.28
735.566	7317.16
735.966	7265.63
736.366	7247.81
736.766	7151.43
737.166	7196.44
737.566	7135.36
737.966	7098.77
738.365	7159.08
738.765	7145.49
739.165	7030.3
739.564	6984.17
739.964	7057.87
740.363	6995.23
740.763	7001.95
741.162	6990.05
741.561	6944.65
741.96	6874.42
742.36	6907.67
742.759	6919.82
743.158	6984.76
743.557	7009.22
743.955	7073.77
744.354	7003.38
744.753	7085.65
745.152	7015.33
745.55	7091.54
745.949	7075.31
746.348	7067.57
746.746	7079.46
747.144	7004.81
747.543	6954.48
747.941	7007.57
748.339	6884.57
748.737	6850.46
749.136	6820.4
749.534	6900.95
749.932	6839.97
750.33	6857.77
750.727	6928.59
751.125	6882.88
751.523	6851.41
751.921	6901.67
752.318	6842.72
752.716	6915.38
753.113	6926.38
753.511	6951.54
753.908	6938.37
754.305	6897.65
754.703	6970.31
755.1	7037.38
755.497	7099.21
755.894	7322.7
756.291	7479.4
756.688	7752.66
757.085	8052.03
757.482	8453.26
757.878	8801.56
758.275	9011.28
758.672	9444.18
759.068	9658.07
759.465	10096.7
759.861	10675.16
760.258	11336.21
760.654	11422.93
761.05	11019.05
761.447	10487.85
761.843	9935.32
762.239	9437.24
762.635	9357.41
763.031	9249.76
763.427	8961.08
763.822	8640.58
764.218	8353.41
764.614	7877.26
765.01	7635.64
765.405	7547.76
765.801	7514.3
766.196	7365.71
766.592	7350.15
766.987	7149.12
767.382	7039.1
767.778	7053.05
768.173	6988.47
768.568	6967.98
768.963	6861.11
769.358	6919.34
769.753	6889.02
770.148	6800.67
770.542	6811.33
770.937	6779.56
771.332	6900.14
771.726	6921
772.121	6830.06
772.515	6892.94
772.91	6868.44
773.304	6952.33
773.699	6863.07
774.093	6919.48
774.487	6981.79
774.881	7022.66
775.275	7000.49
775.669	6934.05
776.063	6977.1
776.457	7008.57
776.851	6897.94
777.245	6871.22
777.638	6896.8
778.032	7021.53
778.425	6960.42
778.819	6994.14
779.212	6923.85
779.606	6854.46
779.999	6860.23
780.392	6818.42
780.786	6902.25
781.179	6908.76
781.572	6942.22
781.965	6939.06
782.358	6847.17
782.751	6893.87
783.143	6811
783.536	6877.7
783.929	6907.34
784.322	7016.76
784.714	7027.62
785.107	6992.4
785.499	7047.69
785.891	6985.51
786.284	6922.2
786.676	7049.74
787.068	6982.65
787.46	6998.56
787.852	6979.21
788.245	7032.67
788.636	7029.58
789.028	7067.79
789.42	7073.61
789.812	7044.66
790.204	7119.79
790.595	7202.43
790.987	6958.5
791.378	6960.71
791.77	7083.55
792.161	7205.66
792.553	7240.72
792.944	7094.58
793.335	6991.72
793.726	7041.85
794.117	7111.81
794.508	7232.19
794.899	7178.85
795.29	7304.98
795.681	7343.19
796.072	7165.18
796.463	6941.89
796.853	6930.52
797.244	7060.11
797.634	7067.32
798.025	7034.6
798.415	7014.8
798.806	7072.97
799.196	7117.65
799.586	7126.71
799.976	7045.2
800.366	7236.27
800.756	7436.11
801.146	7354.32
801.536	7352.53
801.926	7389.81
802.316	7384.02
802.706	7426.1
803.095	7281.54
803.485	7357.93
803.874	7375.66
804.264	7600.4
804.653	7548.61
805.043	7656.9
805.432	7727.59
805.821	7692.29
806.21	7673.6
806.599	7746.4
806.988	7737.48
807.377	7778.1
807.766	7833.25
808.155	8023.47
808.544	7721.4
808.933	7662.58
809.321	7574.34
809.71	7752.23
810.098	7799.94
810.487	8095.92
810.875	8391.28
811.264	8290.97
811.652	8406.01
812.04	8386.26
812.428	8370.98
812.816	8814.14
813.204	8972.18
813.592	9213.86
813.98	9304.78
814.368	9092.22
814.756	9304.71
815.144	9126.43
815.531	9348.52
815.919	9203.73
816.306	9343.06
816.694	9075.42
817.081	9078.55
817.469	9313.25
817.856	9333.16
818.243	9540.63
818.63	9829.19
819.017	9548.93
819.404	9569.38
819.791	9771.39
820.178	10105.27
820.565	10201.61
820.952	10778.01
821.339	10412.6
821.725	10481.77
822.112	9945.03
822.498	9862.73
822.885	9891.49
823.271	9796.54
823.657	10068.63
824.044	10107.75
824.43	10191.34
824.816	10194.91
825.202	9897.42
825.588	10511.18
825.974	10470.26
826.36	10747.42
826.746	10706.09
827.132	10871.29
827.517	10798.02
827.903	10236.13
828.289	10195.7
828.674	9663.99
829.06	9554.29
829.445	9763.57
829.83	9957.17
830.216	10219.26
830.601	10406.68
830.986	10140.7
831.371	10036.74
831.756	10354.14
832.141	10084.49
832.526	10069.14
832.911	10221.12
833.295	10138.86
833.68	10412.22
834.065	10037.37
834.449	9482.6
834.834	9437.31
835.218	9428.63
835.603	9632.4
835.987	9495.42
836.371	9987.14
836.755	9916.05
837.139	10150.45
837.524	10286.34
837.908	10170.55
838.291	10188.62
838.675	10212.76
839.059	10313.66
839.443	10293.2
839.827	10133.15
840.21	10391.43
840.594	10274.44
840.977	10367.1
841.361	10327.82
841.744	10521.79
842.127	10401.97
842.511	10522.77
842.894	10850.81
843.277	11051.56
843.66	11329.62
844.043	11356.61
844.426	10872.8
844.809	10670.2
845.191	10665.61
845.574	10384.74
845.957	10153.79
846.339	10060.54
846.722	9718.67
847.104	9713.03
847.487	9573.22
847.869	9543.96
848.252	9658.4
848.634	9804.26
849.016	9915.96
849.398	9950.53
849.78	10382.04
850.162	10342.43
850.544	10530.36
850.926	10823.83
851.307	10722.7
851.689	10819.51
852.071	11015.04
852.452	11139.12
852.834	11087.38
853.215	11257.87
853.597	11303.05
853.978	11422.52
854.359	11638.53
854.741	11100.36
855.122	11055.53
855.503	10917.13
855.884	11002.88
856.265	10975.94
856.646	11037.93
857.026	10829.86
857.407	10794.7
857.788	10864.18
858.169	10996.07
858.549	10540.88
858.93	10852.58
859.31	10861.65
859.69	10949.09
860.071	10715.66
860.451	10583.5
860.831	10175.92
861.211	10743.09
861.591	10994.92
861.971	10954.76
862.351	11021.74
862.731	11171.17
863.111	11250.61
863.491	11361.41
863.87	11743.97
864.25	11863.98
864.629	11616.73
865.009	11827.78
865.388	12213.61
865.768	13030.17
866.147	12939.74
866.526	12199.44
866.905	12330.71
867.284	13015.28
867.663	12363.14
868.042	11862.83
868.421	11822.45
868.8	12009.15
869.179	12126.62
869.558	11417.38
869.936	10524.89
870.315	10702.8
870.693	10957.62
871.072	11804.21
871.45	11235.22
871.828	11356.09
872.207	11914.41
872.585	11723.23
872.963	12020.94
873.341	11597.85
873.719	11446.02
874.097	11292.3
874.475	11492.09
874.853	11731.41
875.23	11227.91
875.608	11683.88
875.986	12625.51
876.363	12060.45
876.741	12420.26
877.118	12107.13
877.495	12672.69
877.873	12863.03
878.25	13519.09
878.627	12948.21
879.004	13118.41
879.381	13032.74
879.758	12671.69
880.135	11771.98
880.512	12427.9
880.889	12073.93
881.265	11921.83
881.642	11810.07
882.019	11994.55
882.395	11743.34
882.772	12197.45
883.148	11643.23
883.524	11585.22
883.901	11507.23
884.277	11673.37
884.653	11576.56
885.029	11890.04
885.405	13146.8
885.781	13021.21
886.157	12462.75
886.532	12591.27
886.908	12561.88
887.284	13948.37
887.659	14383.21
888.035	14804.63
888.411	15171.66
888.786	15361.24
889.161	15861.74
889.537	15555.89
889.912	16032.4
890.287	15979.89
890.662	16351.16
891.037	16005.47
891.412	14890.62
891.787	14686.93
892.162	14123.47
892.536	14392.88
892.911	13786.09
893.286	13436.76
893.66	12818.1
894.035	13072.08
894.409	14149.08
894.784	13510.41
895.158	13670.69
895.532	14397.55
895.906	14714.02
896.281	14980.39
896.655	14655.89
897.029	16666.88
897.402	17278.38
897.776	19164.26
898.15	19027.84
898.524	18769.74
898.898	18952.5
899.271	21153.58
899.645	18290.23
900.018	17535.66
900.392	18171.49
900.765	18339.4
901.138	16995.99
901.511	16762.8
901.884	15430.36
902.258	14273.27
902.631	14802.97
903.003	17066.37
903.376	15443.11
903.749	17339.87
904.122	18600.3
904.495	20484.41
904.867	20720.5
905.24	17954.45
905.612	16664.45
905.985	16990.97
906.357	17698.43
906.729	16820.08
907.102	14336.19
907.474	13728.74
907.846	13776.11
908.218	13555.02
908.59	11958.39
908.962	11535.84
909.334	12399.77
909.705	13018.5
910.077	12613.05
910.449	13116.96
910.82	13452.12
911.192	14775.83
911.563	15361.09
911.935	16420.88
912.306	16416.31
912.677	16921.43
913.048	16749.04
913.419	18144.88
913.79	18216.8
914.161	19528.92
914.532	18659.75
914.903	17145.74
915.274	16267.66
915.645	16000.64
916.015	14071.17
916.386	13423.92
916.756	14300.1
917.127	14767.86
917.497	13215.71
917.868	14422.99
918.238	13741.75
918.608	14152.6
918.978	14473.08
919.348	15371.31
919.718	15922.28
920.088	15377.32
920.458	16020.33
920.828	16879.36
921.198	16001.77
921.567	17083.58
921.937	13230.61
922.306	13315.02
922.676	14337.36
923.045	11962.27
923.415	11354.91
923.784	10315.85
924.153	10592.88
924.522	10558.79
924.891	9911.72
925.26	10609.32
925.629	10346.5
925.998	11871.08
926.367	11566.58
926.736	11000.55
927.104	13060.2
927.473	13977.93
927.842	16812.51
928.21	16532.56
928.578	17259.51
928.947	16206.36
929.315	16201.32
929.683	18883.2
930.051	18886.43
930.42	21789.71
930.788	18498.76
931.156	18217.65
931.523	16990.28
931.891	15614.01
932.259	14942.95
932.627	17234.98
932.994	24267.78
933.362	19979.22
933.729	17284.68
934.097	16475.35
934.464	13908.83
934.831	15980.99
935.199	15736.1
935.566	15241.76
935.933	15398.71
936.3	18660.87
936.667	14528.25
937.034	13203.46
937.401	13063.52
937.767	11303.81
938.134	10103.42
938.501	14287.45
938.867	15331.79
939.234	25986.88
939.6	22241.69
939.967	24652.08
940.333	16587.51
940.699	14196.31
941.065	11338.87
941.431	14919.89
941.798	14466.12
942.163	19057.57
942.529	11910.5
942.895	10942.17
943.261	7092.99
943.627	9295.74
943.992	8152.73
944.358	8139.63
944.723	8183.19
945.089	7986.83
945.454	7356.06
945.82	7826.92
946.185	7502.98
946.55	8696.72
946.915	7807.82
947.28	9151.81
947.645	8061.91
948.01	7467.38
948.375	7794.53
948.74	9308.62
949.104	10856.62
949.469	15643.6
949.834	27663
950.198	26330.92
950.562	15823.64
950.927	13184.06
951.291	15854.3
951.655	13496.53
952.02	12640.26
952.384	9562.74
952.748	8347.4
953.112	8162.13
953.476	7118.42
953.839	6575.11
954.203	6508.62
954.567	8096.61
954.931	12687.22
955.294	10874.38
955.658	10941.9
956.021	18624.53
956.385	31502.77
956.748	46422.91
957.111	71714.14
957.474	80247.84
957.837	90203.17
958.2	68130.74
958.563	24585.22
958.926	16680.32
959.289	25251.73
959.652	28188.29
960.015	21162.36
960.377	30387.7
960.74	34729.11
961.102	59990.85
961.465	64721.99
961.827	35057.87
962.189	67218.29
962.552	46757.4
962.914	37544.14
963.276	24363.52
963.638	20198.05
964	19989.23
964.362	13561.45
964.724	13106.12
965.085	9372.2
965.447	7710.44
965.809	8721.39
966.17	8749.27
966.532	9469.12
966.893	8712.48
967.255	7950.78
967.616	9382.52
967.977	7540.3
968.338	8255.68
968.699	6817.02
969.061	6836.84
969.421	6895.36
969.782	7771.5
970.143	6591.38
970.504	6873.8
970.865	7837.23
971.225	8060.16
971.586	7912.25
971.946	11279.87
972.307	9779.61
972.667	12727.78
973.027	13087.66
973.388	15821.07
973.748	10749.46
974.108	11708.03
974.468	15735.72
974.828	12148.15
975.188	9309.08
975.548	8546.01
975.907	7171.62
976.267	8027.72
976.627	6795.01
976.986	7048.21
977.346	6719.93
977.705	6481.83
978.064	5899.08
978.424	4911.37
978.783	5053.54
979.142	5781.1
979.501	5538.16
979.86	5865.64
980.219	5667.16
980.578	7283.47
980.937	8149.57
981.296	7284.51
981.654	7479.1
982.013	11652.23
982.371	15184.8
982.73	14243.83
983.088	16159.59
983.447	17303.93
983.805	24751.48
984.163	51812.35
984.521	57582.04
984.879	84570.06
985.237	-137544.01
985.595	133689.7
985.953	33153.98
986.311	19105.67
986.669	11082.48
987.026	9585.92
987.384	12879.88
987.741	13314.38
988.099	9557.73
988.456	7615.51
988.814	7141.92
989.171	6230.79
989.528	6097.18
989.885	6453.99
990.242	5138.62
990.599	6389.56
990.956	5233.32
991.313	3664.22
991.67	3018.99
992.027	3238.94
992.383	2888.54
992.74	2548.87
993.096	2677.97
993.453	2785.26
993.809	2887.69
994.165	3843.67
994.522	3583.35
994.878	3933.01
995.234	4933.63
995.59	4868.27
995.946	4556.79
996.302	5203.14
996.658	6006.48
997.013	6598.26
997.369	7867.87
997.725	10123.57
998.08	6565.96
998.436	9956.54
998.791	13759.08
999.147	13678.25
999.502	14894.38
999.857	10792.96
1000.212	17614.57
1000.567	25051.25
1000.922	14490.09
1001.277	9205.25
1001.632	6833.06
1001.987	8771.85
1002.342	6332.46
1002.696	5077.07
1003.051	4084.23
1003.406	4965.33
1003.76	4923.49
1004.114	4861.16
1004.469	4081.97
1004.823	3392.74
1005.177	3648.18
1005.531	2895.27
1005.885	2590.69
1006.239	2936.32
1006.593	3717.94
1006.947	4997.11
1007.301	3745.78
1007.655	4098.48
1008.008	3022.12
1008.362	3414.33
1008.715	4855.66
1009.069	4412.82
1009.422	6689.46
1009.776	13441.7
1010.129	8929.68
1010.482	7383.61
1010.835	6195.11
1011.188	12944.18
1011.541	12197.02
1011.894	-74412.35
1012.247	217823.05
1012.6	14786.41
1012.952	9395.3
1013.305	4768.67
1013.657	3436.81
1014.01	3249.32
1014.362	2687.13
1014.715	2438.23
1015.067	2134.33
1015.419	2095.48
1015.771	1863
1016.123	1683.06
1016.475	1736.6
1016.827	1848.05
1017.179	2024.39
1017.531	2032.2
1017.883	2065.83
1018.234	2036.26
1018.586	2577.06
1018.938	2761.11
1019.289	3830.41
1019.64	4349.5
1019.992	4053.23
1020.343	3737.24
1020.694	2992.73
1021.045	2626.36
1021.396	2998.99
1021.747	3244.8
1022.098	3851.36
1022.449	2790.25
1022.8	2571.33
1023.151	1801.83
1023.501	1627.82
1023.852	1757.92
1024.202	1843.66
1024.553	2008.54
1024.903	1975.96
1025.253	1725.55
1025.604	1566.74
1025.954	1938.83
1026.304	2344.76
1026.654	2750.34
1027.004	4039.9
1027.354	6482.38
1027.703	6184.92
1028.053	8112.64
1028.403	12043.42
1028.753	17371.33
1029.102	23247.61
1029.452	117987.33
1029.801	5103.82
1030.15	3301.15
1030.499	2769.66
897.758	2344.24
901.051	2288.91
904.343	2323.09
907.636	2331.6
910.928	2391.75
914.22	2307.99
917.511	2312.22
920.803	2368.73
924.094	2372.9
927.384	2366.63
930.675	2331.03
933.965	2292.58
937.255	2314.98
940.544	2277.2
943.834	2261.31
947.123	2198.38
950.411	2289.67
953.7	2268.36
956.988	2245.54
960.276	2186.92
963.563	2246.34
966.851	2252.85
970.138	2298.16
973.424	2295.06
976.711	2254.07
979.997	2323.82
983.283	2370.01
986.568	2292.54
989.853	2292.38
993.138	2319.51
996.423	2402.08
999.708	2353.27
1002.992	2387.95
1006.275	2282.03
1009.559	2296.97
1012.842	2399.02
1016.125	2344.87
1019.408	2324
1022.69	2391.2
1025.972	2418.43
1029.254	2393.78
1032.536	2344.56
1035.817	2362.24
1039.098	2327
1042.379	2406.63
1045.659	2428.32
1048.939	2371.28
1052.219	2382.44
1055.498	2386.16
1058.778	2376.46
1062.057	2356.79
1065.335	2379.95
1068.614	2392.95
1071.892	2382.98
1075.17	2444.69
1078.447	2442.37
1081.724	2437.61
1085.001	2467.29
1088.278	2445.29
1091.554	2450.18
1094.83	2446.3
1098.106	2479.52
1101.382	2513.87
1104.657	2515.75
1107.932	2511.7
1111.206	2486.97
1114.481	2441.07
1117.755	2440.55
1121.029	2428.52
1124.302	2484.77
1127.575	2447.91
1130.848	2441.82
1134.121	2406.77
1137.393	2365.96
1140.665	2428.39
1143.937	2406.59
1147.208	2359.52
1150.48	2410.78
1153.75	2400.02
1157.021	2413.76
1160.291	2388.3
1163.561	2438.24
1166.831	2415.73
1170.101	2444.24
1173.37	2410.44
1176.639	2360.96
1179.907	2412.37
1183.176	2427.87
1186.444	2429.55
1189.711	2455.56
1192.979	2474.19
1196.246	2429.72
1199.513	2445.03
1202.78	2444.87
1206.046	2455.66
1209.312	2480.6
1212.578	2500.91
1215.843	2460
1219.108	2429.39
1222.373	2455.33
1225.638	2424.24
1228.902	2413.86
1232.166	2375.38
1235.43	2359.93
1238.693	2383.4
1241.956	2376.89
1245.219	2421.51
1248.482	2407.77
1251.744	2406.17
1255.006	2537.72
1258.268	2487.79
1261.529	2438.6
1264.79	2442.29
1268.051	2540.53
1271.312	2550.91
1274.572	2522.78
1277.832	2509.52
1281.092	2496.53
1284.351	2480.33
1287.61	2462.13
1290.869	2391.8
1294.128	2381.44
1297.386	2446.93
1300.644	2435.54
1303.902	2448.4
1307.159	2315.77
1310.416	2366.88
1313.673	2394.9
1316.93	2387.02
1320.186	2422.07
1323.442	2459
1326.697	2455.13
1329.953	2435.47
1333.208	2462.87
1336.463	2441.4
1339.717	2392.2
1342.972	2509.65
1346.226	2484.03
1349.479	2428.18
1352.733	2402.53
1355.986	2417.27
1359.238	2398.29
1362.491	2401.7
1365.743	2404.54
1368.995	2396.54
1372.247	2408.83
1375.498	2430.05
1378.749	2457.2
1382	2412.43
1385.251	2454.91
1388.501	2412.57
1391.751	2405.64
1395	2374.02
1398.25	2402.03
1401.499	2418.01
1404.748	2362.64
1407.996	2344.69
1411.244	2332.88
1414.492	2318.09
1417.74	2297.37
1420.987	2304.18
1424.234	2361.05
1427.481	2331.82
1430.728	2388.02
1433.974	2364.12
1437.22	2367.38
1440.465	2365.24
1443.711	2350.64
1446.956	2378.15
1450.201	2357.05
1453.445	2399.96
1456.689	2382.37
1459.933	2395.33
1463.177	2429.69
1466.42	2403.16
1469.663	2383.52
1472.906	2389.16
1476.148	2443.42
1479.391	2433.48
1482.633	2405.22
1485.874	2424.33
1489.115	2422.44
1492.356	2416.27
1495.597	2393.26
1498.838	2392.2
1502.078	2370.01
1505.318	2335.97
1508.557	2372.83
1511.797	2365.76
1515.036	2396.48
1518.274	2379.47
1521.513	2341.76
1524.751	2355.44
1527.989	2375.28
1531.227	2391.21
1534.464	2395.12
1537.701	2398.69
1540.938	2413.49
1544.174	2366.89
1547.41	2359.56
1550.646	2397.76
1553.882	2441.38
1557.117	2494.52
1560.352	2507.26
1563.587	2468.46
1566.821	2434.37
1570.055	2455.58
1573.289	2434.95
1576.523	2499.07
1579.756	2508.67
1582.989	2528.55
1586.222	2489.88
1589.454	2521.68
1592.686	2503.35
1595.918	2530.32
1599.15	2522.2
1602.381	2577.88
1605.612	2550.72
1608.843	2645.4
1612.073	2566.07
1615.303	2549.7
1618.533	2547.63
1621.762	2548.69
1624.992	2526.78
1628.221	2522.69
1631.449	2509.51
1634.678	2546.45
1637.906	2510.66
1641.134	2542.18
1644.361	2503.43
1647.588	2491.06
1650.815	2513.6
1654.042	2481.59
1657.269	2511.22
1660.495	2480.54
1663.72	2482.1
1666.946	2448.41
1670.171	2412.66
1673.396	2387.36
1676.621	2371.08
1679.845	2376.81
1683.069	2390.32
1686.293	2424
1689.517	2407.96
1692.74	2350.84
1695.963	2375.37
1699.185	2405.21
1702.408	2378.77
1705.63	2413.41
1708.852	2426.4
1712.073	2400.82
1715.294	2401.78
1718.515	2450.73
1721.736	2405.28
1724.956	2390.38
1728.176	2413.51
1731.396	2435.21
1734.616	2420.25
1737.835	2455.12
1741.054	2429.27
1744.272	2421.38
1747.491	2455.76
1750.709	2490.32
1753.927	2422.63
1757.144	2458.15
1760.361	2508.31
1763.578	2488.23
1766.795	2436.89
1770.011	2434.37
1773.227	2463.23
1776.443	2502.3
1779.658	2545.88
1782.874	2487.25
1786.089	2473.86
1789.303	2476.97
1792.518	2472.38
1795.732	2461.08
1798.945	2475.88
1802.159	2518.69
1805.372	2444.14
1808.585	2435.46
1811.797	2434.83
1815.01	2467.33
1818.222	2482.28
1821.434	2453.15
1824.645	2497.98
1827.856	2502.7
1831.067	2535
1834.278	2482.14
1837.488	2466.02
1840.698	2596.82
1843.908	2534.9
1847.117	2502.29
1850.326	2412.83
1853.535	2488.61
1856.744	2512.34
1859.952	2434.2
1863.16	2433.18
1866.368	2447.67
1869.575	2553.82
1872.782	2443.2
1875.989	2380.66
1879.196	2438.18
1882.402	2430.44
1885.608	2466.95
1888.814	2393.21
1892.019	2300.32
1895.224	2352.41
1898.429	2324.29
1901.634	2305.83
1904.838	2282.48
1908.042	2332.91
1911.246	2341.06
1914.449	2296.48
1917.652	2282.39
1920.855	2263.93
1924.058	2299.62
1927.26	2340.32
1930.462	2363.81
1933.664	2397.15
1936.865	2342.58
1940.066	2353.88
1943.267	2299.5
1946.467	2312.27
1949.668	2331.79
1952.868	2401.77
1956.067	2387.47
1959.267	2325.2
1962.466	2349.32
1965.665	2333.54
1968.863	2328.87
1972.061	2332.35
1975.259	2328.89
1978.457	2404.53
1981.654	2365.89
1984.852	2368.79
1988.048	2313.25
1991.245	2308.51
1994.441	2390.96
1997.637	2360.66
2000.833	2344.85
2004.028	2379.14
2007.223	2440.2
2010.418	2423.07
2013.613	2380.64
2016.807	2365.61
2020.001	2366.22
2023.194	2395.78
2026.388	2375.4
2029.581	2320.93
2032.774	2378.11
2035.966	2384.91
2039.158	2327.07
2042.35	2350.01
2045.542	2279.31
2048.733	2365.01
2051.924	2369.57
2055.115	2389.85
2058.306	2347.12
2061.496	2403.25
2064.686	2459.58
2067.875	2370.54
2071.065	2378.26
2074.254	2399.88
2077.442	2353.08
2080.631	2434.68
2083.819	2352.91
2087.007	2344.42
2090.195	2322.96
2093.382	2346.81
2096.569	2330.3
2099.756	2290.13
2102.942	2328.78
2106.128	2337.48
2109.314	2329.94
2112.5	2306.92
2115.685	2280.81
2118.87	2290.11
2122.055	2348.37
2125.239	2323.97
2128.424	2306.14
2131.608	2381.12
2134.791	2364.62
2137.974	2409.17
2141.157	2396.79
2144.34	2358
2147.523	2359.15
2150.705	2379.67
2153.887	2351.8
2157.068	2316.78
2160.25	2308.88
2163.431	2335.71
2166.611	2296.05
2169.792	2314.9
2172.972	2221.05
2176.152	2282.52
2179.331	2314.99
2182.511	2307.05
2185.69	2332.28
2188.868	2331.51
2192.047	2374.6
2195.225	2378.2
2198.403	2331.04
2201.58	2320.67
2204.758	2310.89
2207.935	2388.43
2211.111	2293.76
2214.288	2277.88
2217.464	2315.73
2220.64	2278.86
2223.815	2331.13
2226.991	2259.76
2230.166	2276.34
2233.34	2312.68
2236.515	2327.46
2239.689	2394.2
2242.863	2343.37
2246.036	2397.44
2249.209	2389.99
2252.382	2414.57
2255.555	2413.63
2258.727	2359.64
2261.9	2390.57
2265.071	2383.39
2268.243	2382.97
2271.414	2329.48
2274.585	2303.43
2277.756	2364.27
2280.926	2319.74
2284.096	2352.47
2287.266	2274.63
2290.436	2323.98
2293.605	2348.94
2296.774	2383.07
2299.942	2392.46
2303.111	2409.43
2306.279	2458.54
2309.447	2443.2
2312.614	2415.83
2315.781	2443.5
2318.948	2414.54
2322.115	2452.76
2325.281	2352.92
2328.447	2363.3
2331.613	2336.15
2334.779	2322.54
2337.944	2320.19
2341.109	2318.24
2344.274	2307.39
2347.438	2275.15
2350.602	2293.98
2353.766	2310.27
2356.929	2296.15
2360.092	2338.54
2363.255	2301.48
2366.418	2257.58
2369.58	2339.4
2372.742	2183.71
2375.904	2187.04
2379.066	2168.85
2382.227	2198.29
2385.388	2160.9
2388.548	2101.62
2391.709	2148.48
2394.869	2131.47
2398.029	2203.61
2401.188	2204.84
2404.347	2158.33
2407.506	2257.57
2410.665	2292.99
2413.823	2285.66
2416.981	2255.71
2420.139	2279.95
2423.296	2323.15
2426.453	2296.67
2429.61	2318.04
2432.767	2275.07
2435.923	2313.53
2439.079	2268.94
2442.235	2307.84
2445.391	2245.46
2448.546	2282.38
2451.701	2323.09
2454.855	2307.35
2458.009	2345.48
2461.163	2338.67
2464.317	2306.81
2467.471	2335.44
2470.624	2369.02
2473.777	2348.17
2476.929	2364.62
2480.082	2387.83
2483.234	2358.66
2486.385	2303.06
2489.537	2297.84
2492.688	2276.94
2495.839	2295.83
2498.989	2308
2502.14	2291.78
2505.29	2280.04
2508.439	2306.21
2511.589	2239.47
2514.738	2245.11
2517.887	2270.44
2521.035	2343.14
2524.183	2313.36
2527.331	2297.96
2530.479	2283.35
2533.627	2290.38
