Data from C_2_DEC_NC_4N_Splice17_12-26-23-703.txt Node
Date: Sat Mar 14 12:26:23 EDT 2020
User: sa697716
Spectrometer: FLMS03696
Trigger mode: 0
Integration Time (sec): 3.180400E-1
Scans to average: 20
Electric dark correction enabled: true
Nonlinearity correction enabled: true
Boxcar width: 5
XAxis mode: Wavelengths
Number of Pixels in Spectrum: 2048
>>>>>Begin Spectral Data<<<<<
187.83	-372337.88
188.298	2809.64
188.766	1485.08
189.233	1374.84
189.701	1926.53
190.169	2472.13
190.636	944.7
191.104	691.31
191.571	108.86
192.039	-75.53
192.506	-132.54
192.974	260.72
193.441	-232.28
193.908	54.75
194.375	61.09
194.842	133.11
195.31	160.02
195.777	174.85
196.244	357.89
196.711	415.72
197.177	507.3
197.644	718.98
198.111	1251.21
198.578	1803.61
199.045	1471.07
199.511	2376.04
199.978	2761.61
200.445	2356.29
200.911	2606.11
201.378	2880.25
201.844	2624.87
202.31	4479.77
202.777	4631.25
203.243	2579
203.709	2429.19
204.176	2895.15
204.642	2374.02
205.108	2224.92
205.574	1804.93
206.04	1643.15
206.506	1548.96
206.972	1458.63
207.438	1418.68
207.903	1624.9
208.369	1418.85
208.835	1410.09
209.301	1476.25
209.766	1528.99
210.232	1504.79
210.697	1855.58
211.163	2274.96
211.628	3451.04
212.094	2889.59
212.559	3549.95
213.024	2203.14
213.49	2686.94
213.955	2632.96
214.42	2552.57
214.885	2360.14
215.35	2262.6
215.815	2185.23
216.28	2315.07
216.745	1859.35
217.21	1984.79
217.675	1796.41
218.14	1995.33
218.604	2201.77
219.069	2475.36
219.534	2584.23
219.998	2976.67
220.463	3578.01
220.927	4331.57
221.392	4073.32
221.856	4102.76
222.32	5168.9
222.785	6398.2
223.249	8036.4
223.713	8957.5
224.177	8996.61
224.642	11523.37
225.106	14198.02
225.57	15537.89
226.034	11633.01
226.497	17711.18
226.961	16030.11
227.425	18703.34
227.889	20729.04
228.353	20808.27
228.816	43113.6
229.28	41252.61
229.744	34881.97
230.207	21278.83
230.671	21051.44
231.134	34923.12
231.597	40438.69
232.061	40578.66
232.524	39674.25
232.987	27381.95
233.45	24698.8
233.914	22180.9
234.377	22802.47
234.84	20937.06
235.303	24767.07
235.766	27649.61
236.229	28585.87
236.691	18025.03
237.154	20282.72
237.617	15301.2
238.08	15698.05
238.542	18429.99
239.005	13232.67
239.468	13150.48
239.93	12424.37
240.393	11319.24
240.855	9959.97
241.317	10223.48
241.78	12448.33
242.242	12917.46
242.704	13987.48
243.166	12217.31
243.629	11124.5
244.091	12831.41
244.553	14098.2
245.015	15184.55
245.477	19630.58
245.939	28799.29
246.4	30628.72
246.862	29847.99
247.324	28190.76
247.786	31581.39
248.247	41483.02
248.709	42894.58
249.17	32154.02
249.632	30395.04
250.093	35283.51
250.555	30551.78
251.016	18692.77
251.477	17757.98
251.939	19232.23
252.4	20194.21
252.861	24046.43
253.322	22404.6
253.783	26685.29
254.244	34665.11
254.705	27326.35
255.166	24339.55
255.627	24046.29
256.088	33941.06
256.549	36126.65
257.009	31141.7
257.47	37883.32
257.931	30911.24
258.391	23235.49
258.852	24021.91
259.312	25222.81
259.773	31261.01
260.233	26484.59
260.694	22366.3
261.154	25417.1
261.614	20448.68
262.074	18315.26
262.534	19077.37
262.994	18020.21
263.455	24032.71
263.915	20261.43
264.374	19116.2
264.834	20888.36
265.294	23197.06
265.754	24076.9
266.214	22825.28
266.673	21399.59
267.133	27043.12
267.593	26847.13
268.052	32901.18
268.512	28648.83
268.971	34618.01
269.431	38007.96
269.89	34104.38
270.349	51168.5
270.809	57133.61
271.268	51454.07
271.727	115683.54
272.186	75039.57
272.645	56361.82
273.104	40710.09
273.563	59025.03
274.022	46476.57
274.481	39624.08
274.94	30592.62
275.399	22768.13
275.857	26538.96
276.316	35957.8
276.775	32041.48
277.233	31593.92
277.692	29600.21
278.15	33531
278.609	34544.54
279.067	32031.1
279.525	29825.09
279.984	38531.18
280.442	46396.31
280.9	45818.06
281.358	30176.93
281.816	28160.44
282.274	27629.46
282.732	28598.98
283.19	28804.81
283.648	24925.08
284.106	26607.28
284.564	27061.14
285.021	25148.39
285.479	18767.21
285.937	17099.08
286.394	15034.18
286.852	15501.51
287.309	16329.35
287.767	15821.9
288.224	15063.9
288.682	16533.85
289.139	18165
289.596	16647.61
290.053	17327.52
290.511	21891.94
290.968	26557.04
291.425	36085.75
291.882	30034.92
292.339	26132.64
292.796	25932.2
293.252	24446.65
293.709	19439.67
294.166	17432.63
294.623	19282.48
295.079	18476.9
295.536	18568.71
295.992	16882.91
296.449	16708.37
296.905	17385.82
297.362	16702.47
297.818	17576.59
298.274	18257.71
298.731	18631.34
299.187	18453.14
299.643	19821.14
300.099	24041.35
300.555	26399.66
301.011	22071.34
301.467	21302.09
301.923	24946.03
302.379	24374.82
302.835	24015.84
303.291	24064.56
303.746	27402.87
304.202	34632.89
304.658	34814.25
305.113	23412.7
305.569	22948.1
306.024	24482.88
306.479	23295.75
306.935	19673.73
307.39	21496.94
307.845	19813.59
308.301	19954.78
308.756	19455.39
309.211	18781.81
309.666	19242.77
310.121	23898.61
310.576	24270.33
311.031	24083.7
311.486	27600.97
311.94	27595.26
312.395	36939.9
312.85	69528.42
313.305	341251.23
313.759	1767422.13
314.214	127896.04
314.668	101585.49
315.123	85527.43
315.577	30740.83
316.032	27393.82
316.486	34347.17
316.94	27078.75
317.394	18854.54
317.849	14652.54
318.303	13882.19
318.757	13100.53
319.211	14513.78
319.665	12693.11
320.119	12853.77
320.572	18425.89
321.026	17212.55
321.48	14337.89
321.934	15652.57
322.387	15686.83
322.841	16963.32
323.295	15273.79
323.748	17633.45
324.202	17882.35
324.655	21529.25
325.108	30100.23
325.562	21256.26
326.015	25300.45
326.468	19140.17
326.921	21420.67
327.374	20013.61
327.827	20874.09
328.28	23636.32
328.733	15803.8
329.186	13908.41
329.639	13247.62
330.092	11179.95
330.545	10670.15
330.997	10749.18
331.45	11769.67
331.903	13801.24
332.355	23718.63
332.808	23004.74
333.26	18978.13
333.713	20653.7
334.165	20811.18
334.617	27808.11
335.069	22443.01
335.522	40552.98
335.974	44953.81
336.426	41080.74
336.878	28475.31
337.33	14435.56
337.782	14121.41
338.234	17744.87
338.686	21230.04
339.137	25147.91
339.589	23690.23
340.041	18604.32
340.493	15987.02
340.944	16400.72
341.396	17668.12
341.847	14864.5
342.299	17575.27
342.75	21470.27
343.201	18729.5
343.653	21560.25
344.104	26482.92
344.555	20838.19
345.006	32425.18
345.457	24931.64
345.908	19787.98
346.359	18620.8
346.81	15151.15
347.261	15979.09
347.712	15714.26
348.163	16851.39
348.613	17083.15
349.064	15969.01
349.515	13995.62
349.965	14376.79
350.416	17288.99
350.866	18983.18
351.317	21463.11
351.767	35618.34
352.217	44998.29
352.668	37442.29
353.118	34311.22
353.568	33089.07
354.018	26196.11
354.468	27624.24
354.918	19798.67
355.368	17284.72
355.818	24433.78
356.268	70356.21
356.718	294549.69
357.168	73464.23
357.617	36841.04
358.067	41090.09
358.517	38450.93
358.966	45143.06
359.416	50787.96
359.865	54981.88
360.315	65654.06
360.764	30688.2
361.213	17205.87
361.663	16320.24
362.112	20132.6
362.561	32581.67
363.01	24543.73
363.459	20670.77
363.908	22368.42
364.357	18995.81
364.806	32088.43
365.255	22089.36
365.703	20238.25
366.152	20258.41
366.601	16410.4
367.05	13324.86
367.498	12104.29
367.947	12656.47
368.395	13187.78
368.844	11693.44
369.292	14084.37
369.74	9732.61
370.189	14898.8
370.637	17475.56
371.085	15072.61
371.533	18355.34
371.981	17684.95
372.429	16855.35
372.877	17578.65
373.325	14700.94
373.773	14994.1
374.221	13345.11
374.669	16538.89
375.116	14298.03
375.564	14425.11
376.012	16128.89
376.459	13318.11
376.907	15949.48
377.354	19270.29
377.801	17957.93
378.249	20660.72
378.696	26407.15
379.143	32010.44
379.591	34199.76
380.038	57896.61
380.485	41840.86
380.932	45338.96
381.379	41496.08
381.826	30524.39
382.273	21738.18
382.72	18989.65
383.166	18542.47
383.613	12012.6
384.06	10837
384.506	12545.59
384.953	9219.19
385.4	9276.3
385.846	8119
386.292	7912.69
386.739	7746.56
387.185	7661
387.631	7667.87
388.078	7427.8
388.524	7957.28
388.97	7354.81
389.416	6139.19
389.862	6524.75
390.308	6192.23
390.754	6282.68
391.2	6819.55
391.645	6979.67
392.091	6697.81
392.537	6485.33
392.983	6494.36
393.428	6394.47
393.874	6845.97
394.319	6865.91
394.765	6514.92
395.21	6698.91
395.655	6296.43
396.101	5904.33
396.546	5334.67
396.991	5372.18
397.436	4993.8
397.881	4836.16
398.326	4574.01
398.771	4326.69
399.216	3788.01
399.661	3415.74
400.106	3404.34
400.551	3480.1
400.995	3117.53
401.44	3079.04
401.885	2890.25
402.329	2916.74
402.774	2795.18
403.218	2711.69
403.663	2618.45
404.107	2689.6
404.551	2711.03
404.995	2486.03
405.44	2396.12
405.884	2434.06
406.328	2363.77
406.772	2360.33
407.216	2154.13
407.66	2085.07
408.104	1976.3
408.547	1849.51
408.991	1790.99
409.435	1722.46
409.879	1702.63
410.322	1683.23
410.766	1629.09
411.209	1546.78
411.653	1484.66
412.096	1452.13
412.54	1451.37
412.983	1445.37
413.426	1449.94
413.869	1449.74
414.312	1426.7
414.756	1372.05
415.199	1308.6
415.642	1271.11
416.085	1273.98
416.527	1266.49
416.97	1291.28
417.413	1227.99
417.856	1214.86
418.298	1202.63
418.741	1193.79
419.184	1186.9
419.626	1236.04
420.069	1237.24
420.511	1240.94
420.953	1214.91
421.396	1204.19
421.838	1171.95
422.28	1198.11
422.722	1204.91
423.164	1221.22
423.606	1203.75
424.048	1202.86
424.49	1145.8
424.932	1138.9
425.374	1126.26
425.816	1143.83
426.258	1166.83
426.699	1178.37
427.141	1161.53
427.582	1176.36
428.024	1174.66
428.465	1165.81
428.907	1139.92
429.348	1125.68
429.789	1127.56
430.231	1102.1
430.672	1117.12
431.113	1089.56
431.554	1073.95
431.995	1049.17
432.436	1013.4
432.877	988.29
433.318	972.66
433.759	965.46
434.2	964.95
434.64	955.16
435.081	959.61
435.522	912.8
435.962	881.02
436.403	863.46
436.843	872.96
437.284	855.37
437.724	832.34
438.164	833.24
438.604	815.81
439.045	787.86
439.485	757.12
439.925	741.34
440.365	720.14
440.805	709.61
441.245	701.97
441.685	678.89
442.125	673.85
442.564	680.28
443.004	665.15
443.444	664.54
443.883	664.19
444.323	658.05
444.762	659.71
445.202	670.58
445.641	683.97
446.081	680.54
446.52	684.13
446.959	680.03
447.398	663.62
447.837	658.76
448.276	648.44
448.716	655.96
449.154	662.51
449.593	648.74
450.032	648.6
450.471	638.23
450.91	640.65
451.349	640.81
451.787	637.93
452.226	648.32
452.664	649.65
453.103	651.39
453.541	650.93
453.98	651.77
454.418	658.82
454.856	648.43
455.295	646.79
455.733	651.22
456.171	655.14
456.609	659.06
457.047	660.43
457.485	669.75
457.923	671.95
458.361	664.1
458.798	666.4
459.236	662.59
459.674	668.92
460.111	672.85
460.549	667.57
460.987	665.82
461.424	661.87
461.862	658.01
462.299	648.77
462.736	648.37
463.173	649.73
463.611	642.54
464.048	642.77
464.485	646.79
464.922	641.76
465.359	637.01
465.796	629.51
466.233	625
466.67	619.53
467.106	617.1
467.543	611.1
467.98	604.47
468.416	589.07
468.853	583.75
469.29	566.02
469.726	560.29
470.162	545.23
470.599	538.27
471.035	533.72
471.471	521.72
471.907	518.74
472.344	515.91
472.78	516.97
473.216	523.75
473.652	517.44
474.088	516.64
474.523	515.56
474.959	522.23
475.395	517.57
475.831	515.02
476.266	517.24
476.702	516.63
477.138	510.38
477.573	508.26
478.008	505.84
478.444	508.37
478.879	513.93
479.314	515.95
479.75	515.03
480.185	517.37
480.62	521.12
481.055	524.2
481.49	528.36
481.925	536.09
482.36	546.33
482.795	561.95
483.229	577.06
483.664	589.14
484.099	591.34
484.534	601.32
484.968	607.97
485.403	611.03
485.837	610.66
486.271	610.13
486.706	611.92
487.14	605.48
487.574	596.77
488.009	591.76
488.443	587.62
488.877	594.61
489.311	596.93
489.745	603.8
490.179	610.29
490.613	622.62
491.046	628.57
491.48	634.79
491.914	637.07
492.348	643.56
492.781	649.37
493.215	651.69
493.648	654.04
494.082	660.14
494.515	662.88
494.948	671.23
495.382	678.15
495.815	683.95
496.248	690.42
496.681	704.78
497.114	716.94
497.547	728.1
497.98	743.16
498.413	751.33
498.846	762.71
499.279	771.69
499.711	777.75
500.144	781.36
500.577	793.1
501.009	805.78
501.442	817.32
501.874	820.68
502.306	825.2
502.739	834.7
503.171	851.28
503.603	856.83
504.036	869.42
504.468	877.46
504.9	890.16
505.332	899.52
505.764	906.11
506.196	914.84
506.627	931.12
507.059	946.83
507.491	957.02
507.923	956.18
508.354	973.23
508.786	984.81
509.217	1004.59
509.649	1020.1
510.08	1040.21
510.512	1058.41
510.943	1074.73
511.374	1087.53
511.805	1108.31
512.237	1128.06
512.668	1162.07
513.099	1189.51
513.53	1218.39
513.961	1239.46
514.391	1272.98
514.822	1306.58
515.253	1341.6
515.684	1366.82
516.114	1396.44
516.545	1417.34
516.975	1443.61
517.406	1459
517.836	1460.36
518.267	1466.16
518.697	1482.8
519.127	1485.48
519.558	1491.46
519.988	1494.41
520.418	1503.09
520.848	1518.34
521.278	1526.04
521.708	1543.45
522.138	1556.95
522.567	1587.46
522.997	1610.95
523.427	1625.91
523.857	1643.35
524.286	1653.18
524.716	1666.92
525.145	1684.74
525.575	1694.86
526.004	1707.85
526.433	1698.22
526.863	1696.08
527.292	1684.28
527.721	1688.62
528.15	1693.22
528.579	1692.62
529.008	1701.81
529.437	1724.35
529.866	1737.48
530.295	1754.39
530.724	1765.9
531.152	1792.31
531.581	1806.89
532.01	1824.53
532.438	1832.49
532.867	1846.77
533.295	1864.78
533.723	1870.85
534.152	1868.33
534.58	1868.76
535.008	1851.83
535.436	1854.35
535.865	1863.04
536.293	1877.33
536.721	1893.31
537.149	1920.04
537.576	1921.43
538.004	1933.26
538.432	1940.99
538.86	1938.56
539.287	1945.02
539.715	1960.5
540.143	1962.99
540.57	1958.26
540.998	1954.26
541.425	1931.12
541.852	1907.88
542.28	1907.63
542.707	1891.39
543.134	1877.67
543.561	1874.01
543.988	1865.89
544.415	1864.53
544.842	1858.88
545.269	1852.53
545.696	1854.86
546.123	1868.76
546.549	1859.01
546.976	1845.22
547.403	1844.98
547.829	1846.62
548.256	1849.03
548.682	1844.72
549.108	1836.81
549.535	1836.63
549.961	1837.85
550.387	1823.93
550.813	1818.09
551.24	1824.94
551.666	1826.14
552.092	1816.35
552.518	1809.95
552.943	1802.57
553.369	1811.15
553.795	1816.69
554.221	1817.71
554.646	1816.1
555.072	1827.88
555.498	1833.31
555.923	1843.51
556.349	1859.52
556.774	1869
557.199	1871.21
557.625	1879.49
558.05	1874.49
558.475	1886.29
558.9	1886.06
559.325	1877.39
559.75	1871.89
560.175	1865.63
560.6	1859.44
561.025	1856.2
561.449	1857.89
561.874	1864.78
562.299	1869.22
562.723	1877.82
563.148	1868.62
563.572	1874.05
563.997	1886.55
564.421	1893.72
564.846	1896.43
565.27	1901.92
565.694	1903.6
566.118	1917.33
566.542	1927.18
566.966	1923.27
567.39	1919.91
567.814	1910.06
568.238	1911.21
568.662	1918.04
569.086	1922.31
569.509	1931.46
569.933	1917.33
570.357	1910.31
570.78	1890.71
571.204	1876.91
571.627	1867.28
572.05	1867.16
572.474	1869.7
572.897	1858.21
573.32	1851.11
573.743	1842.14
574.166	1824.01
574.589	1825.35
575.012	1819.18
575.435	1818.72
575.858	1811.55
576.281	1800.47
576.704	1784.66
577.126	1772.82
577.549	1762.06
577.972	1752.69
578.394	1742.39
578.817	1735.85
579.239	1716.81
579.661	1703.68
580.084	1687.79
580.506	1674.91
580.928	1671.8
581.35	1660.29
581.772	1655.58
582.194	1641.97
582.616	1629.5
583.038	1615.23
583.46	1605.29
583.882	1602.79
584.303	1607.65
584.725	1603.01
585.147	1604.72
585.568	1616.5
585.99	1630.29
586.411	1638.01
586.833	1654.76
587.254	1656.54
587.675	1671.66
588.096	1684.44
588.518	1678.62
588.939	1661.44
589.36	1660.15
589.781	1649.5
590.202	1619.53
590.623	1611.04
591.043	1609.21
591.464	1595.26
591.885	1592.33
592.305	1586.82
592.726	1572.07
593.147	1573.57
593.567	1568.54
593.987	1560.85
594.408	1555.86
594.828	1554.03
595.248	1546.91
595.669	1528.03
596.089	1521.88
596.509	1515.46
596.929	1501.16
597.349	1502.43
597.769	1491.58
598.189	1484.29
598.608	1486.28
599.028	1489.48
599.448	1490.13
599.867	1477.75
600.287	1473.26
600.706	1468.08
601.126	1457.03
601.545	1456.35
601.965	1456.09
602.384	1451.78
602.803	1454.43
603.222	1449.23
603.641	1441.97
604.061	1437.85
604.48	1432.91
604.898	1440.86
605.317	1446.46
605.736	1448.88
606.155	1445.93
606.574	1435.43
606.992	1441.32
607.411	1438.01
607.829	1430.06
608.248	1427.38
608.666	1425.72
609.085	1425.86
609.503	1417.21
609.921	1411.83
610.339	1414.91
610.758	1415.01
611.176	1411.95
611.594	1402.42
612.012	1398.88
612.43	1402.91
612.847	1408.91
613.265	1411.26
613.683	1417.23
614.101	1419.24
614.518	1415.47
614.936	1405.72
615.353	1390.35
615.771	1387.13
616.188	1387.98
616.606	1384.95
617.023	1377.71
617.44	1363.41
617.857	1355.02
618.274	1346.01
618.691	1340.45
619.108	1329.69
619.525	1323.09
619.942	1329.52
620.359	1331.12
620.776	1325.84
621.192	1321.08
621.609	1319.41
622.026	1327.31
622.442	1334.07
622.859	1338.18
623.275	1329.42
623.691	1336.08
624.108	1348.48
624.524	1364.95
624.94	1366.71
625.356	1378.27
625.772	1393.23
626.188	1406.3
626.604	1408.41
627.02	1404
627.436	1401.6
627.852	1410.5
628.268	1424.15
628.683	1413.82
629.099	1404.62
629.514	1398.73
629.93	1401.06
630.345	1404.35
630.761	1398.19
631.176	1401.11
631.591	1395.34
632.007	1388.7
632.422	1386.28
632.837	1373.14
633.252	1371.63
633.667	1359.68
634.082	1349.07
634.497	1335.06
634.911	1314.42
635.326	1309.97
635.741	1290.52
636.155	1277.62
636.57	1276.81
636.984	1274.54
637.399	1275.63
637.813	1272.84
638.228	1271.4
638.642	1274.29
639.056	1262.88
639.47	1262.3
639.884	1251.91
640.298	1243.66
640.712	1241.82
641.126	1228.23
641.54	1217.41
641.954	1209.4
642.368	1195.16
642.781	1185.14
643.195	1165.63
643.609	1164.31
644.022	1155.34
644.436	1150.15
644.849	1136.37
645.262	1122.52
645.676	1122.44
646.089	1115.9
646.502	1099.74
646.915	1091.89
647.328	1071.94
647.741	1067.96
648.154	1053.55
648.567	1049.9
648.98	1035.56
649.393	1035.68
649.805	1030.96
650.218	1021.98
650.631	1005.39
651.043	997.98
651.456	992.14
651.868	991.95
652.28	1008.66
652.693	1021.18
653.105	1026.68
653.517	1035.58
653.929	1033.96
654.341	1038.36
654.753	1025.79
655.165	1030.34
655.577	1026.83
655.989	1020.79
656.401	1011.69
656.813	975.13
657.224	954.13
657.636	923.59
658.047	903.54
658.459	883.11
658.87	871.64
659.282	858.44
659.693	837.27
660.104	820.42
660.515	804.91
660.926	801.28
661.338	795.43
661.749	786.63
662.159	776.23
662.57	769.66
662.981	762.67
663.392	753.89
663.803	754.01
664.213	748.47
664.624	741.71
665.035	741.33
665.445	726.17
665.855	717.56
666.266	707.01
666.676	702
667.086	689.8
667.497	686.04
667.907	677.91
668.317	668.32
668.727	663.67
669.137	662.19
669.547	657.69
669.956	656.88
670.366	655.51
670.776	655.26
671.186	656.96
671.595	659.83
672.005	661.16
672.414	659.95
672.824	657.07
673.233	659.22
673.642	660.49
674.052	662.03
674.461	664.14
674.87	667.65
675.279	664.48
675.688	664.29
676.097	665.37
676.506	661.86
676.915	672.12
677.323	674.58
677.732	672.54
678.141	671.87
678.549	663.71
678.958	662.5
679.366	662.52
679.775	668.38
680.183	680.19
680.592	687.18
681	696.14
681.408	693.39
681.816	702.84
682.224	714.39
682.632	727.68
683.04	758.31
683.448	785.02
683.856	817.75
684.264	856.28
684.671	891.64
685.079	934.62
685.487	981.79
685.894	1047.92
686.302	1103.15
686.709	1151.53
687.116	1206.26
687.524	1255.36
687.931	1299.47
688.338	1337.07
688.745	1367.63
689.152	1402.03
689.559	1448.72
689.966	1493.56
690.373	1515.95
690.78	1558.35
691.187	1622.15
691.593	1669.71
692	1709.06
692.407	1769.38
692.813	1843.77
693.22	1904.03
693.626	1965.2
694.032	2011.76
694.439	2087.22
694.845	2144.71
695.251	2217.5
695.657	2280.61
696.063	2379.88
696.469	2450.13
696.875	2515.84
697.281	2549.18
697.687	2591.2
698.093	2625.59
698.498	2696.37
698.904	2746.29
699.31	2829.21
699.715	2885.62
700.12	2973.56
700.526	2983.42
700.931	3046.67
701.337	3090.01
701.742	3118.92
702.147	3199.55
702.552	3224.69
702.957	3279.8
703.362	3295.44
703.767	3320.52
704.172	3356.13
704.577	3301.94
704.981	3346.48
705.386	3360.89
705.791	3351.06
706.195	3420.44
706.6	3423.28
707.004	3497.22
707.408	3462.85
707.813	3486.87
708.217	3470.27
708.621	3467.43
709.025	3560.34
709.43	3557.15
709.834	3610.62
710.237	3675.24
710.641	3658.63
711.045	3676.42
711.449	3669.36
711.853	3692.53
712.256	3728.82
712.66	3759.87
713.064	3829.31
713.467	3867.48
713.87	3972.64
714.274	4012.47
714.677	4113.73
715.08	4262.85
715.484	4422.42
715.887	4616.05
716.29	4805.29
716.693	5003.21
717.096	5231.02
717.499	5354.64
717.901	5374.39
718.304	5397.15
718.707	5418.85
719.109	5319.53
719.512	5283.7
719.915	5149.03
720.317	5090.29
720.719	5130.04
721.122	5098.02
721.524	5047.72
721.926	5003.44
722.328	5094.94
722.731	5080.71
723.133	5104.49
723.535	5283.19
723.937	5301.54
724.338	5347.35
724.74	5383.39
725.142	5322.24
725.544	5318.39
725.945	5342.14
726.347	5336.53
726.748	5326.32
727.15	5336.84
727.551	5300.15
727.952	5269.94
728.354	5243.75
728.755	5243.1
729.156	5200.14
729.557	5182.98
729.958	5064.84
730.359	5009.95
730.76	4992.12
731.161	4936.75
731.562	4912.71
731.962	4913.51
732.363	4850.59
732.763	4786.66
733.164	4818.74
733.564	4755.33
733.965	4665.61
734.365	4632.39
734.766	4657.04
735.166	4620.73
735.566	4566.77
735.966	4540.3
736.366	4533.01
736.766	4477.42
737.166	4509.9
737.566	4470.48
737.966	4444.73
738.365	4479.98
738.765	4474.09
739.165	4405.73
739.564	4376.45
739.964	4417.95
740.363	4376.11
740.763	4374.54
741.162	4362.35
741.561	4328.61
741.96	4286.47
742.36	4305.75
742.759	4310.3
743.158	4345.65
743.557	4358.33
743.955	4398.41
744.354	4356.9
744.753	4406.44
745.152	4368.56
745.55	4419.28
745.949	4413.68
746.348	4416.37
746.746	4429.43
747.144	4393.87
747.543	4373.71
747.941	4420.14
748.339	4354.73
748.737	4345.91
749.136	4340.26
749.534	4399.01
749.932	4374.69
750.33	4396.97
750.727	4446.97
751.125	4425.81
751.523	4410.21
751.921	4452.84
752.318	4418.92
752.716	4474.43
753.113	4490.27
753.511	4513.98
753.908	4515.11
754.305	4497.67
754.703	4556.15
755.1	4613.63
755.497	4668.51
755.894	4846.99
756.291	5011.4
756.688	5320.96
757.085	5732.25
757.482	6307.41
757.878	6935.98
758.275	7509.62
758.672	8296.32
759.068	8931.9
759.465	9842.27
759.861	11024.55
760.258	12387.83
760.654	13095.14
761.05	12987.75
761.447	12391.91
761.843	11536.37
762.239	10652.93
762.635	10248.57
763.031	9864.83
763.427	9315.49
763.822	8736.46
764.218	8157.9
764.614	7413.38
765.01	6908.79
765.405	6587.8
765.801	6341.51
766.196	6027.9
766.592	5855.06
766.987	5562.85
767.382	5365
767.778	5283.42
768.173	5160.93
768.568	5093.32
768.963	4976.01
769.358	4998.46
769.753	4955.7
770.148	4878.6
770.542	4879.87
770.937	4849.94
771.332	4935.54
771.726	4951.82
772.121	4891.79
772.515	4942.77
772.91	4929.97
773.304	4999.14
773.699	4935.57
774.093	4985.28
774.487	5035.8
774.881	5075.22
775.275	5073.26
775.669	5031.48
776.063	5074.3
776.457	5106.73
776.851	5037.9
777.245	5031.32
777.638	5062.5
778.032	5172.22
778.425	5138.86
778.819	5179.93
779.212	5139.9
779.606	5101.09
779.999	5121.62
780.392	5106.86
780.786	5184.71
781.179	5204.38
781.572	5245.46
781.965	5255.35
782.358	5200.89
782.751	5254.41
783.143	5209.56
783.536	5277.51
783.929	5316.73
784.322	5424.91
784.714	5450.36
785.107	5449.56
785.499	5518.38
785.891	5495.37
786.284	5479.74
786.676	5614.31
787.068	5595.97
787.46	5642.97
787.852	5663.01
788.245	5745.42
788.636	5771.18
789.028	5835.89
789.42	5869.06
789.812	5876.29
790.204	5970.3
790.595	6061.31
790.987	5875.12
791.378	5895.46
791.77	6018.45
792.161	6145.75
792.553	6198.09
792.944	6094.91
793.335	6032.23
793.726	6100.32
794.117	6180.5
794.508	6305.39
794.899	6275.6
795.29	6408.42
795.681	6461.16
796.072	6326.04
796.463	6153.69
796.853	6162.44
797.244	6308.18
797.634	6340.12
798.025	6342.32
798.415	6357.42
798.806	6437.31
799.196	6517.55
799.586	6564.62
799.976	6532.73
800.366	6749.59
800.756	6974.78
801.146	6936.7
801.536	6965.34
801.926	7033.71
802.316	7058.59
802.706	7125.52
803.095	7019.34
803.485	7118.58
803.874	7158.18
804.264	7400.21
804.653	7375.97
805.043	7510.01
805.432	7614.45
805.821	7614.51
806.21	7639.7
806.599	7755.89
806.988	7800.64
807.377	7899.23
807.766	8018.99
808.155	8283.28
808.544	8038.63
808.933	8058.93
809.321	8039.05
809.71	8320.06
810.098	8472.61
810.487	8903.04
810.875	9351.1
811.264	9373.97
811.652	9644.13
812.04	9784.73
812.428	9940.2
812.816	10657.75
813.204	11045.65
813.592	11562.05
813.98	11876.8
814.368	11793.11
814.756	12239.69
815.144	12161.18
815.531	12594.51
815.919	12527.19
816.306	12813.98
816.694	12524.76
817.081	12571.82
817.469	12892.65
817.856	12894.43
818.243	13140.13
818.63	13509.13
819.017	13124.52
819.404	13178.96
819.791	13535.95
820.178	14109.08
820.565	14340.54
820.952	15211.86
821.339	14752
821.725	14929.03
822.112	14236.17
822.498	14201.85
822.885	14321.86
823.271	14228.95
823.657	14623.58
824.044	14630.05
824.43	14697.92
824.816	14672.08
825.202	14273.44
825.588	15222.09
825.974	15239.56
826.36	15724.24
826.746	15759.83
827.132	16092.34
827.517	16067.89
827.903	15336.46
828.289	15379.47
828.674	14659.79
829.06	14559.04
829.445	14929.92
829.83	15271.35
830.216	15720.82
830.601	16066.87
830.986	15683.43
831.371	15562.58
831.756	16087.87
832.141	15690.25
832.526	15683.96
832.911	15948.25
833.295	15844.4
833.68	16284.08
834.065	15707.95
834.449	14847.1
834.834	14781.33
835.218	14786.86
835.603	15101.62
835.987	14908.22
836.371	15688.04
836.755	15591.51
837.139	15968.28
837.524	16192.08
837.908	16023.13
838.291	16083.5
838.675	16154.1
839.059	16344.27
839.443	16324.59
839.827	16107.91
840.21	16557.54
840.594	16416.55
840.977	16620.13
841.361	16604.66
841.744	16961.86
842.127	16820.98
842.511	17048.49
842.894	17607.08
843.277	17960.96
843.66	18470.27
844.043	18556.76
844.426	17796.83
844.809	17511.52
845.191	17530.55
845.574	17095.37
845.957	16753.05
846.339	16650.13
846.722	16150.52
847.104	16218.82
847.487	16059.14
847.869	16076.97
848.252	16334.16
848.634	16649.56
849.016	16896.32
849.398	17019.31
849.78	17814.52
850.162	17822.88
850.544	18208.13
850.926	18803
851.307	18712.15
851.689	18984.17
852.071	19407.62
852.452	19712.18
852.834	19696.73
853.215	20069.03
853.597	20216.01
853.978	20492.06
854.359	20910.09
854.741	19978.24
855.122	19884.36
855.503	19617.18
855.884	19741.31
856.265	19678.23
856.646	19796.51
857.026	19428.34
857.407	19369.68
857.788	19509.82
858.169	19784.34
858.549	18984.34
858.93	19569.74
859.31	19617.93
859.69	19816.67
860.071	19446.66
860.451	19242.95
860.831	18535.68
861.211	19618.09
861.591	20135.7
861.971	20122.67
862.351	20302.15
862.731	20674.6
863.111	20921.41
863.491	21230.4
863.87	22055.29
864.25	22374.34
864.629	22005.88
865.009	22494.61
865.388	23290.47
865.768	24954.42
866.147	24848.34
866.526	23476.15
866.905	23759.89
867.284	25102.47
867.663	23838.96
868.042	22846.97
868.421	22762.88
868.8	23138.31
869.179	23371.19
869.558	22018.89
869.936	20296.6
870.315	20657.96
870.693	21165.25
871.072	22823.17
871.45	21739.69
871.828	22020.34
872.207	23159.32
872.585	22817.43
872.963	23443.09
873.341	22626.3
873.719	22358.87
874.097	22096.07
874.475	22510.79
874.853	23024.02
875.23	22075.87
875.608	22999.58
875.986	24864.86
876.363	23776.48
876.741	24507.3
877.118	23896.05
877.495	25082.46
877.873	25502.29
878.25	26837.61
878.627	25749.67
879.004	26121.11
879.381	25987.14
879.758	25316.84
880.135	23575.42
880.512	24935.08
880.889	24271.9
881.265	24021.81
881.642	23826.18
882.019	24221.3
882.395	23725.17
882.772	24666.41
883.148	23597.64
883.524	23508.29
883.901	23367.79
884.277	23732.37
884.653	23570.92
885.029	24252.14
885.405	26857.38
885.781	26645.66
886.157	25558.46
886.532	25868.15
886.908	25860.94
887.284	28745
887.659	29676.57
888.035	30603.7
888.411	31375.74
888.786	31792.09
889.161	32898.28
889.537	32301.41
889.912	33333.38
890.287	33300.01
890.662	34156.73
891.037	33547.04
891.412	31295.97
891.787	31000.84
892.162	29911.61
892.536	30622.2
892.911	29480.03
893.286	28850.38
893.66	27672.83
894.035	28373.67
894.409	30900.39
894.784	29661.83
895.158	30136.65
895.532	31918.91
895.906	32787.61
896.281	33567.27
896.655	33038.22
897.029	37743.15
897.402	39327.32
897.776	43799
898.15	43670.71
898.524	43186.76
898.898	43766.92
899.271	49016.96
899.645	42452.07
900.018	40762.41
900.392	42272.1
900.765	42599.18
901.138	39420.78
901.511	38814.75
901.884	35630.2
902.258	32871.29
902.631	33972.85
903.003	39103.39
903.376	35271.95
903.749	39535.79
904.122	42328.95
904.495	46589.95
904.867	47193.79
905.24	40974.87
905.612	38121.97
905.985	38991.61
906.357	40742.12
906.729	38893.37
907.102	33214.98
907.474	31950.29
907.846	32177.72
908.218	31744.39
908.59	28067.29
908.962	27145.56
909.334	29249.13
909.705	30735.22
910.077	29842.61
910.449	31063.33
910.82	31926.85
911.192	35138.05
911.563	36517.29
911.935	39060.68
912.306	39122.46
912.677	40402.57
913.048	39985.45
913.419	43353.89
913.79	43602.77
914.161	46742.74
914.532	44697.69
914.903	41093.24
915.274	39023.56
915.645	38468.66
916.015	33854.18
916.386	32290.72
916.756	34349.08
917.127	35442.44
917.497	31664.43
917.868	34471.33
918.238	32760.2
918.608	33704.98
918.978	34397.84
919.348	36444.66
919.718	37648.88
920.088	36273.68
920.458	37670.77
920.828	39654.85
921.198	37593.42
921.567	40196.72
921.937	31139.96
922.306	31450.63
922.676	33907.85
923.045	28292.97
923.415	26870.86
923.784	24485.88
924.153	25182.68
924.522	25171.73
924.891	23670.53
925.26	25363.59
925.629	24745.16
925.998	28455.61
926.367	27767.65
926.736	26444.72
927.104	31482.4
927.473	33843.62
927.842	40850.78
928.21	40455.17
928.578	42538.9
928.947	40230.86
929.315	40482.38
929.683	47522.17
930.051	47888.24
930.42	55628.04
930.788	47573.17
931.156	47239.18
931.523	44285.13
931.891	40911.21
932.259	39297.23
932.627	45510.77
932.994	64360.68
933.362	53180.78
933.729	46169.58
934.097	44202.93
934.464	37400.54
934.831	43173.55
935.199	42570.98
935.566	41277.16
935.933	41899.27
936.3	50751.58
936.667	39518.22
937.034	35681.64
937.401	35297.42
937.767	30460.72
938.134	27112.15
938.501	38247.18
938.867	40727.98
939.234	68873.37
939.6	58807.93
939.967	64711.29
940.333	43342.53
940.699	36891.43
941.065	29614.86
941.431	38819.76
941.798	37440.83
942.163	49144.32
942.529	30697.67
942.895	28269.28
943.261	18278.55
943.627	23966.11
943.992	20991.5
944.358	21012.82
944.723	21094.71
945.089	20554.01
945.454	18999.25
945.82	20282.29
946.185	19516.79
946.55	22629.61
946.915	20280.02
947.28	23777.44
947.645	20936.64
948.01	19316.88
948.375	20138
948.74	24139.84
949.104	28143.88
949.469	40645.22
949.834	71851.87
950.198	68005
950.562	40742.39
950.927	33929.24
951.291	40851.11
951.655	34786.67
952.02	32663.79
952.384	24697.95
952.748	21509.43
953.112	20980.77
953.476	18242.42
953.839	16878.58
954.203	16721.2
954.567	20923.08
954.931	32962.74
955.294	28178.89
955.658	28337.66
956.021	48230.34
956.385	81848.97
956.748	120809.23
957.111	187437.11
957.474	210428.97
957.837	236702.31
958.2	179070.01
958.563	64367.29
958.926	43504.75
959.289	66060.19
959.652	73886.81
960.015	55371.98
960.377	79398.61
960.74	90601.35
961.102	156227.41
961.465	167975.69
961.827	90018.79
962.189	172796.1
962.552	119749.72
962.914	96100.97
963.276	62361.32
963.638	51501.92
964	51018.64
964.362	34507.69
964.724	33325.51
965.085	23781
965.447	19476.84
965.809	22204.23
966.17	22237.66
966.532	24072.78
966.893	22112.43
967.255	20122.68
967.616	23762.22
967.977	19032.92
968.338	20796.61
968.699	17090.66
969.061	17088.51
969.421	17203.35
969.782	19288.75
970.143	16275.28
970.504	16872.1
970.865	19156.71
971.225	19577.49
971.586	19145.84
971.946	27279.56
972.307	23677.23
972.667	30988.32
973.027	31925.13
973.388	38690.09
973.748	26306.24
974.108	28698.03
974.468	38801.35
974.828	29924.13
975.188	23049.59
975.548	21182.67
975.907	17790.56
976.267	19917.07
976.627	16727.07
976.986	17342.3
977.346	16566.04
977.705	15939.64
978.064	14493.86
978.424	12068.73
978.783	12484.57
979.142	14254.7
979.501	13647.56
979.86	14419.16
980.219	13910.58
980.578	17943.77
980.937	20073.36
981.296	17859.51
981.654	18389.97
982.013	28650.71
982.371	37167.76
982.73	34679.79
983.088	39239.56
983.447	41888.73
983.805	59890.86
984.163	125095.74
984.521	138675.22
984.879	203297.77
985.237	-330610.33
985.595	318575.03
985.953	79167.61
986.311	45745
986.669	26568.19
987.026	22940.76
987.384	30802.95
987.741	31844.85
988.099	22789.16
988.456	18163.78
988.814	17017.18
989.171	14785.14
989.528	14584.82
989.885	15388.97
990.242	12179.89
990.599	15158.73
990.956	12384.24
991.313	8668.11
991.67	7119.12
992.027	7553.87
992.383	6713.54
992.74	5889.7
993.096	6179.42
993.453	6406.8
993.809	6641.43
994.165	8842.47
994.522	8102.49
994.878	8940.7
995.234	11206.86
995.59	11040.07
995.946	10423.43
996.302	11908.11
996.658	13749.26
997.013	15166.76
997.369	18008.21
997.725	23092.15
998.08	14940.4
998.436	23072.64
998.791	31834.71
999.147	31771.77
999.502	34736.6
999.857	25280.84
1000.212	41216.48
1000.567	58788.55
1000.922	33934.94
1001.277	21521.76
1001.632	15929.02
1001.987	20542.28
1002.342	14721.69
1002.696	11765.5
1003.051	9394.77
1003.406	11362.26
1003.76	11314.95
1004.114	11150.02
1004.469	9362.03
1004.823	7745.33
1005.177	8364.42
1005.531	6637.34
1005.885	5891.39
1006.239	6652.72
1006.593	8348.69
1006.947	11213.81
1007.301	8438.18
1007.655	9195.92
1008.008	6745.31
1008.362	7608.96
1008.715	10871.79
1009.069	9901.87
1009.422	14901.75
1009.776	29848.65
1010.129	19768.79
1010.482	16529.72
1010.835	13951.49
1011.188	28979.09
1011.541	27282.92
1011.894	-166500.64
1012.247	487734.09
1012.6	33099.13
1012.952	20807.82
1013.305	10706.79
1013.657	7710.53
1014.01	7315.68
1014.362	6014.07
1014.715	5347.56
1015.067	4652.7
1015.419	4545.46
1015.771	4030.93
1016.123	3587.61
1016.475	3675.41
1016.827	3915.71
1017.179	4209.48
1017.531	4251.58
1017.883	4331.9
1018.234	4182.86
1018.586	5271.27
1018.938	5586.52
1019.289	7708.5
1019.64	8816.97
1019.992	8208.52
1020.343	7548.59
1020.694	5988.16
1021.045	5290.87
1021.396	6051.22
1021.747	6493.75
1022.098	7799.17
1022.449	5627.68
1022.8	5233.46
1023.151	3633.57
1023.501	3228.35
1023.852	3513.19
1024.202	3643
1024.553	3983.19
1024.903	3897.77
1025.253	3332.45
1025.604	3001.95
1025.954	3719.24
1026.304	4560
1026.654	5306.36
1027.004	7795.88
1027.354	12677.99
1027.703	11903.54
1028.053	15635.1
1028.403	22968.12
1028.753	33153.55
1029.102	44911.38
1029.452	230734.01
1029.801	9948.48
1030.15	6422.81
1030.499	5426.44
897.758	2622
901.051	2582.75
904.343	2617.71
907.636	2618.67
910.928	2683.75
914.22	2592.04
917.511	2600.55
920.803	2663.11
924.094	2679.82
927.384	2661.55
930.675	2628.5
933.965	2582.07
937.255	2592.39
940.544	2559.26
943.834	2506.18
947.123	2447.86
950.411	2545
953.7	2517.57
956.988	2486.2
960.276	2429.22
963.563	2506.42
966.851	2501.83
970.138	2556.94
973.424	2549.17
976.711	2499.39
979.997	2624.37
983.283	2660.43
986.568	2567.2
989.853	2583.5
993.138	2610.99
996.423	2690.83
999.708	2631.2
1002.992	2692.65
1006.275	2538.44
1009.559	2578.93
1012.842	2690.83
1016.125	2623.4
1019.408	2604.49
1022.69	2692.15
1025.972	2708.99
1029.254	2683.9
1032.536	2617.87
1035.817	2642.96
1039.098	2589.45
1042.379	2725.55
1045.659	2728.68
1048.939	2663.72
1052.219	2683.86
1055.498	2694.64
1058.778	2678.13
1062.057	2664.69
1065.335	2685.85
1068.614	2703.26
1071.892	2689.65
1075.17	2764.25
1078.447	2753.74
1081.724	2743.48
1085.001	2780.98
1088.278	2754.82
1091.554	2765.59
1094.83	2762.72
1098.106	2790.57
1101.382	2833.23
1104.657	2835.19
1107.932	2828.95
1111.206	2795.25
1114.481	2755.37
1117.755	2756.28
1121.029	2736.8
1124.302	2789.95
1127.575	2744.1
1130.848	2729.99
1134.121	2691.58
1137.393	2642.99
1140.665	2712.26
1143.937	2686.59
1147.208	2645.85
1150.48	2684.99
1153.75	2671.87
1157.021	2702.77
1160.291	2674.97
1163.561	2720.41
1166.831	2709.37
1170.101	2742.1
1173.37	2717.79
1176.639	2659.9
1179.907	2718.13
1183.176	2724.27
1186.444	2729.95
1189.711	2759.83
1192.979	2774.75
1196.246	2726.76
1199.513	2745.55
1202.78	2745.42
1206.046	2752.81
1209.312	2777.19
1212.578	2801.46
1215.843	2755.16
1219.108	2730.79
1222.373	2754.27
1225.638	2718.19
1228.902	2699.65
1232.166	2667.62
1235.43	2647.44
1238.693	2670.47
1241.956	2667.62
1245.219	2708.47
1248.482	2699.17
1251.744	2694.23
1255.006	2840.39
1258.268	2794.99
1261.529	2739.4
1264.79	2745.28
1268.051	2851.78
1271.312	2867.53
1274.572	2829.24
1277.832	2821.02
1281.092	2811.73
1284.351	2786.54
1287.61	2765.85
1290.869	2680.97
1294.128	2659.3
1297.386	2747.74
1300.644	2734.65
1303.902	2744.03
1307.159	2606.55
1310.416	2661.42
1313.673	2683.01
1316.93	2666.32
1320.186	2712.54
1323.442	2754.55
1326.697	2745.94
1329.953	2735.81
1333.208	2756.59
1336.463	2739.16
1339.717	2678.28
1342.972	2810.42
1346.226	2786.38
1349.479	2721.33
1352.733	2691.67
1355.986	2714.22
1359.238	2690.38
1362.491	2691.66
1365.743	2696.58
1368.995	2690.31
1372.247	2704.29
1375.498	2727.1
1378.749	2740.76
1382	2698.1
1385.251	2751.99
1388.501	2713.1
1391.751	2696.43
1395	2668.72
1398.25	2699.87
1401.499	2706.57
1404.748	2635.91
1407.996	2623.5
1411.244	2610.32
1414.492	2591.37
1417.74	2569.12
1420.987	2577.5
1424.234	2633.99
1427.481	2613.86
1430.728	2670.19
1433.974	2643.95
1437.22	2656.18
1440.465	2660.2
1443.711	2625.19
1446.956	2659.5
1450.201	2646.57
1453.445	2689.87
1456.689	2667.53
1459.933	2680.79
1463.177	2712.66
1466.42	2686.36
1469.663	2665.02
1472.906	2660.35
1476.148	2728.01
1479.391	2698.79
1482.633	2667.2
1485.874	2677.46
1489.115	2665.55
1492.356	2672.51
1495.597	2646.41
1498.838	2650.32
1502.078	2619.35
1505.318	2573.72
1508.557	2616.3
1511.797	2593.87
1515.036	2657.74
1518.274	2649.09
1521.513	2621.75
1524.751	2644.5
1527.989	2654.69
1531.227	2669.53
1534.464	2663.5
1537.701	2681.76
1540.938	2699.77
1544.174	2651.7
1547.41	2653.87
1550.646	2690.33
1553.882	2729.47
1557.117	2782.59
1560.352	2793.91
1563.587	2753.76
1566.821	2713.81
1570.055	2748.13
1573.289	2720.88
1576.523	2795.03
1579.756	2804.1
1582.989	2819.02
1586.222	2784.41
1589.454	2816.56
1592.686	2791.09
1595.918	2819.01
1599.15	2809.47
1602.381	2881.76
1605.612	2837.63
1608.843	2935.55
1612.073	2849.93
1615.303	2831.6
1618.533	2826.12
1621.762	2821.93
1624.992	2815.6
1628.221	2802.67
1631.449	2785.93
1634.678	2840.86
1637.906	2796.27
1641.134	2834.92
1644.361	2789.3
1647.588	2778.8
1650.815	2797.01
1654.042	2776.35
1657.269	2810.5
1660.495	2759.65
1663.72	2780.82
1666.946	2747.18
1670.171	2691.58
1673.396	2668.37
1676.621	2654.74
1679.845	2673.95
1683.069	2692.28
1686.293	2734.21
1689.517	2705.79
1692.74	2635.68
1695.963	2666.86
1699.185	2682.6
1702.408	2657.96
1705.63	2698.11
1708.852	2709.19
1712.073	2683.02
1715.294	2669.39
1718.515	2730.59
1721.736	2677.98
1724.956	2670.32
1728.176	2695.65
1731.396	2716.69
1734.616	2703.55
1737.835	2731.84
1741.054	2711.92
1744.272	2702.43
1747.491	2733.53
1750.709	2787.08
1753.927	2694.31
1757.144	2737.67
1760.361	2778.51
1763.578	2771.57
1766.795	2713.82
1770.011	2718.68
1773.227	2756.43
1776.443	2792.3
1779.658	2838.34
1782.874	2783.35
1786.089	2758.17
1789.303	2759.64
1792.518	2769.3
1795.732	2757.71
1798.945	2765.42
1802.159	2815.19
1805.372	2721.09
1808.585	2705.22
1811.797	2707.15
1815.01	2755.59
1818.222	2755.98
1821.434	2741.61
1824.645	2799.61
1827.856	2782.2
1831.067	2817.4
1834.278	2775.74
1837.488	2758.41
1840.698	2904.85
1843.908	2832.12
1847.117	2794.61
1850.326	2680.8
1853.535	2782.04
1856.744	2794.92
1859.952	2710.37
1863.16	2712.8
1866.368	2733.22
1869.575	2833.85
1872.782	2719.63
1875.989	2659.99
1879.196	2740.56
1882.402	2730.87
1885.608	2770.55
1888.814	2674.85
1892.019	2573.72
1895.224	2623.82
1898.429	2606.1
1901.634	2585.9
1904.838	2564.65
1908.042	2613.62
1911.246	2620.87
1914.449	2555.69
1917.652	2552.63
1920.855	2534.63
1924.058	2581.88
1927.26	2617.99
1930.462	2646.66
1933.664	2671.84
1936.865	2610.03
1940.066	2615.18
1943.267	2565.39
1946.467	2580.78
1949.668	2607.63
1952.868	2672.11
1956.067	2652.19
1959.267	2584.89
1962.466	2612.11
1965.665	2597.33
1968.863	2591.57
1972.061	2606.1
1975.259	2605.62
1978.457	2681.79
1981.654	2642.94
1984.852	2641.58
1988.048	2577.99
1991.245	2579.93
1994.441	2664.34
1997.637	2649.43
2000.833	2630.45
2004.028	2671.04
2007.223	2725.56
2010.418	2701.87
2013.613	2665.6
2016.807	2634.27
2020.001	2643.37
2023.194	2685.15
2026.388	2660.32
2029.581	2609.31
2032.774	2654.97
2035.966	2659.28
2039.158	2591.35
2042.35	2619.52
2045.542	2551.16
2048.733	2646.21
2051.924	2669.06
2055.115	2697.44
2058.306	2642.47
2061.496	2703.7
2064.686	2762.99
2067.875	2680.23
2071.065	2698.11
2074.254	2722.95
2077.442	2672.6
2080.631	2760.35
2083.819	2656.36
2087.007	2639.32
2090.195	2608.21
2093.382	2641.72
2096.569	2621.66
2099.756	2577.69
2102.942	2603.24
2106.128	2605.71
2109.314	2599.67
2112.5	2564.32
2115.685	2540.64
2118.87	2550.54
2122.055	2614.39
2125.239	2583.4
2128.424	2560.79
2131.608	2661.19
2134.791	2642.44
2137.974	2699.71
2141.157	2685.85
2144.34	2636.57
2147.523	2653.66
2150.705	2667.05
2153.887	2646.12
2157.068	2597.44
2160.25	2597.22
2163.431	2632.34
2166.611	2580.51
2169.792	2595.86
2172.972	2490.83
2176.152	2568.21
2179.331	2605.56
2182.511	2584.12
2185.69	2614.77
2188.868	2610.1
2192.047	2662.85
2195.225	2653.96
2198.403	2605.43
2201.58	2596.6
2204.758	2595.05
2207.935	2677
2211.111	2564.44
2214.288	2546.44
2217.464	2588.54
2220.64	2555.66
2223.815	2609.71
2226.991	2533.18
2230.166	2553.9
2233.34	2583.4
2236.515	2608.14
2239.689	2676.65
2242.863	2622.97
2246.036	2681.21
2249.209	2678.98
2252.382	2714.21
2255.555	2706.43
2258.727	2642.71
2261.9	2684.47
2265.071	2675.93
2268.243	2676.39
2271.414	2609.91
2274.585	2573.16
2277.756	2639.88
2280.926	2593.5
2284.096	2637.06
2287.266	2542.91
2290.436	2597.15
2293.605	2627.73
2296.774	2655.72
2299.942	2674.78
2303.111	2693.2
2306.279	2741.2
2309.447	2728.62
2312.614	2703.42
2315.781	2726.62
2318.948	2694.61
2322.115	2733.83
2325.281	2633.2
2328.447	2653.09
2331.613	2627.97
2334.779	2602.65
2337.944	2605.93
2341.109	2602.61
2344.274	2583.28
2347.438	2550.21
2350.602	2574.38
2353.766	2593.56
2356.929	2579.69
2360.092	2623.59
2363.255	2575.83
2366.418	2510.73
2369.58	2621.6
2372.742	2413.95
2375.904	2428.04
2379.066	2406.94
2382.227	2440.92
2385.388	2404.6
2388.548	2329.81
2391.709	2383.7
2394.869	2363.06
2398.029	2460.52
2401.188	2472.19
2404.347	2407.72
2407.506	2544.35
2410.665	2573.56
2413.823	2575.77
2416.981	2533.27
2420.139	2564.55
2423.296	2614.05
2426.453	2585.91
2429.61	2611.41
2432.767	2543.93
2435.923	2582.37
2439.079	2547.11
2442.235	2594.95
2445.391	2522.15
2448.546	2556.13
2451.701	2602.82
2454.855	2575.01
2458.009	2627.57
2461.163	2630.88
2464.317	2588.43
2467.471	2622.4
2470.624	2659.19
2473.777	2629.22
2476.929	2642.63
2480.082	2670.58
2483.234	2633.46
2486.385	2588.42
2489.537	2580.72
2492.688	2544.07
2495.839	2560.76
2498.989	2572.72
2502.14	2558.77
2505.29	2542.83
2508.439	2565.72
2511.589	2491.58
2514.738	2502.61
2517.887	2534.16
2521.035	2598.32
2524.183	2581.45
2527.331	2559.14
2530.479	2534.74
2533.627	2544.73
