Data from C_2_DEC_ON_6N_Splice17_12-15-42-327.txt Node
Date: Sat Mar 14 12:15:42 EDT 2020
User: sa697716
Spectrometer: FLMS03696
Trigger mode: 0
Integration Time (sec): 3.180400E-1
Scans to average: 20
Electric dark correction enabled: true
Nonlinearity correction enabled: true
Boxcar width: 5
XAxis mode: Wavelengths
Number of Pixels in Spectrum: 2048
>>>>>Begin Spectral Data<<<<<
187.83	-319328.28
188.298	2341.04
188.766	1222.67
189.233	1107.21
189.701	1581.62
190.169	2162.21
190.636	849.22
191.104	705.9
191.571	170.26
192.039	2.27
192.506	12.72
192.974	608.62
193.441	-797.89
193.908	-187.92
194.375	-10.39
194.842	33.83
195.31	96.64
195.777	181.89
196.244	364.79
196.711	450.61
197.177	548.17
197.644	753.24
198.111	1311.3
198.578	1819.44
199.045	1451.41
199.511	2384.18
199.978	2784.44
200.445	2416.78
200.911	2668.77
201.378	2993.26
201.844	2722.63
202.31	4648.8
202.777	4908.21
203.243	2750.21
203.709	2621.17
204.176	3109.88
204.642	2559.13
205.108	2388.66
205.574	1933.22
206.04	1752.85
206.506	1634.62
206.972	1531.75
207.438	1479.16
207.903	1647.87
208.369	1450.26
208.835	1444.85
209.301	1516.42
209.766	1563.43
210.232	1553.85
210.697	1913.92
211.163	2362.92
211.628	3586.15
212.094	3039.21
212.559	3739.07
213.024	2349.44
213.49	2856.67
213.955	2795.94
214.42	2733.01
214.885	2513.73
215.35	2429.01
215.815	2345.9
216.28	2491.45
216.745	2022.69
217.21	2178.72
217.675	1986.65
218.14	2220.32
218.604	2473.24
219.069	2803.69
219.534	2932.08
219.998	3403.04
220.463	4126.19
220.927	5044.34
221.392	4740.51
221.856	4811.61
222.32	6070.11
222.785	7519.88
223.249	9473.29
223.713	10547.05
224.177	10580.38
224.642	13574.18
225.106	16716.04
225.57	18239.67
226.034	13606.89
226.497	20748.82
226.961	18753.89
227.425	21806.98
227.889	24189.3
228.353	24190.53
228.816	49897.66
229.28	47681.64
229.744	40225.31
230.207	24489.52
230.671	24081.71
231.134	39819.44
231.597	45985.79
232.061	46003.25
232.524	44901.68
232.987	30963.39
233.45	27935.28
233.914	25075.05
234.377	25721.48
234.84	23549.57
235.303	27743.46
235.766	30997.65
236.229	32083.35
236.691	20207.49
237.154	22696.02
237.617	17072.81
238.08	17480.67
238.542	20443.09
239.005	14626.33
239.468	14536.17
239.93	13731.66
240.393	12500.4
240.855	10973.48
241.317	11221.9
241.78	13648.95
242.242	14112.79
242.704	15266.8
243.166	13293.89
243.629	12083.25
244.091	13949.54
244.553	15292.88
245.015	16441.54
245.477	21292.11
245.939	31248.89
246.4	33212
246.862	32309.42
247.324	30523.62
247.786	34144.9
248.247	44863.39
248.709	46353.18
249.17	34714.85
249.632	32739.13
250.093	37975.77
250.555	32759.18
251.016	19987.01
251.477	18976.42
251.939	20475.87
252.4	21476.33
252.861	25558.64
253.322	23767.76
253.783	28282.95
254.244	36669.44
254.705	28882.06
255.166	25670.05
255.627	25305.47
256.088	35693.3
256.549	37883.92
257.009	32656.06
257.47	39583.41
257.931	32212.11
258.391	24129.63
258.852	24855.28
259.312	26030.1
259.773	32110.05
260.233	27102.03
260.694	22823.38
261.154	25855.38
261.614	20729.48
262.074	18506.38
262.534	19215.26
262.994	18096.85
263.455	24066.15
263.915	20277.33
264.374	19082.56
264.834	20839.59
265.294	23089.46
265.754	23923.18
266.214	22635.56
266.673	21192.03
267.133	26736.76
267.593	26523.08
268.052	32465.94
268.512	28232.21
268.971	34023.57
269.431	37309.44
269.89	33388.96
270.349	50053.05
270.809	55780.16
271.268	50105.26
271.727	112376.52
272.186	72749.02
272.645	54563.2
273.104	39344.31
273.563	56934.56
274.022	44765.59
274.481	38081.56
274.94	29330.23
275.399	21800.42
275.857	25381.72
276.316	34340.39
276.775	30545.35
277.233	30095.19
277.692	28166.48
278.15	31837.14
278.609	32794.66
279.067	30346.45
279.525	28191.61
279.984	36426.32
280.442	43757.91
280.9	43120.02
281.358	28370.76
281.816	26464.01
282.274	25919.42
282.732	26774.61
283.19	26904.93
283.648	23183.64
284.106	24678.64
284.564	25102.27
285.021	23266.62
285.479	17334.43
285.937	15761.1
286.394	13839.37
286.852	14251.16
287.309	14974.88
287.767	14482.49
288.224	13801.27
288.682	15165.01
289.139	16660.38
289.596	15252.66
290.053	15863.36
290.511	20031.44
290.968	24302.25
291.425	33021.28
291.882	27464.54
292.339	23922.64
292.796	23752.4
293.252	22402.08
293.709	17800.94
294.166	15974.81
294.623	17644.51
295.079	16942.38
295.536	17033.73
295.992	15495.18
296.449	15326.47
296.905	15945.87
297.362	15274.13
297.818	16078.75
298.274	16671.05
298.731	16989.85
299.187	16833.04
299.643	18072.62
300.099	21878.29
300.555	24017.74
301.011	20065.75
301.467	19351.5
301.923	22680.48
302.379	22198.09
302.835	21805.78
303.291	21845.77
303.746	24906.99
304.202	31471.24
304.658	31679.47
305.113	21313.65
305.569	20907.21
306.024	22309.35
306.479	21277.26
306.935	17919.23
307.39	19573.46
307.845	18090.38
308.301	18224.51
308.756	17766.76
309.211	17130.57
309.666	17548.34
310.121	21821.25
310.576	22176.9
311.031	22066.01
311.486	25272.92
311.94	25333.48
312.395	33915.77
312.85	63881.02
313.305	314163.58
313.759	1628868.68
314.214	118077.41
314.668	93794.61
315.123	78897.72
315.577	28337.64
316.032	25192.48
316.486	31589.04
316.94	24956.28
317.394	17393.31
317.849	13511.62
318.303	12802.52
318.757	12089.69
319.211	13395.8
319.665	11735
320.119	11878.58
320.572	17035.01
321.026	15913.32
321.48	13266.16
321.934	14475.62
322.387	14541.35
322.841	15726.74
323.295	14167.57
323.748	16322.38
324.202	16565.45
324.655	19908.1
325.108	27863.71
325.562	19693.33
326.015	23461.23
326.468	17727.04
326.921	19825.34
327.374	18515.19
327.827	19306.63
328.28	21857.51
328.733	14681.4
329.186	12933.57
329.639	12350.52
330.092	10419.54
330.545	9943.64
330.997	10035.09
331.45	10984.15
331.903	12863.32
332.355	22115.81
332.808	21500.09
333.26	17759.11
333.713	19286.06
334.165	19392.46
334.617	25865.15
335.069	20937.49
335.522	37829.27
335.974	41896.04
336.426	38313.55
336.878	26599.02
337.33	13498.5
337.782	13175.3
338.234	16509.41
338.686	19728.88
339.137	23384.5
339.589	22010.71
340.041	17252.44
340.493	14838.39
340.944	15193.22
341.396	16349.45
341.847	13775.51
342.299	16260.42
342.75	19863.04
343.201	17340.4
343.653	19962.93
344.104	24578.82
344.555	19362.09
345.006	30142.13
345.457	23109.14
345.908	18386.37
346.359	17349.4
346.81	14153.16
347.261	14925.73
347.712	14683.76
348.163	15760.25
348.613	15967.34
349.064	14914.95
349.515	13071.41
349.965	13424.7
350.416	16161.34
350.866	17751.64
351.317	20046.88
351.767	33120.06
352.217	41894.53
352.668	34925.01
353.118	32066.79
353.568	30966.32
354.018	24498.53
354.468	25862.33
354.918	18564.07
355.368	16237.3
355.818	22911.23
356.268	66119.11
356.718	277401.57
357.168	69104.08
357.617	34650.13
358.067	38586.49
358.517	36156.55
358.966	42487.82
359.416	47685.59
359.865	51561.59
360.315	61491.37
360.764	28781.7
361.213	16099.51
361.663	15268.73
362.112	18819
362.561	30406.15
363.01	22902.46
363.459	19316.7
363.908	20887.59
364.357	17781.7
364.806	30063.56
365.255	20676.86
365.703	18960.49
366.152	19001.44
366.601	15394.61
367.05	12517.21
367.498	11394.15
367.947	11924.95
368.395	12383.5
368.844	10966.61
369.292	13212.77
369.74	9137.7
370.189	14010.86
370.637	16412.93
371.085	14156.48
371.533	17257.58
371.981	16616.38
372.429	15819.18
372.877	16439.41
373.325	13763.12
373.773	14042.96
374.221	12484.41
374.669	15456.84
375.116	13373.36
375.564	13480.15
376.012	15069.57
376.459	12428.17
376.907	14882
377.354	17968.96
377.801	16758.27
378.249	19248.92
378.696	24578.13
379.143	29784.46
379.591	31784.76
380.038	53701.46
380.485	38798.63
380.932	41911.87
381.379	38284.4
381.826	28183.46
382.273	20043.44
382.72	17503.73
383.166	17110.38
383.613	11096.34
384.06	10019.74
384.506	11580.9
384.953	8511.04
385.4	8567.83
385.846	7501.05
386.292	7301.33
386.739	7137.37
387.185	7055.73
387.631	7080.7
388.078	6859.79
388.524	7334.41
388.97	6759.16
389.416	5641.33
389.862	5987.78
390.308	5675.23
390.754	5769.2
391.2	6272.05
391.645	6426.02
392.091	6154.04
392.537	5948.04
392.983	5952.44
393.428	5863.74
393.874	6288.45
394.319	6316.29
394.765	5991.52
395.21	6152.02
395.655	5758.45
396.101	5403.34
396.546	4878.8
396.991	4918.44
397.436	4575.53
397.881	4422.69
398.326	4193.08
398.771	3968.15
399.216	3467.89
399.661	3128.21
400.106	3122.26
400.551	3200.82
400.995	2871.12
401.44	2841.9
401.885	2674.04
402.329	2700.11
402.774	2596.88
403.218	2515.61
403.663	2425.62
404.107	2501.05
404.551	2523.29
404.995	2317.51
405.44	2235.08
405.884	2269.8
406.328	2197.96
406.772	2199.72
407.216	2007.01
407.66	1941.84
408.104	1848.45
408.547	1735.05
408.991	1676.86
409.435	1619.58
409.879	1601.62
410.322	1585.77
410.766	1532.12
411.209	1459.2
411.653	1399.19
412.096	1373.51
412.54	1373.75
412.983	1367.68
413.426	1371.85
413.869	1375.1
414.312	1348.92
414.756	1296.99
415.199	1236.85
415.642	1203.61
416.085	1204.2
416.527	1195.44
416.97	1213.02
417.413	1152.03
417.856	1137.42
418.298	1126.02
418.741	1116.91
419.184	1112.42
419.626	1161.16
420.069	1163.14
420.511	1171.11
420.953	1149.8
421.396	1143.94
421.838	1115.43
422.28	1140.63
422.722	1147.54
423.164	1164.9
423.606	1146.21
424.048	1144.13
424.49	1087.33
424.932	1081.59
425.374	1065.3
425.816	1083.38
426.258	1102.36
426.699	1114.69
427.141	1101.5
427.582	1117.37
428.024	1110.91
428.465	1103.22
428.907	1076.23
429.348	1063.31
429.789	1063.38
430.231	1042.92
430.672	1056.17
431.113	1030.77
431.554	1014.06
431.995	987.33
432.436	951.55
432.877	930.68
433.318	915.97
433.759	912.59
434.2	912.25
434.64	902.21
435.081	903.07
435.522	855.86
435.962	825.05
436.403	809.1
436.843	819.07
437.284	800.81
437.724	780.07
438.164	783.59
438.604	766.79
439.045	737.96
439.485	708.22
439.925	691.73
440.365	673.99
440.805	662.97
441.245	653.94
441.685	629.92
442.125	625.23
442.564	625.92
443.004	610.25
443.444	607.62
443.883	607.79
444.323	601.29
444.762	602.01
445.202	608.07
445.641	620.77
446.081	616.15
446.52	620.68
446.959	615.25
447.398	600.21
447.837	591.56
448.276	580.52
448.716	587.09
449.154	592.09
449.593	578.51
450.032	576.03
450.471	563.03
450.91	563.07
451.349	561.3
451.787	558.48
452.226	567.16
452.664	567.03
453.103	568.06
453.541	565.16
453.98	564.66
454.418	567.81
454.856	560.07
455.295	558.78
455.733	563.81
456.171	567.07
456.609	568.11
457.047	568.83
457.485	578.03
457.923	579.07
458.361	571.57
458.798	573.91
459.236	572.54
459.674	575.98
460.111	579.07
460.549	572.03
460.987	569.94
461.424	567.54
461.862	564.07
462.299	555.16
462.736	554.19
463.173	556.01
463.611	549.74
464.048	549.08
464.485	554.1
464.922	549.54
465.359	547.44
465.796	542.58
466.233	539.27
466.67	535.77
467.106	534.75
467.543	530.82
467.98	524.43
468.416	511.1
468.853	506.8
469.29	490.87
469.726	485.6
470.162	473.14
470.599	465.45
471.035	460.37
471.471	449.83
471.907	446.23
472.344	441.99
472.78	442.72
473.216	447.57
473.652	442.2
474.088	440.24
474.523	438.47
474.959	441.28
475.395	436.16
475.831	433.63
476.266	434.49
476.702	432.54
477.138	427.8
477.573	425.51
478.008	423.21
478.444	424.71
478.879	429.93
479.314	431.55
479.75	431.42
480.185	433.2
480.62	436.05
481.055	437.83
481.49	441.53
481.925	447.7
482.36	456.92
482.795	469.42
483.229	481.76
483.664	490.45
484.099	491.96
484.534	499.49
484.968	504.39
485.403	506.13
485.837	505.97
486.271	505.14
486.706	506.73
487.14	500.65
487.574	493.74
488.009	489.37
488.443	486.03
488.877	491.59
489.311	494.22
489.745	500.09
490.179	505.1
490.613	516.28
491.046	521.41
491.48	525.4
491.914	526.4
492.348	530.93
492.781	535.45
493.215	537.6
493.648	539.97
494.082	543.94
494.515	545.4
494.948	552.98
495.382	555.83
495.815	560.09
496.248	565.5
496.681	576.18
497.114	585.54
497.547	594.46
497.98	606.45
498.413	612.39
498.846	621.03
499.279	629.63
499.711	633.97
500.144	637.68
500.577	647.45
501.009	656.7
501.442	666.81
501.874	670.26
502.306	673.85
502.739	681.46
503.171	695.6
503.603	701
504.036	709.99
504.468	717.43
504.9	728.9
505.332	736.47
505.764	743.06
506.196	750.91
506.627	764.3
507.059	777.26
507.491	786.39
507.923	786.55
508.354	801.2
508.786	812.84
509.217	829.76
509.649	844.08
510.08	862.46
510.512	878.81
510.943	893.64
511.374	906.05
511.805	925.42
512.237	944.1
512.668	973.13
513.099	998.46
513.53	1023.78
513.961	1042.91
514.391	1072.31
514.822	1103.11
515.253	1136.06
515.684	1159.87
516.114	1188.12
516.545	1208.44
516.975	1232.67
517.406	1250.14
517.836	1254.06
518.267	1261.33
518.697	1279.09
519.127	1284.89
519.558	1292.06
519.988	1295.6
520.418	1306.46
520.848	1321.97
521.278	1330.48
521.708	1351.32
522.138	1363.58
522.567	1391.51
522.997	1415.62
523.427	1430.25
523.857	1444.97
524.286	1455.28
524.716	1470.59
525.145	1488.2
525.575	1499.08
526.004	1512.39
526.433	1503.24
526.863	1505.04
527.292	1498.12
527.721	1502.81
528.15	1508.07
528.579	1510.37
529.008	1520.11
529.437	1540.76
529.866	1554.02
530.295	1569.71
530.724	1581.93
531.152	1606.82
531.581	1619.72
532.01	1634.84
532.438	1642.84
532.867	1656.71
533.295	1673.23
533.723	1679.42
534.152	1677.73
534.58	1676.33
535.008	1661.56
535.436	1663.5
535.865	1670.72
536.293	1683.31
536.721	1698.66
537.149	1722.89
537.576	1725.28
538.004	1737.71
538.432	1744.39
538.86	1743.18
539.287	1750.14
539.715	1763.58
540.143	1765.79
540.57	1762.94
540.998	1759.32
541.425	1738.72
541.852	1719.45
542.28	1718.1
542.707	1702.26
543.134	1690.48
543.561	1687.18
543.988	1680.8
544.415	1680.08
544.842	1674.59
545.269	1667.27
545.696	1669.92
546.123	1681.4
546.549	1671.13
546.976	1658.93
547.403	1658
547.829	1658.97
548.256	1659.98
548.682	1655.7
549.108	1648.13
549.535	1647.82
549.961	1649.25
550.387	1636.45
550.813	1630.13
551.24	1635.84
551.666	1637.26
552.092	1628.46
552.518	1621.47
552.943	1615.98
553.369	1621.88
553.795	1627.04
554.221	1626.8
554.646	1624.16
555.072	1633.76
555.498	1638.13
555.923	1645.71
556.349	1658.84
556.774	1667.2
557.199	1669.44
557.625	1674.46
558.05	1669.02
558.475	1677.17
558.9	1676.78
559.325	1667.93
559.75	1661.21
560.175	1655.04
560.6	1648.37
561.025	1645.92
561.449	1644.83
561.874	1648.59
562.299	1650.95
562.723	1656.33
563.148	1646.35
563.572	1648.83
563.997	1657.32
564.421	1662
564.846	1660.58
565.27	1662.72
565.694	1658.59
566.118	1668.06
566.542	1673.89
566.966	1667.18
567.39	1662.29
567.814	1652.04
568.238	1650.2
568.662	1653.79
569.086	1653.52
569.509	1659.83
569.933	1645.93
570.357	1638.54
570.78	1619.37
571.204	1606.38
571.627	1596.38
572.05	1593.65
572.474	1592.69
572.897	1580.97
573.32	1573.59
573.743	1564.79
574.166	1547.67
574.589	1546.96
575.012	1540.12
575.435	1537.52
575.858	1528.53
576.281	1517.73
576.704	1503.32
577.126	1492.05
577.549	1481.75
577.972	1472.34
578.394	1462.05
578.817	1454.79
579.239	1436.44
579.661	1423.08
580.084	1408.93
580.506	1397
580.928	1392.58
581.35	1381.73
581.772	1377.3
582.194	1364.13
582.616	1351.17
583.038	1337.54
583.46	1327.17
583.882	1323.94
584.303	1326.46
584.725	1322.92
585.147	1323.91
585.568	1332.67
585.99	1342.98
586.411	1348.12
586.833	1361.58
587.254	1362.35
587.675	1374.83
588.096	1385.01
588.518	1379.04
588.939	1363.94
589.36	1360.15
589.781	1350.21
590.202	1324.94
590.623	1316.35
591.043	1313.74
591.464	1301.89
591.885	1298.21
592.305	1292.99
592.726	1280.67
593.147	1281.14
593.567	1276.07
593.987	1269.6
594.408	1264.06
594.828	1260.54
595.248	1254.45
595.669	1237.09
596.089	1230.05
596.509	1223.73
596.929	1211.77
597.349	1212.23
597.769	1204.11
598.189	1198.33
598.608	1198.58
599.028	1199.71
599.448	1200.2
599.867	1188.64
600.287	1184.57
600.706	1180.01
601.126	1172.01
601.545	1169.96
601.965	1168.5
602.384	1162.65
602.803	1164.05
603.222	1159.77
603.641	1153.81
604.061	1150.27
604.48	1146.66
604.898	1153.62
605.317	1158.1
605.736	1158.98
606.155	1156.08
606.574	1147.6
606.992	1152.81
607.411	1148.97
607.829	1141.52
608.248	1138.74
608.666	1136.4
609.085	1135.86
609.503	1128.11
609.921	1122.35
610.339	1124.62
610.758	1122.7
611.176	1118.82
611.594	1111.1
612.012	1108.74
612.43	1111.89
612.847	1117.39
613.265	1118.31
613.683	1122.19
614.101	1123.38
614.518	1120.25
614.936	1111.08
615.353	1099.63
615.771	1097.17
616.188	1096.4
616.606	1092.53
617.023	1085.91
617.44	1072.11
617.857	1065.47
618.274	1057.95
618.691	1052.16
619.108	1044.1
619.525	1038.48
619.942	1044.07
620.359	1045.39
620.776	1040.48
621.192	1036.73
621.609	1034.83
622.026	1041.32
622.442	1045.64
622.859	1048.3
623.275	1042.09
623.691	1045.85
624.108	1055.58
624.524	1067.32
624.94	1066.44
625.356	1075.9
625.772	1086.54
626.188	1096.74
626.604	1098.91
627.02	1095.63
627.436	1094.74
627.852	1101.12
628.268	1111.63
628.683	1103.22
629.099	1096.14
629.514	1093.25
629.93	1094.95
630.345	1098.19
630.761	1093.77
631.176	1095.5
631.591	1091.27
632.007	1085.1
632.422	1082.54
632.837	1072.37
633.252	1069.88
633.667	1059.96
634.082	1050.96
634.497	1039.47
634.911	1022.84
635.326	1018.52
635.741	1001.97
636.155	991.26
636.57	990.21
636.984	987.8
637.399	987.31
637.813	984.84
638.228	981.71
638.642	982.77
639.056	971.13
639.47	968.65
639.884	959.63
640.298	952.66
640.712	949.96
641.126	937.4
641.54	927.87
641.954	919.86
642.368	908.37
642.781	900.82
643.195	884.1
643.609	883.87
644.022	876.78
644.436	871.72
644.849	859.82
645.262	848.13
645.676	847.98
646.089	842.01
646.502	830.7
646.915	825.99
647.328	811.36
647.741	809.6
648.154	797.76
648.567	796.22
648.98	785.59
649.393	786.44
649.805	783.56
650.218	776.51
650.631	765.44
651.043	760.72
651.456	755.58
651.868	755.51
652.28	769.05
652.693	780.15
653.105	783.94
653.517	792.21
653.929	792.14
654.341	797
654.753	789.22
655.165	793.45
655.577	791.73
655.989	788.14
656.401	782.57
656.813	754.84
657.224	739.26
657.636	717.29
658.047	702.38
658.459	688.68
658.87	680.72
659.282	671.73
659.693	657.59
660.104	646.64
660.515	635.65
660.926	634.32
661.338	632.55
661.749	627.95
662.159	621.48
662.57	618.64
662.981	614.93
663.392	609.67
663.803	613.08
664.213	609.88
664.624	606.25
665.035	609.97
665.445	599.98
665.855	594.53
666.266	589.49
666.676	588.68
667.086	582.52
667.497	583.39
667.907	580.71
668.317	573.74
668.727	574.25
669.137	575.48
669.547	574.2
669.956	576.23
670.366	577.82
670.776	579.42
671.186	583.16
671.595	585.22
672.005	587.24
672.414	587.4
672.824	587.68
673.233	589.66
673.642	592.88
674.052	596.68
674.461	600.38
674.87	605.76
675.279	605.21
675.688	608.02
676.097	612.04
676.506	611.19
676.915	623.19
677.323	626.4
677.732	627.03
678.141	628.16
678.549	620.56
678.958	620.84
679.366	621.16
679.775	626.86
680.183	636.26
680.592	643
681	649.62
681.408	646.08
681.816	653.34
682.224	661.99
682.632	671.38
683.04	696.91
683.448	719.02
683.856	745.54
684.264	775.69
684.671	801.49
685.079	834.01
685.487	869.83
685.894	920.53
686.302	962.8
686.709	996.48
687.116	1037.43
687.524	1071.8
687.931	1100.84
688.338	1126.47
688.745	1146.93
689.152	1173.57
689.559	1210.85
689.966	1247.21
690.373	1264.19
690.78	1299.22
691.187	1353.84
691.593	1393.45
692	1428.56
692.407	1481.4
692.813	1546.29
693.22	1599.74
693.626	1655.69
694.032	1697.25
694.439	1764.69
694.845	1819.31
695.251	1885.88
695.657	1945.55
696.063	2035.59
696.469	2102.12
696.875	2167.28
697.281	2205.73
697.687	2250.41
698.093	2289.5
698.498	2359.13
698.904	2414.61
699.31	2496.63
699.715	2557
700.12	2644.13
700.526	2664.76
700.931	2732.55
701.337	2781.02
701.742	2816.33
702.147	2896.98
702.552	2927.34
702.957	2989.98
703.362	3011.23
703.767	3042.13
704.172	3084.91
704.577	3045.5
704.981	3093.93
705.386	3112.44
705.791	3111.54
706.195	3184.2
706.6	3196.92
707.004	3276.83
707.408	3250.88
707.813	3281.12
708.217	3272.91
708.621	3275.8
709.025	3370.01
709.43	3375.11
709.834	3436.75
710.237	3504.04
710.641	3492.51
711.045	3519.91
711.449	3514.99
711.853	3547.23
712.256	3590.71
712.66	3629.99
713.064	3706.3
713.467	3749.17
713.87	3857.2
714.274	3904.25
714.677	4011.14
715.08	4169.26
715.484	4329.45
715.887	4526.64
716.29	4716.83
716.693	4916.94
717.096	5151.44
717.499	5280.29
717.901	5307.52
718.304	5339.49
718.707	5364.85
719.109	5271.93
719.512	5244.56
719.915	5118.65
720.317	5071.1
720.719	5116.9
721.122	5091.44
721.524	5043.59
721.926	5007.33
722.328	5108.33
722.731	5098.16
723.133	5129.97
723.535	5315.82
723.937	5337.45
724.338	5389.54
724.74	5427.07
725.142	5362.29
725.544	5364.15
725.945	5390.93
726.347	5388.2
726.748	5381.21
727.15	5398.04
727.551	5362.18
727.952	5338.84
728.354	5312.01
728.755	5313.65
729.156	5274.25
729.557	5270.5
729.958	5154.1
730.359	5103.55
730.76	5086.97
731.161	5030.77
731.562	5007.51
731.962	5011.72
732.363	4949.76
732.763	4890.7
733.164	4927.24
733.564	4863.93
733.965	4772.4
734.365	4740.65
734.766	4769.62
735.166	4730.14
735.566	4676.3
735.966	4651.95
736.366	4648.14
736.766	4590.28
737.166	4621.34
737.566	4581.65
737.966	4561.07
738.365	4598.39
738.765	4594.14
739.165	4522.43
739.564	4500.85
739.964	4545.2
740.363	4499.37
740.763	4496.16
741.162	4486.01
741.561	4454.7
741.96	4411.86
742.36	4428.79
742.759	4436.46
743.158	4474.17
743.557	4487.52
743.955	4524.08
744.354	4481.36
744.753	4539.4
745.152	4500.51
745.55	4552.28
745.949	4547.16
746.348	4547.87
746.746	4563.9
747.144	4520.06
747.543	4494.97
747.941	4539.04
748.339	4472.47
748.737	4464.94
749.136	4455.28
749.534	4516.41
749.932	4489.83
750.33	4510.28
750.727	4563.51
751.125	4541.81
751.523	4527.98
751.921	4570.31
752.318	4539.2
752.716	4594.65
753.113	4609.31
753.511	4634.34
753.908	4634.4
754.305	4616.14
754.703	4676.39
755.1	4734.66
755.497	4792.55
755.894	4977.19
756.291	5149.02
756.688	5466.66
757.085	5888.95
757.482	6479.35
757.878	7123.07
758.275	7708
758.672	8519.24
759.068	9176.24
759.465	10108.95
759.861	11313.79
760.258	12712.33
760.654	13437.22
761.05	13326.97
761.447	12718.82
761.843	11841.88
762.239	10942.03
762.635	10531.4
763.031	10133.55
763.427	9564.73
763.822	8970.24
764.218	8378.68
764.614	7616.24
765.01	7100.72
765.405	6769.04
765.801	6518.69
766.196	6199.28
766.592	6017.22
766.987	5716.61
767.382	5513.24
767.778	5428.13
768.173	5303.14
768.568	5233.76
768.963	5111.1
769.358	5131.95
769.753	5088.11
770.148	5008.38
770.542	5006.68
770.937	4977.15
771.332	5064.79
771.726	5082.4
772.121	5021.11
772.515	5073.49
772.91	5061.65
773.304	5130.8
773.699	5065.96
774.093	5118.32
774.487	5171.5
774.881	5212.08
775.275	5204.5
775.669	5163.7
776.063	5206.52
776.457	5240.33
776.851	5167.23
777.245	5157.56
777.638	5188.24
778.032	5297.3
778.425	5260.58
778.819	5299.8
779.212	5258.52
779.606	5222.75
779.999	5240.88
780.392	5222.88
780.786	5301.29
781.179	5321.52
781.572	5360.85
781.965	5374.94
782.358	5320.15
782.751	5374.38
783.143	5324.58
783.536	5397.16
783.929	5437.7
784.322	5545.47
784.714	5577.19
785.107	5573.91
785.499	5643.83
785.891	5623.37
786.284	5603.45
786.676	5736.68
787.068	5717.11
787.46	5770.46
787.852	5785.6
788.245	5866.39
788.636	5896.82
789.028	5959.29
789.42	5998.4
789.812	6002.62
790.204	6096.51
790.595	6193.32
790.987	6009.05
791.378	6032.94
791.77	6153.34
792.161	6282.25
792.553	6338.84
792.944	6229.12
793.335	6168.34
793.726	6235.11
794.117	6325.53
794.508	6451.25
794.899	6419.85
795.29	6551.85
795.681	6609.85
796.072	6475.67
796.463	6300.07
796.853	6309.66
797.244	6464.17
797.634	6493.97
798.025	6493.57
798.415	6503.75
798.806	6590.32
799.196	6669.53
799.586	6719.33
799.976	6678.59
800.366	6897.09
800.756	7123.5
801.146	7081.66
801.536	7107.25
801.926	7178.37
802.316	7204.16
802.706	7273.1
803.095	7158.49
803.485	7254.54
803.874	7294.8
804.264	7541.52
804.653	7517.52
805.043	7658.81
805.432	7764.1
805.821	7764.76
806.21	7784.06
806.599	7894.92
806.988	7935.04
807.377	8037.49
807.766	8160.91
808.155	8428.7
808.544	8182.33
808.933	8193.17
809.321	8173.91
809.71	8458.89
810.098	8611.79
810.487	9051.66
810.875	9506.52
811.264	9533.84
811.652	9802.03
812.04	9942.15
812.428	10094.21
812.816	10814.64
813.204	11218.05
813.592	11742.51
813.98	12054.41
814.368	11960.68
814.756	12408.04
815.144	12330.63
815.531	12765.39
815.919	12705.45
816.306	13000.52
816.694	12713.56
817.081	12765.25
817.469	13088.8
817.856	13082.12
818.243	13344.64
818.63	13717.95
819.017	13319.58
819.404	13385.69
819.791	13746.45
820.178	14326.45
820.565	14564.4
820.952	15439.41
821.339	14967.53
821.725	15136.11
822.112	14438.68
822.498	14394.12
822.885	14519.77
823.271	14435.7
823.657	14826.96
824.044	14836.62
824.43	14903.96
824.816	14868.17
825.202	14460.43
825.588	15425.35
825.974	15447.68
826.36	15930.76
826.746	15963.67
827.132	16298.22
827.517	16274.7
827.903	15527.86
828.289	15562.08
828.674	14819.65
829.06	14721.85
829.445	15098.83
829.83	15441.9
830.216	15898.43
830.601	16247.73
830.986	15862.21
831.371	15738.57
831.756	16270.61
832.141	15866.58
832.526	15859.75
832.911	16136.34
833.295	16030.71
833.68	16469.2
834.065	15885.55
834.449	15016.86
834.834	14948.95
835.218	14950.49
835.603	15273.43
835.987	15072.68
836.371	15866.21
836.755	15773.1
837.139	16156.34
837.524	16385.37
837.908	16230.98
838.291	16281.98
838.675	16353.12
839.059	16549.06
839.443	16541.06
839.827	16324.5
840.21	16780.02
840.594	16642.99
840.977	16844.92
841.361	16828.81
841.744	17192.27
842.127	17042.42
842.511	17280.78
842.894	17841.16
843.277	18211.54
843.66	18727.12
844.043	18800.79
844.426	18044.52
844.809	17746.33
845.191	17780.71
845.574	17344.48
845.957	16993.66
846.339	16892.55
846.722	16403.73
847.104	16472.89
847.487	16310.86
847.869	16324.27
848.252	16595.4
848.634	16903.25
849.016	17159.09
849.398	17268.63
849.78	18071.41
850.162	18077.44
850.544	18469.94
850.926	19054.35
851.307	18969.43
851.689	19226.58
852.071	19661.16
852.452	19965
852.834	19941
853.215	20309.5
853.597	20458.56
853.978	20734.48
854.359	21160.67
854.741	20215.58
855.122	20121.28
855.503	19844.31
855.884	19968.07
856.265	19903.24
856.646	20011.71
857.026	19639.74
857.407	19588.68
857.788	19732.84
858.169	20011.69
858.549	19208.98
858.93	19798.08
859.31	19844.17
859.69	20039.61
860.071	19656.78
860.451	19444.42
860.831	18743.96
861.211	19833.28
861.591	20342.07
861.971	20326.28
862.351	20498.2
862.731	20860.01
863.111	21101.38
863.491	21404.56
863.87	22233.42
864.25	22569.86
864.629	22190.34
865.009	22673.09
865.388	23487.29
865.768	25171.4
866.147	25059.53
866.526	23677.6
866.905	23962
867.284	25312.11
867.663	24045.92
868.042	23050.95
868.421	22965.86
868.8	23352.29
869.179	23575.79
869.558	22197.26
869.936	20458.63
870.315	20831.18
870.693	21333.78
871.072	23014.65
871.45	21932.57
871.828	22217.12
872.207	23358.6
872.585	23013.81
872.963	23639.58
873.341	22830.04
873.719	22574.59
874.097	22314.11
874.475	22734.82
874.853	23265.79
875.23	22302.34
875.608	23227.83
875.986	25120.02
876.363	24024.39
876.741	24757.49
877.118	24139.23
877.495	25327.62
877.873	25747.99
878.25	27084.96
878.627	25982.4
879.004	26346.95
879.381	26220.2
879.758	25542.19
880.135	23783.24
880.512	25158.57
880.889	24494.87
881.265	24241.84
881.642	24047.36
882.019	24463.27
882.395	23974.6
882.772	24924.73
883.148	23846.88
883.524	23733.43
883.901	23597.65
884.277	23950.6
884.653	23789.83
885.029	24485.29
885.405	27105.96
885.781	26885.05
886.157	25772.72
886.532	26088.35
886.908	26074.25
887.284	28988.56
887.659	29953.89
888.035	30884.57
888.411	31695.14
888.786	32114.25
889.161	33217.27
889.537	32615.62
889.912	33683.65
890.287	33646.79
890.662	34522.34
891.037	33900.54
891.412	31622.29
891.787	31307.56
892.162	30206.2
892.536	30900.45
892.911	29736.46
893.286	29106.48
893.66	27930.7
894.035	28639.26
894.409	31189.91
894.784	29928.96
895.158	30432.99
895.532	32231.39
895.906	33111.52
896.281	33901.4
896.655	33358.1
897.029	38126.44
897.402	39696.88
897.776	44184.42
898.15	44006.95
898.524	43522.66
898.898	44084.77
899.271	49343.21
899.645	42724.52
900.018	41040.33
900.392	42553.24
900.765	42905.77
901.138	39702.72
901.511	39112.94
901.884	35929.3
902.258	33149.91
902.631	34240.65
903.003	39395.87
903.376	35543.99
903.749	39865.83
904.122	42655.91
904.495	46976.45
904.867	47560.57
905.24	41292.08
905.612	38428.83
905.985	39262.61
906.357	41054.03
906.729	39208.15
907.102	33499.58
907.474	32235.8
907.846	32444.03
908.218	32023.42
908.59	28288.63
908.962	27353.95
909.334	29459.66
909.705	30939.79
910.077	30035.26
910.449	31252.47
910.82	32127.87
911.192	35353.72
911.563	36701.83
911.935	39266.99
912.306	39288.65
912.677	40583.13
913.048	40166.4
913.419	43571.02
913.79	43821.46
914.161	47015.49
914.532	44940.16
914.903	41295.35
915.274	39185.17
915.645	38608.13
916.015	33961.36
916.386	32387.58
916.756	34441.3
917.127	35535.63
917.497	31739.74
917.868	34557.2
918.238	32838.34
918.608	33791.71
918.978	34479.97
919.348	36535.07
919.718	37754.56
920.088	36392.84
920.458	37817.1
920.828	39834.02
921.198	37761.62
921.567	40360.92
921.937	31249.42
922.306	31555.52
922.676	34034.39
923.045	28397.12
923.415	26989.89
923.784	24602.31
924.153	25290.72
924.522	25265.44
924.891	23746.61
925.26	25432.56
925.629	24821.58
925.998	28547.23
926.367	27859
926.736	26531.53
927.104	31587.47
927.473	33959.97
927.842	40974.04
928.21	40598.27
928.578	42654.04
928.947	40325.16
929.315	40585.28
929.683	47623.37
930.051	48013.31
930.42	55762.77
930.788	47665.47
931.156	47340.41
931.523	44352.31
931.891	40998.9
932.259	39379.49
932.627	45667.95
932.994	64594.15
933.362	53431
933.729	46398.82
934.097	44426.12
934.464	37595.46
934.831	43392.63
935.199	42769.22
935.566	41528.54
935.933	42057.39
936.3	50917.5
936.667	39667.39
937.034	35816.78
937.401	35400.51
937.767	30554.88
938.134	27184.57
938.501	38319.64
938.867	40805.07
939.234	69025.57
939.6	58867.81
939.967	64970.12
940.333	43483.41
940.699	37010.76
941.065	29711.84
941.431	38939.31
941.798	37574.87
942.163	49349.47
942.529	30861.47
942.895	28442.07
943.261	18390.03
943.627	24112.35
943.992	21104.81
944.358	21160.75
944.723	21238.93
945.089	20706.73
945.454	19175.04
945.82	20455.94
946.185	19659.7
946.55	22792.95
946.915	20423.09
947.28	23957
947.645	21116.36
948.01	19494.53
948.375	20310.37
948.74	24326.83
949.104	28368.03
949.469	40950.44
949.834	72399.95
950.198	68567.52
950.562	41017.19
950.927	34171.41
951.291	41161.13
951.655	35059.79
952.02	32936
952.384	24920.07
952.748	21697.09
953.112	21152.84
953.476	18387.22
953.839	16993.67
954.203	16823.06
954.567	21084.76
954.931	33262.77
955.294	28432.66
955.658	28567.55
956.021	48567.31
956.385	82351.84
956.748	121515.62
957.111	188369.97
957.474	211472.29
957.837	237942.92
958.2	180149.23
958.563	64744.78
958.926	43694.9
959.289	66333.79
959.652	74146.25
960.015	55564.68
960.377	79745.62
960.74	90985.03
961.102	157003.16
961.465	168578.47
961.827	90251.6
962.189	173108.37
962.552	120063.48
962.914	96277.94
963.276	62396.33
963.638	51538.74
964	51053.27
964.362	34489.72
964.724	33359.79
965.085	23806.92
965.447	19508
965.809	22258.4
966.17	22274.88
966.532	24110.61
966.893	22116.13
967.255	20125.7
967.616	23784.19
967.977	19045.68
968.338	20814.89
968.699	17112.08
969.061	17098.15
969.421	17204.39
969.782	19315.91
970.143	16301.9
970.504	16862.04
970.865	19163.54
971.225	19601.35
971.586	19152.11
971.946	27287.52
972.307	23662.08
972.667	30913.49
973.027	31852.66
973.388	38630.96
973.748	26225.2
974.108	28613.55
974.468	38717.07
974.828	29877.94
975.188	23007.52
975.548	21137.79
975.907	17758.26
976.267	19931.81
976.627	16748.78
976.986	17374.99
977.346	16565.13
977.705	15948.31
978.064	14533.02
978.424	12104.35
978.783	12510.97
979.142	14278.98
979.501	13657.3
979.86	14449.97
980.219	13913.69
980.578	17945.44
980.937	20094.34
981.296	17901.92
981.654	18407.99
982.013	28612.71
982.371	37139.9
982.73	34739.18
983.088	39342.84
983.447	42082.94
983.805	60135.48
984.163	125879.42
984.521	139695.71
984.879	204632.15
985.237	-332861.27
985.595	321108.34
985.953	79839.21
986.311	46060.37
986.669	26727.43
987.026	23056.93
987.384	31020.35
987.741	32044.77
988.099	22872.26
988.456	18215.7
988.814	17040.33
989.171	14827.76
989.528	14639.4
989.885	15458.03
990.242	12248.11
990.599	15258.37
990.956	12461.06
991.313	8714.16
991.67	7164.2
992.027	7585.72
992.383	6756.42
992.74	5937.85
993.096	6222.45
993.453	6461.96
993.809	6697.68
994.165	8919.8
994.522	8169.35
994.878	9009.55
995.234	11292.1
995.59	11107.37
995.946	10545.04
996.302	12006.87
996.658	13859.66
997.013	15285.83
997.369	18100.53
997.725	23175.2
998.08	15020.8
998.436	23157.13
998.791	31987.25
999.147	31967.04
999.502	34884.41
999.857	25325.48
1000.212	41341.08
1000.567	58774.93
1000.922	33845.85
1001.277	21509.05
1001.632	15965.79
1001.987	20592.95
1002.342	14762.4
1002.696	11786.15
1003.051	9400.59
1003.406	11392.59
1003.76	11333.47
1004.114	11151.27
1004.469	9398.6
1004.823	7783.87
1005.177	8412.55
1005.531	6663.16
1005.885	5898.13
1006.239	6659.5
1006.593	8362.99
1006.947	11180.82
1007.301	8410.2
1007.655	9168.66
1008.008	6742.9
1008.362	7549.97
1008.715	10804.43
1009.069	9780.59
1009.422	14751.16
1009.776	29641.51
1010.129	19686.63
1010.482	16439.22
1010.835	13943.28
1011.188	28986.36
1011.541	27225.99
1011.894	-166307.66
1012.247	490117.23
1012.6	33250.26
1012.952	20982.57
1013.305	10803.54
1013.657	7762.67
1014.01	7341.83
1014.362	6082.49
1014.715	5387.39
1015.067	4705.55
1015.419	4611.53
1015.771	4093.04
1016.123	3651.93
1016.475	3756.23
1016.827	4008.36
1017.179	4314.96
1017.531	4355.64
1017.883	4436.81
1018.234	4263.79
1018.586	5380.35
1018.938	5659.26
1019.289	7816.27
1019.64	8944.33
1019.992	8299.38
1020.343	7595.86
1020.694	6004.38
1021.045	5297.65
1021.396	6045.65
1021.747	6518.22
1022.098	7861.48
1022.449	5730.54
1022.8	5346.04
1023.151	3727.33
1023.501	3304.96
1023.852	3608.3
1024.202	3739.34
1024.553	4094.91
1024.903	3973.86
1025.253	3404.77
1025.604	3058.53
1025.954	3763.3
1026.304	4563.67
1026.654	5346.11
1027.004	7848.31
1027.354	12633.21
1027.703	11912.18
1028.053	15769.47
1028.403	22900.17
1028.753	33292.78
1029.102	45194.19
1029.452	232568.39
1029.801	10095.27
1030.15	6524.25
1030.499	5482.84
897.758	2430.83
901.051	2380.68
904.343	2414.7
907.636	2418.02
910.928	2480.52
914.22	2395.56
917.511	2403.49
920.803	2458.06
924.094	2469.45
927.384	2458.37
930.675	2422.95
933.965	2381.29
937.255	2397.9
940.544	2362.1
943.834	2337.06
947.123	2274.18
950.411	2365.18
953.7	2341.49
956.988	2317.01
960.276	2256.31
963.563	2322.4
966.851	2325.83
970.138	2375.49
973.424	2372.06
976.711	2328.21
979.997	2413.49
983.283	2458.06
986.568	2375.1
989.853	2382.27
993.138	2409.56
996.423	2489
999.708	2435.51
1002.992	2480.49
1006.275	2358.64
1009.559	2383.29
1012.842	2488.5
1016.125	2429.39
1019.408	2409.75
1022.69	2482.28
1025.972	2506.75
1029.254	2481.91
1032.536	2428.56
1035.817	2450
1039.098	2408.15
1042.379	2507.27
1045.659	2520.47
1048.939	2459.9
1052.219	2476.41
1055.498	2479.37
1058.778	2471.55
1062.057	2449.83
1065.335	2472.51
1068.614	2488.04
1071.892	2475.01
1075.17	2543.95
1078.447	2533.98
1081.724	2528.72
1085.001	2562.33
1088.278	2538.36
1091.554	2548.05
1094.83	2543.48
1098.106	2574.01
1101.382	2612.02
1104.657	2613.22
1107.932	2611.06
1111.206	2579.11
1114.481	2538.69
1117.755	2540.35
1121.029	2524.08
1124.302	2581.36
1127.575	2539.86
1130.848	2530.76
1134.121	2496.64
1137.393	2450.96
1140.665	2513.48
1143.937	2489.89
1147.208	2446.91
1150.48	2491.95
1153.75	2477.32
1157.021	2498.86
1160.291	2468.01
1163.561	2517.27
1166.831	2499.48
1170.101	2528.59
1173.37	2500.28
1176.639	2450.24
1179.907	2502.9
1183.176	2513.02
1186.444	2518.84
1189.711	2547.54
1192.979	2562.67
1196.246	2518.35
1199.513	2533.32
1202.78	2533.24
1206.046	2544.32
1209.312	2566.64
1212.578	2589.42
1215.843	2546.85
1219.108	2520.08
1222.373	2543.31
1225.638	2508.32
1228.902	2495.82
1232.166	2464.17
1235.43	2447.84
1238.693	2473.19
1241.956	2465.75
1245.219	2510.57
1248.482	2498.7
1251.744	2495.42
1255.006	2629.8
1258.268	2582.91
1261.529	2533.61
1264.79	2535.92
1268.051	2636.83
1271.312	2650.03
1274.572	2615.52
1277.832	2604.43
1281.092	2593.2
1284.351	2572.58
1287.61	2554.02
1290.869	2480.11
1294.128	2463.9
1297.386	2536.66
1300.644	2528.35
1303.902	2537.58
1307.159	2401.81
1310.416	2455.37
1313.673	2482.33
1316.93	2470.88
1320.186	2510.6
1323.442	2548.68
1326.697	2545.38
1329.953	2529.26
1333.208	2556.11
1336.463	2535.25
1339.717	2482.59
1342.972	2606.79
1346.226	2578.85
1349.479	2519.21
1352.733	2493.43
1355.986	2509.2
1359.238	2487.75
1362.491	2488.75
1365.743	2491.71
1368.995	2486.74
1372.247	2500.69
1375.498	2522.98
1378.749	2545.81
1382	2502.94
1385.251	2549.1
1388.501	2507.87
1391.751	2498.23
1395	2466.83
1398.25	2498.54
1401.499	2512.24
1404.748	2448.39
1407.996	2431.44
1411.244	2419.51
1414.492	2402.9
1417.74	2379.79
1420.987	2390.57
1424.234	2445.38
1427.481	2419.76
1430.728	2476.52
1433.974	2450.58
1437.22	2457.76
1440.465	2458.09
1443.711	2437.1
1446.956	2464.27
1450.201	2446.87
1453.445	2493
1456.689	2472.18
1459.933	2485.12
1463.177	2519.05
1466.42	2492.43
1469.663	2473.71
1472.906	2475.41
1476.148	2531.12
1479.391	2525.67
1482.633	2495.49
1485.874	2510.08
1489.115	2505.02
1492.356	2499.7
1495.597	2477.19
1498.838	2477.47
1502.078	2454.47
1505.318	2414.33
1508.557	2453.61
1511.797	2441.92
1515.036	2473.35
1518.274	2460.74
1521.513	2428.03
1524.751	2445.73
1527.989	2464
1531.227	2479.3
1534.464	2478.35
1537.701	2487.11
1540.938	2502.34
1544.174	2455.34
1547.41	2453.77
1550.646	2488.5
1553.882	2531.3
1557.117	2581.5
1560.352	2593.5
1563.587	2554.45
1566.821	2516.27
1570.055	2545.55
1573.289	2519.65
1576.523	2586.72
1579.756	2596.96
1582.989	2612.85
1586.222	2576.88
1589.454	2611.68
1592.686	2591
1595.918	2618.19
1599.15	2606.99
1602.381	2671.66
1605.612	2636.86
1608.843	2732.09
1612.073	2652.47
1615.303	2633.48
1618.533	2629.62
1621.762	2630.55
1624.992	2613.8
1628.221	2606.49
1631.449	2591.43
1634.678	2637.3
1637.906	2597.8
1641.134	2631.79
1644.361	2593.74
1647.588	2579.39
1650.815	2600.89
1654.042	2574.23
1657.269	2601.65
1660.495	2562.83
1663.72	2574.38
1666.946	2541.11
1670.171	2497.21
1673.396	2473.12
1676.621	2456.76
1679.845	2468.42
1683.069	2484.1
1686.293	2520.18
1689.517	2500.58
1692.74	2440.95
1695.963	2466.43
1699.185	2490.71
1702.408	2464.36
1705.63	2501.15
1708.852	2513.23
1712.073	2488.12
1715.294	2482.4
1718.515	2538.72
1721.736	2490.26
1724.956	2476.32
1728.176	2499.95
1731.396	2521.93
1734.616	2507.95
1737.835	2540.42
1741.054	2518.16
1744.272	2509.79
1747.491	2542.02
1750.709	2582.61
1753.927	2504.06
1757.144	2541.76
1760.361	2589.65
1763.578	2578.89
1766.795	2523.59
1770.011	2524.18
1773.227	2556.71
1776.443	2592.94
1779.658	2636.76
1782.874	2578.77
1786.089	2563.08
1789.303	2564.98
1792.518	2569.58
1795.732	2558.42
1798.945	2567.97
1802.159	2613.64
1805.372	2531.96
1808.585	2519.76
1811.797	2521.61
1815.01	2560.76
1818.222	2572.33
1821.434	2548.59
1824.645	2599.12
1827.856	2592.19
1831.067	2625.32
1834.278	2575.1
1837.488	2561.27
1840.698	2697.01
1843.908	2631.78
1847.117	2594.55
1850.326	2496.84
1853.535	2581.67
1856.744	2600.05
1859.952	2518.8
1863.16	2521.55
1866.368	2540.49
1869.575	2645.52
1872.782	2532.73
1875.989	2470.18
1879.196	2537.73
1882.402	2529.81
1885.608	2567.37
1888.814	2485.73
1892.019	2389.49
1895.224	2442.91
1898.429	2417
1901.634	2397.28
1904.838	2372.99
1908.042	2422.66
1911.246	2433.74
1914.449	2379.31
1917.652	2370.24
1920.855	2353.07
1924.058	2392.54
1927.26	2432.31
1930.462	2458.05
1933.664	2488.74
1936.865	2431.28
1940.066	2443.48
1943.267	2388.34
1946.467	2402.65
1949.668	2425.93
1952.868	2496.17
1956.067	2478.36
1959.267	2413.98
1962.466	2439.64
1965.665	2422.87
1968.863	2417.66
1972.061	2427.41
1975.259	2422.92
1978.457	2500.62
1981.654	2458.61
1984.852	2460.35
1988.048	2399.9
1991.245	2395.41
1994.441	2480.75
1997.637	2456.61
2000.833	2436.19
2004.028	2473.86
2007.223	2529.45
2010.418	2509.59
2013.613	2469.28
2016.807	2448.48
2020.001	2451.14
2023.194	2485.54
2026.388	2464.4
2029.581	2410.86
2032.774	2463.17
2035.966	2474.54
2039.158	2414.16
2042.35	2436.41
2045.542	2364.75
2048.733	2455.75
2051.924	2468
2055.115	2490.19
2058.306	2443.48
2061.496	2502.54
2064.686	2558.36
2067.875	2470.25
2071.065	2479.35
2074.254	2501.1
2077.442	2454.28
2080.631	2542.58
2083.819	2450.25
2087.007	2436.61
2090.195	2412.65
2093.382	2439.86
2096.569	2421.66
2099.756	2380.99
2102.942	2416.24
2106.128	2422.54
2109.314	2415.09
2112.5	2388.39
2115.685	2360.71
2118.87	2371.31
2122.055	2431.29
2125.239	2403.69
2128.424	2384.83
2131.608	2468.37
2134.791	2452.43
2137.974	2498.94
2141.157	2488.85
2144.34	2447.98
2147.523	2454.37
2150.705	2472.58
2153.887	2448.24
2157.068	2409.48
2160.25	2402.75
2163.431	2432.25
2166.611	2388.88
2169.792	2403.55
2172.972	2308.45
2176.152	2373.16
2179.331	2404.58
2182.511	2393.42
2185.69	2419.1
2188.868	2416.79
2192.047	2462.64
2195.225	2464.27
2198.403	2416.85
2201.58	2405.1
2204.758	2397.87
2207.935	2476.86
2211.111	2376.69
2214.288	2363.72
2217.464	2400.31
2220.64	2367.46
2223.815	2418.36
2226.991	2344.97
2230.166	2361.69
2233.34	2394.86
2236.515	2416.07
2239.689	2485.95
2242.863	2431.81
2246.036	2488.85
2249.209	2480.66
2252.382	2509.1
2255.555	2503.73
2258.727	2448.62
2261.9	2484.4
2265.071	2477.65
2268.243	2475.88
2271.414	2416.34
2274.585	2384.82
2277.756	2447.72
2280.926	2403.78
2284.096	2440.74
2287.266	2359.1
2290.436	2410.58
2293.605	2436.68
2296.774	2469.61
2299.942	2480.81
2303.111	2499.09
2306.279	2547.4
2309.447	2534.9
2312.614	2509.73
2315.781	2528.72
2318.948	2502.06
2322.115	2538.38
2325.281	2439.26
2328.447	2453.82
2331.613	2426.8
2334.779	2410.31
2337.944	2410.92
2341.109	2409.97
2344.274	2397.09
2347.438	2361.72
2350.602	2387.41
2353.766	2400.37
2356.929	2387.79
2360.092	2431.89
2363.255	2388.91
2366.418	2338.73
2369.58	2430.03
2372.742	2257.76
2375.904	2263.28
2379.066	2242.16
2382.227	2273.57
2385.388	2235.68
2388.548	2171.75
2391.709	2221.81
2394.869	2201.77
2398.029	2282.61
2401.188	2287.89
2404.347	2233.38
2407.506	2345.59
2410.665	2378.11
2413.823	2377.7
2416.981	2345.89
2420.139	2371.84
2423.296	2417.67
2426.453	2388.5
2429.61	2414.43
2432.767	2364.12
2435.923	2400.77
2439.079	2359.74
2442.235	2401.7
2445.391	2334.87
2448.546	2366.11
2451.701	2412.88
2454.855	2391.88
2458.009	2434.82
2461.163	2431.7
2464.317	2393.21
2467.471	2423.28
2470.624	2458.21
2473.777	2436.87
2476.929	2448.98
2480.082	2474.97
2483.234	2444.22
2486.385	2390.42
2489.537	2384.67
2492.688	2359.67
2495.839	2377.62
2498.989	2390.3
2502.14	2375.35
2505.29	2361.61
2508.439	2385.94
2511.589	2318.92
2514.738	2326.19
2517.887	2352.3
2521.035	2421.2
2524.183	2394.64
2527.331	2375.17
2530.479	2357.23
2533.627	2364
