Data from C_2_DIV_PA_2N_Splice17_12-40-24-332.txt Node
Date: Sat Mar 14 12:40:24 EDT 2020
User: sa697716
Spectrometer: FLMS03696
Trigger mode: 0
Integration Time (sec): 3.180400E-1
Scans to average: 20
Electric dark correction enabled: true
Nonlinearity correction enabled: true
Boxcar width: 5
XAxis mode: Wavelengths
Number of Pixels in Spectrum: 2048
>>>>>Begin Spectral Data<<<<<
187.83	-318492.69
188.298	2349.39
188.766	1263.97
189.233	1187.55
189.701	1646.08
190.169	2281.54
190.636	905.32
191.104	756.57
191.571	116.72
192.039	-70.4
192.506	-20.13
192.974	688.35
193.441	-1090.93
193.908	-395.59
194.375	-74.42
194.842	16.37
195.31	120.33
195.777	175.87
196.244	386.65
196.711	405.74
197.177	484.29
197.644	673.43
198.111	1155.97
198.578	1593.21
199.045	1267.47
199.511	2064.79
199.978	2365.75
200.445	1997.92
200.911	2236.31
201.378	2459.49
201.844	2236.62
202.31	3821.59
202.777	4002.99
203.243	2249.47
203.709	2117.79
204.176	2508.66
204.642	2077.44
205.108	1961.28
205.574	1598.02
206.04	1422.27
206.506	1344.44
206.972	1251.48
207.438	1218.1
207.903	1375.99
208.369	1209.75
208.835	1220.48
209.301	1282.59
209.766	1293.46
210.232	1265.03
210.697	1560.31
211.163	1961.66
211.628	2933.46
212.094	2501.52
212.559	3122.15
213.024	1959.01
213.49	2415.81
213.955	2364.96
214.42	2308.29
214.885	2184.24
215.35	2111.96
215.815	2094.94
216.28	2224.7
216.745	1812.4
217.21	1975.04
217.675	1806.32
218.14	2047.18
218.604	2277.88
219.069	2656.84
219.534	2850.82
219.998	3336.4
220.463	4096.55
220.927	5061.01
221.392	4825.16
221.856	4964.89
222.32	6309.97
222.785	7851.9
223.249	9945.81
223.713	11164.39
224.177	11204.55
224.642	14420.82
225.106	17817.25
225.57	19535.49
226.034	14634.02
226.497	22297.75
226.961	20158.51
227.425	23509.12
227.889	26153.15
228.353	26217.36
228.816	54321.54
229.28	52154.16
229.744	44094.73
230.207	26866.42
230.671	26511.25
231.134	43811.25
231.597	50732.56
232.061	50827.63
232.524	49710.66
232.987	34294.44
233.45	30935.97
233.914	27838.03
234.377	28566.6
234.84	26207.3
235.303	30960.59
235.766	34577.32
236.229	35825.02
236.691	22576.62
237.154	25399.48
237.617	19137.91
238.08	19648.96
238.542	23013.08
239.005	16486.96
239.468	16376.06
239.93	15435.67
240.393	14051.18
240.855	12365.23
241.317	12682.22
241.78	15449.69
242.242	16025.4
242.704	17333.64
243.166	15131.87
243.629	13798.89
244.091	15912.57
244.553	17493.53
245.015	18867.94
245.477	24476.22
245.939	35948.11
246.4	38262.5
246.862	37265.28
247.324	35162.49
247.786	39461.2
248.247	51729.96
248.709	53364.71
249.17	40008.06
249.632	37747.88
250.093	43840.83
250.555	37914.53
251.016	23166.22
251.477	22006.84
251.939	23803.82
252.4	25011.26
252.861	29766.09
253.322	27745.19
253.783	33095.97
254.244	42932.01
254.705	33899.98
255.166	30168.97
255.627	29731
256.088	41934.06
256.549	44508.82
257.009	38295.73
257.47	46523.89
257.931	37913.36
258.391	28443.25
258.852	29360.32
259.312	30824.42
259.773	38114.03
260.233	32222.13
260.694	27205.66
261.154	30876.06
261.614	24831.3
262.074	22241.1
262.534	23122.25
262.994	21808.43
263.455	29063.28
263.915	24503.78
264.374	23098.55
264.834	25215.54
265.294	27969.42
265.754	28990.68
266.214	27493.69
266.673	25794.17
267.133	32581.24
267.593	32338.9
268.052	39573.87
268.512	34444.77
268.971	41575.42
269.431	45609.01
269.89	40895.7
270.349	61331.04
270.809	68424.82
271.268	61504.4
271.727	138038.15
272.186	89471.43
272.645	67175.8
273.104	48494.71
273.563	70231.23
274.022	55227.78
274.481	47008.85
274.94	36216.72
275.399	26907.28
275.857	31325.02
276.316	42397.22
276.775	37676.52
277.233	37101.08
277.692	34719.71
278.15	39273.69
278.609	40409.57
279.067	37348.62
279.525	34683.03
279.984	44771.75
280.442	53831.28
280.9	53065.42
281.358	34865.89
281.816	32523.53
282.274	31844.36
282.732	32908.11
283.19	33047.27
283.648	28496.61
284.106	30393.11
284.564	30885.56
285.021	28648.29
285.479	21323.32
285.937	19382.38
286.394	17020.93
286.852	17510.38
287.309	18398.98
287.767	17767.76
288.224	16913.69
288.682	18574.08
289.139	20391.05
289.596	18673.38
290.053	19408.6
290.511	24534.84
290.968	29795.48
291.425	40457.25
291.882	33694.41
292.339	29343.76
292.796	29161.23
293.252	27496.01
293.709	21874.54
294.166	19611.15
294.623	21692.18
295.079	20804.3
295.536	20907.68
295.992	18980.66
296.449	18777.22
296.905	19521.33
297.362	18730.07
297.818	19683.64
298.274	20437.2
298.731	20816.9
299.187	20597.8
299.643	22121.25
300.099	26786.82
300.555	29386.35
301.011	24555.81
301.467	23675.28
301.923	27681.09
302.379	27042.97
302.835	26565.44
303.291	26568.47
303.746	30232.9
304.202	38214.78
304.658	38359.9
305.113	25795.48
305.569	25280.67
306.024	26946.57
306.479	25629.71
306.935	21637.74
307.39	23628.04
307.845	21814.37
308.301	21952.97
308.756	21402.78
309.211	20603.26
309.666	21095.6
310.121	26206.82
310.576	26591.72
311.031	26396.91
311.486	30231.7
311.94	30148.47
312.395	40250.83
312.85	75646.33
313.305	371728.82
313.759	1921915.56
314.214	139398.56
314.668	110616.34
315.123	92989.12
315.577	33362.66
316.032	29685.91
316.486	37201.6
316.94	29384
317.394	20516.85
317.849	15968.6
318.303	15113.29
318.757	14288.95
319.211	15811.62
319.665	13837.09
320.119	14028.76
320.572	20122.65
321.026	18825.73
321.48	15681.93
321.934	17117.63
322.387	17139.31
322.841	18519.84
323.295	16686.48
323.748	19226.25
324.202	19490.42
324.655	23448.33
325.108	32741.34
325.562	23111.28
326.015	27475.71
326.468	20774.77
326.921	23256.4
327.374	21691.64
327.827	22591.75
328.28	25581.14
328.733	17158.46
329.186	15117.37
329.639	14407.41
330.092	12160.87
330.545	11600.1
330.997	11697.54
331.45	12796.35
331.903	14993.85
332.355	25786.99
332.808	25094.71
333.26	20709.12
333.713	22481.57
334.165	22650.88
334.617	30205.92
335.069	24377.41
335.522	44108.15
335.974	48829.07
336.426	44640.75
336.878	30918.59
337.33	15697.42
337.782	15282.14
338.234	19147.1
338.686	22905.07
339.137	27145.27
339.589	25618.48
340.041	20082.99
340.493	17257.61
340.944	17658.28
341.396	19016.36
341.847	16009.09
342.299	18910.6
342.75	23162.62
343.201	20250.97
343.653	23312.19
344.104	28671.28
344.555	22548.86
345.006	35175.38
345.457	26994.27
345.908	21499.86
346.359	20260.4
346.81	16520.16
347.261	17438.77
347.712	17175.5
348.163	18403.53
348.613	18659.13
349.064	17443.22
349.515	15287.09
349.965	15667.83
350.416	18868.09
350.866	20707.76
351.317	23416.34
351.767	38810.35
352.217	49005.71
352.668	40671.27
353.118	37370.81
353.568	35993.43
354.018	28443.31
354.468	30019.68
354.918	21527.35
355.368	18829.78
355.818	26609.69
356.268	76643.56
356.718	320921.1
357.168	79941.5
357.617	40138.04
358.067	44589.58
358.517	41723.64
358.966	48906.97
359.416	54854.8
359.865	59368.04
360.315	70747.42
360.764	33073.69
361.213	18539.73
361.663	17573.71
362.112	21731.96
362.561	35128.93
363.01	26514.81
363.459	22385.06
363.908	24288.97
364.357	20653.88
364.806	34891
365.255	24025.79
365.703	21995.5
366.152	21999.65
366.601	17839.13
367.05	14466.51
367.498	13143.96
367.947	13724.61
368.395	14279.22
368.844	12612.48
369.292	15184.99
369.74	10494.12
370.189	16047.76
370.637	18842.34
371.085	16284.34
371.533	19817.9
371.981	19071.27
372.429	18197.11
372.877	18954.71
373.325	15849.78
373.773	16178.44
374.221	14415.87
374.669	17891.12
375.116	15473.16
375.564	15565.09
376.012	17378.1
376.459	14304.38
376.907	17098.04
377.354	20660.14
377.801	19247.82
378.249	22097.02
378.696	28240.97
379.143	34150.34
379.591	36386.3
380.038	61516.98
380.485	44461.13
380.932	47946.95
381.379	43856.39
381.826	32283.11
382.273	22901.44
382.72	19990.8
383.166	19485.72
383.613	12608.09
384.06	11372.79
384.506	13137.75
384.953	9638.09
385.4	9693.34
385.846	8486.73
386.292	8262.56
386.739	8077.14
387.185	7988.01
387.631	7991.33
388.078	7747.04
388.524	8269.62
388.97	7610.05
389.416	6336.77
389.862	6723.27
390.308	6365.67
390.754	6464.03
391.2	7001.82
391.645	7152.05
392.091	6842.52
392.537	6608
392.983	6608.35
393.428	6505.1
393.874	6974.41
394.319	7009.24
394.765	6647.05
395.21	6823.05
395.655	6385.12
396.101	5981.75
396.546	5402.12
396.991	5451.1
397.436	5060.38
397.881	4887.28
398.326	4628.93
398.771	4394.25
399.216	3837.75
399.661	3454.41
400.106	3441.99
400.551	3528.16
400.995	3168.62
401.44	3135.68
401.885	2941.35
402.329	2977.1
402.774	2859.22
403.218	2774.31
403.663	2666.31
404.107	2749.15
404.551	2777.94
404.995	2549.22
405.44	2461.17
405.884	2502.97
406.328	2428.59
406.772	2430.87
407.216	2222.06
407.66	2151.28
408.104	2045.17
408.547	1919.47
408.991	1858.88
409.435	1792.61
409.879	1776.77
410.322	1761.84
410.766	1710.31
411.209	1630.46
411.653	1567.07
412.096	1538.56
412.54	1544.2
412.983	1541.88
413.426	1553.34
413.869	1556.25
414.312	1532.27
414.756	1480.12
415.199	1414.15
415.642	1374.18
416.085	1380.4
416.527	1373.09
416.97	1400.07
417.413	1333.04
417.856	1321.51
418.298	1314.71
418.741	1309.76
419.184	1311.65
419.626	1372.27
420.069	1379.42
420.511	1392.15
420.953	1367.35
421.396	1361.32
421.838	1330.35
422.28	1366.78
422.722	1377.47
423.164	1396.96
423.606	1379.36
424.048	1380.75
424.49	1316.55
424.932	1312.26
425.374	1298.14
425.816	1322.58
426.258	1350.95
426.699	1366.59
427.141	1348.69
427.582	1373.35
428.024	1370.63
428.465	1365.77
428.907	1334.42
429.348	1316.63
429.789	1316.31
430.231	1289.17
430.672	1306.71
431.113	1278.67
431.554	1261.77
431.995	1231.14
432.436	1186.11
432.877	1162.15
433.318	1141.48
433.759	1137.24
434.2	1140.01
434.64	1129.25
435.081	1131.56
435.522	1072.74
435.962	1032.09
436.403	1009.69
436.843	1021.64
437.284	999.11
437.724	970.8
438.164	973.42
438.604	951.6
439.045	914.08
439.485	876
439.925	857.5
440.365	837.81
440.805	826.38
441.245	815.6
441.685	785.96
442.125	779.13
442.564	781.06
443.004	762.02
443.444	757.65
443.883	758.91
444.323	750.84
444.762	748.54
445.202	754.38
445.641	766.18
446.081	758.77
446.52	763.11
446.959	753.83
447.398	734.33
447.837	722.37
448.276	708.28
448.716	711.85
449.154	716.06
449.593	699.62
450.032	696.11
450.471	681.08
450.91	680.03
451.349	676.86
451.787	673.13
452.226	682.68
452.664	683.05
453.103	683.27
453.541	681.31
453.98	680.95
454.418	685.7
454.856	675.7
455.295	674.38
455.733	681.28
456.171	684.99
456.609	687.58
457.047	686.64
457.485	695.71
457.923	697.39
458.361	687.19
458.798	689.19
459.236	685.6
459.674	690.82
460.111	694.42
460.549	686.73
460.987	683.87
461.424	680.5
461.862	677.32
462.299	667.43
462.736	666.72
463.173	669.12
463.611	662.2
464.048	661.22
464.485	665.33
464.922	658.32
465.359	653.96
465.796	648.58
466.233	644.06
466.67	638.69
467.106	637.72
467.543	630.37
467.98	622.13
468.416	605.32
468.853	600.19
469.29	581.58
469.726	575.93
470.162	560.98
470.599	551.31
471.035	545.59
471.471	532.41
471.907	528.1
472.344	525.44
472.78	527.72
473.216	534.98
473.652	529.61
474.088	528.71
474.523	526.7
474.959	531.26
475.395	525.31
475.831	521.83
476.266	524.05
476.702	522.68
477.138	516.62
477.573	513.93
478.008	511.2
478.444	513.82
478.879	518.61
479.314	520.18
479.75	519.64
480.185	522.54
480.62	526.67
481.055	529.65
481.49	533.62
481.925	540.93
482.36	551.32
482.795	566.18
483.229	580.3
483.664	591.87
484.099	594.97
484.534	604.92
484.968	610.09
485.403	611.28
485.837	609.42
486.271	607.33
486.706	606.74
487.14	599.02
487.574	588.8
488.009	582.03
488.443	575.54
488.877	579.84
489.311	579.18
489.745	584.31
490.179	588.43
490.613	598.32
491.046	600.75
491.48	603.3
491.914	600.56
492.348	602.15
492.781	603.73
493.215	602.89
493.648	601.03
494.082	603.7
494.515	601.83
494.948	606.18
495.382	606.18
495.815	607.42
496.248	609.43
496.681	618.03
497.114	623.9
497.547	628.36
497.98	635.35
498.413	636.77
498.846	640.43
499.279	643.09
499.711	640.75
500.144	638.61
500.577	643.48
501.009	646.97
501.442	650.25
501.874	646.93
502.306	644.01
502.739	646.88
503.171	653.73
503.603	651.11
504.036	652.92
504.468	653.54
504.9	655.96
505.332	655.5
505.764	653.95
506.196	652.46
506.627	657.55
507.059	661.63
507.491	660.25
507.923	653.49
508.354	658.53
508.786	660.05
509.217	666.46
509.649	672.74
510.08	679.76
510.512	685.59
510.943	691.06
511.374	693.28
511.805	702.16
512.237	709.52
512.668	725.25
513.099	738.1
513.53	751.89
513.961	761.3
514.391	776.63
514.822	794.02
515.253	813.37
515.684	824.95
516.114	840.49
516.545	849.61
516.975	863.68
517.406	871.58
517.836	869.51
518.267	871.16
518.697	879.48
519.127	879.35
519.558	880.18
519.988	879.36
520.418	883.37
520.848	891.4
521.278	894.87
521.708	926.14
522.138	932.64
522.567	949.84
522.997	963.69
523.427	971.44
523.857	981.28
524.286	986.7
524.716	995.66
525.145	1007.46
525.575	1014.05
526.004	1022.37
526.433	996.01
526.863	995.44
527.292	990.94
527.721	994.15
528.15	997.17
528.579	998.05
529.008	1005.43
529.437	1018.78
529.866	1026.93
530.295	1037.06
530.724	1046.22
531.152	1062.06
531.581	1071.99
532.01	1082.08
532.438	1086.87
532.867	1096.46
533.295	1108.42
533.723	1112.65
534.152	1111.47
534.58	1111.81
535.008	1103.39
535.436	1104.28
535.865	1109.11
536.293	1116.93
536.721	1127.29
537.149	1144.08
537.576	1146.86
538.004	1154.76
538.432	1159.13
538.86	1159.43
539.287	1164.31
539.715	1173.24
540.143	1175.1
540.57	1173.63
540.998	1172.6
541.425	1160.5
541.852	1147.59
542.28	1146.39
542.707	1136.27
543.134	1128.45
543.561	1125.85
543.988	1122.16
544.415	1121.09
544.842	1117.32
545.269	1112.91
545.696	1114.34
546.123	1121.9
546.549	1115.98
546.976	1108.09
547.403	1107.79
547.829	1108.76
548.256	1109.45
548.682	1106.93
549.108	1104.25
549.535	1105.48
549.961	1107.67
550.387	1099.56
550.813	1096.64
551.24	1100.62
551.666	1101.13
552.092	1095.1
552.518	1091.6
552.943	1089.73
553.369	1093.68
553.795	1096.35
554.221	1096.49
554.646	1094.91
555.072	1102.12
555.498	1104.05
555.923	1109.8
556.349	1120.46
556.774	1125.89
557.199	1126.63
557.625	1129.11
558.05	1126.48
558.475	1132.88
558.9	1132.79
559.325	1127.93
559.75	1124.43
560.175	1120.63
560.6	1116.86
561.025	1114.88
561.449	1116.42
561.874	1119.9
562.299	1123.53
562.723	1127.78
563.148	1122.33
563.572	1124.7
563.997	1130.57
564.421	1134.36
564.846	1134.74
565.27	1137.78
565.694	1136.79
566.118	1144.42
566.542	1151.3
566.966	1147.23
567.39	1145.59
567.814	1139.28
568.238	1139.4
568.662	1142.97
569.086	1144.4
569.509	1149.53
569.933	1141.06
570.357	1137.38
570.78	1124.66
571.204	1117.13
571.627	1111.4
572.05	1110.39
572.474	1110.97
572.897	1104.42
573.32	1100.69
573.743	1094.87
574.166	1085.49
574.589	1085.48
575.012	1081.34
575.435	1081.06
575.858	1074.69
576.281	1068.5
576.704	1059.15
577.126	1052.36
577.549	1045.23
577.972	1039.05
578.394	1033.45
578.817	1030.52
579.239	1018.93
579.661	1011.19
580.084	1003.26
580.506	996.59
580.928	994.33
581.35	987.85
581.772	984.59
582.194	977.38
582.616	970.34
583.038	961.03
583.46	952.91
583.882	952.07
584.303	954.66
584.725	951.36
585.147	956.69
585.568	964.86
585.99	973.93
586.411	979.05
586.833	989.65
587.254	991.06
587.675	1001.19
588.096	1009.99
588.518	1006.29
588.939	997.5
589.36	996.74
589.781	985.99
590.202	969.7
590.623	965.29
591.043	963.77
591.464	955.66
591.885	953.68
592.305	951.07
592.726	943.24
593.147	945.69
593.567	942.09
593.987	938.82
594.408	936.51
594.828	934.22
595.248	930.71
595.669	920.39
596.089	916.65
596.509	913.61
596.929	905.62
597.349	907.2
597.769	901.04
598.189	898.47
598.608	898.94
599.028	899.96
599.448	900.17
599.867	892.16
600.287	889.33
600.706	887.03
601.126	881.69
601.545	881.45
601.965	880.27
602.384	877
602.803	878.46
603.222	875.81
603.641	871.79
604.061	870.56
604.48	867.37
604.898	873.63
605.317	876.39
605.736	878.03
606.155	876.67
606.574	870.56
606.992	873.95
607.411	870.92
607.829	866.05
608.248	864.69
608.666	862.25
609.085	863.53
609.503	857.71
609.921	856.18
610.339	858.54
610.758	857.65
611.176	855.41
611.594	850.96
612.012	849.78
612.43	853.79
612.847	858.25
613.265	861.09
613.683	865.15
614.101	867.72
614.518	864.9
614.936	858.44
615.353	851.51
615.771	851.12
616.188	852.7
616.606	851.15
617.023	846.86
617.44	838.1
617.857	833.98
618.274	828.15
618.691	825.54
619.108	820.53
619.525	816.97
619.942	821.18
620.359	823.11
620.776	820.03
621.192	819.31
621.609	819.13
622.026	826.45
622.442	830.63
622.859	833.32
623.275	827.63
623.691	830.76
624.108	839.19
624.524	849.28
624.94	849.99
625.356	857.25
625.772	865.79
626.188	872.74
626.604	872.95
627.02	870.75
627.436	870.18
627.852	876.55
628.268	886.44
628.683	881.18
629.099	875.76
629.514	873.36
629.93	876.22
630.345	878.7
630.761	876.81
631.176	879.63
631.591	878.14
632.007	875.53
632.422	873.73
632.837	866.06
633.252	865.93
633.667	860.82
634.082	856.29
634.497	849.35
634.911	839.45
635.326	838.91
635.741	829.66
636.155	824.09
636.57	827.73
636.984	830.92
637.399	835.98
637.813	837.38
638.228	838.44
638.642	843.62
639.056	839.08
639.47	841.88
639.884	839.94
640.298	838.96
640.712	841.91
641.126	836.26
641.54	833.09
641.954	830.98
642.368	826.52
642.781	827.36
643.195	818.48
643.609	823.15
644.022	823.55
644.436	823.25
644.849	817.17
645.262	810.52
645.676	814.5
646.089	814.93
646.502	808.09
646.915	806.59
647.328	795.83
647.741	797.4
648.154	789.85
648.567	790.29
648.98	783.16
649.393	787.14
649.805	787.03
650.218	783.12
650.631	771.9
651.043	769.13
651.456	766.65
651.868	767.71
652.28	782.1
652.693	793.84
653.105	797.95
653.517	804.91
653.929	805.47
654.341	811.93
654.753	803.83
655.165	810.1
655.577	809.6
655.989	807.5
656.401	802.8
656.813	777.42
657.224	763.5
657.636	743.19
658.047	733.87
658.459	721.88
658.87	716.46
659.282	710.13
659.693	697.96
660.104	689.93
660.515	681.71
660.926	684.71
661.338	684.67
661.749	682.74
662.159	679.61
662.57	678.4
662.981	677.43
663.392	674.83
663.803	682
664.213	682.4
664.624	680.84
665.035	686.48
665.445	677.57
665.855	675.04
666.266	671.39
666.676	671.2
667.086	666.56
667.497	668.27
667.907	664.24
668.317	658.44
668.727	659.18
669.137	661.19
669.547	661.19
669.956	663.3
670.366	666.48
670.776	668.24
671.186	672.33
671.595	675.12
672.005	677.1
672.414	677.77
672.824	675.19
673.233	676.5
673.642	678.59
674.052	680.72
674.461	682.76
674.87	685.12
675.279	683.48
675.688	683.68
676.097	684.2
676.506	680.74
676.915	691.62
677.323	693.24
677.732	690.31
678.141	687.89
678.549	676.34
678.958	672.5
679.366	668.85
679.775	668.33
680.183	677
680.592	678.17
681	680.27
681.408	671.17
681.816	673.23
682.224	677.39
682.632	682.05
683.04	702.28
683.448	717.62
683.856	738.3
684.264	763.31
684.671	780.9
685.079	804.6
685.487	831.44
685.894	869.81
686.302	898.79
686.709	919.59
687.116	943.71
687.524	961.27
687.931	973.4
688.338	980.37
688.745	981.78
689.152	985.46
689.559	998.43
689.966	1011.28
690.373	1010.01
690.78	1020.72
691.187	1044.24
691.593	1060.21
692	1071.31
692.407	1096.59
692.813	1132.97
693.22	1158.77
693.626	1185.83
694.032	1208.2
694.439	1244.75
694.845	1272.52
695.251	1310.68
695.657	1345.7
696.063	1398.11
696.469	1437.45
696.875	1475.32
697.281	1494.73
697.687	1521.23
698.093	1545.75
698.498	1588.97
698.904	1621.42
699.31	1674.11
699.715	1714.9
700.12	1770.9
700.526	1786.9
700.931	1832.23
701.337	1866.85
701.742	1891.05
702.147	1945.78
702.552	1967.09
702.957	2010.16
703.362	2030.41
703.767	2052.15
704.172	2081.09
704.577	2057.11
704.981	2089.48
705.386	2106.65
705.791	2108.02
706.195	2158.44
706.6	2172.26
707.004	2226.99
707.408	2210.94
707.813	2234.42
708.217	2235.85
708.621	2243.71
709.025	2311.77
709.43	2320.64
709.834	2365.1
710.237	2415.94
710.641	2412.64
711.045	2431.11
711.449	2434.27
711.853	2462.51
712.256	2494.88
712.66	2523.82
713.064	2577.8
713.467	2611.52
713.87	2690.49
714.274	2725.92
714.677	2803.52
715.08	2915.96
715.484	3034.3
715.887	3179.1
716.29	3315.96
716.693	3461.77
717.096	3629.83
717.499	3723.93
717.901	3747.88
718.304	3772.71
718.707	3796.79
719.109	3734.07
719.512	3717.65
719.915	3633.57
720.317	3598.85
720.719	3633.07
721.122	3617.6
721.524	3588.32
721.926	3568.92
722.328	3644.43
722.731	3643.35
723.133	3666.06
723.535	3803.55
723.937	3826.46
724.338	3865.16
724.74	3899.49
725.142	3895.08
725.544	3901.44
725.945	3931.4
726.347	3930.5
726.748	3927.82
727.15	3943.1
727.551	3924.51
727.952	3907.61
728.354	3890.14
728.755	3895.05
729.156	3868.4
729.557	3830.37
729.958	3746.25
730.359	3704.09
730.76	3693.34
731.161	3655.31
731.562	3639.61
731.962	3643.35
732.363	3603.69
732.763	3562.54
733.164	3589.74
733.564	3546
733.965	3482.81
734.365	3461.08
734.766	3484.8
735.166	3461.03
735.566	3424.98
735.966	3408.62
736.366	3405.01
736.766	3363.15
737.166	3386.26
737.566	3359.77
737.966	3340.18
738.365	3369.67
738.765	3367.22
739.165	3315.59
739.564	3297.94
739.964	3330.64
740.363	3298.82
740.763	3299.07
741.162	3292.91
741.561	3270.93
741.96	3238.8
742.36	3258.28
742.759	3264.36
743.158	3293.79
743.557	3305.23
743.955	3334.46
744.354	3303.41
744.753	3343.66
745.152	3316.91
745.55	3355.81
745.949	3351.31
746.348	3353.84
746.746	3364.39
747.144	3338.21
747.543	3322.15
747.941	3356.85
748.339	3309.42
748.737	3305.04
749.136	3300.43
749.534	3344.59
749.932	3326.33
750.33	3342.47
750.727	3380.61
751.125	3363.25
751.523	3350.95
751.921	3384.06
752.318	3361.01
752.716	3404.12
753.113	3413.41
753.511	3429.77
753.908	3431.41
754.305	3422.3
754.703	3470.85
755.1	3516.49
755.497	3559.3
755.894	3694.27
756.291	3820.3
756.688	4056.09
757.085	4364.27
757.482	4804.67
757.878	5289.74
758.275	5725.1
758.672	6318.29
759.068	6802.45
759.465	7496.77
759.861	8393.86
760.258	9428.5
760.654	9966.9
761.05	9886.53
761.447	9441.68
761.843	8794.08
762.239	8120.34
762.635	7819.14
763.031	7527.81
763.427	7107.08
763.822	6664.95
764.218	6230.36
764.614	5664.18
765.01	5286.01
765.405	5041.01
765.801	4857.29
766.196	4617.11
766.592	4484.32
766.987	4260.13
767.382	4111.23
767.778	4048.88
768.173	3955.29
768.568	3902.65
768.963	3814.93
769.358	3828.64
769.753	3795.37
770.148	3734.94
770.542	3737.26
770.937	3714.6
771.332	3778.4
771.726	3790.63
772.121	3749.02
772.515	3787.86
772.91	3779.44
773.304	3829.67
773.699	3780.23
774.093	3818.5
774.487	3858.01
774.881	3887.43
775.275	3887.04
775.669	3856.69
776.063	3886.8
776.457	3912.28
776.851	3860.8
777.245	3856.58
777.638	3881.03
778.032	3962.67
778.425	3937.67
778.819	3969.79
779.212	3942.07
779.606	3913.91
779.999	3929.68
780.392	3918.55
780.786	3973.74
781.179	3988.55
781.572	4017.97
781.965	4029.03
782.358	3989.45
782.751	4028.66
783.143	3991.72
783.536	4041.7
783.929	4068.87
784.322	4148.18
784.714	4170.87
785.107	4168.02
785.499	4221.89
785.891	4205.45
786.284	4188.86
786.676	4288.34
787.068	4278.7
787.46	4315.95
787.852	4329.58
788.245	4391.63
788.636	4414.51
789.028	4464.11
789.42	4494.79
789.812	4498.95
790.204	4567.27
790.595	4642.86
790.987	4506.06
791.378	4519.44
791.77	4609.44
792.161	4704.56
792.553	4745.45
792.944	4665.38
793.335	4615.62
793.726	4664.22
794.117	4729.14
794.508	4826.67
794.899	4801.69
795.29	4901.44
795.681	4939.76
796.072	4843.05
796.463	4726.97
796.853	4734.88
797.244	4848.28
797.634	4871.31
798.025	4873.51
798.415	4878.27
798.806	4943.83
799.196	5004.63
799.586	5041.89
799.976	5018.3
800.366	5180.18
800.756	5333.38
801.146	5305.38
801.536	5326.85
801.926	5380.23
802.316	5399.48
802.706	5453.23
803.095	5364.32
803.485	5436.35
803.874	5463.45
804.264	5645.44
804.653	5628.66
805.043	5737.13
805.432	5813.6
805.821	5814.36
806.21	5829.46
806.599	5912.64
806.988	5945.58
807.377	6017.72
807.766	6108.03
808.155	6309.55
808.544	6124.2
808.933	6132.98
809.321	6118.37
809.71	6324.85
810.098	6434.64
810.487	6757.16
810.875	7093.96
811.264	7108.05
811.652	7325.2
812.04	7430.15
812.428	7549.06
812.816	8085.54
813.204	8380.35
813.592	8762.87
813.98	9009.07
814.368	8948.34
814.756	9290.15
815.144	9231.6
815.531	9560.5
815.919	9495.41
816.306	9711.94
816.694	9485.99
817.081	9526.46
817.469	9771.46
817.856	9772.25
818.243	9957.2
818.63	10229.49
819.017	9938.93
819.404	9985.27
819.791	10252.65
820.178	10688.51
820.565	10864.11
820.952	11533
821.339	11181.65
821.725	11317.33
822.112	10793.74
822.498	10764.21
822.885	10853.24
823.271	10779.95
823.657	11078.92
824.044	11094.71
824.43	11146.66
824.816	11130.34
825.202	10813.24
825.588	11539.2
825.974	11542.68
826.36	11905.67
826.746	11925.59
827.132	12180.79
827.517	12166.65
827.903	11605.69
828.289	11628.22
828.674	11077.12
829.06	10998.75
829.445	11279.71
829.83	11529.48
830.216	11868.27
830.601	12124.45
830.986	11844.49
831.371	11743.75
831.756	12135.71
832.141	11845.45
832.526	11837.41
832.911	12037.05
833.295	11953.13
833.68	12281.97
834.065	11843.26
834.449	11193.29
834.834	11145.87
835.218	11141.57
835.603	11386.26
835.987	11232.75
836.371	11810.11
836.755	11733.92
837.139	12012.81
837.524	12180.85
837.908	12053.08
838.291	12095.71
838.675	12153.27
839.059	12298.94
839.443	12280.29
839.827	12114.65
840.21	12450.43
840.594	12350.23
840.977	12502.54
841.361	12494.62
841.744	12760.8
842.127	12654.11
842.511	12831.9
842.894	13244.01
843.277	13509.99
843.66	13896.13
844.043	13959.2
844.426	13399.23
844.809	13168.94
845.191	13188.27
845.574	12857.43
845.957	12600.14
846.339	12528.7
846.722	12157.12
847.104	12204.88
847.487	12075.12
847.869	12085.34
848.252	12278.36
848.634	12506.95
849.016	12698.85
849.398	12788.94
849.78	13390.81
850.162	13397.67
850.544	13687.6
850.926	14124.84
851.307	14064.49
851.689	14281.83
852.071	14597.82
852.452	14833.41
852.834	14821.53
853.215	15105.27
853.597	15213.33
853.978	15419.13
854.359	15741.17
854.741	15029.57
855.122	14956.43
855.503	14755.69
855.884	14843.96
856.265	14809.35
856.646	14886.26
857.026	14609.58
857.407	14559.81
857.788	14661.9
858.169	14861.18
858.549	14263.67
858.93	14706.72
859.31	14740.79
859.69	14890.01
860.071	14601.23
860.451	14447.46
860.831	13918.89
861.211	14731.14
861.591	15114.76
861.971	15099.85
862.351	15236.32
862.731	15504.58
863.111	15691.19
863.491	15932.52
863.87	16548.65
864.25	16794.21
864.629	16508.07
865.009	16873.02
865.388	17476.18
865.768	18721.82
866.147	18655.14
866.526	17622.2
866.905	17831.92
867.284	18827.86
867.663	17866.72
868.042	17132.74
868.421	17077.18
868.8	17362.71
869.179	17537.6
869.558	16514.4
869.936	15227.63
870.315	15491.66
870.693	15879.38
871.072	17119.46
871.45	16306.4
871.828	16529.92
872.207	17375.34
872.585	17113.43
872.963	17574.05
873.341	16971.88
873.719	16776.83
874.097	16570.99
874.475	16895.83
874.853	17281.25
875.23	16577.2
875.608	17280.9
875.986	18677.76
876.363	17854.37
876.741	18406.96
877.118	17955.35
877.495	18850.36
877.873	19165.75
878.25	20169.36
878.627	19343.27
879.004	19614.06
879.381	19512.85
879.758	19003.33
880.135	17698.3
880.512	18722.21
880.889	18221.35
881.265	18030.21
881.642	17871.02
882.019	18171.84
882.395	17814.44
882.772	18526.61
883.148	17715.91
883.524	17649.15
883.901	17549.94
884.277	17808.43
884.653	17679.33
885.029	18195.61
885.405	20166.4
885.781	20006.79
886.157	19176.13
886.532	19409.76
886.908	19396.47
887.284	21569.84
887.659	22284.35
888.035	22982.32
888.411	23602.02
888.786	23934.82
889.161	24767.07
889.537	24294.91
889.912	25080.93
890.287	25077.96
890.662	25722.03
891.037	25248.14
891.412	23549.66
891.787	23307.52
892.162	22497.73
892.536	23007.71
892.911	22152.54
893.286	21684.68
893.66	20814.38
894.035	21345.25
894.409	23239.45
894.784	22314.87
895.158	22697.33
895.532	24048.73
895.906	24694.36
896.281	25267.2
896.655	24871.4
897.029	28409.83
897.402	29576.2
897.776	32921.64
898.15	32803.4
898.524	32440.91
898.898	32869.3
899.271	36796.03
899.645	31869.55
900.018	30620.33
900.392	31747.89
900.765	31994.3
901.138	29602.95
901.511	29148.21
901.884	26772.26
902.258	24702.56
902.631	25543.52
903.003	29379.95
903.376	26506
903.749	29718.32
904.122	31822.23
904.495	35037.69
904.867	35465.66
905.24	30791.69
905.612	28672.74
905.985	29320.47
906.357	30658.98
906.729	29247.75
907.102	24992.95
907.474	24043.22
907.846	24204.86
908.218	23879.17
908.59	21122.96
908.962	20442.75
909.334	22013.52
909.705	23134.92
910.077	22460.72
910.449	23376.95
910.82	24027.98
911.192	26437.73
911.563	27491.94
911.935	29391.58
912.306	29446.94
912.677	30387.3
913.048	30088.92
913.419	32659.76
913.79	32849.15
914.161	35209.6
914.532	33646.65
914.903	30928.9
915.274	29385.26
915.645	28952.6
916.015	25495.47
916.386	24299.69
916.756	25866.49
917.127	26672.88
917.497	23826.29
917.868	25940.19
918.238	24668.53
918.608	25398.94
918.978	25940.4
919.348	27482.79
919.718	28423.71
920.088	27406.6
920.458	28499.56
920.828	29996.2
921.198	28453.25
921.567	30398.84
921.937	23545.92
922.306	23780.97
922.676	25638.6
923.045	21402.02
923.415	20323.62
923.784	18487.77
924.153	19010.55
924.522	18986.89
924.891	17851.58
925.26	19127.75
925.629	18690.79
925.998	21478.89
926.367	20973.95
926.736	19993.93
927.104	23795.05
927.473	25578.28
927.842	30895.13
928.21	30589.92
928.578	32176
928.947	30450.55
929.315	30641.92
929.683	35919.16
930.051	36230.16
930.42	42043.4
930.788	35932.33
931.156	35689.93
931.523	33471.52
931.891	30941.79
932.259	29736.72
932.627	34459.26
932.994	48755.25
933.362	40338.27
933.729	35046.08
934.097	33517.02
934.464	28390.9
934.831	32749.23
935.199	32311.06
935.566	31379.72
935.933	31902.29
936.3	38689.19
936.667	30122.09
937.034	27243.86
937.401	26955.22
937.767	23310.68
938.134	20799.62
938.501	29360.37
938.867	31348
939.234	52982.61
939.6	45167.29
939.967	49580.43
940.333	33229.08
940.699	28316.17
941.065	22666.26
941.431	29683.05
941.798	28616.63
942.163	37540.43
942.529	23431.33
942.895	21558.73
943.261	13939.02
943.627	18303.6
943.992	16034.72
944.358	16009.82
944.723	16077.03
945.089	15662.35
945.454	14475.25
945.82	15429.89
946.185	14825.68
946.55	17173.06
946.915	15383.07
947.28	18012.98
947.645	15844.45
948.01	14625.65
948.375	15269.86
948.74	18258.48
949.104	21288.31
949.469	30706.1
949.834	54258.86
950.198	51498.59
950.562	30903.35
950.927	25731.25
951.291	31047.37
951.655	26470.48
952.02	24830.92
952.384	18755.83
952.748	16372
953.112	15999.67
953.476	13930.64
953.839	12877.17
954.203	12770.6
954.567	15961.62
954.931	25159.75
955.294	21519.98
955.658	21642.59
956.021	36842.51
956.385	62486.91
956.748	92125.24
957.111	142799.97
957.474	160302.91
957.837	180444.99
958.2	136164.54
958.563	48978.53
958.926	33146.98
959.289	50261.26
959.652	56110.19
960.015	42131.1
960.377	60479.26
960.74	69023.17
961.102	119037.14
961.465	127964.75
961.827	68813.79
962.189	132103.03
962.552	91557.19
962.914	73308.14
963.276	47570.29
963.638	39356.02
964	38897.08
964.362	26295.73
964.724	25396.54
965.085	18111.98
965.447	14842.96
965.809	16883.99
966.17	16894.53
966.532	18272.87
966.893	16775.18
967.255	15254.5
967.616	18005.4
967.977	14430.33
968.338	15755.98
968.699	12960.08
969.061	12954.55
969.421	13048.26
969.782	14632.75
970.143	12376.93
970.504	12855.62
970.865	14638.92
971.225	15002.65
971.586	14682.98
971.946	20919.21
972.307	18169.79
972.667	23752.96
973.027	24490.51
973.388	29696.95
973.748	20167.73
974.108	21974.14
974.468	29667.11
974.828	22903.08
975.188	17598.12
975.548	16168.95
975.907	13598.21
976.267	15232.77
976.627	12811.93
976.986	13273.66
977.346	12636.5
977.705	12177.76
978.064	11079.63
978.424	9237.29
978.783	9514.68
979.142	10863.78
979.501	10394.25
979.86	10981.38
980.219	10599.08
980.578	13648.32
980.937	15311.98
981.296	13661.4
981.654	14076.2
982.013	21910.79
982.371	28473.87
982.73	26660.83
983.088	30217.99
983.447	32374.28
983.805	46261.43
984.163	96664.08
984.521	107466.8
984.879	157515.38
985.237	-256466.1
985.595	247327.37
985.953	61448.43
986.311	35411.81
986.669	20544.29
987.026	17738.27
987.384	23771.48
987.741	24634.5
988.099	17655.19
988.456	14069.3
988.814	13182.68
989.171	11465.46
989.528	11297.48
989.885	11938.84
990.242	9473.52
990.599	11798.58
990.956	9655.84
991.313	6758.22
991.67	5547.47
992.027	5891.59
992.383	5242.14
992.74	4598.76
993.096	4817.08
993.453	4999.14
993.809	5187.65
994.165	6909.83
994.522	6370.7
994.878	7029.51
995.234	8814.73
995.59	8694.73
995.946	8206.53
996.302	9363.07
996.658	10798.04
997.013	11925.03
997.369	14184.26
997.725	18139.28
998.08	11715.53
998.436	17931.46
998.791	24680.38
999.147	24692.62
999.502	26950.74
999.857	19576.03
1000.212	31928.53
1000.567	45613
1000.922	26250.56
1001.277	16634.2
1001.632	12332.46
1001.987	15912.74
1002.342	11430.44
1002.696	9158.99
1003.051	7322.39
1003.406	8864.73
1003.76	8826.93
1004.114	8711.46
1004.469	7334.43
1004.823	6081.28
1005.177	6564.1
1005.531	5214.41
1005.885	4640.18
1006.239	5245.09
1006.593	6582.61
1006.947	8797.12
1007.301	6591.99
1007.655	7202
1008.008	5291.36
1008.362	5946.98
1008.715	8509.3
1009.069	7715.36
1009.422	11665.73
1009.776	23360.82
1010.129	15516.23
1010.482	12952.46
1010.835	10925.17
1011.188	22784.92
1011.541	21399.79
1011.894	-130294.5
1012.247	382465.55
1012.6	25905.08
1012.952	16438
1013.305	8437.07
1013.657	6095.27
1014.01	5773.37
1014.362	4759.65
1014.715	4282.82
1015.067	3722.9
1015.419	3642.64
1015.771	3236.41
1016.123	2885.42
1016.475	2981.77
1016.827	3173.93
1017.179	3421.07
1017.531	3416.68
1017.883	3488.49
1018.234	3384.16
1018.586	4232
1018.938	4503.96
1019.289	6228.84
1019.64	7077.91
1019.992	6570.09
1020.343	5983.81
1020.694	4725.73
1021.045	4152.68
1021.396	4760.13
1021.747	5120.53
1022.098	6113.4
1022.449	4449.28
1022.8	4129.03
1023.151	2875.9
1023.501	2581.55
1023.852	2813.99
1024.202	2934.64
1024.553	3208.3
1024.903	3152.51
1025.253	2728.96
1025.604	2459.88
1025.954	3048.1
1026.304	3697.66
1026.654	4299.68
1027.004	6277.82
1027.354	10022.79
1027.703	9425.52
1028.053	12321.61
1028.403	18020.61
1028.753	25871.99
1029.102	34827.3
1029.452	178139.31
1029.801	7702.14
1030.15	4957.49
1030.499	4183.41
897.758	3093.86
901.051	3079.82
904.343	3119.53
907.636	3108.93
910.928	3176.4
914.22	3080.14
917.511	3091.59
920.803	3173.06
924.094	3212.82
927.384	3167.48
930.675	3136.76
933.965	3081.08
937.255	3071.83
940.544	3036.54
943.834	2919.39
947.123	2874.65
950.411	2975.53
953.7	2940.55
956.988	2886.31
960.276	2836.92
963.563	2951.67
966.851	2930.56
970.138	3003.62
973.424	2981.85
976.711	2932.74
979.997	3151.52
983.283	3169.12
986.568	3048.55
989.853	3093.23
993.138	3122.51
996.423	3196.65
999.708	3111.98
1002.992	3216.92
1006.275	2978.25
1009.559	3071.18
1012.842	3200.73
1016.125	3111.3
1019.408	3088.56
1022.69	3205.38
1025.972	3206.13
1029.254	3178.79
1032.536	3081.41
1035.817	3125.35
1039.098	3036.42
1042.379	3269.63
1045.659	3229.69
1048.939	3147.33
1052.219	3182.73
1055.498	3214.74
1058.778	3186.23
1062.057	3180.09
1065.335	3197.58
1068.614	3224.27
1071.892	3186.32
1075.17	3287.65
1078.447	3263.22
1081.724	3248.86
1085.001	3292.35
1088.278	3265.5
1091.554	3285.55
1094.83	3282.4
1098.106	3301.06
1101.382	3361.5
1104.657	3362.36
1107.932	3360.15
1111.206	3306.1
1114.481	3268.02
1117.755	3277.96
1121.029	3244.3
1124.302	3283.05
1127.575	3218.05
1130.848	3196.97
1134.121	3150.99
1137.393	3085.17
1140.665	3164.1
1143.937	3133.19
1147.208	3074.79
1150.48	3091.25
1153.75	3071.27
1157.021	3139.73
1160.291	3102.25
1163.561	3136.01
1166.831	3156.11
1170.101	3188.84
1173.37	3184.6
1176.639	3111.75
1179.907	3188.81
1183.176	3207.49
1186.444	3222.65
1189.711	3257.36
1192.979	3251.58
1196.246	3211.63
1199.513	3234.79
1202.78	3224.4
1206.046	3231.11
1209.312	3257.08
1212.578	3287.87
1215.843	3221.81
1219.108	3206.33
1222.373	3227.77
1225.638	3178.59
1228.902	3152.73
1232.166	3133.4
1235.43	3106.26
1238.693	3127.15
1241.956	3134.63
1245.219	3157.79
1248.482	3165.11
1251.744	3155.7
1255.006	3331.68
1258.268	3293.22
1261.529	3227.52
1264.79	3244.92
1268.051	3353.66
1271.312	3378.72
1274.572	3329.91
1277.832	3323.07
1281.092	3326.52
1284.351	3276.27
1287.61	3249.26
1290.869	3144.17
1294.128	3100.13
1297.386	3231.69
1300.644	3213.58
1303.902	3222.3
1307.159	3077.19
1310.416	3135.18
1313.673	3148.95
1316.93	3122.61
1320.186	3184.73
1323.442	3240.3
1326.697	3216.35
1329.953	3227.62
1333.208	3235.59
1336.463	3228.04
1339.717	3149.02
1342.972	3263.69
1346.226	3260.25
1349.479	3177.39
1352.733	3132.24
1355.986	3179.13
1359.238	3148.39
1362.491	3147.56
1365.743	3155.08
1368.995	3157.49
1372.247	3166.93
1375.498	3192.76
1378.749	3220.8
1382	3174.78
1385.251	3248.47
1388.501	3223.06
1391.751	3187.41
1395	3167.3
1398.25	3204.93
1401.499	3198.38
1404.748	3104.91
1407.996	3058.73
1411.244	3045.99
1414.492	3021.57
1417.74	2992.49
1420.987	3011.57
1424.234	3058.48
1427.481	3061.32
1430.728	3118.93
1433.974	3093.05
1437.22	3123.25
1440.465	3133.7
1443.711	3107.75
1446.956	3147.33
1450.201	3158.09
1453.445	3205
1456.689	3166.62
1459.933	3187.01
1463.177	3208.56
1466.42	3176.42
1469.663	3155.8
1472.906	3125.44
1476.148	3250.34
1479.391	3160.27
1482.633	3144.06
1485.874	3139.37
1489.115	3103.29
1492.356	3133.9
1495.597	3099.25
1498.838	3113.16
1502.078	3064.36
1505.318	2990.43
1508.557	3038.41
1511.797	2964.72
1515.036	3104.48
1518.274	3095.3
1521.513	3080.06
1524.751	3112.73
1527.989	3110.36
1531.227	3119.79
1534.464	3087.18
1537.701	3138.19
1540.938	3163.95
1544.174	3127.63
1547.41	3135.97
1550.646	3174.62
1553.882	3191.04
1557.117	3241.44
1560.352	3266.28
1563.587	3217.92
1566.821	3169.1
1570.055	3229.26
1573.289	3186.68
1576.523	3281.02
1579.756	3275.89
1582.989	3288.97
1586.222	3248.53
1589.454	3298.73
1592.686	3265.15
1595.918	3282.22
1599.15	3262.34
1602.381	3367.09
1605.612	3291.73
1608.843	3393.68
1612.073	3297.34
1615.303	3278.17
1618.533	3261.65
1621.762	3270.11
1624.992	3271.79
1628.221	3234.2
1631.449	3218.54
1634.678	3312.42
1637.906	3254.33
1641.134	3307.09
1644.361	3249.97
1647.588	3235.63
1650.815	3247.91
1654.042	3245.56
1657.269	3278.11
1660.495	3218.98
1663.72	3195.55
1666.946	3175.5
1670.171	3079.69
1673.396	3060.09
1676.621	3059.63
1679.845	3107.19
1683.069	3142.44
1686.293	3197.09
1689.517	3149.43
1692.74	3053.77
1695.963	3075.05
1699.185	3142.74
1702.408	3102.21
1705.63	3156.11
1708.852	3159.49
1712.073	3133.24
1715.294	3092.46
1718.515	3154.54
1721.736	3089.77
1724.956	3087.63
1728.176	3117.51
1731.396	3139.83
1734.616	3130.36
1737.835	3142.23
1741.054	3138.09
1744.272	3136.27
1747.491	3148.94
1750.709	3235.11
1753.927	3109
1757.144	3178.27
1760.361	3210.25
1763.578	3226.53
1766.795	3156.96
1770.011	3185.81
1773.227	3247.3
1776.443	3267.97
1779.658	3308.67
1782.874	3264.03
1786.089	3224.07
1789.303	3228.22
1792.518	3240.83
1795.732	3232.03
1798.945	3232.23
1802.159	3296.51
1805.372	3157.73
1808.585	3125.77
1811.797	3133.01
1815.01	3214.38
1818.222	3207.81
1821.434	3118.31
1824.645	3215.81
1827.856	3170.92
1831.067	3210.49
1834.278	3169.56
1837.488	3151.03
1840.698	3325.63
1843.908	3235.52
1847.117	3192.55
1850.326	3028.38
1853.535	3164.54
1856.744	3262.44
1859.952	3149.21
1863.16	3153.24
1866.368	3186.43
1869.575	3301.73
1872.782	3194.72
1875.989	3141.49
1879.196	3266.84
1882.402	3264.11
1885.608	3312.79
1888.814	3178.39
1892.019	3060.5
1895.224	3114.13
1898.429	3111.88
1901.634	3080.23
1904.838	3068.41
1908.042	3109.61
1911.246	3112.82
1914.449	3007.69
1917.652	3021.32
1920.855	3007.69
1924.058	3085.33
1927.26	3112.22
1930.462	3149.37
1933.664	3162.33
1936.865	3097.28
1940.066	3091
1943.267	3041
1946.467	3063.89
1949.668	3098.7
1952.868	3164.28
1956.067	3127.46
1959.267	3047.97
1962.466	3080.79
1965.665	3064.26
1968.863	3063.13
1972.061	3090.52
1975.259	3098.86
1978.457	3182.15
1981.654	3136.46
1984.852	3133.59
1988.048	3044.98
1991.245	3062.08
1994.441	3141.33
1997.637	3155.57
2000.833	3138.64
2004.028	3180.4
2007.223	3226.73
2010.418	3186.61
2013.613	3160.41
2016.807	3103.54
2020.001	3126.05
2023.194	3195.2
2026.388	3162.75
2029.581	3112.57
2032.774	3144.14
2035.966	3139.47
2039.158	3056.6
2042.35	3092.11
2045.542	3021.62
2048.733	3144.91
2051.924	3198
2055.115	3242.22
2058.306	3159.47
2061.496	3220.97
2064.686	3301.98
2067.875	3224.25
2071.065	3256.05
2074.254	3291.81
2077.442	3241.76
2080.631	3340.28
2083.819	3183.47
2087.007	3157.63
2090.195	3110.21
2093.382	3167.14
2096.569	3145.74
2099.756	3086.39
2102.942	3089.15
2106.128	3079.59
2109.314	3075.33
2112.5	3013.25
2115.685	3000.64
2118.87	3013.3
2122.055	3084.02
2125.239	3033.89
2128.424	2991.18
2131.608	3139.91
2134.791	3126.1
2137.974	3205.66
2141.157	3187.95
2144.34	3117.12
2147.523	3159.51
2150.705	3157.55
2153.887	3152.34
2157.068	3077.24
2160.25	3104.79
2163.431	3161.15
2166.611	3080.52
2169.792	3088.94
2172.972	2963.69
2176.152	3074.9
2179.331	3118.33
2182.511	3076.61
2185.69	3110.44
2188.868	3094.75
2192.047	3173.15
2195.225	3134.93
2198.403	3085.83
2201.58	3085.64
2204.758	3088.76
2207.935	3180.53
2211.111	3038.49
2214.288	3016.87
2217.464	3062.1
2220.64	3057.34
2223.815	3115.21
2226.991	3025.12
2230.166	3048.75
2233.34	3060.3
2236.515	3100.54
2239.689	3183.05
2242.863	3122.36
2246.036	3183.33
2249.209	3204.76
2252.382	3255.23
2255.555	3217.31
2258.727	3142
2261.9	3192.41
2265.071	3183.55
2268.243	3192.58
2271.414	3107.25
2274.585	3043.46
2277.756	3120.07
2280.926	3074.53
2284.096	3129.82
2287.266	3015.73
2290.436	3079.18
2293.605	3116.21
2296.774	3136.98
2299.942	3177.62
2303.111	3196.62
2306.279	3238.21
2309.447	3230.61
2312.614	3206.17
2315.781	3223.24
2318.948	3183.36
2322.115	3221.92
2325.281	3126.54
2328.447	3162.74
2331.613	3143.42
2334.779	3096.12
2337.944	3107.28
2341.109	3097.32
2344.274	3072.57
2347.438	3037.08
2350.602	3067.12
2353.766	3090.98
2356.929	3073.93
2360.092	3119.84
2363.255	3050.24
2366.418	2948.67
2369.58	3110.13
2372.742	2811.55
2375.904	2847.3
2379.066	2812.45
2382.227	2860.78
2385.388	2822.95
2388.548	2721.94
2391.709	2792.05
2394.869	2762.24
2398.029	2909.19
2401.188	2940.37
2404.347	2842.89
2407.506	3043.2
2410.665	3068.03
2413.823	3095.24
2416.981	3026.37
2420.139	3074.52
2423.296	3132.86
2426.453	3105.84
2429.61	3137.42
2432.767	3030.55
2435.923	3077.18
2439.079	2981.73
2442.235	3061.33
2445.391	2968.62
2448.546	2978.68
2451.701	3050.94
2454.855	2991.07
2458.009	3070.59
2461.163	3090.43
2464.317	3033.43
2467.471	3075.82
2470.624	3116.8
2473.777	3148.54
2476.929	3143.91
2480.082	3170.39
2483.234	3133.61
2486.385	3029.25
2489.537	3030.13
2492.688	2958.92
2495.839	2979.69
2498.989	2979.59
2502.14	2960.29
2505.29	2930.59
2508.439	2958.23
2511.589	2863.16
2514.738	2896.26
2517.887	2925.52
2521.035	3054.24
2524.183	3051.74
2527.331	3022.1
2530.479	2970.21
2533.627	2991.74
