Data from C_2_DIV_OH_2N_Splice17_12-22-52-962.txt Node
Date: Sat Mar 14 12:22:52 EDT 2020
User: sa697716
Spectrometer: FLMS03696
Trigger mode: 0
Integration Time (sec): 3.180400E-1
Scans to average: 20
Electric dark correction enabled: true
Nonlinearity correction enabled: true
Boxcar width: 5
XAxis mode: Wavelengths
Number of Pixels in Spectrum: 2048
>>>>>Begin Spectral Data<<<<<
187.83	-419252.31
188.298	2982.97
188.766	1553.46
189.233	1459.49
189.701	2064.68
190.169	2785.6
190.636	1097.39
191.104	872.69
191.571	165.18
192.039	-42.61
192.506	-38.45
192.974	469.02
193.441	-781.42
193.908	-241.5
194.375	-19.3
194.842	109.56
195.31	169.6
195.777	199.28
196.244	390.76
196.711	440.5
197.177	518.71
197.644	708.8
198.111	1242.6
198.578	1725.01
199.045	1388.84
199.511	2246.04
199.978	2598.57
200.445	2217.54
200.911	2470.34
201.378	2728.91
201.844	2481.85
202.31	4242.9
202.777	4469.87
203.243	2501.32
203.709	2397.08
204.176	2858.03
204.642	2363.21
205.108	2209.93
205.574	1798.97
206.04	1613.4
206.506	1517.11
206.972	1420.93
207.438	1371.49
207.903	1544.68
208.369	1332.71
208.835	1346.4
209.301	1397
209.766	1422.01
210.232	1404.13
210.697	1739.49
211.163	2145.84
211.628	3244.87
212.094	2750.95
212.559	3404.52
213.024	2129.08
213.49	2631.91
213.955	2546.95
214.42	2501.17
214.885	2360.63
215.35	2255.47
215.815	2190.56
216.28	2343.41
216.745	1920.2
217.21	2093.07
217.675	1925.8
218.14	2187.15
218.604	2457.1
219.069	2853.76
219.534	3030.04
219.998	3533.18
220.463	4326.79
220.927	5365.19
221.392	5102
221.856	5196.5
222.32	6570.78
222.785	8157.32
223.249	10336.48
223.713	11601.18
224.177	11599.84
224.642	14936.71
225.106	18492.42
225.57	20285.07
226.034	15138.27
226.497	23057.87
226.961	20904.48
227.425	24412.28
227.889	27177.46
228.353	27191
228.816	56185.95
229.28	53826.37
229.744	45469.88
230.207	27637.17
230.671	27201.53
231.134	45015.7
231.597	52033.45
232.061	52006.41
232.524	50731.71
232.987	34928.05
233.45	31505.79
233.914	28321.28
234.377	29088.24
234.84	26654.73
235.303	31463.49
235.766	35171.39
236.229	36388.95
236.691	22930.76
237.154	25825.64
237.617	19482.88
238.08	20005.61
238.542	23417.12
239.005	16771.26
239.468	16667.02
239.93	15731.93
240.393	14307.83
240.855	12571.14
241.317	12892.38
241.78	15719.31
242.242	16294.28
242.704	17598.49
243.166	15343.39
243.629	13962.33
244.091	16101.75
244.553	17659.84
245.015	19028.76
245.477	24680.44
245.939	36254.7
246.4	38530.84
246.862	37478.68
247.324	35314.15
247.786	39558.09
248.247	51917.22
248.709	53678.26
249.17	40210.97
249.632	37959.19
250.093	43983.85
250.555	38017.92
251.016	23226.34
251.477	22072.47
251.939	23877.48
252.4	25096.02
252.861	29894.64
253.322	27835.56
253.783	33178.68
254.244	43074.97
254.705	33990.74
255.166	30270.27
255.627	29821.29
256.088	42036.7
256.549	44650.3
257.009	38447.73
257.47	46673.3
257.931	38000.77
258.391	28491.27
258.852	29378.79
259.312	30795.04
259.773	38055.11
260.233	32143.02
260.694	27113.79
261.154	30750.51
261.614	24680.78
262.074	22076.24
262.534	22936.29
262.994	21652.12
263.455	28849.74
263.915	24316.03
264.374	22907.45
264.834	25021.01
265.294	27760.96
265.754	28766.49
266.214	27271.18
266.673	25600.99
267.133	32323.23
267.593	32098.66
268.052	39288.27
268.512	34187.47
268.971	41223.84
269.431	45259.11
269.89	40543.41
270.349	60829.94
270.809	67859.74
271.268	61027.25
271.727	136768.05
272.186	88621.97
272.645	66413.58
273.104	47897.17
273.563	69392.92
274.022	54590.55
274.481	46407.41
274.94	35742.86
275.399	26550.54
275.857	30927.38
276.316	41837.27
276.775	37232.48
277.233	36679.46
277.692	34354.57
278.15	38841.8
278.609	39904.31
279.067	36882.21
279.525	34265
279.984	44247.63
280.442	53155.88
280.9	52384.78
281.358	34454.81
281.816	32102.19
282.274	31410.54
282.732	32434.44
283.19	32599.11
283.648	28170.02
284.106	30043.74
284.564	30561.46
285.021	28329.48
285.479	21098.02
285.937	19186.37
286.394	16834.85
286.852	17314.75
287.309	18175.96
287.767	17581.56
288.224	16713.97
288.682	18333.89
289.139	20121.63
289.596	18404.94
290.053	19156.79
290.511	24182.11
290.968	29357.35
291.425	39857.74
291.882	33219.17
292.339	28943.09
292.796	28713.08
293.252	27057.67
293.709	21508.98
294.166	19282.51
294.623	21308.35
295.079	20428.73
295.536	20546.49
295.992	18647.38
296.449	18454.4
296.905	19173.74
297.362	18387.09
297.818	19348.18
298.274	20089.36
298.731	20464.89
299.187	20261.02
299.643	21754.35
300.099	26312.88
300.555	28826.21
301.011	24073.81
301.467	23190.3
301.923	27154.44
302.379	26536.7
302.835	26034.83
303.291	26069.74
303.746	29668.83
304.202	37493.95
304.658	37678.95
305.113	25355.67
305.569	24886.47
306.024	26535.56
306.479	25259.82
306.935	21299.53
307.39	23245.17
307.845	21480.06
308.301	21611.04
308.756	21053.6
309.211	20262.79
309.666	20740.08
310.121	25735.55
310.576	26114.28
311.031	25919.61
311.486	29696.52
311.94	29669.29
312.395	39694.02
312.85	74709.07
313.305	367281.16
313.759	1902969.57
314.214	137954.21
314.668	109308.8
315.123	91956.68
315.577	32934.92
316.032	29318.74
316.486	36717.29
316.94	28969.65
317.394	20182.12
317.849	15684.34
318.303	14856.8
318.757	14020.63
319.211	15499.96
319.665	13605.99
320.119	13789.25
320.572	19817.93
321.026	18544.41
321.48	15431.99
321.934	16868
322.387	16905.68
322.841	18275.76
323.295	16438.68
323.748	18966.38
324.202	19247.83
324.655	23110.91
325.108	32298.42
325.562	22825.18
326.015	27153.21
326.468	20562.91
326.921	23017.31
327.374	21487.88
327.827	22362.5
328.28	25346.75
328.733	16988.15
329.186	14974.24
329.639	14276.74
330.092	12045.18
330.545	11467.19
330.997	11561.77
331.45	12635.97
331.903	14765.91
332.355	25394.52
332.808	24677.77
333.26	20334.48
333.713	22073.27
334.165	22230.51
334.617	29673.14
335.069	23990.07
335.522	43354.34
335.974	47945.54
336.426	43844.81
336.878	30432.93
337.33	15450.45
337.782	15105.09
338.234	18929.58
338.686	22592.5
339.137	26764.89
339.589	25218.31
340.041	19752.66
340.493	17023.66
340.944	17450.28
341.396	18804.48
341.847	15810.08
342.299	18676.86
342.75	22819.97
343.201	19972.67
343.653	23032.35
344.104	28350.47
344.555	22343.92
345.006	34805.41
345.457	26667.49
345.908	21224.67
346.359	19978.39
346.81	16306.66
347.261	17191.74
347.712	16960.52
348.163	18192.46
348.613	18444.91
349.064	17209.2
349.515	15076.92
349.965	15463.31
350.416	18600.87
350.866	20434.18
351.317	23088.17
351.767	38222.85
352.217	48294.9
352.668	40021.12
353.118	36639.85
353.568	35314.91
354.018	27985.49
354.468	29500.23
354.918	21189.4
355.368	18556.28
355.818	26181.83
356.268	75421.23
356.718	315531.7
357.168	78580.61
357.617	39426.72
358.067	43892.23
358.517	41176.76
358.966	48215.27
359.416	54190.73
359.865	58636.92
360.315	69925.64
360.764	32764.39
361.213	18373.44
361.663	17439.8
362.112	21538.29
362.561	34913.31
363.01	26407.48
363.459	22240.38
363.908	24137.09
364.357	20513.17
364.806	34653.83
365.255	23864.09
365.703	21856.04
366.152	21924.16
366.601	17808.37
367.05	14468.83
367.498	13151.15
367.947	13753.83
368.395	14351.7
368.844	12742.14
369.292	15371.75
369.74	10650.7
370.189	16348.8
370.637	19186.65
371.085	16569.41
371.533	20188.2
371.981	19518.08
372.429	18659.66
372.877	19515.98
373.325	16366.89
373.773	16725.15
374.221	14943.5
374.669	18568.57
375.116	16110.49
375.564	16315.18
376.012	18299.9
376.459	15166.54
376.907	18221.54
377.354	22114.78
377.801	20689.77
378.249	23855.64
378.696	30644.47
379.143	37258.62
379.591	40036.09
380.038	68139.49
380.485	49589.79
380.932	54003.98
381.379	49710.09
381.826	36765.22
382.273	26373.21
382.72	23246.19
383.166	22849.13
383.613	14914.49
384.06	13589.35
384.506	15861.4
384.953	11750.79
385.4	11939.7
385.846	10555.99
386.292	10399.16
386.739	10286.32
387.185	10251.32
387.631	10363.27
388.078	10157.88
388.524	10995.15
388.97	10249.81
389.416	8626.17
389.862	9261.42
390.308	8855.25
390.754	9081.88
391.2	9949.03
391.645	10278.42
392.091	9905.17
392.537	9638.21
392.983	9721.33
393.428	9603.09
393.874	10385.25
394.319	10499.02
394.765	10025.43
395.21	10385.74
395.655	9800.61
396.101	9232.98
396.546	8378.57
396.991	8524.8
397.436	7969.53
397.881	7751.12
398.326	7393.37
398.771	7011.44
399.216	6157.61
399.661	5570.71
400.106	5561.77
400.551	5708.46
400.995	5136.67
401.44	5101.17
401.885	4803.82
402.329	4866.38
402.774	4679.1
403.218	4533.1
403.663	4380.13
404.107	4515.25
404.551	4557.46
404.995	4194.73
405.44	4054.64
405.884	4122.56
406.328	3997.37
406.772	3989.65
407.216	3635.62
407.66	3519.35
408.104	3350.92
408.547	3143.64
408.991	3042.18
409.435	2928.7
409.879	2885.49
410.322	2846.67
410.766	2750.05
411.209	2612.44
411.653	2508.52
412.096	2453.43
412.54	2452.92
412.983	2434.95
413.426	2434.81
413.869	2432.77
414.312	2385.22
414.756	2299.37
415.199	2193.15
415.642	2127.16
416.085	2128.65
416.527	2112.26
416.97	2146.66
417.413	2035.82
417.856	2016.38
418.298	1995.28
418.741	1981.72
419.184	1978.12
419.626	2063.76
420.069	2065.9
420.511	2074.67
420.953	2029.6
421.396	2009.44
421.838	1954.93
422.28	1997.2
422.722	2002.34
423.164	2032.95
423.606	1996.61
424.048	1991.64
424.49	1887.71
424.932	1874.89
425.374	1850.19
425.816	1881.98
426.258	1917.66
426.699	1942.32
427.141	1913.9
427.582	1947.08
428.024	1933.86
428.465	1925.11
428.907	1873.63
429.348	1850.4
429.789	1846.34
430.231	1802.2
430.672	1823.42
431.113	1780.1
431.554	1751.73
431.995	1706.03
432.436	1640.36
432.877	1602.36
433.318	1572.51
433.759	1567.03
434.2	1566.22
434.64	1550.37
435.081	1556.13
435.522	1475.48
435.962	1420.4
436.403	1387.86
436.843	1408.99
437.284	1379.02
437.724	1343.66
438.164	1347.84
438.604	1321.44
439.045	1269.14
439.485	1218.47
439.925	1194.5
440.365	1164.53
440.805	1151.54
441.245	1138.17
441.685	1097.59
442.125	1092.8
442.564	1100.4
443.004	1075.06
443.444	1074.07
443.883	1077.86
444.323	1072.44
444.762	1077.61
445.202	1094.5
445.641	1114.13
446.081	1110.34
446.52	1121.09
446.959	1109.82
447.398	1085.39
447.837	1074.54
448.276	1056.56
448.716	1067.61
449.154	1078.85
449.593	1054.24
450.032	1051.34
450.471	1034.99
450.91	1038.96
451.349	1036.43
451.787	1034.64
452.226	1051.8
452.664	1053.39
453.103	1054.54
453.541	1056.35
453.98	1054.09
454.418	1063.17
454.856	1048.93
455.295	1047.14
455.733	1054.97
456.171	1062.78
456.609	1064.53
457.047	1065.16
457.485	1080.25
457.923	1084.72
458.361	1070.15
458.798	1075.89
459.236	1073.69
459.674	1081.68
460.111	1088.95
460.549	1079.71
460.987	1077.5
461.424	1076.2
461.862	1072.28
462.299	1057.88
462.736	1056.41
463.173	1062.37
463.611	1048.51
464.048	1046.39
464.485	1054.66
464.922	1044.77
465.359	1039.73
465.796	1021.02
466.233	1012.12
466.67	1000.99
467.106	997.65
467.543	988.79
467.98	976.26
468.416	952.89
468.853	944.39
469.29	917.58
469.726	907.69
470.162	883.92
470.599	876.3
471.035	868.69
471.471	849.09
471.907	845.5
472.344	839.84
472.78	841.4
473.216	852.71
473.652	843.04
474.088	840.54
474.523	837.13
474.959	845.54
475.395	837.49
475.831	832.72
476.266	835.96
476.702	833.26
477.138	823.19
477.573	820.05
478.008	815.83
478.444	820.37
478.879	826.78
479.314	830.85
479.75	829.32
480.185	834.36
480.62	841.88
481.055	847.45
481.49	854.03
481.925	869.2
482.36	884
482.795	910.06
483.229	935.61
483.664	957.45
484.099	963.07
484.534	979.94
484.968	991.27
485.403	997.03
485.837	998.23
486.271	1000.19
486.706	1002.81
487.14	994.85
487.574	981.16
488.009	975.13
488.443	969.42
488.877	980.11
489.311	986.15
489.745	999.8
490.179	1011.41
490.613	1032.59
491.046	1042.88
491.48	1053.42
491.914	1057.39
492.348	1068.85
492.781	1078.31
493.215	1083.86
493.648	1089.59
494.082	1100.64
494.515	1104.54
494.948	1118.48
495.382	1129.15
495.815	1139.66
496.248	1151.8
496.681	1175.74
497.114	1197.52
497.547	1215.37
497.98	1237.46
498.413	1249.2
498.846	1266.69
499.279	1283.05
499.711	1293.13
500.144	1298.47
500.577	1316.32
501.009	1333.94
501.442	1349.54
501.874	1350.47
502.306	1353.92
502.739	1364.62
503.171	1389.61
503.603	1394.57
504.036	1407.75
504.468	1414.55
504.9	1430.95
505.332	1439.17
505.764	1443.2
506.196	1451.53
506.627	1472.28
507.059	1490.13
507.491	1502.29
507.923	1493.93
508.354	1512.43
508.786	1523.61
509.217	1546.52
509.649	1562.23
510.08	1585.07
510.512	1603.58
510.943	1618.54
511.374	1627.45
511.805	1649.71
512.237	1670.29
512.668	1709.63
513.099	1740.85
513.53	1770.71
513.961	1789.99
514.391	1826.32
514.822	1861.21
515.253	1901.49
515.684	1926.36
516.114	1955.01
516.545	1971.65
516.975	1994.86
517.406	2006.29
517.836	1995.35
518.267	1991.53
518.697	2002.08
519.127	1995.27
519.558	1992.54
519.988	1983.2
520.418	1983.81
520.848	1995.29
521.278	1994.53
521.708	1991.79
522.138	1996.02
522.567	2025.58
522.997	2046.77
523.427	2055.7
523.857	2066.19
524.286	2069.1
524.716	2078.87
525.145	2092.93
525.575	2095.85
526.004	2103.88
526.433	2096.34
526.863	2088.35
527.292	2066.92
527.721	2065.65
528.15	2064.7
528.579	2058
529.008	2063.22
529.437	2085.2
529.866	2095.55
530.295	2110.39
530.724	2119.94
531.152	2148.5
531.581	2160.58
532.01	2176.93
532.438	2183.24
532.867	2196.92
533.295	2215.15
533.723	2220.02
534.152	2215.22
534.58	2212.91
535.008	2193.46
535.436	2193.35
535.865	2200.31
536.293	2215.44
536.721	2234.1
537.149	2263.34
537.576	2264.65
538.004	2278.5
538.432	2286.83
538.86	2282.43
539.287	2289.1
539.715	2303.04
540.143	2306.32
540.57	2300.31
540.998	2296.19
541.425	2267.41
541.852	2240.79
542.28	2238.83
542.707	2218.11
543.134	2201.13
543.561	2194.28
543.988	2184.32
544.415	2183.14
544.842	2175.09
545.269	2164.9
545.696	2165.81
546.123	2179.6
546.549	2165.48
546.976	2149.59
547.403	2148.46
547.829	2149.69
548.256	2152.25
548.682	2147.29
549.108	2137.3
549.535	2136.6
549.961	2138.75
550.387	2122.29
550.813	2115.51
551.24	2123.07
551.666	2124.25
552.092	2113.44
552.518	2105.58
552.943	2097.76
553.369	2108.31
553.795	2116.83
554.221	2119.59
554.646	2117.37
555.072	2132.07
555.498	2140.28
555.923	2154.46
556.349	2173.58
556.774	2186.84
557.199	2192.19
557.625	2202.57
558.05	2196.88
558.475	2212.01
558.9	2213.34
559.325	2207.9
559.75	2202.77
560.175	2199.21
560.6	2194.63
561.025	2197.04
561.449	2202.28
561.874	2212.37
562.299	2223.52
562.723	2238.85
563.148	2231.25
563.572	2241.68
563.997	2259.87
564.421	2274.07
564.846	2280.62
565.27	2291.79
565.694	2296.48
566.118	2320.05
566.542	2338.02
566.966	2337.87
567.39	2339.73
567.814	2335.22
568.238	2344.53
568.662	2360.83
569.086	2373.56
569.509	2393.16
569.933	2383.1
570.357	2382.29
570.78	2363.33
571.204	2355.19
571.627	2350.64
572.05	2356.08
572.474	2363.91
572.897	2355.44
573.32	2350.91
573.743	2345.23
574.166	2326.62
574.589	2333.78
575.012	2331.07
575.435	2335.86
575.858	2330.36
576.281	2322.22
576.704	2308.87
577.126	2300.15
577.549	2290.73
577.972	2286.07
578.394	2277.82
578.817	2273.35
579.239	2253.43
579.661	2241.8
580.084	2226.03
580.506	2213.96
580.928	2213.78
581.35	2204.19
581.772	2202.25
582.194	2189.39
582.616	2176.34
583.038	2161.7
583.46	2153.16
583.882	2154.9
584.303	2165.15
584.725	2164.51
585.147	2168.32
585.568	2187.16
585.99	2208.72
586.411	2221.47
586.833	2246.98
587.254	2251.72
587.675	2275.71
588.096	2297.73
588.518	2292.25
588.939	2270.63
589.36	2269.29
589.781	2259.91
590.202	2220.76
590.623	2209.9
591.043	2210.14
591.464	2193.9
591.885	2190.77
592.305	2184.3
592.726	2166.57
593.147	2170.51
593.567	2164.97
593.987	2155.9
594.408	2151.29
594.828	2150.72
595.248	2143.22
595.669	2117.61
596.089	2110.57
596.509	2103.07
596.929	2085.74
597.349	2087.91
597.769	2074.62
598.189	2066.51
598.608	2069.08
599.028	2073.82
599.448	2076.1
599.867	2058.96
600.287	2055.9
600.706	2049.7
601.126	2037.21
601.545	2038.02
601.965	2038.92
602.384	2034.6
602.803	2041.69
603.222	2037.78
603.641	2030.59
604.061	2028.94
604.48	2027.26
604.898	2042.39
605.317	2054.59
605.736	2062.54
606.155	2062.02
606.574	2053.32
606.992	2066.64
607.411	2064.81
607.829	2058.65
608.248	2059.47
608.666	2062.08
609.085	2067.55
609.503	2061
609.921	2056.54
610.339	2065.21
610.758	2070.59
611.176	2070.27
611.594	2061.06
612.012	2062.44
612.43	2074.81
612.847	2092.02
613.265	2098.07
613.683	2111.16
614.101	2118.65
614.518	2120.15
614.936	2109.89
615.353	2092.27
615.771	2092.33
616.188	2098.62
616.606	2098.41
617.023	2091.3
617.44	2072.37
617.857	2067.04
618.274	2058.69
618.691	2052.76
619.108	2040.52
619.525	2036.2
619.942	2050.02
620.359	2057.5
620.776	2053.91
621.192	2050.41
621.609	2048.92
622.026	2063.35
622.442	2075
622.859	2083.68
623.275	2075.94
623.691	2088.67
624.108	2109.2
624.524	2135.79
624.94	2138.42
625.356	2156.26
625.772	2180.7
626.188	2204
626.604	2208.92
627.02	2204.74
627.436	2201.36
627.852	2212.63
628.268	2234.74
628.683	2221.69
629.099	2208.38
629.514	2202.28
629.93	2209.67
630.345	2216.78
630.761	2211.19
631.176	2216.65
631.591	2205.9
632.007	2196.45
632.422	2194.11
632.837	2174.72
633.252	2169.29
633.667	2153.67
634.082	2138.37
634.497	2116.7
634.911	2084.7
635.326	2080.06
635.741	2051.88
636.155	2038.04
636.57	2040.97
636.984	2043.13
637.399	2046.93
637.813	2049.48
638.228	2050.58
638.642	2059.76
639.056	2045.22
639.47	2048.81
639.884	2036.89
640.298	2029.1
640.712	2028.25
641.126	2009.98
641.54	1996.23
641.954	1990.69
642.368	1971.71
642.781	1956.75
643.195	1930.01
643.609	1932.41
644.022	1923.67
644.436	1917.94
644.849	1900.83
645.262	1883.98
645.676	1890.1
646.089	1884.35
646.502	1859.61
646.915	1853.15
647.328	1828.99
647.741	1826.55
648.154	1807.05
648.567	1802.37
648.98	1782.16
649.393	1784.52
649.805	1779.09
650.218	1767.85
650.631	1743.8
651.043	1737.02
651.456	1729.44
651.868	1734.21
652.28	1768.44
652.693	1796.54
653.105	1814.29
653.517	1836.55
653.929	1841.41
654.341	1856.81
654.753	1839.98
655.165	1857.31
655.577	1857.8
655.989	1856.78
656.401	1847.89
656.813	1787.84
657.224	1756.41
657.636	1710.75
658.047	1681.84
658.459	1650.84
658.87	1641.44
659.282	1626.41
659.693	1591.69
660.104	1569.36
660.515	1547.94
660.926	1548.67
661.338	1546.87
661.749	1538.64
662.159	1524.53
662.57	1520.48
662.981	1515.85
663.392	1504.01
663.803	1512.2
664.213	1509.04
664.624	1502.03
665.035	1508.68
665.445	1484.68
665.855	1470.39
666.266	1454.94
666.676	1450.01
667.086	1431.1
667.497	1427.89
667.907	1414.01
668.317	1394.48
668.727	1383.9
669.137	1383.58
669.547	1376.72
669.956	1379.73
670.366	1382.12
670.776	1383.4
671.186	1388.43
671.595	1392.76
672.005	1396.83
672.414	1394.1
672.824	1389.44
673.233	1397.95
673.642	1400.91
674.052	1404.28
674.461	1405.44
674.87	1411.52
675.279	1404.74
675.688	1407.2
676.097	1408.61
676.506	1403.42
676.915	1430.06
677.323	1435.58
677.732	1435.42
678.141	1436.73
678.549	1420.01
678.958	1422.26
679.366	1425.85
679.775	1440.38
680.183	1461.28
680.592	1478.44
681	1495.67
681.408	1489.61
681.816	1512.27
682.224	1536.87
682.632	1561.59
683.04	1627.12
683.448	1682.83
683.856	1748.98
684.264	1826.05
684.671	1901.1
685.079	1986.69
685.487	2077.01
685.894	2202.95
686.302	2305.17
686.709	2382.18
687.116	2473.89
687.524	2539.83
687.931	2591.25
688.338	2631.84
688.745	2658.59
689.152	2686.96
689.559	2734.68
689.966	2776.41
690.373	2772.92
690.78	2801.7
691.187	2870.32
691.593	2905.5
692	2928.33
692.407	2983.72
692.813	3054.81
693.22	3098.25
693.626	3142.61
694.032	3164.55
694.439	3229.29
694.845	3262.6
695.251	3320
695.657	3362.95
696.063	3453.91
696.469	3506.6
696.875	3547.93
697.281	3548.29
697.687	3561.04
698.093	3563.05
698.498	3614.1
698.904	3641.95
699.31	3710.91
699.715	3743.79
700.12	3812.82
700.526	3788.64
700.931	3830.31
701.337	3849.6
701.742	3847.22
702.147	3908.39
702.552	3906.39
702.957	3940.12
703.362	3924.1
703.767	3921.24
704.172	3932.29
704.577	3846.26
704.981	3867.42
705.386	3853.94
705.791	3815.97
706.195	3870.54
706.6	3852.02
707.004	3910
707.408	3847.22
707.813	3847.87
708.217	3808.14
708.621	3785.6
709.025	3861.56
709.43	3838.52
709.834	3876.78
710.237	3924.66
710.641	3884.54
711.045	3883.87
711.449	3857.18
711.853	3865.35
712.256	3887.81
712.66	3905.78
713.064	3959.79
713.467	3982.52
713.87	4076.56
714.274	4103.11
714.677	4191.95
715.08	4332.79
715.484	4477.88
715.887	4657.03
716.29	4829.53
716.693	5010.16
717.096	5223.34
717.499	5329.88
717.901	5335.31
718.304	5337.29
718.707	5339.04
719.109	5222.08
719.512	5172.16
719.915	5029.94
720.317	4959.13
720.719	4983.59
721.122	4941.61
721.524	4875.63
721.926	4822.27
722.328	4898.86
722.731	4876.16
723.133	4891.71
723.535	5056.2
723.937	5064.89
724.338	5097.7
724.74	5124.26
725.142	5063.29
725.544	5049.01
725.945	5065.41
726.347	5052.4
726.748	5036.39
727.15	5039.57
727.551	4996.71
727.952	4961.35
728.354	4926.75
728.755	4917.58
729.156	4871.84
729.557	4844.56
729.958	4732.17
730.359	4674.05
730.76	4650.27
731.161	4593.72
731.562	4568.04
731.962	4563.89
732.363	4502.83
732.763	4440.8
733.164	4467.8
733.564	4404.71
733.965	4317.21
734.365	4281.26
734.766	4300.69
735.166	4264.29
735.566	4209.05
735.966	4180.81
736.366	4171.73
736.766	4115.37
737.166	4138.44
737.566	4098.72
737.966	4072.08
738.365	4104.09
738.765	4096.62
739.165	4031.57
739.564	4003.52
739.964	4041.14
740.363	4001.4
740.763	3998.24
741.162	3987.87
741.561	3958.74
741.96	3917.66
742.36	3932.79
742.759	3933.54
743.158	3964.18
743.557	3973.54
743.955	4006.43
744.354	3964.9
744.753	4009.41
745.152	3973.21
745.55	4017.5
745.949	4010.96
746.348	4011.36
746.746	4023.2
747.144	3988.66
747.543	3968.38
747.941	4008.61
748.339	3948.19
748.737	3942.27
749.136	3934.92
749.534	3988.2
749.932	3961.1
750.33	3979.81
750.727	4025.14
751.125	4003.64
751.523	3990.54
751.921	4027.3
752.318	3997.78
752.716	4046.33
753.113	4056.43
753.511	4078.39
753.908	4077.65
754.305	4065.57
754.703	4117.15
755.1	4168.81
755.497	4220.44
755.894	4378.73
756.291	4526.3
756.688	4803.28
757.085	5171.59
757.482	5691.67
757.878	6255.47
758.275	6768.7
758.672	7470.8
759.068	8041.32
759.465	8860.13
759.861	9910.49
760.258	11131.8
760.654	11768.04
761.05	11678.83
761.447	11146.56
761.843	10377.27
762.239	9584.84
762.635	9221.56
763.031	8877.71
763.427	8382.31
763.822	7861.99
764.218	7347.95
764.614	6677.85
765.01	6226.89
765.405	5931.81
765.801	5710.68
766.196	5427.26
766.592	5266.94
766.987	5004.79
767.382	4823.69
767.778	4749.07
768.173	4637.51
768.568	4577.4
768.963	4471.64
769.358	4485.28
769.753	4449.03
770.148	4379.84
770.542	4376.28
770.937	4349.27
771.332	4424.45
771.726	4442.15
772.121	4387.09
772.515	4431.67
772.91	4417.03
773.304	4478.25
773.699	4423.73
774.093	4465.31
774.487	4509.33
774.881	4547.88
775.275	4546.65
775.669	4511.09
776.063	4548.83
776.457	4579.45
776.851	4518.35
777.245	4513.47
777.638	4540.45
778.032	4638.87
778.425	4611.64
778.819	4650.07
779.212	4616.91
779.606	4583.34
779.999	4601.54
780.392	4587.54
780.786	4658.94
781.179	4674.26
781.572	4708.32
781.965	4719.88
782.358	4670.95
782.751	4714.99
783.143	4673.65
783.536	4731.98
783.929	4766.27
784.322	4861.18
784.714	4884.21
785.107	4877.37
785.499	4939.4
785.891	4922.28
786.284	4904.52
786.676	5022.63
787.068	5007.86
787.46	5050.9
787.852	5066.46
788.245	5138.32
788.636	5160.87
789.028	5219.11
789.42	5256.26
789.812	5265.13
790.204	5344.58
790.595	5430.8
790.987	5267.55
791.378	5285.77
791.77	5393.79
792.161	5509.73
792.553	5557.62
792.944	5465.42
793.335	5406.22
793.726	5463.53
794.117	5540.08
794.508	5655.56
794.899	5630.21
795.29	5746.86
795.681	5797.37
796.072	5675.44
796.463	5521.24
796.853	5529.67
797.244	5662.56
797.634	5690.29
798.025	5686.66
798.415	5691.15
798.806	5764.62
799.196	5832.19
799.586	5875.09
799.976	5841.76
800.366	6037.88
800.756	6233.83
801.146	6198.38
801.536	6221.07
801.926	6282.23
802.316	6307.97
802.706	6366.91
803.095	6266.84
803.485	6352.22
803.874	6387.49
804.264	6603.05
804.653	6579.22
805.043	6703.52
805.432	6795.18
805.821	6794.82
806.21	6816.69
806.599	6912.69
806.988	6957.77
807.377	7047.28
807.766	7154.94
808.155	7388.52
808.544	7171.32
808.933	7184.02
809.321	7165.27
809.71	7411.82
810.098	7544.51
810.487	7928.78
810.875	8332.75
811.264	8343.86
811.652	8580.3
812.04	8694.75
812.428	8828.97
812.816	9456.86
813.204	9802.45
813.592	10260.64
813.98	10539.66
814.368	10460.84
814.756	10851.46
815.144	10785.66
815.531	11169.46
815.919	11109.95
816.306	11370.74
816.694	11116.48
817.081	11165.64
817.469	11450.72
817.856	11447.19
818.243	11672.83
818.63	11997.69
819.017	11648.81
819.404	11702.99
819.791	12026.63
820.178	12540.14
820.565	12744.78
820.952	13527.89
821.339	13122.35
821.725	13285.19
822.112	12665.7
822.498	12631.86
822.885	12744.99
823.271	12671.85
823.657	13011.38
824.044	13009.34
824.43	13059.12
824.816	13034.22
825.202	12658.75
825.588	13500.98
825.974	13502.31
826.36	13930.98
826.746	13959.6
827.132	14250.18
827.517	14226.25
827.903	13581.17
828.289	13622.83
828.674	12984.17
829.06	12894.47
829.445	13230.01
829.83	13523.5
830.216	13926.17
830.601	14236.72
830.986	13900.15
831.371	13792.96
831.756	14263.42
832.141	13913.84
832.526	13906.65
832.911	14138.66
833.295	14048.56
833.68	14434.36
834.065	13920.4
834.449	13163.32
834.834	13097.07
835.218	13092.35
835.603	13374.35
835.987	13197.63
836.371	13884.74
836.755	13802.49
837.139	14140.56
837.524	14342.74
837.908	14198.38
838.291	14245.09
838.675	14300.98
839.059	14479.98
839.443	14468.45
839.827	14277.62
840.21	14671.15
840.594	14546.26
840.977	14711.07
841.361	14691.38
841.744	14997.89
842.127	14868.43
842.511	15078.32
842.894	15577.49
843.277	15891.17
843.66	16339.62
844.043	16408.57
844.426	15741.35
844.809	15484.95
845.191	15515.12
845.574	15131.51
845.957	14831.32
846.339	14745.13
846.722	14305.75
847.104	14357.03
847.487	14207.18
847.869	14223.48
848.252	14454.62
848.634	14729.84
849.016	14946.28
849.398	15050.59
849.78	15761.41
850.162	15767.82
850.544	16102.17
850.926	16629.29
851.307	16553.91
851.689	16789.8
852.071	17159.59
852.452	17423.22
852.834	17407.64
853.215	17739.52
853.597	17860.16
853.978	18092.86
854.359	18467.1
854.741	17649.67
855.122	17563.05
855.503	17323.54
855.884	17446.59
856.265	17403.94
856.646	17506.13
857.026	17181.99
857.407	17129.63
857.788	17271.87
858.169	17529.85
858.549	16827.3
858.93	17353.88
859.31	17402.45
859.69	17580.45
860.071	17226.58
860.451	17032.71
860.831	16417.47
861.211	17371.21
861.591	17824.12
861.971	17789.98
862.351	17941.01
862.731	18266.62
863.111	18476.14
863.491	18742.76
863.87	19465.99
864.25	19757.8
864.629	19441.83
865.009	19863.74
865.388	20582.05
865.768	22049.16
866.147	21974.88
866.526	20763.11
866.905	21012.51
867.284	22197.21
867.663	21076.31
868.042	20213.47
868.421	20159.97
868.8	20485.79
869.179	20687.35
869.558	19478.1
869.936	17953.24
870.315	18262.62
870.693	18706.99
871.072	20165.33
871.45	19213.72
871.828	19462.66
872.207	20446.79
872.585	20134.62
872.963	20667.77
873.341	19948.71
873.719	19704.51
874.097	19460.27
874.475	19839.26
874.853	20275.94
875.23	19419.25
875.608	20217.65
875.986	21856.53
876.363	20893.27
876.741	21519.87
877.118	20990.12
877.495	22032.17
877.873	22399.74
878.25	23566.31
878.627	22587.75
879.004	22914.05
879.381	22810.54
879.758	22213.82
880.135	20682.02
880.512	21859.95
880.889	21293.72
881.265	21073.77
881.642	20887.51
882.019	21248.63
882.395	20834.68
882.772	21663.75
883.148	20723.49
883.524	20643.78
883.901	20519.52
884.277	20823.55
884.653	20707.15
885.029	21294.46
885.405	23588.39
885.781	23417.46
886.157	22452.68
886.532	22719.71
886.908	22715.15
887.284	25259.4
887.659	26087.07
888.035	26905.51
888.411	27611.42
888.786	27962.95
889.161	28947.88
889.537	28409.79
889.912	29309.96
890.287	29273.98
890.662	30019.53
891.037	29463.03
891.412	27480.48
891.787	27201.7
892.162	26251.25
892.536	26859.26
892.911	25864.76
893.286	25296.14
893.66	24269.55
894.035	24893.88
894.409	27100.76
894.784	26021.69
895.158	26465.82
895.532	28036.64
895.906	28804.63
896.281	29483.95
896.655	29007.57
897.029	33143.07
897.402	34519.04
897.776	38448.08
898.15	38306.56
898.524	37907.99
898.898	38399
899.271	42979.36
899.645	37205.49
900.018	35729.97
900.392	37031.98
900.765	37344.07
901.138	34541.87
901.511	34018.42
901.884	31220.19
902.258	28784.91
902.631	29735.8
903.003	34239.68
903.376	30895.5
903.749	34631.92
904.122	37071.23
904.495	40827.23
904.867	41317.23
905.24	35872.35
905.612	33409.23
905.985	34181.86
906.357	35758.08
906.729	34132.58
907.102	29150.89
907.474	28034.47
907.846	28232.71
908.218	27854.46
908.59	24622.63
908.962	23821.7
909.334	25659.46
909.705	26948.4
910.077	26149.76
910.449	27212.86
910.82	27978.08
911.192	30776.19
911.563	31984.11
911.935	34202.21
912.306	34251.53
912.677	35369.78
913.048	35011.13
913.419	37981.73
913.79	38180.69
914.161	40939.83
914.532	39133.81
914.903	35961.07
915.274	34144.23
915.645	33628.58
916.015	29602.59
916.386	28227.73
916.756	30038.81
917.127	30985.13
917.497	27675.8
917.868	30127.77
918.238	28619.92
918.608	29447.91
918.978	30043.98
919.348	31818.07
919.718	32888.6
920.088	31673.03
920.458	32909.85
920.828	34618.29
921.198	32813.54
921.567	35047.24
921.937	27148.01
922.306	27411.25
922.676	29537.45
923.045	24652.91
923.415	23430.62
923.784	21330.54
924.153	21937.89
924.522	21913.21
924.891	20608.19
925.26	22076.11
925.629	21548.83
925.998	24765.75
926.367	24166.68
926.736	23023.25
927.104	27414.54
927.473	29473.61
927.842	35579.21
928.21	35251.77
928.578	37044.55
928.947	35039.77
929.315	35280.19
929.683	41410.09
930.051	41747.69
930.42	48510.13
930.788	41471.95
931.156	41161.43
931.523	38565.9
931.891	35663.8
932.259	34241.38
932.627	39691.18
932.994	56166.36
933.362	46379.75
933.729	40277.24
934.097	38555.21
934.464	32602.51
934.831	37618.69
935.199	37109.62
935.566	36002.83
935.933	36558.69
936.3	44306.52
936.667	34488.63
937.034	31108.38
937.401	30798.5
937.767	26559.8
938.134	23653.21
938.501	33383.54
938.867	35590.05
939.234	60130.58
939.6	51313.88
939.967	56361.14
940.333	37694.03
940.699	32114.45
941.065	25751.12
941.431	33726.83
941.798	32553.52
942.163	42697.79
942.529	26670.49
942.895	24558.2
943.261	15897.8
943.627	20845.27
943.992	18243.56
944.358	18283.9
944.723	18361.45
945.089	17895.51
945.454	16529.3
945.82	17656.39
946.185	16991.07
946.55	19697.96
946.915	17667.46
947.28	20721.13
947.645	18247.53
948.01	16845.51
948.375	17550.18
948.74	21010.98
949.104	24505.01
949.469	35404.78
949.834	62609.94
950.198	59317.69
950.562	35489.67
950.927	29524.08
951.291	35510.05
951.655	30258.86
952.02	28431.67
952.384	21489.89
952.748	18731.11
953.112	18278.1
953.476	15904.29
953.839	14692.3
954.203	14550.04
954.567	18221.52
954.931	28682.37
955.294	24554.15
955.658	24682.1
956.021	41967.76
956.385	71205.34
956.748	105042.56
957.111	162880.61
957.474	182654.53
957.837	205508.63
958.2	155419.33
958.563	55928.96
958.926	37848.75
959.289	57437.81
959.652	64112.86
960.015	48155.87
960.377	69092.95
960.74	78739.81
961.102	135813.55
961.465	145894.41
961.827	78352.16
962.189	150372.8
962.552	104188.02
962.914	83508.25
963.276	54132.74
963.638	44747.26
964	44225.33
964.362	29875.48
964.724	28895.59
965.085	20627.58
965.447	16905.18
965.809	19213.93
966.17	19220.32
966.532	20786.55
966.893	19079.62
967.255	17374.72
967.616	20498.09
967.977	16418.8
968.338	17952.4
968.699	14755.4
969.061	14743.94
969.421	14845.18
969.782	16689.12
970.143	14094.93
970.504	14618.44
970.865	16602.98
971.225	16963.39
971.586	16613.22
971.946	23672.28
972.307	20531.49
972.667	26825.55
973.027	27634.62
973.388	33487.3
973.748	22738.54
974.108	24798.07
974.468	33489.38
974.828	25858.12
975.188	19904.11
975.548	18288.81
975.907	15358.98
976.267	17217.85
976.627	14467.64
976.986	14992.51
977.346	14285.33
977.705	13761.73
978.064	12505.76
978.424	10407.82
978.783	10752.95
979.142	12271.97
979.501	11736.42
979.86	12390.91
980.219	11942.41
980.578	15405.33
980.937	17223.58
981.296	15378.95
981.654	15826.34
982.013	24643.2
982.371	32003.16
982.73	29892.58
983.088	33860.27
983.447	36166.77
983.805	51780.31
984.163	108329.64
984.521	120201.3
984.879	176648.2
985.237	-287257.13
985.595	276783.9
985.953	68818.68
986.311	39738.79
986.669	23081.14
987.026	19905.1
987.384	26775.59
987.741	27680.36
988.099	19779.61
988.456	15783.13
988.814	14759.42
989.171	12816.04
989.528	12629.35
989.885	13337.43
990.242	10560.05
990.599	13122.23
990.956	10734.41
991.313	7500.47
991.67	6165.3
992.027	6541.41
992.383	5806.7
992.74	5096.17
993.096	5350.41
993.453	5552.93
993.809	5761.47
994.165	7674.91
994.522	7052.57
994.878	7776.9
995.234	9770.98
995.59	9611.05
995.946	9084.41
996.302	10372.58
996.658	11993.36
997.013	13205.74
997.369	15650.93
997.725	20006.68
998.08	12966.58
998.436	19980.67
998.791	27567.34
999.147	27444.8
999.502	29952.52
999.857	21763.96
1000.212	35428.5
1000.567	50443.13
1000.922	29113.92
1001.277	18480.93
1001.632	13686.43
1001.987	17600.1
1002.342	12586.06
1002.696	10038.23
1003.051	8031.36
1003.406	9739.43
1003.76	9685.36
1004.114	9549.22
1004.469	8013.06
1004.823	6631.02
1005.177	7169.07
1005.531	5705.16
1005.885	5071.63
1006.239	5756.35
1006.593	7243.59
1006.947	9725.2
1007.301	7314.14
1007.655	7999.33
1008.008	5873.97
1008.362	6598.8
1008.715	9446.93
1009.069	8572.39
1009.422	12878.36
1009.776	25744.17
1010.129	17042.59
1010.482	14203.4
1010.835	11968.02
1011.188	24860.18
1011.541	23385.89
1011.894	-142869.73
1012.247	422125.49
1012.6	28651.85
1012.952	18097.23
1013.305	9350.56
1013.657	6763.63
1014.01	6389.33
1014.362	5281.22
1014.715	4694.59
1015.067	4088.32
1015.419	3990.07
1015.771	3543.62
1016.123	3157.39
1016.475	3248.99
1016.827	3456.9
1017.179	3724.41
1017.531	3756.69
1017.883	3863.21
1018.234	3746.99
1018.586	4733.22
1018.938	5010.73
1019.289	6927.69
1019.64	7927.15
1019.992	7323.56
1020.343	6712.74
1020.694	5311.42
1021.045	4654.26
1021.396	5307.76
1021.747	5669.56
1022.098	6745.04
1022.449	4919.9
1022.8	4581.41
1023.151	3190.72
1023.501	2830.06
1023.852	3090.38
1024.202	3190.72
1024.553	3499.33
1024.903	3442.88
1025.253	2946.52
1025.604	2657.21
1025.954	3287
1026.304	3960.28
1026.654	4624.23
1027.004	6768.92
1027.354	10958.71
1027.703	10379.13
1028.053	13693.8
1028.403	20061.65
1028.753	28878.73
1029.102	38918.04
1029.452	197329.06
1029.801	8496.64
1030.15	5506.51
1030.499	4617.85
897.758	2545.06
901.051	2500.49
904.343	2533.86
907.636	2535.83
910.928	2600.29
914.22	2509.34
917.511	2514.51
920.803	2574.97
924.094	2587.73
927.384	2573.02
930.675	2537.99
933.965	2495.48
937.255	2506.65
940.544	2472.98
943.834	2431.85
947.123	2371.03
950.411	2467.14
953.7	2441.36
956.988	2412.79
960.276	2353.52
963.563	2426.98
966.851	2425.84
970.138	2479.46
973.424	2473.56
976.711	2425.33
979.997	2532.16
983.283	2572.12
986.568	2483.9
989.853	2496.25
993.138	2521.87
996.423	2602.8
999.708	2543.97
1002.992	2598.67
1006.275	2457.43
1009.559	2491.62
1012.842	2600.58
1016.125	2536.17
1019.408	2516.23
1022.69	2595.87
1025.972	2616.83
1029.254	2590.93
1032.536	2530.07
1035.817	2554.54
1039.098	2504.4
1042.379	2621.95
1045.659	2629.08
1048.939	2566.94
1052.219	2585.72
1055.498	2591.93
1058.778	2580.75
1062.057	2561.31
1065.335	2583.67
1068.614	2601.12
1071.892	2588.45
1075.17	2659.68
1078.447	2648.86
1081.724	2641.61
1085.001	2673.31
1088.278	2647.86
1091.554	2662.78
1094.83	2654.19
1098.106	2685.26
1101.382	2728.91
1104.657	2728.64
1107.932	2721.72
1111.206	2687.47
1114.481	2647.17
1117.755	2649.46
1121.029	2634.74
1124.302	2689.06
1127.575	2641.02
1130.848	2633.32
1134.121	2596.21
1137.393	2546.22
1140.665	2613.67
1143.937	2588.76
1147.208	2547.72
1150.48	2591.41
1153.75	2575.69
1157.021	2601.06
1160.291	2572.82
1163.561	2618.97
1166.831	2603.89
1170.101	2633.06
1173.37	2605.23
1176.639	2551.07
1179.907	2606.78
1183.176	2616.07
1186.444	2622.43
1189.711	2650.44
1192.979	2660.5
1196.246	2617.83
1199.513	2633.9
1202.78	2633.24
1206.046	2642.16
1209.312	2668.34
1212.578	2690.46
1215.843	2648.54
1219.108	2620.95
1222.373	2644.02
1225.638	2609.91
1228.902	2599.17
1232.166	2562.54
1235.43	2544.18
1238.693	2568.56
1241.956	2565.61
1245.219	2606.72
1248.482	2597.62
1251.744	2590.46
1255.006	2731.68
1258.268	2685.73
1261.529	2633.33
1264.79	2637.86
1268.051	2743.06
1271.312	2757.25
1274.572	2720.11
1277.832	2708.96
1281.092	2699.45
1284.351	2675.69
1287.61	2656.31
1290.869	2578.2
1294.128	2557.63
1297.386	2636.19
1300.644	2626.24
1303.902	2634.14
1307.159	2499.49
1310.416	2554.3
1313.673	2580.03
1316.93	2564.67
1320.186	2606.74
1323.442	2648.58
1326.697	2639.92
1329.953	2629.36
1333.208	2655.44
1336.463	2633.26
1339.717	2578.2
1342.972	2706.12
1346.226	2680.49
1349.479	2616.19
1352.733	2589.82
1355.986	2610.01
1359.238	2589.5
1362.491	2589.08
1365.743	2591.38
1368.995	2588.09
1372.247	2600.45
1375.498	2621.37
1378.749	2641.36
1382	2600.67
1385.251	2649.33
1388.501	2609.76
1391.751	2597.72
1395	2566.41
1398.25	2601.39
1401.499	2613.74
1404.748	2544.44
1407.996	2535.05
1411.244	2523.65
1414.492	2505.45
1417.74	2483.53
1420.987	2492.66
1424.234	2550.35
1427.481	2526.71
1430.728	2584.59
1433.974	2559
1437.22	2569.04
1440.465	2569.21
1443.711	2542.13
1446.956	2573.72
1450.201	2556.21
1453.445	2603.22
1456.689	2582.41
1459.933	2594.03
1463.177	2623.82
1466.42	2599.86
1469.663	2578.66
1472.906	2574.9
1476.148	2636.34
1479.391	2616.85
1482.633	2582.14
1485.874	2596.48
1489.115	2581.94
1492.356	2586.82
1495.597	2560.13
1498.838	2564.74
1502.078	2534.55
1505.318	2490.5
1508.557	2532.32
1511.797	2518.36
1515.036	2565.84
1518.274	2559.82
1521.513	2526.55
1524.751	2546.97
1527.989	2559.64
1531.227	2575.66
1534.464	2572.2
1537.701	2585.38
1540.938	2603.23
1544.174	2555.06
1547.41	2551.99
1550.646	2588.35
1553.882	2627.16
1557.117	2682.77
1560.352	2694.79
1563.587	2651.76
1566.821	2614.46
1570.055	2643.48
1573.289	2617.82
1576.523	2688.98
1579.756	2696.67
1582.989	2714.74
1586.222	2677.1
1589.454	2709.7
1592.686	2684.44
1595.918	2710.26
1599.15	2701.68
1602.381	2769.39
1605.612	2731.32
1608.843	2823.82
1612.073	2739.88
1615.303	2725.31
1618.533	2718.75
1621.762	2717.17
1624.992	2704.41
1628.221	2694.11
1631.449	2680.92
1634.678	2730.62
1637.906	2688.07
1641.134	2724.27
1644.361	2683.59
1647.588	2671.81
1650.815	2689
1654.042	2666.53
1657.269	2696.67
1660.495	2653.22
1663.72	2670.92
1666.946	2634.87
1670.171	2586.85
1673.396	2563.54
1676.621	2548.9
1679.845	2565.55
1683.069	2579.93
1686.293	2619.21
1689.517	2595.91
1692.74	2533.14
1695.963	2559.99
1699.185	2578.12
1702.408	2553.67
1705.63	2591.6
1708.852	2601.95
1712.073	2580.64
1715.294	2569.08
1718.515	2630.14
1721.736	2579.86
1724.956	2568.72
1728.176	2593.98
1731.396	2617.24
1734.616	2604.57
1737.835	2635.08
1741.054	2613.95
1744.272	2607.01
1747.491	2635.29
1750.709	2681.92
1753.927	2596.87
1757.144	2638.17
1760.361	2684.76
1763.578	2671.96
1766.795	2616.33
1770.011	2619.3
1773.227	2656.17
1776.443	2693.58
1779.658	2737
1782.874	2677.85
1786.089	2658.29
1789.303	2660.34
1792.518	2664.72
1795.732	2650.86
1798.945	2662.13
1802.159	2710.91
1805.372	2621.64
1808.585	2608.23
1811.797	2606.78
1815.01	2650.86
1818.222	2659.76
1821.434	2639.71
1824.645	2696.89
1827.856	2684.05
1831.067	2719.67
1834.278	2675.41
1837.488	2656.81
1840.698	2801.09
1843.908	2730.85
1847.117	2696.19
1850.326	2592.39
1853.535	2684.42
1856.744	2702.6
1859.952	2616.07
1863.16	2623.73
1866.368	2642.75
1869.575	2746.52
1872.782	2638.14
1875.989	2575.9
1879.196	2649.96
1882.402	2643.14
1885.608	2683.32
1888.814	2596.34
1892.019	2499.35
1895.224	2553.33
1898.429	2528.91
1901.634	2509.35
1904.838	2484.87
1908.042	2532.63
1911.246	2543.64
1914.449	2485.19
1917.652	2479.25
1920.855	2460.3
1924.058	2503.12
1927.26	2540.51
1930.462	2566.73
1933.664	2598.97
1936.865	2537.18
1940.066	2547.15
1943.267	2495.2
1946.467	2507.83
1949.668	2531.1
1952.868	2598
1956.067	2579.53
1959.267	2513.25
1962.466	2538.59
1965.665	2523.39
1968.863	2516.28
1972.061	2531.64
1975.259	2528.23
1978.457	2605.41
1981.654	2564.87
1984.852	2568.25
1988.048	2506.22
1991.245	2504.88
1994.441	2591.36
1997.637	2568.83
2000.833	2550.46
2004.028	2588.47
2007.223	2643.35
2010.418	2625.42
2013.613	2582.72
2016.807	2557.55
2020.001	2564.06
2023.194	2600.4
2026.388	2578.99
2029.581	2521.57
2032.774	2576.47
2035.966	2581.79
2039.158	2517.05
2042.35	2541.52
2045.542	2468.34
2048.733	2564.79
2051.924	2580.93
2055.115	2604.99
2058.306	2554.78
2061.496	2612.13
2064.686	2678.58
2067.875	2588.5
2071.065	2599.95
2074.254	2625.52
2077.442	2577.6
2080.631	2665.52
2083.819	2567.06
2087.007	2551.44
2090.195	2523.52
2093.382	2554.5
2096.569	2535.65
2099.756	2487.82
2102.942	2518.29
2106.128	2526.99
2109.314	2517.58
2112.5	2487.44
2115.685	2460.72
2118.87	2469.85
2122.055	2534.59
2125.239	2504.41
2128.424	2481.49
2131.608	2574.39
2134.791	2558.17
2137.974	2610.95
2141.157	2598.09
2144.34	2553.85
2147.523	2563.83
2150.705	2580.94
2153.887	2560.42
2157.068	2515.05
2160.25	2510.54
2163.431	2545.49
2166.611	2495.86
2169.792	2513.31
2172.972	2412.55
2176.152	2483.16
2179.331	2516.73
2182.511	2500.92
2185.69	2530.1
2188.868	2525.31
2192.047	2576.06
2195.225	2573.79
2198.403	2523.91
2201.58	2514.62
2204.758	2510.23
2207.935	2592.53
2211.111	2486.17
2214.288	2470.11
2217.464	2510.52
2220.64	2476.69
2223.815	2529.02
2226.991	2451.4
2230.166	2471.81
2233.34	2504.27
2236.515	2526.52
2239.689	2595.25
2242.863	2540.71
2246.036	2596.93
2249.209	2594
2252.382	2622.62
2255.555	2617.5
2258.727	2559.32
2261.9	2596.04
2265.071	2587.1
2268.243	2586.77
2271.414	2522.97
2274.585	2491.19
2277.756	2554.76
2280.926	2510.42
2284.096	2550.55
2287.266	2462.67
2290.436	2514.23
2293.605	2541.04
2296.774	2574.47
2299.942	2589.65
2303.111	2608.08
2306.279	2659.32
2309.447	2644.25
2312.614	2619.63
2315.781	2642.42
2318.948	2612.85
2322.115	2652.59
2325.281	2554.77
2328.447	2572.2
2331.613	2544.33
2334.779	2523.93
2337.944	2523.64
2341.109	2520.38
2344.274	2503.55
2347.438	2470.53
2350.602	2495.38
2353.766	2511.97
2356.929	2499.15
2360.092	2540.61
2363.255	2494.51
2366.418	2438.36
2369.58	2539.64
2372.742	2348.62
2375.904	2359.72
2379.066	2338.24
2382.227	2369.93
2385.388	2331.65
2388.548	2262.56
2391.709	2313.14
2394.869	2292.7
2398.029	2382.54
2401.188	2392
2404.347	2332.9
2407.506	2459.27
2410.665	2489.61
2413.823	2492.75
2416.981	2455.71
2420.139	2483.86
2423.296	2530.64
2426.453	2504
2429.61	2528.5
2432.767	2470.76
2435.923	2508.36
2439.079	2467.66
2442.235	2514.8
2445.391	2445.04
2448.546	2476.47
2451.701	2523.52
2454.855	2501.73
2458.009	2546.38
2461.163	2545.69
2464.317	2507.14
2467.471	2540.8
2470.624	2576.76
2473.777	2552.44
2476.929	2563.87
2480.082	2591.02
2483.234	2556.65
2486.385	2504.96
2489.537	2498.07
2492.688	2467.79
2495.839	2484.37
2498.989	2496.03
2502.14	2479.35
2505.29	2464.96
2508.439	2489.83
2511.589	2418.41
2514.738	2426.44
2517.887	2455.56
2521.035	2525.07
2524.183	2501.61
2527.331	2483.22
2530.479	2463.26
2533.627	2471.77
