Data from C_2_DEC_NC_4N_Splice17_12-26-38-549.txt Node
Date: Sat Mar 14 12:26:38 EDT 2020
User: sa697716
Spectrometer: FLMS03696
Trigger mode: 0
Integration Time (sec): 3.180400E-1
Scans to average: 20
Electric dark correction enabled: true
Nonlinearity correction enabled: true
Boxcar width: 5
XAxis mode: Wavelengths
Number of Pixels in Spectrum: 2048
>>>>>Begin Spectral Data<<<<<
187.83	-301700.71
188.298	2426.2
188.766	1277.49
189.233	1102.89
189.701	1603.73
190.169	2176.59
190.636	819.33
191.104	649.2
191.571	99.49
192.039	-41.86
192.506	4.45
192.974	675.28
193.441	-780.87
193.908	-314.71
194.375	-104.77
194.842	43.83
195.31	70.32
195.777	130.02
196.244	340
196.711	413.6
197.177	551.56
197.644	785.14
198.111	1371.7
198.578	1957.53
199.045	1576.76
199.511	2568
199.978	2931.26
200.445	2534.87
200.911	2836.66
201.378	3162.68
201.844	2873.12
202.31	4873.18
202.777	5093.97
203.243	2835.78
203.709	2681.26
204.176	3217.95
204.642	2669.27
205.108	2522.26
205.574	2035.96
206.04	1846.71
206.506	1740.2
206.972	1644.08
207.438	1591.19
207.903	1814.19
208.369	1580.19
208.835	1572.48
209.301	1636.04
209.766	1649.65
210.232	1623.86
210.697	2008.21
211.163	2472.59
211.628	3699.45
212.094	3095.93
212.559	3805.18
213.024	2347.91
213.49	2868.96
213.955	2776.09
214.42	2686.55
214.885	2497.52
215.35	2403.36
215.815	2326.3
216.28	2469.04
216.745	1993.66
217.21	2148.33
217.675	1962.97
218.14	2200.51
218.604	2423.38
219.069	2739.75
219.534	2861.3
219.998	3286.97
220.463	3938.31
220.927	4776.19
221.392	4442.4
221.856	4499.74
222.32	5642.41
222.785	6921.61
223.249	8687.15
223.713	9692.98
224.177	9724.08
224.642	12461.48
225.106	15316.48
225.57	16705.27
226.034	12471.89
226.497	19010.12
226.961	17152.37
227.425	19959.32
227.889	22132.97
228.353	22135.29
228.816	45673.42
229.28	43604.33
229.744	36784.13
230.207	22455.82
230.671	22131
231.134	36582.93
231.597	42279.04
232.061	42295.91
232.524	41274.89
232.987	28464.12
233.45	25665.44
233.914	23029.78
234.377	23610.99
234.84	21640.69
235.303	25495.25
235.766	28459.9
236.229	29393.91
236.691	18512.75
237.154	20809.77
237.617	15678.7
238.08	16086.82
238.542	18838.79
239.005	13480.27
239.468	13405.37
239.93	12642.3
240.393	11525.09
240.855	10139.01
241.317	10402.65
241.78	12669.51
242.242	13133.47
242.704	14209.39
243.166	12391.57
243.629	11279.17
244.091	13032.69
244.553	14304.25
245.015	15391.23
245.477	19905.15
245.939	29182.74
246.4	31038.88
246.862	30184.95
247.324	28449.97
247.786	31817.89
248.247	41694.51
248.709	43014.72
249.17	32201.58
249.632	30378.72
250.093	35233.51
250.555	30407.43
251.016	18567
251.477	17587.56
251.939	18994.46
252.4	19923.37
252.861	23726.53
253.322	22096.46
253.783	26319.75
254.244	34134.57
254.705	26913.65
255.166	23980.66
255.627	23659.66
256.088	33396.03
256.549	35524
257.009	30615.77
257.47	37206.85
257.931	30322.29
258.391	22745.75
258.852	23452.69
259.312	24573.81
259.773	30366.45
260.233	25677.73
260.694	21688.6
261.154	24593.67
261.614	19764.14
262.074	17688.65
262.534	18405.5
262.994	17356.99
263.455	23123.9
263.915	19494.27
264.374	18397.1
264.834	20094.15
265.294	22242.91
265.754	23030.64
266.214	21816.62
266.673	20423.92
267.133	25781.93
267.593	25563.64
268.052	31281.92
268.512	27214.94
268.971	32832.39
269.431	35997.38
269.89	32255.79
270.349	48418.22
270.809	54009.89
271.268	48623.52
271.727	109145.83
272.186	70728.92
272.645	53095.02
273.104	38314
273.563	55511.26
274.022	43662.77
274.481	37191.86
274.94	28656.31
275.399	21308.58
275.857	24822.72
276.316	33576.02
276.775	29896.89
277.233	29458.43
277.692	27574.41
278.15	31239.93
278.609	32190.1
279.067	29862.35
279.525	27757.02
279.984	35887.38
280.442	43179.36
280.9	42630.11
281.358	28070.89
281.816	26211.68
282.274	25709.5
282.732	26622.89
283.19	26801.33
283.648	23164.25
284.106	24676.05
284.564	25137.2
285.021	23371.23
285.479	17428.05
285.937	15871.24
286.394	13956.69
286.852	14379.06
287.309	15133.98
287.767	14628.59
288.224	13920.78
288.682	15272.39
289.139	16783.86
289.596	15380.25
290.053	15981.99
290.511	20191.65
290.968	24514.48
291.425	33208.13
291.882	27684.63
292.339	24092.63
292.796	23918.41
293.252	22523.22
293.709	17906.03
294.166	16056.53
294.623	17735.8
295.079	17039.57
295.536	17119.04
295.992	15529.6
296.449	15369.84
296.905	15967.78
297.362	15350.25
297.818	16147.79
298.274	16776.52
298.731	17098.02
299.187	16920.57
299.643	18179.97
300.099	21972.01
300.555	24130.32
301.011	20195.86
301.467	19487.99
301.923	22806.24
302.379	22266.6
302.835	21899.55
303.291	21940.12
303.746	25007.1
304.202	31575.66
304.658	31681.2
305.113	21326.17
305.569	20904.37
306.024	22282.96
306.479	21248.51
306.935	17927.27
307.39	19578.16
307.845	18092.54
308.301	18232.06
308.756	17768.02
309.211	17157.86
309.666	17607.54
310.121	21879.33
310.576	22230.98
311.031	22100.84
311.486	25352.93
311.94	25379.21
312.395	33973.37
312.85	63910.92
313.305	313695.52
313.759	1625639.3
314.214	117754.14
314.668	93474.16
315.123	78758.22
315.577	28237.61
316.032	25156.95
316.486	31491.15
316.94	24870.3
317.394	17318.73
317.849	13467.64
318.303	12765.76
318.757	12042
319.211	13326.08
319.665	11648.68
320.119	11773.45
320.572	16871.55
321.026	15726.17
321.48	13083.19
321.934	14263.73
322.387	14284.25
322.841	15403.08
323.295	13851.89
323.748	15967.63
324.202	16217.39
324.655	19500.61
325.108	27286.63
325.562	19288.42
326.015	22947.18
326.468	17351.02
326.921	19391.78
327.374	18088.98
327.827	18870.44
328.28	21346.57
328.733	14302.92
329.186	12575.37
329.639	11984.16
330.092	10109.71
330.545	9645.07
330.997	9741.71
331.45	10671.4
331.903	12538.82
332.355	21564.41
332.808	20963.59
333.26	17330.76
333.713	18824.47
334.165	18989.47
334.617	25383.99
335.069	20476.15
335.522	37059.51
335.974	41089.8
336.426	37570.09
336.878	25978.93
337.33	13200.92
337.782	12885.51
338.234	16153.99
338.686	19344.48
339.137	22916.28
339.589	21563.81
340.041	16941.4
340.493	14539.72
340.944	14870.86
341.396	15990.92
341.847	13453.53
342.299	15883.42
342.75	19465.52
343.201	16983.6
343.653	19532.26
344.104	24019.6
344.555	18916.52
345.006	29405.47
345.457	22534.59
345.908	17906.8
346.359	16875.68
346.81	13754.22
347.261	14531.31
347.712	14270.54
348.163	15292.57
348.613	15508.31
349.064	14467.35
349.515	12691.23
349.965	13042.94
350.416	15724.09
350.866	17264.36
351.317	19510.58
351.767	32362.61
352.217	40852.47
352.668	33981.22
353.118	31177.03
353.568	30009.07
354.018	23772.22
354.468	25073.31
354.918	17960.76
355.368	15731.99
355.818	22264.13
356.268	64171.2
356.718	268454.74
357.168	66899.99
357.617	33568.14
358.067	37456.88
358.517	35184.17
358.966	41265.89
359.416	46360.75
359.865	50180.07
360.315	59807.75
360.764	27942.05
361.213	15655.1
361.663	14827.56
362.112	18274.28
362.561	29573.95
363.01	22265.05
363.459	18735.6
363.908	20283.75
364.357	17248.72
364.806	29134.91
365.255	20033.43
365.703	18357.86
366.152	18391.9
366.601	14959.88
367.05	12135.61
367.498	11011.4
367.947	11517.4
368.395	12002.93
368.844	10643.42
369.292	12798.84
369.74	8865.78
370.189	13571.14
370.637	15931.93
371.085	13781.19
371.533	16779.59
371.981	16234.1
372.429	15512.81
372.877	16191.75
373.325	13545.64
373.773	13780.22
374.221	12274.69
374.669	15226.92
375.116	13181.17
375.564	13282.43
376.012	14842.42
376.459	12260.62
376.907	14658.51
377.354	17720.51
377.801	16536.48
378.249	19067.21
378.696	24458.02
379.143	29714.24
379.591	31763.74
380.038	53813.85
380.485	38979.52
380.932	42123.83
381.379	38518.01
381.826	28372.09
382.273	20192.83
382.72	17665.04
383.166	17188.06
383.613	11135.9
384.06	10051.19
384.506	11647.12
384.953	8576.08
385.4	8625.21
385.846	7563.04
386.292	7375.14
386.739	7218.9
387.185	7154.14
387.631	7161.64
388.078	6968.63
388.524	7482.13
388.97	6907.22
389.416	5745.76
389.862	6110.57
390.308	5809.5
390.754	5906.99
391.2	6415.95
391.645	6577.51
392.091	6291.44
392.537	6088.95
392.983	6108.79
393.428	6018.84
393.874	6479.64
394.319	6532.4
394.765	6204.21
395.21	6378.25
395.655	5986.39
396.101	5616.23
396.546	5082.85
396.991	5145.55
397.436	4779.32
397.881	4618.25
398.326	4376.19
398.771	4136.64
399.216	3620.14
399.661	3261.1
400.106	3253.13
400.551	3336.66
400.995	2993.74
401.44	2957.29
401.885	2772.96
402.329	2802.84
402.774	2686.88
403.218	2604.54
403.663	2509.29
404.107	2575.25
404.551	2594.41
404.995	2377.34
405.44	2289.47
405.884	2325.24
406.328	2250.32
406.772	2245.67
407.216	2050.44
407.66	1982.33
408.104	1878.33
408.547	1757.8
408.991	1700.16
409.435	1638.06
409.879	1617.3
410.322	1597.68
410.766	1544.84
411.209	1472.87
411.653	1414.62
412.096	1384.4
412.54	1386.38
412.983	1380.65
413.426	1388.22
413.869	1390.87
414.312	1365.96
414.756	1317.01
415.199	1257.44
415.642	1224.23
416.085	1226.13
416.527	1218.78
416.97	1240.28
417.413	1178.38
417.856	1166.14
418.298	1152.31
418.741	1143.29
419.184	1140.15
419.626	1189.51
420.069	1192.55
420.511	1197.28
420.953	1173.31
421.396	1162.62
421.838	1134.68
422.28	1162.25
422.722	1168.96
423.164	1187.73
423.606	1170.26
424.048	1169.05
424.49	1110.86
424.932	1102.67
425.374	1088.8
425.816	1104.51
426.258	1124.63
426.699	1134.18
427.141	1115.66
427.582	1131.36
428.024	1123.52
428.465	1112.76
428.907	1083.94
429.348	1070.18
429.789	1070.94
430.231	1049.2
430.672	1063.25
431.113	1039.17
431.554	1027.08
431.995	1000.25
432.436	965.32
432.877	945.25
433.318	932.03
433.759	931.4
434.2	931.74
434.64	922
435.081	921.73
435.522	876.66
435.962	845.78
436.403	827.68
436.843	840.37
437.284	823.73
437.724	802.17
438.164	806.78
438.604	787.28
439.045	756.75
439.485	726.78
439.925	714.38
440.365	696.17
440.805	687.51
441.245	679.52
441.685	655.27
442.125	651.36
442.564	656.58
443.004	642.07
443.444	642.11
443.883	645.96
444.323	642.2
444.762	642.49
445.202	652.65
445.641	667.23
446.081	663.61
446.52	671.2
446.959	665.88
447.398	650.71
447.837	643.03
448.276	633.56
448.716	641.1
449.154	646.47
449.593	634.76
450.032	633.81
450.471	623.49
450.91	626.01
451.349	625.8
451.787	623.39
452.226	634.25
452.664	635.55
453.103	637.64
453.541	637.35
453.98	638
454.418	643.23
454.856	634.95
455.295	634.44
455.733	639.52
456.171	643.44
456.609	647.57
457.047	647.11
457.485	656.9
457.923	658.6
458.361	650.33
458.798	653.12
459.236	651.69
459.674	655.24
460.111	657.54
460.549	651.78
460.987	649.3
461.424	645.67
461.862	643.57
462.299	634.95
462.736	634.64
463.173	636.67
463.611	631.78
464.048	629.94
464.485	636.37
464.922	630.49
465.359	628.17
465.796	621.79
466.233	617.52
466.67	613.01
467.106	611.14
467.543	604.37
467.98	596.61
468.416	580.09
468.853	575.58
469.29	557.62
469.726	552.2
470.162	537.99
470.599	530.77
471.035	526.41
471.471	513.59
471.907	510.75
472.344	507.56
472.78	509.87
473.216	515.83
473.652	509.79
474.088	509.31
474.523	507.19
474.959	510.97
475.395	505.92
475.831	502.46
476.266	504.55
476.702	503.76
477.138	498.82
477.573	496.23
478.008	494.51
478.444	497.59
478.879	502.87
479.314	505.26
479.75	505.38
480.185	508.11
480.62	512.41
481.055	515.54
481.49	519.36
481.925	527.02
482.36	537.83
482.795	553.66
483.229	569.29
483.664	582.08
484.099	584.92
484.534	594.23
484.968	600.97
485.403	604.57
485.837	604.76
486.271	604.24
486.706	605.69
487.14	599.2
487.574	590.09
488.009	585.02
488.443	580
488.877	587.73
489.311	590.87
489.745	598.98
490.179	605.7
490.613	619.19
491.046	625.15
491.48	631.39
491.914	633.87
492.348	641.1
492.781	647.24
493.215	650.4
493.648	653.38
494.082	660.73
494.515	663.12
494.948	672.43
495.382	677.6
495.815	685.26
496.248	692.9
496.681	707.53
497.114	720.93
497.547	733.43
497.98	749.41
498.413	758.76
498.846	771.18
499.279	782.86
499.711	789.61
500.144	795.49
500.577	809.07
501.009	823.83
501.442	837.25
501.874	842.31
502.306	847.76
502.739	858.6
503.171	876.43
503.603	883.39
504.036	896.66
504.468	906.58
504.9	923.19
505.332	934.16
505.764	942.01
506.196	952.23
506.627	970.81
507.059	987.48
507.491	1000.34
507.923	1000.97
508.354	1019.26
508.786	1033.05
509.217	1054.55
509.649	1071.72
510.08	1094.36
510.512	1114.5
510.943	1133.81
511.374	1147.29
511.805	1171.88
512.237	1194.34
512.668	1232.24
513.099	1263.35
513.53	1294.92
513.961	1318.2
514.391	1353.92
514.822	1390.37
515.253	1431.01
515.684	1459.31
516.114	1492.22
516.545	1515.32
516.975	1544.47
517.406	1563.58
517.836	1566.53
518.267	1573.04
518.697	1592.82
519.127	1597.71
519.558	1604.87
519.988	1607.95
520.418	1618.56
520.848	1637.54
521.278	1646.52
521.708	1664.17
522.138	1677.8
522.567	1711.56
522.997	1739.5
523.427	1756.38
523.857	1774.52
524.286	1785.62
524.716	1800.24
525.145	1819.38
525.575	1830.45
526.004	1846.08
526.433	1838.79
526.863	1837.82
527.292	1825.84
527.721	1830.04
528.15	1835.72
528.579	1834.68
529.008	1845.97
529.437	1871.56
529.866	1887.25
530.295	1904.94
530.724	1917.19
531.152	1947.3
531.581	1962.36
532.01	1981.72
532.438	1990.75
532.867	2005.42
533.295	2025.8
533.723	2032.3
534.152	2028.74
534.58	2028.18
535.008	2011.23
535.436	2012.51
535.865	2020.26
536.293	2036.22
536.721	2053.45
537.149	2082.25
537.576	2085.93
538.004	2100.57
538.432	2110.2
538.86	2109.73
539.287	2116.29
539.715	2131.6
540.143	2135.72
540.57	2131.7
540.998	2127.51
541.425	2103.19
541.852	2079.23
542.28	2077.63
542.707	2060.01
543.134	2043.95
543.561	2038.63
543.988	2030.32
544.415	2030
544.842	2023.62
545.269	2015.15
545.696	2017.68
546.123	2031.49
546.549	2020.3
546.976	2006.26
547.403	2004.31
547.829	2006.6
548.256	2009.61
548.682	2006.95
549.108	1999.2
549.535	1999.65
549.961	2001.22
550.387	1985.87
550.813	1979.04
551.24	1986.43
551.666	1988.18
552.092	1979.03
552.518	1971.75
552.943	1964.37
553.369	1973.03
553.795	1978.94
554.221	1981.1
554.646	1978.33
555.072	1991.71
555.498	1998.7
555.923	2008.89
556.349	2025.28
556.774	2035.45
557.199	2036.6
557.625	2044.06
558.05	2037.73
558.475	2049.77
558.9	2048.04
559.325	2040.35
559.75	2033.95
560.175	2026.67
560.6	2021.59
561.025	2019.85
561.449	2021.85
561.874	2028.51
562.299	2034.83
562.723	2043.15
563.148	2033.31
563.572	2039.81
563.997	2051.89
564.421	2058.82
564.846	2060.8
565.27	2065.74
565.694	2064.34
566.118	2078.81
566.542	2089.52
566.966	2083.49
567.39	2080.35
567.814	2069.86
568.238	2070.55
568.662	2078.56
569.086	2083.62
569.509	2093.19
569.933	2076.67
570.357	2070.09
570.78	2047.36
571.204	2034.52
571.627	2024.7
572.05	2023.29
572.474	2024.39
572.897	2011.02
573.32	2004.06
573.743	1993.89
574.166	1974.37
574.589	1975.63
575.012	1968.38
575.435	1967.54
575.858	1957.87
576.281	1945.77
576.704	1930.25
577.126	1917
577.549	1905.85
577.972	1893.62
578.394	1882.43
578.817	1874.45
579.239	1853.22
579.661	1837.52
580.084	1821.19
580.506	1807.55
580.928	1804.65
581.35	1792.23
581.772	1787.53
582.194	1772.71
582.616	1760.01
583.038	1744.53
583.46	1733.91
583.882	1730.88
584.303	1736.9
584.725	1732.17
585.147	1733.76
585.568	1745.1
585.99	1759.29
586.411	1767.82
586.833	1785.18
587.254	1788.17
587.675	1804.97
588.096	1819.54
588.518	1815.05
588.939	1797.27
589.36	1794.92
589.781	1784.68
590.202	1751.34
590.623	1740.72
591.043	1736.95
591.464	1722.07
591.885	1716.32
592.305	1709.96
592.726	1694.36
593.147	1696.03
593.567	1689.61
593.987	1681.72
594.408	1675.34
594.828	1674.25
595.248	1668.35
595.669	1647.07
596.089	1639.36
596.509	1633.27
596.929	1616.96
597.349	1618.57
597.769	1607.13
598.189	1599.84
598.608	1601.37
599.028	1603.98
599.448	1604.26
599.867	1589.1
600.287	1585.8
600.706	1582.02
601.126	1570.51
601.545	1569.15
601.965	1567.08
602.384	1560.91
602.803	1564.95
603.222	1559.83
603.641	1551.46
604.061	1547.12
604.48	1543.68
604.898	1552.55
605.317	1556.76
605.736	1558.98
606.155	1556.52
606.574	1546.66
606.992	1552.28
607.411	1547.19
607.829	1537.84
608.248	1535.58
608.666	1532.89
609.085	1532.96
609.503	1523.89
609.921	1517.76
610.339	1520.36
610.758	1520.04
611.176	1515.27
611.594	1505.59
612.012	1501.16
612.43	1505.63
612.847	1513.51
613.265	1515.78
613.683	1519.74
614.101	1521.56
614.518	1517.71
614.936	1506.69
615.353	1489.75
615.771	1486.37
616.188	1487.14
616.606	1483.5
617.023	1474.25
617.44	1456.76
617.857	1448.15
618.274	1439.23
618.691	1432
619.108	1420.86
619.525	1413.76
619.942	1421.2
620.359	1424.52
620.776	1418.45
621.192	1414.26
621.609	1412.83
622.026	1420.79
622.442	1428.32
622.859	1432.21
623.275	1424.81
623.691	1431.98
624.108	1444.86
624.524	1461.3
624.94	1460.7
625.356	1471.57
625.772	1486.42
626.188	1499.86
626.604	1501.38
627.02	1495.97
627.436	1493.36
627.852	1500.84
628.268	1514.01
628.683	1503.95
629.099	1493.9
629.514	1487.67
629.93	1492.35
630.345	1496.66
630.761	1492.29
631.176	1495.92
631.591	1489.59
632.007	1482.3
632.422	1479.68
632.837	1465.96
633.252	1462.59
633.667	1450.46
634.082	1439.81
634.497	1422.87
634.911	1399.47
635.326	1393.74
635.741	1373.95
636.155	1360.65
636.57	1361.41
636.984	1358.82
637.399	1358.48
637.813	1355.95
638.228	1353.16
638.642	1356.19
639.056	1345
639.47	1342.86
639.884	1331.95
640.298	1321.35
640.712	1318.86
641.126	1301.37
641.54	1288.77
641.954	1280.79
642.368	1264.57
642.781	1252.87
643.195	1230.79
643.609	1228.04
644.022	1219.79
644.436	1211.95
644.849	1197.88
645.262	1181.01
645.676	1180.26
646.089	1173.46
646.502	1153.86
646.915	1145.9
647.328	1125.17
647.741	1120.08
648.154	1103.1
648.567	1097.91
648.98	1081.39
649.393	1079.73
649.805	1075.03
650.218	1065.28
650.631	1045.91
651.043	1039.61
651.456	1033.09
651.868	1033.39
652.28	1050.59
652.693	1065.08
653.105	1069.97
653.517	1078
653.929	1076.45
654.341	1080.72
654.753	1066.44
655.165	1071.48
655.577	1067.93
655.989	1060.77
656.401	1049.67
656.813	1010.79
657.224	987.78
657.636	955.83
658.047	935.97
658.459	913.56
658.87	901.42
659.282	887.01
659.693	863.75
660.104	844.45
660.515	827.01
660.926	822.49
661.338	815.23
661.749	804.84
662.159	792.55
662.57	783.15
662.981	774.67
663.392	763.08
663.803	762.68
664.213	757.41
664.624	750.04
665.035	749.94
665.445	732.48
665.855	723.05
666.266	712.67
666.676	706.94
667.086	697.5
667.497	694.27
667.907	686.3
668.317	675
668.727	669.57
669.137	666.28
669.547	661.19
669.956	660.86
670.366	659.45
670.776	658.91
671.186	660.74
671.595	661.57
672.005	662.07
672.414	660.72
672.824	657.7
673.233	658.19
673.642	660.38
674.052	662.2
674.461	663.92
674.87	666.73
675.279	663.41
675.688	663.89
676.097	664.66
676.506	661.78
676.915	671.25
677.323	674.15
677.732	673.67
678.141	673.47
678.549	665.21
678.958	665.03
679.366	665.91
679.775	672.25
680.183	683.47
680.592	691.74
681	700.11
681.408	699.96
681.816	710.85
682.224	723.4
682.632	737.98
683.04	770.41
683.448	799.61
683.856	835.73
684.264	876.16
684.671	916.43
685.079	963.19
685.487	1015.32
685.894	1085.94
686.302	1147.21
686.709	1200.9
687.116	1262.11
687.524	1315.19
687.931	1362.86
688.338	1404.99
688.745	1441.44
689.152	1481.92
689.559	1533.47
689.966	1586.17
690.373	1614.53
690.78	1663.83
691.187	1735.3
691.593	1790.91
692	1839.32
692.407	1907.87
692.813	1991.39
693.22	2057.21
693.626	2126.13
694.032	2179.71
694.439	2260.56
694.845	2322.92
695.251	2400.42
695.657	2471.58
696.063	2577.47
696.469	2655.3
696.875	2727.13
697.281	2765.68
697.687	2814.42
698.093	2852.56
698.498	2932.15
698.904	2992.98
699.31	3086.68
699.715	3152.93
700.12	3247.62
700.526	3261.94
700.931	3332.98
701.337	3384.33
701.742	3415.69
702.147	3502.33
702.552	3531.28
702.957	3591.32
703.362	3607.46
703.767	3632.37
704.172	3671
704.577	3613.79
704.981	3660.84
705.386	3673.43
705.791	3659.96
706.195	3739.17
706.6	3744.68
707.004	3824.4
707.408	3785.85
707.813	3812.4
708.217	3796.24
708.621	3794.82
709.025	3896.59
709.43	3893.64
709.834	3955.28
710.237	4028.53
710.641	4006.27
711.045	4028
711.449	4020.96
711.853	4049.4
712.256	4088.88
712.66	4124.82
713.064	4199.82
713.467	4240.38
713.87	4356.6
714.274	4400.78
714.677	4513.33
715.08	4681.66
715.484	4856.57
715.887	5067.2
716.29	5275.64
716.693	5491.89
717.096	5740.92
717.499	5875.22
717.901	5897.36
718.304	5922.45
718.707	5943.65
719.109	5830.64
719.512	5793.29
719.915	5643.47
720.317	5579.74
720.719	5620.65
721.122	5584.09
721.524	5528.89
721.926	5482.93
722.328	5584.27
722.731	5569.17
723.133	5596.41
723.535	5794.24
723.937	5811.46
724.338	5864.93
724.74	5903.13
725.142	5830.26
725.544	5830.37
725.945	5852.99
726.347	5848.04
726.748	5837.08
727.15	5849.11
727.551	5810.01
727.952	5776.83
728.354	5745.67
728.755	5743.73
729.156	5696.78
729.557	5685.19
729.958	5554.36
730.359	5495.77
730.76	5473.66
731.161	5411.62
731.562	5383.13
731.962	5383.18
732.363	5316.16
732.763	5247.59
733.164	5281.9
733.564	5213.79
733.965	5112.49
734.365	5075.49
734.766	5105.64
735.166	5063.83
735.566	5005.63
735.966	4978.68
736.366	4970.32
736.766	4906.97
737.166	4938.03
737.566	4895.7
737.966	4866.51
738.365	4906.79
738.765	4898.55
739.165	4820.89
739.564	4794.62
739.964	4841.14
740.363	4794.42
740.763	4793.43
741.162	4780.66
741.561	4747.27
741.96	4700.43
742.36	4721.37
742.759	4726.51
743.158	4766.52
743.557	4781.44
743.955	4822.87
744.354	4775.81
744.753	4833.9
745.152	4790.89
745.55	4847.57
745.949	4841.35
746.348	4840.63
746.746	4860.13
747.144	4821.59
747.543	4800.53
747.941	4849.57
748.339	4774.09
748.737	4766.84
749.136	4756.62
749.534	4822.16
749.932	4792.44
750.33	4815.5
750.727	4873.3
751.125	4845.64
751.523	4826.42
751.921	4868.29
752.318	4832.62
752.716	4893.44
753.113	4905.37
753.511	4930.92
753.908	4927.87
754.305	4910.42
754.703	4972.76
755.1	5033.84
755.497	5093.82
755.894	5289.14
756.291	5471.69
756.688	5807.29
757.085	6255.13
757.482	6885.33
757.878	7574.31
758.275	8199.13
758.672	9055.45
759.068	9754.74
759.465	10753.24
759.861	12041.59
760.258	13529.75
760.654	14299.95
761.05	14184.23
761.447	13535.03
761.843	12601.21
762.239	11637.18
762.635	11205.32
763.031	10786.35
763.427	10184.61
763.822	9549.36
764.218	8924.03
764.614	8108.88
765.01	7564.35
765.405	7217.13
765.801	6949.57
766.196	6609.64
766.592	6417.66
766.987	6097.55
767.382	5882.66
767.778	5790.25
768.173	5659.26
768.568	5585.14
768.963	5459.41
769.358	5479.32
769.753	5427.28
770.148	5342.75
770.542	5341.08
770.937	5309.82
771.332	5400.91
771.726	5421.98
772.121	5361.16
772.515	5415.99
772.91	5400.48
773.304	5472.44
773.699	5405.91
774.093	5465.91
774.487	5522.85
774.881	5568.95
775.275	5563.03
775.669	5519.75
776.063	5562.54
776.457	5599.1
776.851	5519.64
777.245	5510.83
777.638	5543.86
778.032	5657.75
778.425	5617.77
778.819	5663.08
779.212	5615.99
779.606	5575.69
779.999	5597.82
780.392	5579.05
780.786	5660.85
781.179	5684.76
781.572	5730.07
781.965	5740.76
782.358	5683.32
782.751	5740.59
783.143	5687.68
783.536	5766.23
783.929	5812.31
784.322	5929.61
784.714	5965.09
785.107	5959
785.499	6030.78
785.891	6005.56
786.284	5990.54
786.676	6138.74
787.068	6119.41
787.46	6170.88
787.852	6187.39
788.245	6275.24
788.636	6303.95
789.028	6372.01
789.42	6414.73
789.812	6423.18
790.204	6524.78
790.595	6625.37
790.987	6426.24
791.378	6450.64
791.77	6586.36
792.161	6727.04
792.553	6781.76
792.944	6665.6
793.335	6593.56
793.726	6667.55
794.117	6760.06
794.508	6898.95
794.899	6865.64
795.29	7008.27
795.681	7066.41
796.072	6920.71
796.463	6733.97
796.853	6742.79
797.244	6905.57
797.634	6943.03
798.025	6942.02
798.415	6956.38
798.806	7045.88
799.196	7134.98
799.586	7185.25
799.976	7147.23
800.366	7383.58
800.756	7625.36
801.146	7587.3
801.536	7619.96
801.926	7694.13
802.316	7720.44
802.706	7793.32
803.095	7669.51
803.485	7775.92
803.874	7818.51
804.264	8086.44
804.653	8061.57
805.043	8211.96
805.432	8324.37
805.821	8323.92
806.21	8346.14
806.599	8467.16
806.988	8514.83
807.377	8625.17
807.766	8755.05
808.155	9039.03
808.544	8766.82
808.933	8780.8
809.321	8761.66
809.71	9060.14
810.098	9221.98
810.487	9692.86
810.875	10181.82
811.264	10205.41
811.652	10508.7
812.04	10659.71
812.428	10833.48
812.816	11616.66
813.204	12048.12
813.592	12612.55
813.98	12961.62
814.368	12873.41
814.756	13369.49
815.144	13293.29
815.531	13769.45
815.919	13685.51
816.306	13993.55
816.694	13680.56
817.081	13736.35
817.469	14080.78
817.856	14075.35
818.243	14349.6
818.63	14748.7
819.017	14314.17
819.404	14379.55
819.791	14769.58
820.178	15400.51
820.565	15664.06
820.952	16618.28
821.339	16117.14
821.725	16314.76
822.112	15563.07
822.498	15523.54
822.885	15653.4
823.271	15561.05
823.657	15986.22
824.044	15993.7
824.43	16063.38
824.816	16031.31
825.202	15578.45
825.588	16616.94
825.974	16629.06
826.36	17156.03
826.746	17188.91
827.132	17552.42
827.517	17522.71
827.903	16724.63
828.289	16765.34
828.674	15977.88
829.06	15870.04
829.445	16282.31
829.83	16646.25
830.216	17134.55
830.601	17501.01
830.986	17089.6
831.371	16953.63
831.756	17525.27
832.141	17096.57
832.526	17089.8
832.911	17375.22
833.295	17258.58
833.68	17746.25
834.065	17106.24
834.449	16171.41
834.834	16097.56
835.218	16092.16
835.603	16440.31
835.987	16226.76
836.371	17072.51
836.755	16961.91
837.139	17374.58
837.524	17623.44
837.908	17433.95
838.291	17497.06
838.675	17572.12
839.059	17789.02
839.443	17780.7
839.827	17536.5
840.21	18028.18
840.594	17870.02
840.977	18095.5
841.361	18077.84
841.744	18465.27
842.127	18304.81
842.511	18566
842.894	19174.2
843.277	19561.99
843.66	20114.25
844.043	20215.15
844.426	19394.13
844.809	19086.75
845.191	19116.54
845.574	18644.42
845.957	18267.3
846.339	18160.54
846.722	17623.16
847.104	17692.13
847.487	17520
847.869	17535.62
848.252	17819
848.634	18159.18
849.016	18420.29
849.398	18549.57
849.78	19418.53
850.162	19424.25
850.544	19850.37
850.926	20494.53
851.307	20415.41
851.689	20706.47
852.071	21169.2
852.452	21502.92
852.834	21481.47
853.215	21894.21
853.597	22044.48
853.978	22347.4
854.359	22813.93
854.741	21794.4
855.122	21685.93
855.503	21386.72
855.884	21519.3
856.265	21461.26
856.646	21577.12
857.026	21167.75
857.407	21099.02
857.788	21267.02
858.169	21562.81
858.549	20689.28
858.93	21324.74
859.31	21384.04
859.69	21594.85
860.071	21183.01
860.451	20962.37
860.831	20203.96
861.211	21389.77
861.591	21948.43
861.971	21914.45
862.351	22108.18
862.731	22508.02
863.111	22777.23
863.491	23114.48
863.87	24014.94
864.25	24367.85
864.629	23957.68
865.009	24473.2
865.388	25341.35
865.768	27157.48
866.147	27046.49
866.526	25549.08
866.905	25863.27
867.284	27313.48
867.663	25930.12
868.042	24854.28
868.421	24778.61
868.8	25185.22
869.179	25441.68
869.558	23970.97
869.936	22097.38
870.315	22502.23
870.693	23048.95
871.072	24856.12
871.45	23685.61
871.828	23983.27
872.207	25211.03
872.585	24849.44
872.963	25530.51
873.341	24655.81
873.719	24359.59
874.097	24063.73
874.475	24520.01
874.853	25089.2
875.23	24052.67
875.608	25059.17
875.986	27117.68
876.363	25935.22
876.741	26705.01
877.118	26028.38
877.495	27308.22
877.873	27775.67
878.25	29234.69
878.627	28043.82
879.004	28436.77
879.381	28303.42
879.758	27558.8
880.135	25664.82
880.512	27152.1
880.889	26434.64
881.265	26172.52
881.642	25952.37
882.019	26389.87
882.395	25856.09
882.772	26889.96
883.148	25725.78
883.524	25617.01
883.901	25471.86
884.277	25846.9
884.653	25671.7
885.029	26411.27
885.405	29252.93
885.781	29024.03
886.157	27816.78
886.532	28167.09
886.908	28140.9
887.284	31278.11
887.659	32295.35
888.035	33309.3
888.411	34170.96
888.786	34642.88
889.161	35835.17
889.537	35171.37
889.912	36312.91
890.287	36300.24
890.662	37236.35
891.037	36568.7
891.412	34110.41
891.787	33754.86
892.162	32556.93
892.536	33325.37
892.911	32072.81
893.286	31403.95
893.66	30125.94
894.035	30880.98
894.409	33618
894.784	32247.85
895.158	32778.46
895.532	34725.71
895.906	35705.07
896.281	36553.72
896.655	35956.06
897.029	41059.1
897.402	42762.92
897.776	47624.06
898.15	47458.55
898.524	46951.05
898.898	47581.68
899.271	53278.5
899.645	46160.34
900.018	44312.42
900.392	45971.83
900.765	46352.85
901.138	42922.05
901.511	42282.46
901.884	38808.99
902.258	35819.43
902.631	37019.02
903.003	42609.35
903.376	38468.54
903.749	43110.27
904.122	46177.18
904.495	50850.91
904.867	51495.44
905.24	44706.27
905.612	41607.21
905.985	42573.67
906.357	44519.35
906.729	42507.09
907.102	36309.18
907.474	34886.62
907.846	35123.55
908.218	34653.35
908.59	30602.49
908.962	29606.38
909.334	31880.42
909.705	33483.29
910.077	32500.52
910.449	33809.66
910.82	34734.9
911.192	38226.79
911.563	39723.92
911.935	42492.87
912.306	42550.52
912.677	43969.37
913.048	43510.72
913.419	47215.24
913.79	47473.82
914.161	50909.59
914.532	48685.62
914.903	44742.3
915.274	42500.57
915.645	41913.15
916.015	36889.2
916.386	35169.43
916.756	37424.15
917.127	38618.57
917.497	34495.32
917.868	37550.13
918.238	35702.64
918.608	36728.06
918.978	37501.37
919.348	39725.61
919.718	41035.42
920.088	39546.76
920.458	41079.62
920.828	43254.82
921.198	41005.79
921.567	43813.36
921.937	33947.85
922.306	34261.17
922.676	36951.34
923.045	30832.13
923.415	29300.87
923.784	26702.68
924.153	27465.04
924.522	27430.24
924.891	25788.21
925.26	27622.94
925.629	26973.24
925.998	30996.4
926.367	30240.38
926.736	28804.55
927.104	34292.28
927.473	36831.34
927.842	44469.91
928.21	44047.28
928.578	46330.25
928.947	43786.45
929.315	44050.23
929.683	51661.24
930.051	52107.25
930.42	60534.76
930.788	51742.16
931.156	51348.48
931.523	48159.81
931.891	44496.65
932.259	42739.28
932.627	49539.18
932.994	70099.33
933.362	57966.67
933.729	50359.68
934.097	48193.13
934.464	40798.25
934.831	47090.73
935.199	46440.66
935.566	45028.42
935.933	45605.88
936.3	55238.37
936.667	43007.82
937.034	38815.2
937.401	38376.85
937.767	33094.25
938.134	29462.77
938.501	41575.04
938.867	44304.34
939.234	74904.47
939.6	63933.19
939.967	70508.11
940.333	47190.43
940.699	40156.78
941.065	32206.36
941.431	42221.7
941.798	40761.53
942.163	53551
942.529	33407.91
942.895	30744.26
943.261	19877.92
943.627	26084.53
943.992	22843.59
944.358	22862.14
944.723	22937.36
945.089	22352.39
945.454	20649.79
945.82	22006.43
946.185	21143.75
946.55	24487.67
946.915	21963.24
947.28	25781.87
947.645	22700.08
948.01	20942.28
948.375	21827.88
948.74	26195.5
949.104	30556.27
949.469	44120.51
949.834	78037.32
950.198	73953.91
950.562	44349.22
950.927	36943.7
951.291	44446.55
951.655	37870.11
952.02	35583.79
952.384	26925.61
952.748	23411.76
953.112	22822.23
953.476	19873.66
953.839	18370.09
954.203	18185.2
954.567	22735.91
954.931	35819.32
955.294	30622.96
955.658	30738.85
956.021	52241.92
956.385	88607.73
956.748	130839.18
957.111	203214.05
957.474	228201.7
957.837	256965.86
958.2	194606.95
958.563	70102.59
958.926	47370.95
959.289	71951.32
959.652	80568.23
960.015	60466.17
960.377	86774.39
960.74	99079.16
961.102	170894.27
961.465	183365.22
961.827	98281.04
962.189	188522.29
962.552	130543.46
962.914	104664.19
963.276	67891.05
963.638	56061.37
964	55565.91
964.362	37563.68
964.724	36310.26
965.085	25899.82
965.447	21239.21
965.809	24200.19
966.17	24236.09
966.532	26260.91
966.893	24120.66
967.255	21970.06
967.616	25951.72
967.977	20764.29
968.338	22665.95
968.699	18631.27
969.061	18632.68
969.421	18779.74
969.782	21080.82
970.143	17793.16
970.504	18419.58
970.865	20919.15
971.225	21380.04
971.586	20909.87
971.946	29798.59
972.307	25876
972.667	33856.47
973.027	34868.72
973.388	42238.32
973.748	28745.19
974.108	31335.86
974.468	42403.69
974.828	32693.08
975.188	25169.07
975.548	23144.07
975.907	19441.32
976.267	21802.7
976.627	18300.45
976.986	18972.98
977.346	18100.5
977.705	17414.65
978.064	15852.97
978.424	13190.61
978.783	13653.81
979.142	15573.84
979.501	14889.48
979.86	15749.95
980.219	15183.93
980.578	19592.9
980.937	21948.78
981.296	19548.29
981.654	20114.36
982.013	31339.39
982.371	40678.97
982.73	37975.19
983.088	42992.02
983.447	45942.31
983.805	65578.72
984.163	137039.41
984.521	151916.87
984.879	222647.95
985.237	-362312.12
985.595	349018.69
985.953	86651.04
986.311	50047.5
986.669	29072.15
987.026	25106.43
987.384	33822.53
987.741	34985.04
988.099	25005.28
988.456	19936.24
988.814	18657.26
989.171	16193.66
989.528	15991.76
989.885	16887.53
990.242	13384.29
990.599	16670.83
990.956	13655.32
991.313	9537.58
991.67	7826.5
992.027	8292.15
992.383	7368.15
992.74	6464.1
993.096	6782.4
993.453	7022.81
993.809	7285.18
994.165	9695.48
994.522	8870.85
994.878	9768.2
995.234	12227.82
995.59	12065.11
995.946	11428.01
996.302	13039.87
996.658	15089.73
997.013	16620.64
997.369	19708.55
997.725	25240.27
998.08	16312.56
998.436	25199.56
998.791	34745.35
999.147	34816.64
999.502	37977.38
999.857	27655.05
1000.212	45055.1
1000.567	64118.21
1000.922	37070.75
1001.277	23546.37
1001.632	17452.78
1001.987	22520.14
1002.342	16144.75
1002.696	12924.62
1003.051	10286.6
1003.406	12480.87
1003.76	12396.83
1004.114	12223.29
1004.469	10275.76
1004.823	8503.08
1005.177	9202.4
1005.531	7283.82
1005.885	6469.05
1006.239	7307.23
1006.593	9157.96
1006.947	12266.3
1007.301	9203.85
1007.655	10067.07
1008.008	7407.73
1008.362	8337.49
1008.715	11931.26
1009.069	10831.51
1009.422	16304.56
1009.776	32688.03
1010.129	21720.07
1010.482	18130.53
1010.835	15293.34
1011.188	31823.31
1011.541	29906.76
1011.894	-182546.18
1012.247	535855.51
1012.6	36240.6
1012.952	22888.42
1013.305	11835.77
1013.657	8528.08
1014.01	8061.72
1014.362	6642.5
1014.715	5925.37
1015.067	5147.79
1015.419	5026.88
1015.771	4453.37
1016.123	3960.89
1016.475	4075.87
1016.827	4340.84
1017.179	4653.37
1017.531	4696.39
1017.883	4803.25
1018.234	4639.9
1018.586	5834.33
1018.938	6190.95
1019.289	8554.78
1019.64	9787.69
1019.992	9119.19
1020.343	8371.86
1020.694	6591.85
1021.045	5816.4
1021.396	6627.55
1021.747	7093.4
1022.098	8557.97
1022.449	6244.17
1022.8	5797.17
1023.151	4029.58
1023.501	3570.19
1023.852	3893
1024.202	4044.06
1024.553	4436.02
1024.903	4330.77
1025.253	3721.34
1025.604	3357.39
1025.954	4163.08
1026.304	5054.84
1026.654	5910.86
1027.004	8636.26
1027.354	13955.74
1027.703	13099.74
1028.053	17147.19
1028.403	25124.1
1028.753	36434.26
1029.102	49443.25
1029.452	253995.11
1029.801	10941.69
1030.15	7076.3
1030.499	5964.38
897.758	2627.12
901.051	2585.15
904.343	2619.96
907.636	2620.56
910.928	2685.36
914.22	2595.1
917.511	2601.89
920.803	2664.06
924.094	2683.3
927.384	2663.74
930.675	2631.11
933.965	2584.86
937.255	2594.5
940.544	2561.53
943.834	2508.4
947.123	2450.94
950.411	2547.11
953.7	2519.89
956.988	2490.07
960.276	2430.34
963.563	2508.69
966.851	2504.07
970.138	2560.95
973.424	2555.16
976.711	2505.3
979.997	2628.93
983.283	2663.5
986.568	2570.21
989.853	2588.37
993.138	2613.05
996.423	2694.47
999.708	2633.9
1002.992	2696.63
1006.275	2540.21
1009.559	2581.07
1012.842	2694.29
1016.125	2628.99
1019.408	2610.86
1022.69	2695.23
1025.972	2712.51
1029.254	2688.61
1032.536	2621.94
1035.817	2647.73
1039.098	2592.59
1042.379	2730.84
1045.659	2732.64
1048.939	2667.58
1052.219	2686.05
1055.498	2696.83
1058.778	2683.78
1062.057	2667.49
1065.335	2690.73
1068.614	2707.01
1071.892	2692.98
1075.17	2767.79
1078.447	2755.85
1081.724	2745.34
1085.001	2780.4
1088.278	2755.7
1091.554	2768.7
1094.83	2766.05
1098.106	2793.91
1101.382	2835.66
1104.657	2839.3
1107.932	2829.66
1111.206	2796.97
1114.481	2756.03
1117.755	2760.02
1121.029	2741.23
1124.302	2795.04
1127.575	2746.44
1130.848	2732.79
1134.121	2693.27
1137.393	2645.88
1140.665	2713.39
1143.937	2689.76
1147.208	2647.92
1150.48	2688.94
1153.75	2674.17
1157.021	2704.7
1160.291	2675.77
1163.561	2721.18
1166.831	2710.78
1170.101	2744.1
1173.37	2719.2
1176.639	2663
1179.907	2721.64
1183.176	2727.41
1186.444	2732.31
1189.711	2762.81
1192.979	2776.91
1196.246	2728.64
1199.513	2746.16
1202.78	2745.38
1206.046	2754.24
1209.312	2775.02
1212.578	2800.92
1215.843	2754.62
1219.108	2731.27
1222.373	2754.77
1225.638	2717.72
1228.902	2699.29
1232.166	2669.88
1235.43	2651.43
1238.693	2672.96
1241.956	2668.08
1245.219	2711.94
1248.482	2702.78
1251.744	2698.67
1255.006	2844.35
1258.268	2797.37
1261.529	2742.07
1264.79	2749.44
1268.051	2854.63
1271.312	2872.17
1274.572	2832.04
1277.832	2826.06
1281.092	2815.22
1284.351	2787.85
1287.61	2766.27
1290.869	2680.69
1294.128	2659.57
1297.386	2748.82
1300.644	2736.24
1303.902	2744.45
1307.159	2605.73
1310.416	2662.14
1313.673	2684.54
1316.93	2669.3
1320.186	2713.94
1323.442	2759.35
1326.697	2750.19
1329.953	2740.11
1333.208	2759.52
1336.463	2742.37
1339.717	2682.67
1342.972	2814.51
1346.226	2790.42
1349.479	2723.89
1352.733	2693.97
1355.986	2720.59
1359.238	2692.83
1362.491	2694.17
1365.743	2698.87
1368.995	2695.15
1372.247	2704.01
1375.498	2727.55
1378.749	2742.23
1382	2699.1
1385.251	2752.65
1388.501	2715.33
1391.751	2696.17
1395	2668.08
1398.25	2701.35
1401.499	2707.46
1404.748	2634.13
1407.996	2627.17
1411.244	2613.04
1414.492	2593.14
1417.74	2570.44
1420.987	2579.61
1424.234	2635.04
1427.481	2615
1430.728	2673.69
1433.974	2645.86
1437.22	2660.12
1440.465	2664.18
1443.711	2628.24
1446.956	2662.56
1450.201	2649.94
1453.445	2694.21
1456.689	2672.81
1459.933	2684.63
1463.177	2718.6
1466.42	2690.54
1469.663	2671.22
1472.906	2664.88
1476.148	2733.95
1479.391	2703.55
1482.633	2672.29
1485.874	2682.19
1489.115	2670.32
1492.356	2676.59
1495.597	2650.85
1498.838	2651.87
1502.078	2621.97
1505.318	2574.09
1508.557	2618.94
1511.797	2597.62
1515.036	2658.7
1518.274	2650.67
1521.513	2623.73
1524.751	2644.74
1527.989	2655.62
1531.227	2670.69
1534.464	2665.67
1537.701	2685.28
1540.938	2704.89
1544.174	2655.7
1547.41	2654.38
1550.646	2694.16
1553.882	2732.31
1557.117	2786.61
1560.352	2801.3
1563.587	2757.43
1566.821	2717.65
1570.055	2751.97
1573.289	2722.68
1576.523	2794.66
1579.756	2805.93
1582.989	2822.09
1586.222	2785.9
1589.454	2818.16
1592.686	2791.13
1595.918	2818.22
1599.15	2810.09
1602.381	2883.96
1605.612	2839.89
1608.843	2937.92
1612.073	2853.5
1615.303	2834.63
1618.533	2827.84
1621.762	2825.97
1624.992	2819.37
1628.221	2805.88
1631.449	2789.28
1634.678	2844.76
1637.906	2800.05
1641.134	2838.15
1644.361	2793.89
1647.588	2782.02
1650.815	2799.29
1654.042	2777.51
1657.269	2810.1
1660.495	2760.51
1663.72	2784.74
1666.946	2749.13
1670.171	2692.87
1673.396	2668.62
1676.621	2656.86
1679.845	2675.85
1683.069	2695.29
1686.293	2737.13
1689.517	2710.37
1692.74	2641.32
1695.963	2669.77
1699.185	2683.37
1702.408	2658.82
1705.63	2701.18
1708.852	2712.57
1712.073	2684.76
1715.294	2669.78
1718.515	2731.98
1721.736	2678.7
1724.956	2672.82
1728.176	2696.89
1731.396	2719.59
1734.616	2707.4
1737.835	2736.51
1741.054	2715.09
1744.272	2707.79
1747.491	2738.74
1750.709	2790.27
1753.927	2696.63
1757.144	2739.68
1760.361	2780.08
1763.578	2774.71
1766.795	2715.44
1770.011	2720.36
1773.227	2758.89
1776.443	2793.52
1779.658	2838.79
1782.874	2784.22
1786.089	2761.08
1789.303	2762.21
1792.518	2771.36
1795.732	2758.94
1798.945	2766.29
1802.159	2818.5
1805.372	2722.3
1808.585	2706.61
1811.797	2710.55
1815.01	2757.22
1818.222	2757.81
1821.434	2743.71
1824.645	2802.98
1827.856	2785.37
1831.067	2821.69
1834.278	2777.29
1837.488	2759.36
1840.698	2908.57
1843.908	2836.06
1847.117	2796.78
1850.326	2682.24
1853.535	2782.29
1856.744	2795.07
1859.952	2710.9
1863.16	2715.23
1866.368	2735.27
1869.575	2837.46
1872.782	2723.94
1875.989	2662.42
1879.196	2744.92
1882.402	2736.22
1885.608	2775.71
1888.814	2681.32
1892.019	2580.4
1895.224	2630.42
1898.429	2609.28
1901.634	2589.83
1904.838	2569.04
1908.042	2616.95
1911.246	2625.38
1914.449	2557.99
1917.652	2554.53
1920.855	2537.55
1924.058	2586.33
1927.26	2621.81
1930.462	2648.99
1933.664	2676.93
1936.865	2616.86
1940.066	2622.59
1943.267	2570.33
1946.467	2585.75
1949.668	2611.42
1952.868	2676.9
1956.067	2656.1
1959.267	2586.73
1962.466	2614.53
1965.665	2600.67
1968.863	2593.69
1972.061	2606.65
1975.259	2605.13
1978.457	2685.51
1981.654	2641.33
1984.852	2643.17
1988.048	2578.2
1991.245	2580.6
1994.441	2667.14
1997.637	2650.6
2000.833	2633.15
2004.028	2672.73
2007.223	2726.36
2010.418	2705.71
2013.613	2665.03
2016.807	2637.78
2020.001	2646.45
2023.194	2688.18
2026.388	2662.56
2029.581	2609.55
2032.774	2656.99
2035.966	2660.84
2039.158	2593.51
2042.35	2622.27
2045.542	2550.99
2048.733	2648.64
2051.924	2674.6
2055.115	2700.06
2058.306	2645.07
2061.496	2707.61
2064.686	2767.31
2067.875	2686.05
2071.065	2700.89
2074.254	2727.46
2077.442	2676.17
2080.631	2765.2
2083.819	2660.07
2087.007	2640.08
2090.195	2611.56
2093.382	2645.8
2096.569	2625.87
2099.756	2580.35
2102.942	2604.02
2106.128	2608.29
2109.314	2603.08
2112.5	2567.89
2115.685	2544.16
2118.87	2554.4
2122.055	2619.22
2125.239	2585.1
2128.424	2561.94
2131.608	2662.84
2134.791	2643.52
2137.974	2701.56
2141.157	2687.19
2144.34	2637.1
2147.523	2653.5
2150.705	2667.01
2153.887	2647.75
2157.068	2598.16
2160.25	2600.27
2163.431	2635.53
2166.611	2583.71
2169.792	2599.21
2172.972	2494.38
2176.152	2572.48
2179.331	2608.49
2182.511	2588.67
2185.69	2617.11
2188.868	2610.33
2192.047	2665.09
2195.225	2656.35
2198.403	2606.46
2201.58	2595.37
2204.758	2595.19
2207.935	2678.43
2211.111	2565.91
2214.288	2549.2
2217.464	2589.66
2220.64	2560.55
2223.815	2615.71
2226.991	2536.99
2230.166	2558.44
2233.34	2588.24
2236.515	2613.2
2239.689	2683.97
2242.863	2626.39
2246.036	2685.37
2249.209	2684.08
2252.382	2720.38
2255.555	2708.2
2258.727	2645.59
2261.9	2687.94
2265.071	2676.21
2268.243	2678.55
2271.414	2611.92
2274.585	2575.8
2277.756	2642.41
2280.926	2597.02
2284.096	2638.53
2287.266	2544.76
2290.436	2601.55
2293.605	2630.57
2296.774	2657.83
2299.942	2677.15
2303.111	2694.72
2306.279	2744.99
2309.447	2731.48
2312.614	2707.89
2315.781	2728.16
2318.948	2696.94
2322.115	2735.45
2325.281	2636.09
2328.447	2655.91
2331.613	2630.9
2334.779	2606.29
2337.944	2611.1
2341.109	2606.1
2344.274	2586.42
2347.438	2550.58
2350.602	2579.14
2353.766	2596.07
2356.929	2582.64
2360.092	2625.86
2363.255	2577.73
2366.418	2512.78
2369.58	2624.39
2372.742	2414.75
2375.904	2429.75
2379.066	2407.87
2382.227	2443.87
2385.388	2406.65
2388.548	2332.79
2391.709	2386.29
2394.869	2364.71
2398.029	2463.42
2401.188	2475.41
2404.347	2410.7
2407.506	2548.12
2410.665	2579.65
2413.823	2583.9
2416.981	2541.47
2420.139	2570.8
2423.296	2620.23
2426.453	2593.54
2429.61	2620.05
2432.767	2554.11
2435.923	2591.62
2439.079	2556.47
2442.235	2604.04
2445.391	2530.08
2448.546	2559.98
2451.701	2607.78
2454.855	2579.49
2458.009	2633.78
2461.163	2632.94
2464.317	2590.91
2467.471	2623.85
2470.624	2662.37
2473.777	2631.24
2476.929	2644.13
2480.082	2670.24
2483.234	2635.19
2486.385	2588.8
2489.537	2581.42
2492.688	2542.87
2495.839	2561.93
2498.989	2572.33
2502.14	2557.16
2505.29	2541.38
2508.439	2565.9
2511.589	2491.67
2514.738	2503.58
2517.887	2533.86
2521.035	2601.61
2524.183	2584.27
2527.331	2562.38
2530.479	2538.2
2533.627	2548.35
