Data from C_2_DEC_VA_2N_Splice17_12-08-10-729.txt Node
Date: Sat Mar 14 12:08:10 EDT 2020
User: sa697716
Spectrometer: FLMS03696
Trigger mode: 0
Integration Time (sec): 3.180400E-1
Scans to average: 20
Electric dark correction enabled: true
Nonlinearity correction enabled: true
Boxcar width: 5
XAxis mode: Wavelengths
Number of Pixels in Spectrum: 2048
>>>>>Begin Spectral Data<<<<<
187.83	-266040.32
188.298	2118.95
188.766	1130.76
189.233	1047.43
189.701	1513.47
190.169	2135.77
190.636	832.17
191.104	655.01
191.571	137.4
192.039	-14.34
192.506	-39.15
192.974	557.31
193.441	-692.2
193.908	-328.19
194.375	-20.28
194.842	68.04
195.31	200.07
195.777	218.03
196.244	411.72
196.711	525.34
197.177	638.79
197.644	894.22
198.111	1548.08
198.578	2167.01
199.045	1770.77
199.511	2868.91
199.978	3328.35
200.445	2822.12
200.911	3100.13
201.378	3473.37
201.844	3115.34
202.31	5331.66
202.777	5552.87
203.243	3061.21
203.709	2934.07
204.176	3424.89
204.642	2818.51
205.108	2634.65
205.574	2155.24
206.04	1975.44
206.506	1858.36
206.972	1751
207.438	1703.82
207.903	1928.8
208.369	1701.16
208.835	1686.64
209.301	1797.08
209.766	1834.67
210.232	1811.52
210.697	2222.95
211.163	2732.62
211.628	4089.31
212.094	3427.66
212.559	4160.34
213.024	2597
213.49	3145.88
213.955	3051.55
214.42	2983.27
214.885	2770.69
215.35	2652.01
215.815	2524.32
216.28	2651.41
216.745	2133.88
217.21	2275.74
217.675	2052.25
218.14	2263.28
218.604	2475
219.069	2776.42
219.534	2847.35
219.998	3244.41
220.463	3878.85
220.927	4710.28
221.392	4369.18
221.856	4386.09
222.32	5474.67
222.785	6726.92
223.249	8414.6
223.713	9353.61
224.177	9299.84
224.642	11866.32
225.106	14555.28
225.57	15813.01
226.034	11761.54
226.497	17899.05
226.961	16141.07
227.425	18780.57
227.889	20819.7
228.353	20777.57
228.816	42738.38
229.28	40792.88
229.744	34321.41
230.207	20835.43
230.671	20445.44
231.134	33712.3
231.597	38849.85
232.061	38806.09
232.524	37869.99
232.987	26052.02
233.45	23459.87
233.914	21042.27
234.377	21573.11
234.84	19750.87
235.303	23280.78
235.766	26039.89
236.229	26888.52
236.691	16915.98
237.154	18977.45
237.617	14235.27
238.08	14548.53
238.542	17019.6
239.005	12180.8
239.468	12091.5
239.93	11393.55
240.393	10360.94
240.855	9098.12
241.317	9311.69
241.78	11307.37
242.242	11710.19
242.704	12661.46
243.166	11047.55
243.629	10037.58
244.091	11557.89
244.553	12645.21
245.015	13599.52
245.477	17573.21
245.939	25736.91
246.4	27288.92
246.862	26583.5
247.324	25031.26
247.786	27994.03
248.247	36663.92
248.709	37820.49
249.17	28302.7
249.632	26707.76
250.093	30974.03
250.555	26748.44
251.016	16306.22
251.477	15475.11
251.939	16689.67
252.4	17509.03
252.861	20811.61
253.322	19353.45
253.783	22981.99
254.244	29759.27
254.705	23436.79
255.166	20796.82
255.627	20496.57
256.088	28913.31
256.549	30723.93
257.009	26406.69
257.47	32029.22
257.931	26076.24
258.391	19514.81
258.852	20127.78
259.312	21089.51
259.773	26014.11
260.233	21995.91
260.694	18518.51
261.154	20957.86
261.614	16802.13
262.074	14999.82
262.534	15538.78
262.994	14614.19
263.455	19432.29
263.915	16339.12
264.374	15348.96
264.834	16723.29
265.294	18498.39
265.754	19128.69
266.214	18082.96
266.673	16930.01
267.133	21351.71
267.593	21181.1
268.052	25909.45
268.512	22514.23
268.971	27132.69
269.431	29744.96
269.89	26605.83
270.349	39821.2
270.809	44340.65
271.268	39840.49
271.727	89117.95
272.186	57722.24
272.645	43233.14
273.104	31150.15
273.563	45076.26
274.022	35417.07
274.481	30106.26
274.94	23200.94
275.399	17227.7
275.857	20063.4
276.316	27135.14
276.775	24157.56
277.233	23782.7
277.692	22277.71
278.15	25182.8
278.609	25925.88
279.067	24004.43
279.525	22320.15
279.984	28808.36
280.442	34648.16
280.9	34170.87
281.358	22464.23
281.816	20966.17
282.274	20539.71
282.732	21217.88
283.19	21336.28
283.648	18427.98
284.106	19617.14
284.564	19979.3
285.021	18563.81
285.479	13840.56
285.937	12584.42
286.394	11069.47
286.852	11394.61
287.309	11982.76
287.767	11597.04
288.224	11037.32
288.682	12096.99
289.139	13291.89
289.596	12156.87
290.053	12627.01
290.511	15924.22
290.968	19304.15
291.425	26131.69
291.882	21746.63
292.339	18914.17
292.796	18716.21
293.252	17617.27
293.709	13992.61
294.166	12530.66
294.623	13820.44
295.079	13247.16
295.536	13322.36
295.992	12098.08
296.449	11966.39
296.905	12412.35
297.362	11899.05
297.818	12530.24
298.274	13032.11
298.731	13280.96
299.187	13142
299.643	14120.71
300.099	17102.05
300.555	18744.06
301.011	15687.73
301.467	15158.03
301.923	17756.33
302.379	17348.99
302.835	17028.87
303.291	17024.49
303.746	19396.43
304.202	24531.39
304.658	24672
305.113	16589.61
305.569	16299.02
306.024	17349.42
306.479	16499.07
306.935	13945.74
307.39	15254.3
307.845	14122.96
308.301	14228.74
308.756	13852.15
309.211	13354.73
309.666	13679.86
310.121	17001.7
310.576	17238.38
311.031	17092.77
311.486	19580.11
311.94	19532.26
312.395	26111.93
312.85	49128.67
313.305	241638.9
313.759	1256636.84
314.214	91256.14
314.668	72455.94
315.123	60905.85
315.577	21907.41
316.032	19533.36
316.486	24515.23
316.94	19370.7
317.394	13482.48
317.849	10457.48
318.303	9903.01
318.757	9339.78
319.211	10299.24
319.665	9006.35
320.119	9127.08
320.572	13042.76
321.026	12202.98
321.48	10144.02
321.934	11053.3
322.387	11068.75
322.841	11967.74
323.295	10754.56
323.748	12347.66
324.202	12547.12
324.655	15061.36
325.108	21058.14
325.562	14907.67
326.015	17710.49
326.468	13406.18
326.921	14994.2
327.374	14000.49
327.827	14573.07
328.28	16495.56
328.733	11071.55
329.186	9724.74
329.639	9276.58
330.092	7813.75
330.545	7436.09
330.997	7501.46
331.45	8201.21
331.903	9626.97
332.355	16564.17
332.808	16135.29
333.26	13309.28
333.713	14472
334.165	14597.09
334.617	19481.7
335.069	15739.76
335.522	28426.56
335.974	31481.92
336.426	28721.58
336.878	19895.23
337.33	10101.54
337.782	9873.61
338.234	12379.25
338.686	14812.69
339.137	17590.84
339.589	16597.09
340.041	13042.23
340.493	11231.54
340.944	11511.85
341.396	12448.84
341.847	10468.79
342.299	12377.59
342.75	15097.98
343.201	13189.64
343.653	15145.6
344.104	18537.82
344.555	14561.89
345.006	22613.63
345.457	17333.76
345.908	13762.42
346.359	12887.03
346.81	10485.2
347.261	11009.8
347.712	10817.27
348.163	11583.05
348.613	11766.22
349.064	11000.77
349.515	9617.77
349.965	9878.81
350.416	11903.22
350.866	13027.7
351.317	14751.97
351.767	24420.9
352.217	30885.92
352.668	25630.87
353.118	23504.1
353.568	22577.72
354.018	17852.32
354.468	18833.17
354.918	13508.41
355.368	11791.79
355.818	16718.78
356.268	48054.73
356.718	201316.56
357.168	50081.45
357.617	25188.33
358.067	27979.91
358.517	26199.91
358.966	30801.99
359.416	34715.64
359.865	37463.42
360.315	44634.14
360.764	20826.82
361.213	11686.77
361.663	11073.9
362.112	13685.15
362.561	22092.71
363.01	16678.23
363.459	14069.3
363.908	15236.63
364.357	12941.93
364.806	21916.89
365.255	15086.8
365.703	13832.78
366.152	13909.91
366.601	11282.07
367.05	9185.4
367.498	8361.88
367.947	8739.64
368.395	9108.65
368.844	8084.8
369.292	9722.76
369.74	6720.35
370.189	10295.82
370.637	12081.46
371.085	10393.75
371.533	12683.2
371.981	12206.64
372.429	11664.12
372.877	12197.1
373.325	10203.96
373.773	10387.87
374.221	9264.38
374.669	11517.7
375.116	9978.73
375.564	10084.73
376.012	11306.07
376.459	9358.42
376.907	11233.05
377.354	13604.48
377.801	12721.43
378.249	14694.56
378.696	18828.7
379.143	22927.87
379.591	24484.53
380.038	41624.55
380.485	30229.91
380.932	32775.46
381.379	30113.07
381.826	22284.11
382.273	15922.7
382.72	14004.46
383.166	13710.14
383.613	8938.67
384.06	8105.54
384.506	9448.92
384.953	6955.04
385.4	7049.95
385.846	6216.87
386.292	6075.53
386.739	5981.23
387.185	5944.47
387.631	5985.93
388.078	5856.09
388.524	6312.65
388.97	5867.31
389.416	4937.26
389.862	5301.87
390.308	5061.09
390.754	5179.31
391.2	5680.07
391.645	5865.5
392.091	5677.86
392.537	5528.19
392.983	5578.43
393.428	5541.35
393.874	5994.2
394.319	6072.99
394.765	5816.13
395.21	6033.55
395.655	5707.69
396.101	5388.79
396.546	4910.24
396.991	4989.44
397.436	4675.62
397.881	4556.46
398.326	4348.3
398.771	4149.2
399.216	3660.22
399.661	3326.1
400.106	3343.37
400.551	3459.09
400.995	3128.84
401.44	3113.28
401.885	2945.45
402.329	2997.82
402.774	2898.84
403.218	2825.34
403.663	2740.49
404.107	2832.54
404.551	2863.7
404.995	2639.18
405.44	2556.41
405.884	2612.35
406.328	2542.29
406.772	2548.52
407.216	2333.14
407.66	2265.51
408.104	2166
408.547	2037.06
408.991	1977.82
409.435	1915.48
409.879	1895.59
410.322	1879.08
410.766	1820.3
411.209	1739.61
411.653	1678.04
412.096	1655.83
412.54	1664.48
412.983	1658.69
413.426	1669.68
413.869	1674.84
414.312	1651.3
414.756	1600
415.199	1529.32
415.642	1489.87
416.085	1494.5
416.527	1485.99
416.97	1509.13
417.413	1436.34
417.856	1423.81
418.298	1412.82
418.741	1407.5
419.184	1408.18
419.626	1469.71
420.069	1472.54
420.511	1483.68
420.953	1453.82
421.396	1443.62
421.838	1409.52
422.28	1441.3
422.722	1451.5
423.164	1473.91
423.606	1448.31
424.048	1446.13
424.49	1371.38
424.932	1365.04
425.374	1346.15
425.816	1371.23
426.258	1397.68
426.699	1410.18
427.141	1386.88
427.582	1406.47
428.024	1397.31
428.465	1389.16
428.907	1349.34
429.348	1333.76
429.789	1330.7
430.231	1300.74
430.672	1313.3
431.113	1279.8
431.554	1260.95
431.995	1231.2
432.436	1186.7
432.877	1159.03
433.318	1138.3
433.759	1135.62
434.2	1134.1
434.64	1125.11
435.081	1127.11
435.522	1070.09
435.962	1032.82
436.403	1012.12
436.843	1025.98
437.284	1004.54
437.724	979.3
438.164	986.39
438.604	969.21
439.045	936.98
439.485	901.29
439.925	886.74
440.365	867.83
440.805	860.13
441.245	852.36
441.685	825.69
442.125	825.8
442.564	837.54
443.004	822.28
443.444	825.07
443.883	831.36
444.323	831.98
444.762	841.63
445.202	861.49
445.641	882.51
446.081	886.17
446.52	899.55
446.959	897.44
447.398	881.42
447.837	880.23
448.276	870.85
448.716	889.09
449.154	904.06
449.593	889.49
450.032	894.95
450.471	887.32
450.91	894.99
451.349	901.03
451.787	903.91
452.226	923.28
452.664	928.67
453.103	935.67
453.541	937.47
453.98	938.07
454.418	948.6
454.856	934.28
455.295	935.14
455.733	944.16
456.171	951.76
456.609	955.48
457.047	958.51
457.485	971.69
457.923	974.49
458.361	966.08
458.798	973
459.236	972.14
459.674	981.01
460.111	985.4
460.549	977.29
460.987	975.74
461.424	973.68
461.862	968.55
462.299	955.9
462.736	954.97
463.173	956.07
463.611	943.24
464.048	940.93
464.485	949.38
464.922	942.9
465.359	937.83
465.796	918.82
466.233	909.55
466.67	901.74
467.106	899.39
467.543	891.91
467.98	880.05
468.416	859.44
468.853	853.02
469.29	827.12
469.726	817.77
470.162	797.31
470.599	792.35
471.035	786.84
471.471	768.47
471.907	764.35
472.344	761.22
472.78	765.23
473.216	776.42
473.652	767.99
474.088	767.93
474.523	766.93
474.959	774.69
475.395	767.89
475.831	765.13
476.266	769.58
476.702	769.34
477.138	761.22
477.573	758.56
478.008	756.06
478.444	760.51
478.879	767.65
479.314	772.35
479.75	773.37
480.185	778.03
480.62	786.41
481.055	792.27
481.49	798.89
481.925	812.51
482.36	827.54
482.795	853.36
483.229	879.04
483.664	900.05
484.099	905.05
484.534	921.38
484.968	934.03
485.403	939.76
485.837	942.88
486.271	945.35
486.706	949.79
487.14	945.1
487.574	933.87
488.009	929.75
488.443	926.44
488.877	940.11
489.311	948.06
489.745	964.36
490.179	978.43
490.613	1001.38
491.046	1014.49
491.48	1027.45
491.914	1033.55
492.348	1047.58
492.781	1060.23
493.215	1069.72
493.648	1080.2
494.082	1096.36
494.515	1103.34
494.948	1122.35
495.382	1137.68
495.815	1153.89
496.248	1170.03
496.681	1199.69
497.114	1226.23
497.547	1250.2
497.98	1278.87
498.413	1295.21
498.846	1318.26
499.279	1341.36
499.711	1357.12
500.144	1369.47
500.577	1393.76
501.009	1422.04
501.442	1445.14
501.874	1454.19
502.306	1465.36
502.739	1482.81
503.171	1515.53
503.603	1528.6
504.036	1551.34
504.468	1565.78
504.9	1590.85
505.332	1607.62
505.764	1618.15
506.196	1633.69
506.627	1663.37
507.059	1689.68
507.491	1711.2
507.923	1709.07
508.354	1734.96
508.786	1753.98
509.217	1786.96
509.649	1811.8
510.08	1845.23
510.512	1872.82
510.943	1897.74
511.374	1914.67
511.805	1946.54
512.237	1976.06
512.668	2029.56
513.099	2072.39
513.53	2114.31
513.961	2142.13
514.391	2190.48
514.822	2237.55
515.253	2290.54
515.684	2326.07
516.114	2366.34
516.545	2391.93
516.975	2426.1
517.406	2444.67
517.836	2439.56
518.267	2439.05
518.697	2457.32
519.127	2453.7
519.558	2456
519.988	2451.91
520.418	2457.84
520.848	2474.98
521.278	2477.85
521.708	2466.18
522.138	2476.68
522.567	2515.28
522.997	2545.25
523.427	2560.98
523.857	2577.24
524.286	2582.46
524.716	2594.04
525.145	2612.28
525.575	2619.64
526.004	2633.18
526.433	2637.59
526.863	2627.48
527.292	2602.17
527.721	2600.96
528.15	2601.69
528.579	2593.17
529.008	2602.23
529.437	2631.28
529.866	2645.83
530.295	2666.27
530.724	2677.97
531.152	2714.28
531.581	2729.8
532.01	2751.55
532.438	2761.21
532.867	2778.61
533.295	2803.37
533.723	2809.31
534.152	2801.56
534.58	2796.92
535.008	2769.79
535.436	2769.9
535.865	2778.11
536.293	2799.39
536.721	2822.76
537.149	2858.96
537.576	2859.68
538.004	2877.23
538.432	2887.99
538.86	2884.91
539.287	2896.64
539.715	2915.32
540.143	2918.95
540.57	2912.16
540.998	2905.44
541.425	2868.02
541.852	2834.01
542.28	2830.92
542.707	2804.27
543.134	2780.72
543.561	2772.39
543.988	2758.76
544.415	2758.23
544.842	2747.68
545.269	2735.41
545.696	2736.58
546.123	2754.3
546.549	2737.81
546.976	2716.71
547.403	2715.76
547.829	2717.36
548.256	2720.26
548.682	2713.95
549.108	2699.97
549.535	2699.12
549.961	2702.34
550.387	2680.9
550.813	2669.95
551.24	2676.97
551.666	2678.82
552.092	2663.38
552.518	2653.61
552.943	2643.48
553.369	2652.74
553.795	2660.35
554.221	2663.14
554.646	2657.01
555.072	2673.06
555.498	2683.16
555.923	2700.8
556.349	2725.03
556.774	2740.94
557.199	2745.26
557.625	2756.84
558.05	2751.33
558.475	2770.41
558.9	2770.23
559.325	2761.29
559.75	2754.99
560.175	2749.58
560.6	2743.2
561.025	2743.51
561.449	2748.11
561.874	2761.41
562.299	2772.99
562.723	2790.66
563.148	2781.05
563.572	2793.84
563.997	2815.68
564.421	2831.14
564.846	2838.26
565.27	2850.99
565.694	2854.34
566.118	2881.03
566.542	2899.24
566.966	2896.9
567.39	2897.1
567.814	2888.3
568.238	2894.06
568.662	2911.6
569.086	2924
569.509	2944.76
569.933	2928.13
570.357	2925.47
570.78	2899.21
571.204	2886.27
571.627	2877.92
572.05	2882.24
572.474	2890.42
572.897	2880.62
573.32	2875.52
573.743	2868.57
574.166	2845.75
574.589	2854.36
575.012	2848.68
575.435	2853.22
575.858	2844.34
576.281	2832.18
576.704	2813.43
577.126	2798.89
577.549	2785.18
577.972	2775.05
578.394	2761.9
578.817	2753.92
579.239	2726.11
579.661	2709.07
580.084	2687.01
580.506	2670.57
580.928	2668.48
581.35	2652.97
581.772	2649.58
582.194	2631.46
582.616	2614.31
583.038	2594.06
583.46	2580.88
583.882	2579.7
584.303	2590.99
584.725	2588.11
585.147	2590.85
585.568	2611.53
585.99	2636.52
586.411	2649.93
586.833	2677.62
587.254	2683.08
587.675	2712.17
588.096	2737.27
588.518	2731.46
588.939	2703.58
589.36	2703.75
589.781	2692.4
590.202	2643.62
590.623	2629.22
591.043	2628.69
591.464	2608.29
591.885	2603.79
592.305	2595.15
592.726	2572.27
593.147	2577.18
593.567	2569.72
593.987	2558.54
594.408	2552.38
594.828	2554.26
595.248	2546.33
595.669	2515.17
596.089	2505.76
596.509	2494.78
596.929	2472.27
597.349	2475.45
597.769	2458.92
598.189	2450.71
598.608	2454.15
599.028	2459.71
599.448	2461.52
599.867	2442.22
600.287	2437.18
600.706	2431.69
601.126	2416.92
601.545	2416.27
601.965	2416.54
602.384	2409.08
602.803	2417.06
603.222	2410.88
603.641	2401.72
604.061	2397.11
604.48	2392.57
604.898	2409.27
605.317	2420.77
605.736	2428.77
606.155	2426.72
606.574	2412.11
606.992	2425.71
607.411	2420.53
607.829	2411.08
608.248	2408.79
608.666	2408.62
609.085	2410.84
609.503	2399.6
609.921	2391.15
610.339	2397.36
610.758	2400.75
611.176	2397.21
611.594	2382.33
612.012	2379.01
612.43	2386.19
612.847	2401.43
613.265	2406.2
613.683	2417.69
614.101	2423.78
614.518	2422.36
614.936	2408.68
615.353	2385.12
615.771	2383.9
616.188	2389.55
616.606	2387.4
617.023	2379.26
617.44	2356.99
617.857	2348.54
618.274	2336.2
618.691	2327.85
619.108	2313.36
619.525	2304.77
619.942	2320.42
620.359	2327.43
620.776	2321.17
621.192	2314.52
621.609	2311.3
622.026	2324.73
622.442	2335.59
622.859	2343.4
623.275	2331.3
623.691	2342.91
624.108	2364.95
624.524	2391.88
624.94	2392.75
625.356	2412.56
625.772	2438.87
626.188	2462.73
626.604	2466.99
627.02	2460.73
627.436	2457.91
627.852	2469.81
628.268	2492.27
628.683	2475.85
629.099	2461.1
629.514	2453.19
629.93	2459.26
630.345	2468.4
630.761	2460.77
631.176	2467.14
631.591	2456.01
632.007	2444.02
632.422	2443.19
632.837	2424.49
633.252	2421.59
633.667	2402.62
634.082	2386.49
634.497	2363.4
634.911	2326.44
635.326	2322.33
635.741	2291.19
636.155	2275.08
636.57	2278.97
636.984	2279.63
637.399	2281.33
637.813	2282.12
638.228	2282.35
638.642	2292.48
639.056	2275.22
639.47	2278.14
639.884	2262.39
640.298	2251.24
640.712	2248.83
641.126	2226.14
641.54	2210.51
641.954	2203.23
642.368	2178.15
642.781	2159.5
643.195	2125.79
643.609	2124.94
644.022	2113.39
644.436	2103.95
644.849	2081.41
645.262	2058.78
645.676	2060.92
646.089	2051.45
646.502	2020.1
646.915	2009.59
647.328	1979.38
647.741	1972.12
648.154	1946.06
648.567	1934.93
648.98	1908.69
649.393	1907.58
649.805	1899.47
650.218	1884.88
650.631	1853.85
651.043	1842.69
651.456	1831.49
651.868	1831.55
652.28	1864.48
652.693	1891.23
653.105	1905.23
653.517	1923.46
653.929	1923.91
654.341	1933.78
654.753	1909.12
655.165	1919.25
655.577	1912.71
655.989	1902.8
656.401	1887.92
656.813	1817.99
657.224	1777.57
657.636	1722.88
658.047	1686.55
658.459	1647.5
658.87	1627.52
659.282	1602.25
659.693	1558.12
660.104	1526.75
660.515	1498.01
660.926	1487.65
661.338	1476.49
661.749	1457.26
662.159	1431.81
662.57	1416.48
662.981	1399.56
663.392	1377.59
663.803	1375.77
664.213	1363.09
664.624	1346.03
665.035	1340.11
665.445	1306.95
665.855	1284.01
666.266	1260.43
666.676	1246.79
667.086	1222.82
667.497	1211.33
667.907	1192.51
668.317	1167.98
668.727	1151.09
669.137	1144.23
669.547	1130.98
669.956	1127.43
670.366	1122.16
670.776	1117.63
671.186	1116.94
671.595	1115.76
672.005	1114.26
672.414	1106.9
672.824	1098.97
673.233	1103.85
673.642	1101.49
674.052	1101.24
674.461	1099.99
674.87	1103.72
675.279	1097.68
675.688	1099.44
676.097	1097.38
676.506	1091.63
676.915	1112.27
677.323	1117.2
677.732	1115.42
678.141	1116.96
678.549	1107.25
678.958	1109.79
679.366	1113.81
679.775	1127.02
680.183	1146.42
680.592	1163.49
681	1182.29
681.408	1183.45
681.816	1207.84
682.224	1235.89
682.632	1265.97
683.04	1327.78
683.448	1385.71
683.856	1453.23
684.264	1531.53
684.671	1609.86
685.079	1703.66
685.487	1802.61
685.894	1934.34
686.302	2048.77
686.709	2144.39
687.116	2253.97
687.524	2340.95
687.931	2419.04
688.338	2485.46
688.745	2540.83
689.152	2598.16
689.559	2670.19
689.966	2739.9
690.373	2763.39
690.78	2819.36
691.187	2914.45
691.593	2978.37
692	3028.88
692.407	3108.67
692.813	3207.77
693.22	3278.06
693.626	3351.11
694.032	3398.26
694.439	3487.18
694.845	3546.86
695.251	3630.75
695.657	3696.37
696.063	3816.21
696.469	3893.76
696.875	3959.57
697.281	3979.75
697.687	4010.96
698.093	4029.56
698.498	4103.36
698.904	4152.25
699.31	4245.05
699.715	4294.75
700.12	4390.92
700.526	4376.11
700.931	4434.74
701.337	4469.91
701.742	4479.18
702.147	4561.55
702.552	4567.89
702.957	4615.57
703.362	4607.86
703.767	4613.11
704.172	4634.87
704.577	4538.29
704.981	4570.2
705.386	4562.94
705.791	4523.55
706.195	4595.52
706.6	4581.55
707.004	4659.03
707.408	4593.47
707.813	4601.71
708.217	4559.98
708.621	4538.77
709.025	4637.97
709.43	4616.03
709.834	4670.32
710.237	4736.89
710.641	4692.6
711.045	4695.78
711.449	4668.39
711.853	4680.88
712.256	4712.94
712.66	4739.57
713.064	4812.52
713.467	4843.97
713.87	4960.92
714.274	4998.57
714.677	5112.64
715.08	5290
715.484	5471.52
715.887	5692.88
716.29	5910.77
716.693	6136.63
717.096	6401.05
717.499	6533.99
717.901	6545.12
718.304	6558.24
718.707	6564.6
719.109	6425.71
719.512	6369.68
719.915	6197.46
720.317	6115.52
720.719	6151.32
721.122	6101.59
721.524	6029.33
721.926	5968.26
722.328	6068.98
722.731	6043.77
723.133	6064.11
723.535	6267.43
723.937	6276.93
724.338	6321.5
724.74	6354.17
725.142	6260.13
725.544	6250.16
725.945	6263.84
726.347	6249.7
726.748	6231.17
727.15	6234.94
727.551	6181.73
727.952	6139.94
728.354	6101.82
728.755	6095.38
729.156	6039.66
729.557	6029.93
729.958	5886.99
730.359	5823.74
730.76	5796.57
731.161	5723.63
731.562	5689.74
731.962	5688
732.363	5613.98
732.763	5537.78
733.164	5571.48
733.564	5493.99
733.965	5382.19
734.365	5338.93
734.766	5364.28
735.166	5315.76
735.566	5253.69
735.966	5221.74
736.366	5213.56
736.766	5143.63
737.166	5174.2
737.566	5123.98
737.966	5093.15
738.365	5132.02
738.765	5122.75
739.165	5036.49
739.564	5007.26
739.964	5051.6
740.363	4999.2
740.763	4991.42
741.162	4974.91
741.561	4938.53
741.96	4889.51
742.36	4906.63
742.759	4909.97
743.158	4949.09
743.557	4965.64
743.955	5005.18
744.354	4954.51
744.753	5014.67
745.152	4971.46
745.55	5028.28
745.949	5017.03
746.348	5015.22
746.746	5035.01
747.144	4992.34
747.543	4968.19
747.941	5016.99
748.339	4941.78
748.737	4933.46
749.136	4925.72
749.534	4992.84
749.932	4963.55
750.33	4988.82
750.727	5047.06
751.125	5017.01
751.523	5001.08
751.921	5045.64
752.318	5011.6
752.716	5073.82
753.113	5087.76
753.511	5110.99
753.908	5112
754.305	5094.47
754.703	5159.6
755.1	5222.06
755.497	5286.43
755.894	5484.74
756.291	5672.24
756.688	6017.47
757.085	6478.5
757.482	7126.75
757.878	7836.29
758.275	8478.85
758.672	9363.12
759.068	10085.25
759.465	11119.28
759.861	12446.02
760.258	13987.72
760.654	14791.21
761.05	14674.14
761.447	14009.34
761.843	13047.54
762.239	12048.1
762.635	11585.45
763.031	11154.04
763.427	10526.15
763.822	9867.69
764.218	9220.02
764.614	8377.87
765.01	7809.66
765.405	7442.54
765.801	7164.22
766.196	6810.03
766.592	6609.92
766.987	6279.34
767.382	6049.75
767.778	5954.41
768.173	5815.77
768.568	5737.04
768.963	5601.76
769.358	5618.42
769.753	5569.36
770.148	5480.26
770.542	5478.6
770.937	5449.44
771.332	5547.39
771.726	5571.11
772.121	5508.33
772.515	5567.79
772.91	5553.04
773.304	5631.38
773.699	5564.7
774.093	5622.93
774.487	5683.42
774.881	5726.92
775.275	5723.06
775.669	5677.13
776.063	5724.08
776.457	5764.28
776.851	5686.35
777.245	5682.47
777.638	5715.93
778.032	5837.94
778.425	5802.11
778.819	5846.65
779.212	5804.11
779.606	5762.42
779.999	5784.82
780.392	5766.05
780.786	5848.04
781.179	5870.68
781.572	5913.76
781.965	5928.73
782.358	5866.43
782.751	5925.19
783.143	5874.63
783.536	5953.57
783.929	5998.22
784.322	6118.62
784.714	6153.24
785.107	6148.92
785.499	6221.89
785.891	6197.07
786.284	6176.98
786.676	6325.12
787.068	6304.38
787.46	6357.86
787.852	6379.92
788.245	6466.25
788.636	6499.61
789.028	6567.94
789.42	6610.61
789.812	6618.63
790.204	6720.59
790.595	6825.82
790.987	6618.94
791.378	6642.15
791.77	6777.39
792.161	6913.54
792.553	6974.87
792.944	6858.02
793.335	6785.6
793.726	6863.68
794.117	6961.06
794.508	7103.4
794.899	7067.27
795.29	7214.43
795.681	7271.47
796.072	7122.41
796.463	6926.22
796.853	6935.69
797.244	7096.96
797.634	7132.24
798.025	7125.84
798.415	7136.15
798.806	7227.76
799.196	7319.04
799.586	7373.56
799.976	7334.46
800.366	7572.8
800.756	7828.43
801.146	7782.91
801.536	7808.73
801.926	7886.01
802.316	7913.13
802.706	7987.95
803.095	7863.35
803.485	7966.74
803.874	8012.08
804.264	8286.29
804.653	8261.4
805.043	8414.63
805.432	8531.32
805.821	8538.27
806.21	8563.6
806.599	8690.16
806.988	8737.13
807.377	8846.04
807.766	8984.24
808.155	9278.28
808.544	9003.99
808.933	9020.47
809.321	9000.17
809.71	9315.28
810.098	9482.71
810.487	9963.32
810.875	10469.83
811.264	10495.81
811.652	10797.81
812.04	10951.65
812.428	11122.34
812.816	11919.12
813.204	12351.08
813.592	12936.51
813.98	13283.32
814.368	13189.68
814.756	13696.45
815.144	13613.82
815.531	14102.97
815.919	14034.56
816.306	14360.99
816.694	14035.78
817.081	14092.86
817.469	14463.8
817.856	14453.1
818.243	14736.7
818.63	15145.59
819.017	14702.56
819.404	14761.04
819.791	15156.87
820.178	15803.55
820.565	16059.94
820.952	17042.08
821.339	16516.68
821.725	16707.89
822.112	15921.14
822.498	15881.11
822.885	16014.68
823.271	15915.44
823.657	16357.21
824.044	16361.97
824.43	16426.99
824.816	16387.42
825.202	15931.47
825.588	16997.52
825.974	17015.57
826.36	17568.28
826.746	17603.3
827.132	17973.08
827.517	17948.46
827.903	17129.26
828.289	17168.68
828.674	16361.72
829.06	16258.44
829.445	16668.07
829.83	17042.82
830.216	17540.1
830.601	17921.4
830.986	17488
831.371	17346.02
831.756	17922.63
832.141	17476.97
832.526	17469.01
832.911	17760.99
833.295	17637.62
833.68	18134.85
834.065	17494.25
834.449	16547.7
834.834	16470.02
835.218	16477.83
835.603	16834.23
835.987	16622.98
836.371	17495.28
836.755	17396.24
837.139	17820.9
837.524	18084.44
837.908	17900.12
838.291	17957.26
838.675	18020.34
839.059	18235.57
839.443	18219.43
839.827	17991.3
840.21	18493.15
840.594	18335.42
840.977	18548.51
841.361	18522.17
841.744	18913.29
842.127	18744.64
842.511	19009.96
842.894	19637.22
843.277	20036.46
843.66	20609.21
844.043	20696.77
844.426	19850.18
844.809	19526.69
845.191	19557.21
845.574	19083.4
845.957	18700.59
846.339	18586.39
846.722	18035.3
847.104	18108.2
847.487	17936.47
847.869	17950.48
848.252	18240.13
848.634	18586.64
849.016	18864.51
849.398	18999.12
849.78	19895.01
850.162	19902.56
850.544	20343.93
850.926	21001.77
851.307	20916.59
851.689	21207.1
852.071	21683.06
852.452	22029.7
852.834	22016.94
853.215	22439.27
853.597	22607.27
853.978	22911.39
854.359	23391.17
854.741	22349.59
855.122	22248.55
855.503	21934.49
855.884	22070.08
856.265	22006.74
856.646	22126.03
857.026	21715.19
857.407	21642.68
857.788	21805.08
858.169	22102.99
858.549	21207.82
858.93	21862.98
859.31	21913.22
859.69	22134.75
860.071	21715.16
860.451	21485.32
860.831	20702.99
861.211	21914.92
861.591	22487.89
861.971	22459.57
862.351	22668.48
862.731	23086.19
863.111	23353.86
863.491	23696.73
863.87	24611.23
864.25	24985.51
864.629	24566.36
865.009	25099.06
865.388	25985.12
865.768	27837.95
866.147	27727.11
866.526	26176.61
866.905	26477.93
867.284	27957.75
867.663	26544.57
868.042	25438.33
868.421	25342.39
868.8	25754.74
869.179	26012.66
869.558	24497.64
869.936	22581.74
870.315	22976.12
870.693	23537.86
871.072	25394.71
871.45	24195.76
871.828	24501.93
872.207	25760.67
872.585	25370.39
872.963	26058.12
873.341	25151.9
873.719	24850.45
874.097	24547.72
874.475	25019.84
874.853	25587.38
875.23	24498.19
875.608	25520.13
875.986	27600.77
876.363	26403.54
876.741	27204.13
877.118	26514.89
877.495	27812.68
877.873	28274.64
878.25	29747.8
878.627	28538.1
879.004	28955.67
879.381	28824.24
879.758	28075.02
880.135	26140.8
880.512	27643.52
880.889	26918.68
881.265	26644.98
881.642	26434.62
882.019	26874.72
882.395	26332.17
882.772	27383.73
883.148	26182.99
883.524	26079.86
883.901	25932
884.277	26312.4
884.653	26137.66
885.029	26875.47
885.405	29758.17
885.781	29512.66
886.157	28310.68
886.532	28658.16
886.908	28633.26
887.284	31853.7
887.659	32901.75
888.035	33921.78
888.411	34819.15
888.786	35284.81
889.161	36529.02
889.537	35864.25
889.912	37020.94
890.287	36975.96
890.662	37936.29
891.037	37249.98
891.412	34730.21
891.787	34378.55
892.162	33195.38
892.536	33967.05
892.911	32699.67
893.286	32006.3
893.66	30717.73
894.035	31511.21
894.409	34318.54
894.784	32954.64
895.158	33513.62
895.532	35500.25
895.906	36484.85
896.281	37328.57
896.655	36737.54
897.029	41980.35
897.402	43716.16
897.776	48662.44
898.15	48476.01
898.524	47972.12
898.898	48588.2
899.271	54396.49
899.645	47122.85
900.018	45249.4
900.392	46918.45
900.765	47308.7
901.138	43785.4
901.511	43126.12
901.884	39589.07
902.258	36534.12
902.631	37732.48
903.003	43420.35
903.376	39181.21
903.749	43912.65
904.122	46999.57
904.495	51761.28
904.867	52393.16
905.24	45464.34
905.612	42331.59
905.985	43296.92
906.357	45262.22
906.729	43206.56
907.102	36924.8
907.474	35509.3
907.846	35752.61
908.218	35291.76
908.59	31176.18
908.962	30150.03
909.334	32460.96
909.705	34091.75
910.077	33110.21
910.449	34449.76
910.82	35402.53
911.192	38928.23
911.563	40427.74
911.935	43259.11
912.306	43302
912.677	44711.16
913.048	44276.43
913.419	48042.32
913.79	48302.32
914.161	51776.56
914.532	49498.63
914.903	45508
915.274	43219.16
915.645	42570.21
916.015	37447.01
916.386	35704.12
916.756	37996.9
917.127	39180.89
917.497	34992.08
917.868	38080.23
918.238	36173.43
918.608	37210.27
918.978	37956.08
919.348	40193.47
919.718	41560.28
920.088	40046.08
920.458	41609.66
920.828	43782.54
921.198	41508.63
921.567	44348.66
921.937	34340.36
922.306	34670.67
922.676	37387.35
923.045	31196.97
923.415	29620.7
923.784	26957.94
924.153	27704.22
924.522	27674.73
924.891	26012.09
925.26	27854.69
925.629	27199.21
925.998	31264.55
926.367	30514.56
926.736	29029.85
927.104	34571.12
927.473	37189.43
927.842	44900.47
928.21	44490.47
928.578	46764.45
928.947	44256.27
929.315	44519.78
929.683	52207.81
930.051	52662.85
930.42	61151.57
930.788	52308.97
931.156	51925.32
931.523	48657.95
931.891	44977.46
932.259	43213.57
932.627	50041.86
932.994	70740.87
933.362	58450.44
933.729	50751.01
934.097	48554.19
934.464	41081.09
934.831	47432.91
935.199	46753.13
935.566	45335.74
935.933	46006.84
936.3	55685.88
936.667	43374.54
937.034	39114.87
937.401	38706.43
937.767	33418.59
938.134	29726.83
938.501	41946.75
938.867	44677.6
939.234	75531.37
939.6	64501.06
939.967	70954.25
940.333	47495.71
940.699	40443.76
941.065	32468.94
941.431	42585.32
941.798	41037.68
942.163	53960.45
942.529	33727.23
942.895	31054.31
943.261	20094.02
943.627	26336.7
943.992	23066.88
944.358	23087.6
944.723	23140.34
945.089	22581.44
945.454	20865.38
945.82	22287.42
946.185	21413.79
946.55	24807.28
946.915	22260.65
947.28	26111.06
947.645	22998.9
948.01	21214.35
948.375	22138.06
948.74	26533.16
949.104	30929.25
949.469	44698.28
949.834	79007.16
950.198	74842.5
950.562	44830.82
950.927	37311.4
951.291	44876.07
951.655	38246.68
952.02	35953.57
952.384	27183.9
952.748	23689.3
953.112	23079.43
953.476	20055.03
953.839	18521.95
954.203	18325.22
954.567	22911.65
954.931	36071.27
955.294	30867.03
955.658	31031.11
956.021	52775.63
956.385	89521.79
956.748	132041.05
957.111	204980.22
957.474	230139.22
957.837	259267.1
958.2	196374.08
958.563	70736.52
958.926	47857.48
959.289	72715.85
959.652	81293.54
960.015	60981.41
960.377	87512.01
960.74	99913.07
961.102	172671.5
961.465	185403.7
961.827	99285.15
962.189	190572.69
962.552	132039.83
962.914	105902.39
963.276	68621.63
963.638	56674.29
964	56122.13
964.362	37915.57
964.724	36668.94
965.085	26129.75
965.447	21413.83
965.809	24440.81
966.17	24470.59
966.532	26488.6
966.893	24316.21
967.255	22142
967.616	26144.88
967.977	20930.14
968.338	22874.92
968.699	18799.48
969.061	18806.77
969.421	18943.8
969.782	21250.89
970.143	17950.98
970.504	18583.71
970.865	21111.62
971.225	21567.97
971.586	21112.89
971.946	30109.56
972.307	26137.26
972.667	34166.55
973.027	35158.55
973.388	42603.72
973.748	28972.1
974.108	31530.52
974.468	42658.17
974.828	32873.75
975.188	25310.44
975.548	23227.54
975.907	19502.11
976.267	21869.58
976.627	18378.06
976.986	19070.34
977.346	18172.72
977.705	17497.24
978.064	15961.31
978.424	13294.36
978.783	13762.26
979.142	15706.55
979.501	15029.84
979.86	15885.88
980.219	15309.08
980.578	19735.84
980.937	22099.99
981.296	19724.66
981.654	20274.4
982.013	31542.41
982.371	40885.46
982.73	38188.36
983.088	43274.18
983.447	46251.84
983.805	66066.88
984.163	137936.65
984.521	152987.43
984.879	224302.87
985.237	-364388.45
985.595	351413.91
985.953	87259.11
986.311	50407.72
986.669	29271.2
987.026	25266.52
987.384	33947.06
987.741	35154.73
988.099	25130
988.456	20035.24
988.814	18728.64
989.171	16306.35
989.528	16088.92
989.885	16982.66
990.242	13434.23
990.599	16746.33
990.956	13694.3
991.313	9582.95
991.67	7854.22
992.027	8319.55
992.383	7399.28
992.74	6498.08
993.096	6807.15
993.453	7059.33
993.809	7326.79
994.165	9776.57
994.522	8936.34
994.878	9847.79
995.234	12357.57
995.59	12182.66
995.946	11558.28
996.302	13174.21
996.658	15231.27
997.013	16807.39
997.369	19920.98
997.725	25523.77
998.08	16556.26
998.436	25591.42
998.791	35381.91
999.147	35363.17
999.502	38646.91
999.857	28089.86
1000.212	45893.13
1000.567	65439.5
1000.922	37747.2
1001.277	23949.59
1001.632	17716.32
1001.987	22803.19
1002.342	16326.83
1002.696	13042.32
1003.051	10391.97
1003.406	12566.99
1003.76	12517.34
1004.114	12318.65
1004.469	10359.98
1004.823	8567.14
1005.177	9273.74
1005.531	7366.32
1005.885	6526.28
1006.239	7374.75
1006.593	9246.37
1006.947	12373.54
1007.301	9274.53
1007.655	10106.56
1008.008	7412.17
1008.362	8310.52
1008.715	11881.66
1009.069	10792.5
1009.422	16188.54
1009.776	32452.43
1010.129	21504.5
1010.482	17959.1
1010.835	15213.85
1011.188	31789.42
1011.541	29930.84
1011.894	-182908.51
1012.247	537784.37
1012.6	36495.25
1012.952	23026.48
1013.305	11903.4
1013.657	8601.51
1014.01	8131.5
1014.362	6703.09
1014.715	5932.66
1015.067	5161.69
1015.419	5037.13
1015.771	4474.23
1016.123	3980.91
1016.475	4095.81
1016.827	4361.49
1017.179	4703.14
1017.531	4736.77
1017.883	4855.52
1018.234	4676.02
1018.586	5920.49
1018.938	6241.26
1019.289	8601.98
1019.64	9810.03
1019.992	9164.42
1020.343	8414.6
1020.694	6630.36
1021.045	5841.28
1021.396	6665.95
1021.747	7160.22
1022.098	8622.63
1022.449	6250.36
1022.8	5841.78
1023.151	4084.98
1023.501	3622.85
1023.852	3929.58
1024.202	4071.93
1024.553	4486.25
1024.903	4379.7
1025.253	3738.56
1025.604	3370.97
1025.954	4189.41
1026.304	5098.52
1026.654	5934.6
1027.004	8676.84
1027.354	14145.23
1027.703	13361.29
1028.053	17591.5
1028.403	25685.15
1028.753	37486.98
1029.102	51145.98
1029.452	261727.31
1029.801	11257.73
1030.15	7306.93
1030.499	6196.69
897.758	2263.38
901.051	2199.29
904.343	2235.11
907.636	2242.3
910.928	2303.42
914.22	2222.78
917.511	2226.13
920.803	2279.27
924.094	2280.56
927.384	2278.11
930.675	2243.95
933.965	2205.57
937.255	2234.61
940.544	2199.49
943.834	2196.89
947.123	2135.88
950.411	2224.72
953.7	2204.82
956.988	2185.75
960.276	2123.93
963.563	2177.62
966.851	2186.62
970.138	2230.75
973.424	2229.43
976.711	2183.53
979.997	2237.05
983.283	2282.45
986.568	2209.87
989.853	2204.63
993.138	2232.35
996.423	2317.23
999.708	2268.43
1002.992	2300.12
1006.275	2206.71
1009.559	2216.2
1012.842	2316.85
1016.125	2265.61
1019.408	2244.95
1022.69	2305.44
1025.972	2336.58
1029.254	2309.63
1032.536	2265.99
1035.817	2281.07
1039.098	2249.65
1042.379	2310.81
1045.659	2337.12
1048.939	2282.72
1052.219	2290.5
1055.498	2288.45
1058.778	2284.83
1062.057	2261.31
1065.335	2285.08
1068.614	2300.29
1071.892	2294.24
1075.17	2350.57
1078.447	2351.59
1081.724	2344.79
1085.001	2373.78
1088.278	2351.12
1091.554	2356.32
1094.83	2350.73
1098.106	2387.95
1101.382	2419.88
1104.657	2418.19
1107.932	2417.78
1111.206	2394.87
1114.481	2350.18
1117.755	2350.02
1121.029	2339.37
1124.302	2400.57
1127.575	2366.39
1130.848	2360.24
1134.121	2327.15
1137.393	2289.15
1140.665	2350.24
1143.937	2326.18
1147.208	2276.49
1150.48	2331.05
1153.75	2321.99
1157.021	2329.14
1160.291	2305.42
1163.561	2356
1166.831	2329.91
1170.101	2356.78
1173.37	2318.15
1176.639	2270.65
1179.907	2320.37
1183.176	2341.6
1186.444	2342.44
1189.711	2367.92
1192.979	2389.8
1196.246	2342.16
1199.513	2357.46
1202.78	2360.56
1206.046	2369.65
1209.312	2396.44
1212.578	2415.41
1215.843	2379.87
1219.108	2345.06
1222.373	2371.23
1225.638	2342.1
1228.902	2334.04
1232.166	2294.82
1235.43	2280.49
1238.693	2303.16
1241.956	2297.01
1245.219	2345.01
1248.482	2328.01
1251.744	2325.89
1255.006	2454.73
1258.268	2402.88
1261.529	2355.47
1264.79	2354.43
1268.051	2454.86
1271.312	2466.51
1274.572	2437.03
1277.832	2421.85
1281.092	2405.38
1284.351	2394.72
1287.61	2377.73
1290.869	2311.78
1294.128	2303.82
1297.386	2357.21
1300.644	2351.41
1303.902	2360.44
1307.159	2225.7
1310.416	2278.73
1313.673	2308.8
1316.93	2304.52
1320.186	2337.21
1323.442	2371.66
1326.697	2368.58
1329.953	2344.56
1333.208	2379.01
1336.463	2354.69
1339.717	2311.42
1342.972	2422.59
1346.226	2395.99
1349.479	2342.48
1352.733	2319.76
1355.986	2327.26
1359.238	2307.53
1362.491	2315.7
1365.743	2316.6
1368.995	2310.33
1372.247	2321.5
1375.498	2343.72
1378.749	2380.75
1382	2332.14
1385.251	2372.17
1388.501	2326.49
1391.751	2324.65
1395	2290.65
1398.25	2314.79
1401.499	2337.93
1404.748	2282.51
1407.996	2262.79
1411.244	2251.16
1414.492	2235.63
1417.74	2216.87
1420.987	2222.56
1424.234	2279.73
1427.481	2247.78
1430.728	2304.38
1433.974	2281.03
1437.22	2280.05
1440.465	2279.27
1443.711	2272.48
1446.956	2296.48
1450.201	2270.95
1453.445	2315.52
1456.689	2301.02
1459.933	2315.4
1463.177	2351.62
1466.42	2325.87
1469.663	2307.3
1472.906	2318.29
1476.148	2367.51
1479.391	2349.27
1482.633	2322.97
1485.874	2346.08
1489.115	2348.57
1492.356	2335.59
1495.597	2312.37
1498.838	2309.24
1502.078	2291.98
1505.318	2260.72
1508.557	2296.74
1511.797	2294.07
1515.036	2331.69
1518.274	2307.11
1521.513	2265.63
1524.751	2278.06
1527.989	2302.99
1531.227	2319.41
1534.464	2328.69
1537.701	2326.97
1540.938	2341.07
1544.174	2289.62
1547.41	2279.49
1550.646	2316.55
1553.882	2366.47
1557.117	2421.73
1560.352	2431.44
1563.587	2391.24
1566.821	2357.75
1570.055	2377.2
1573.289	2358.72
1576.523	2419.35
1579.756	2432.11
1582.989	2454.5
1586.222	2414.87
1589.454	2447.26
1592.686	2427.97
1595.918	2455.08
1599.15	2451.13
1602.381	2503.17
1605.612	2479.38
1608.843	2572.78
1612.073	2494.03
1615.303	2482.21
1618.533	2479.08
1621.762	2479.9
1624.992	2451.76
1628.221	2455.27
1631.449	2441.15
1634.678	2475.61
1637.906	2439.33
1641.134	2469.98
1644.361	2431.64
1647.588	2419.54
1650.815	2440.47
1654.042	2405.97
1657.269	2434.23
1660.495	2409.6
1663.72	2399.8
1666.946	2369.83
1670.171	2336.22
1673.396	2312.68
1676.621	2292.56
1679.845	2294.68
1683.069	2304.22
1686.293	2336.13
1689.517	2323.59
1692.74	2272.81
1695.963	2294.77
1699.185	2332.52
1702.408	2303.89
1705.63	2335.25
1708.852	2349.46
1712.073	2324.74
1715.294	2330.29
1718.515	2375.78
1721.736	2332.89
1724.956	2315.45
1728.176	2335.66
1731.396	2359.31
1734.616	2343.21
1737.835	2379.98
1741.054	2352.02
1744.272	2344.43
1747.491	2381.57
1750.709	2410.23
1753.927	2352.2
1757.144	2379.63
1760.361	2433.83
1763.578	2413.42
1766.795	2362.31
1770.011	2354.16
1773.227	2382.38
1776.443	2422.05
1779.658	2465.87
1782.874	2403.64
1786.089	2394.47
1789.303	2397.71
1792.518	2396.66
1795.732	2383.46
1798.945	2398.19
1802.159	2438.84
1805.372	2375.77
1808.585	2367.59
1811.797	2368.31
1815.01	2392.7
1818.222	2414.2
1821.434	2377.86
1824.645	2421.35
1827.856	2427.79
1831.067	2459.6
1834.278	2398.85
1837.488	2384.57
1840.698	2510.44
1843.908	2448.75
1847.117	2416.45
1850.326	2335.76
1853.535	2402.96
1856.744	2433.97
1859.952	2355.73
1863.16	2356.39
1866.368	2371
1869.575	2481.67
1872.782	2366.03
1875.989	2298.76
1879.196	2354.97
1882.402	2344.78
1885.608	2381.26
1888.814	2315.7
1892.019	2220.76
1895.224	2271.95
1898.429	2241.83
1901.634	2223.7
1904.838	2198.78
1908.042	2253.01
1911.246	2266.79
1914.449	2223.19
1917.652	2208.61
1920.855	2186.13
1924.058	2218.13
1927.26	2261.64
1930.462	2283.16
1933.664	2318.8
1936.865	2262.61
1940.066	2278.43
1943.267	2222.22
1946.467	2232.97
1949.668	2251.82
1952.868	2322.13
1956.067	2312.12
1959.267	2248.74
1962.466	2272.75
1965.665	2257.1
1968.863	2249.76
1972.061	2254.26
1975.259	2248.92
1978.457	2326.65
1981.654	2283.93
1984.852	2289.61
1988.048	2238.36
1991.245	2229.74
1994.441	2316.55
1997.637	2278.46
2000.833	2262.39
2004.028	2297.75
2007.223	2360.26
2010.418	2345.16
2013.613	2296.63
2016.807	2288.77
2020.001	2281.87
2023.194	2308.26
2026.388	2292.46
2029.581	2235.32
2032.774	2297.69
2035.966	2305.91
2039.158	2252.63
2042.35	2269.64
2045.542	2197.74
2048.733	2283.88
2051.924	2280.08
2055.115	2300.25
2058.306	2262.17
2061.496	2317.82
2064.686	2370.53
2067.875	2278.5
2071.065	2281.92
2074.254	2301.05
2077.442	2256.84
2080.631	2341
2083.819	2264.21
2087.007	2257.25
2090.195	2237.6
2093.382	2256.23
2096.569	2237.89
2099.756	2198.85
2102.942	2243.31
2106.128	2256.32
2109.314	2244.72
2112.5	2225.89
2115.685	2195.47
2118.87	2203.74
2122.055	2263.81
2125.239	2242.78
2128.424	2228.57
2131.608	2295.27
2134.791	2279.35
2137.974	2319.49
2141.157	2308.99
2144.34	2277.68
2147.523	2272.78
2150.705	2295.82
2153.887	2267.23
2157.068	2236.48
2160.25	2222.9
2163.431	2245.44
2166.611	2212.37
2169.792	2231.76
2172.972	2140.04
2176.152	2195.22
2179.331	2222.97
2182.511	2223.17
2185.69	2245.93
2188.868	2246.75
2192.047	2284.46
2195.225	2295.59
2198.403	2248.78
2201.58	2234.33
2204.758	2223.91
2207.935	2300.99
2211.111	2212.02
2214.288	2200.68
2217.464	2234.03
2220.64	2193.64
2223.815	2245.14
2226.991	2177.2
2230.166	2192.96
2233.34	2229.75
2236.515	2245.66
2239.689	2311.34
2242.863	2258.64
2246.036	2313.86
2249.209	2297.65
2252.382	2318.7
2255.555	2323.56
2258.727	2271.76
2261.9	2304.17
2265.071	2295.47
2268.243	2294.98
2271.414	2241.05
2274.585	2220.71
2277.756	2282.53
2280.926	2234.08
2284.096	2266.07
2287.266	2195.31
2290.436	2241.67
2293.605	2262.84
2296.774	2296.94
2299.942	2303.25
2303.111	2318.79
2306.279	2370.14
2309.447	2355.22
2312.614	2327.8
2315.781	2354.59
2318.948	2331.06
2322.115	2365.88
2325.281	2268.5
2328.447	2276.36
2331.613	2247.16
2334.779	2236.5
2337.944	2234.31
2341.109	2235.26
2344.274	2223.93
2347.438	2191.54
2350.602	2213.82
2353.766	2223.24
2356.929	2212.31
2360.092	2248.82
2363.255	2217.57
2366.418	2178.61
2369.58	2251.47
2372.742	2113.25
2375.904	2111.24
2379.066	2094.3
2382.227	2121.54
2385.388	2080.66
2388.548	2029.56
2391.709	2074.23
2394.869	2059.3
2398.029	2121.52
2401.188	2119.76
2404.347	2079.81
2407.506	2169.93
2410.665	2203.8
2413.823	2193.76
2416.981	2168.27
2420.139	2188.62
2423.296	2231.83
2426.453	2201.88
2429.61	2224.14
2432.767	2188.6
2435.923	2229.56
2439.079	2179.28
2442.235	2215.95
2445.391	2156.77
2448.546	2196.11
2451.701	2234
2454.855	2226.38
2458.009	2255.57
2461.163	2247.07
2464.317	2220.86
2467.471	2246.63
2470.624	2277.17
2473.777	2261.89
2476.929	2277.36
2480.082	2300.21
2483.234	2271.91
2486.385	2212.83
2489.537	2208.46
2492.688	2194.74
2495.839	2213.2
2498.989	2225.16
2502.14	2213.91
2505.29	2201.87
2508.439	2227.75
2511.589	2164.07
2514.738	2167.37
2517.887	2192.94
2521.035	2267.89
2524.183	2231.69
2527.331	2218.06
2530.479	2208.23
2533.627	2212.46
