Data from C_2_DIV_IL_4N_Splice17_12-36-35-352.txt Node
Date: Sat Mar 14 12:36:35 EDT 2020
User: sa697716
Spectrometer: FLMS03696
Trigger mode: 0
Integration Time (sec): 3.180400E-1
Scans to average: 20
Electric dark correction enabled: true
Nonlinearity correction enabled: true
Boxcar width: 5
XAxis mode: Wavelengths
Number of Pixels in Spectrum: 2048
>>>>>Begin Spectral Data<<<<<
187.83	-387422.33
188.298	2864.94
188.766	1499.69
189.233	1295.72
189.701	1763.97
190.169	2449.04
190.636	945.9
191.104	824.37
191.571	189.25
192.039	-35.72
192.506	-27.65
192.974	594.46
193.441	-840.56
193.908	-165.46
194.375	-66.5
194.842	-21.96
195.31	107.21
195.777	180.04
196.244	438.08
196.711	560.26
197.177	685.2
197.644	956.08
198.111	1674.54
198.578	2342.58
199.045	1872.33
199.511	3055.53
199.978	3550.41
200.445	2999.5
200.911	3325.69
201.378	3714.71
201.844	3340.98
202.31	5725.91
202.777	6008.63
203.243	3355.4
203.709	3205.3
204.176	3817.44
204.642	3161.36
205.108	2979.85
205.574	2440.16
206.04	2237.95
206.506	2107.58
206.972	2009.48
207.438	1960.89
207.903	2244.8
208.369	1971.63
208.835	1963.88
209.301	2064.57
209.766	2120.76
210.232	2114.1
210.697	2660.23
211.163	3315.55
211.628	5075.49
212.094	4307.62
212.559	5351.34
213.024	3363.09
213.49	4132.19
213.955	4096.76
214.42	4062.11
214.885	3803.74
215.35	3688.17
215.815	3549.32
216.28	3811.11
216.745	3159.37
217.21	3476.18
217.675	3277.39
218.14	3813.84
218.604	4416.44
219.069	5222.28
219.534	5634.89
219.998	6785.85
220.463	8455.82
220.927	10752.06
221.392	10341.4
221.856	10638.7
222.32	13662.16
222.785	17064.71
223.249	21696.33
223.713	24432.37
224.177	24608.17
224.642	31831.56
225.106	39376.36
225.57	43198.01
226.034	32121.25
226.497	49024.83
226.961	44338.16
227.425	51670.87
227.889	57507.53
228.353	57597.87
228.816	119072.21
229.28	113969.17
229.744	96147.68
230.207	58337.31
230.671	57428.45
231.134	95269.7
231.597	109811.87
232.061	109836.23
232.524	107178.19
232.987	73727
233.45	66300.5
233.914	59429.75
234.377	60913.53
234.84	55720.22
235.303	65733.6
235.766	73302.26
236.229	75713.52
236.691	47632.35
237.154	53507.8
237.617	40220.77
238.08	41203.69
238.542	48203.42
239.005	34421.39
239.468	34098.87
239.93	32126.06
240.393	29162.29
240.855	25565.56
241.317	26143.15
241.78	31830.11
242.242	32868.92
242.704	35422.26
243.166	30782.44
243.629	27884.02
244.091	32085.67
244.553	35146.26
245.015	37681.22
245.477	48728.03
245.939	71401.47
246.4	75656.67
246.862	73394.73
247.324	69125.45
247.786	77353.5
248.247	101406.58
248.709	104717.91
249.17	78292.07
249.632	73618.68
250.093	85223.77
250.555	73531.47
251.016	44760.23
251.477	42417.35
251.939	45743.63
252.4	47928.85
252.861	56944.06
253.322	52811.86
253.783	62850.03
254.244	81372.55
254.705	64098.95
255.166	56980.1
255.627	55973.35
256.088	78802.66
256.549	83624.6
257.009	71887.34
257.47	87107.13
257.931	70819.08
258.391	53054.99
258.852	54604.84
259.312	57191.28
259.773	70639.44
260.233	59600.5
260.694	50249.31
261.154	56970.1
261.614	45619.94
262.074	40797.51
262.534	42334.15
262.994	39840.26
263.455	53074.09
263.915	44678.61
264.374	42082.78
264.834	45880.24
265.294	50828.4
265.754	52586.27
266.214	49768.14
266.673	46641.55
267.133	58823.28
267.593	58345.68
268.052	71353.65
268.512	62032.08
268.971	74690.34
269.431	81842.57
269.89	73298.13
270.349	109852.73
270.809	122421.57
271.268	109942.17
271.727	246530.31
272.186	159566.38
272.645	119636.88
273.104	86292.51
273.563	124833
274.022	98184.09
274.481	83452.2
274.94	64218.52
275.399	47714.08
275.857	55592.77
276.316	75177.75
276.775	66838.69
277.233	65788.84
277.692	61510.58
278.15	69568.39
278.609	71447.19
279.067	66047.26
279.525	61292.67
279.984	79105.84
280.442	94955.92
280.9	93343.39
281.358	61334.74
281.816	57098.62
282.274	55863.69
282.732	57718.12
283.19	57920.93
283.648	49993.12
284.106	53229.88
284.564	54092.78
285.021	50100.82
285.479	37309.19
285.937	33939.09
286.394	29734.41
286.852	30586.68
287.309	32098.45
287.767	30929.52
288.224	29361.65
288.682	32169.67
289.139	35238.26
289.596	32193.55
290.053	33412.12
290.511	42116.2
290.968	50981.34
291.425	69190.36
291.882	57450.48
292.339	49935.61
292.796	49528.53
293.252	46663.21
293.709	37018.59
294.166	33188.45
294.623	36683.39
295.079	35198.52
295.536	35342.6
295.992	32084.53
296.449	31688.17
296.905	32869.15
297.362	31494.76
297.818	33163.76
298.274	34366.96
298.731	35000.12
299.187	34611.48
299.643	37117.58
300.099	44829.88
300.555	49117.58
301.011	40996.04
301.467	39430.75
301.923	46240.14
302.379	45106.99
302.835	44192.99
303.291	44195.04
303.746	50263.8
304.202	63407.96
304.658	63617.74
305.113	42766.64
305.569	41850.94
306.024	44602.28
306.479	42497.06
306.935	35768.73
307.39	39044.23
307.845	36051.78
308.301	36255.09
308.756	35293.69
309.211	33965.45
309.666	34766.18
310.121	43114.12
310.576	43773.35
311.031	43435.22
311.486	49706.89
311.94	49638.53
312.395	66351.52
312.85	124629.2
313.305	611978.28
313.759	3164219.46
314.214	229016.36
314.668	181218.58
315.123	152198.19
315.577	54451.41
316.032	48360.99
316.486	60552.11
316.94	47702.06
317.394	33166.28
317.849	25729.61
318.303	24361.74
318.757	22948.93
319.211	25358.63
319.665	22199.85
320.119	22450.22
320.572	32209.98
321.026	30026.78
321.48	24984.48
321.934	27255.07
322.387	27304.73
322.841	29477.49
323.295	26419.5
323.748	30484.23
324.202	30907.42
324.655	37062.22
325.108	51761.23
325.562	36517.14
326.015	43427.31
326.468	32788.58
326.921	36633.69
327.374	34129.35
327.827	35446.6
328.28	40153.42
328.733	26834.82
329.186	23587.63
329.639	22476.98
330.092	18922.6
330.545	18016.45
330.997	18151.77
331.45	19814.13
331.903	23177.07
332.355	39893.29
332.808	38804.77
333.26	31989.96
333.713	34694.91
334.165	34903.26
334.617	46546.31
335.069	37594.88
335.522	67874.57
335.974	75108.43
336.426	68516.43
336.878	47450.9
337.33	24007.35
337.782	23432.6
338.234	29287.19
338.686	35085.46
339.137	41558.97
339.589	39090.89
340.041	30620.46
340.493	26297.82
340.944	26903.53
341.396	28973.86
341.847	24338.22
342.299	28662.92
342.75	34944.54
343.201	30585.03
343.653	35124.6
344.104	43173.27
344.555	33975.51
345.006	52893.65
345.457	40483.23
345.908	32158.96
346.359	30226.97
346.81	24613.57
347.261	25947.75
347.712	25552.31
348.163	27357.83
348.613	27682.86
349.064	25832.04
349.515	22607.15
349.965	23165.19
350.416	27877.16
350.866	30582.98
351.317	34597.34
351.767	57242.78
352.217	72388.95
352.668	60047.71
353.118	54994.2
353.568	53066.91
354.018	41943.38
354.468	44213.12
354.918	31718.62
355.368	27742.17
355.818	39179.43
356.268	112727.9
356.718	471854.83
357.168	117261.29
357.617	58842.29
358.067	65387.19
358.517	61159.89
358.966	71636.33
359.416	80260.13
359.865	86603.07
360.315	103138.89
360.764	48123.76
361.213	26917.38
361.663	25504.18
362.112	31457.56
362.561	50734.75
363.01	38299.36
363.459	32187.11
363.908	34825.97
364.357	29510.15
364.806	49800.88
365.255	34180.61
365.703	31230.19
366.152	31253.79
366.601	25330.11
367.05	20536.86
367.498	18658.56
367.947	19469.37
368.395	20270.26
368.844	17897.42
369.292	21588.17
369.74	14903.16
370.189	22818.29
370.637	26750.57
371.085	23041.28
371.533	27995.49
371.981	26958.86
372.429	25628.09
372.877	26658.58
373.325	22259.6
373.773	22718.23
374.221	20233.91
374.669	25055.31
375.116	21654.63
375.564	21824.59
376.012	24434.47
376.459	20099.76
376.907	23989.93
377.354	29005.35
377.801	27026.45
378.249	31048.97
378.696	39583.14
379.143	47862.76
379.591	51009.02
380.038	86232.2
380.485	62197.27
380.932	67001.89
381.379	61253.16
381.826	45085.31
382.273	32022.72
382.72	27957.17
383.166	27149.64
383.613	17605.16
384.06	15857.15
384.506	18342.56
384.953	13456.39
385.4	13533.29
385.846	11847.73
386.292	11562.78
386.739	11298.61
387.185	11158.35
387.631	11160.65
388.078	10828.95
388.524	11559.91
388.97	10662.59
389.416	8875.45
389.862	9414.95
390.308	8908.41
390.754	9028.03
391.2	9784.59
391.645	10019.44
392.091	9566.91
392.537	9232.06
392.983	9258.89
393.428	9099.72
393.874	9748.01
394.319	9767.08
394.765	9245.04
395.21	9498.52
395.655	8897.44
396.101	8319.48
396.546	7501.06
396.991	7573.63
397.436	7033.58
397.881	6781.89
398.326	6426.74
398.771	6067.22
399.216	5308.1
399.661	4781.02
400.106	4761.91
400.551	4871.94
400.995	4365.39
401.44	4309.31
401.885	4045.86
402.329	4080.76
402.774	3907.53
403.218	3771.78
403.663	3633.94
404.107	3728.48
404.551	3755.67
404.995	3440.21
405.44	3314.33
405.884	3361
406.328	3252.44
406.772	3239.29
407.216	2950.26
407.66	2850.59
408.104	2708.83
408.547	2534.64
408.991	2451.08
409.435	2357.13
409.879	2323.28
410.322	2292.14
410.766	2207
411.209	2095.93
411.653	2009.4
412.096	1962.84
412.54	1962.09
412.983	1946.77
413.426	1949.49
413.869	1949.25
414.312	1911.36
414.756	1840.05
415.199	1752.69
415.642	1707.69
416.085	1710.67
416.527	1698.38
416.97	1727.64
417.413	1638.11
417.856	1621.36
418.298	1602.89
418.741	1592.86
419.184	1588.15
419.626	1652.8
420.069	1651.9
420.511	1659.27
420.953	1622.3
421.396	1606.32
421.838	1562.41
422.28	1600.93
422.722	1606.43
423.164	1632.08
423.606	1602.32
424.048	1600.71
424.49	1519.03
424.932	1514.05
425.374	1493.19
425.816	1516.26
426.258	1543.06
426.699	1560.3
427.141	1533.08
427.582	1557.2
428.024	1549.09
428.465	1541.03
428.907	1501.97
429.348	1485.37
429.789	1483.11
430.231	1450.92
430.672	1472.58
431.113	1439.43
431.554	1419.75
431.995	1384.06
432.436	1335.33
432.877	1303.59
433.318	1277.36
433.759	1271.52
434.2	1272.03
434.64	1258.12
435.081	1260.19
435.522	1193.45
435.962	1149.95
436.403	1124.94
436.843	1141.43
437.284	1115.27
437.724	1084.79
438.164	1088.96
438.604	1064.5
439.045	1021.86
439.485	978.22
439.925	956.63
440.365	931.92
440.805	919.49
441.245	905.5
441.685	870.81
442.125	864.93
442.564	870.49
443.004	850.82
443.444	848.36
443.883	850.58
444.323	845.62
444.762	847.02
445.202	857.1
445.641	873.64
446.081	870.2
446.52	877.86
446.959	867.82
447.398	847.12
447.837	836.56
448.276	820.55
448.716	826.42
449.154	831.81
449.593	813.32
450.032	810.98
450.471	793.45
450.91	792.9
451.349	790.6
451.787	786.48
452.226	798.21
452.664	798.59
453.103	800.37
453.541	800.14
453.98	799.63
454.418	802.9
454.856	790.74
455.295	789.33
455.733	795.7
456.171	800.18
456.609	802.81
457.047	801.82
457.485	813.1
457.923	812.98
458.361	801.6
458.798	802.76
459.236	802.04
459.674	807.57
460.111	810.96
460.549	802.84
460.987	799.49
461.424	795.77
461.862	790.37
462.299	776.96
462.736	776.51
463.173	779.35
463.611	771.68
464.048	769.02
464.485	774.55
464.922	767.95
465.359	762.82
465.796	753.47
466.233	747.96
466.67	742.04
467.106	741.16
467.543	734.69
467.98	725.2
468.416	706.13
468.853	699.64
469.29	678.84
469.726	670.51
470.162	653.6
470.599	644.33
471.035	638.29
471.471	622.77
471.907	618.14
472.344	613.5
472.78	614.53
473.216	621.92
473.652	615.88
474.088	614.04
474.523	611.64
474.959	616.93
475.395	611.31
475.831	607.55
476.266	610.61
476.702	608.95
477.138	601.69
477.573	599.28
478.008	596.05
478.444	597.78
478.879	602.42
479.314	605.34
479.75	604.78
480.185	606.73
480.62	610.45
481.055	612.35
481.49	616.66
481.925	624.77
482.36	636.03
482.795	653.44
483.229	670.01
483.664	683.85
484.099	686.16
484.534	695.65
484.968	701.96
485.403	704.33
485.837	703.57
486.271	701.49
486.706	702.88
487.14	694.54
487.574	683.37
488.009	677.03
488.443	670.03
488.877	675.69
489.311	678.53
489.745	685.76
490.179	692.02
490.613	704.28
491.046	708.83
491.48	712.68
491.914	711.88
492.348	716.5
492.781	719.52
493.215	720.8
493.648	721.34
494.082	725.18
494.515	724.31
494.948	730.9
495.382	734.72
495.815	739.31
496.248	744.15
496.681	757.36
497.114	768.31
497.547	778.37
497.98	791.33
498.413	796.94
498.846	805.67
499.279	814.78
499.711	818.36
500.144	819.73
500.577	829.63
501.009	840.13
501.442	848.22
501.874	849.03
502.306	851.04
502.739	858.05
503.171	872.95
503.603	875.61
504.036	884.6
504.468	890.71
504.9	902.25
505.332	909.45
505.764	914.33
506.196	922.01
506.627	937.07
507.059	950.39
507.491	958.91
507.923	957.08
508.354	973.4
508.786	984.36
509.217	1002.15
509.649	1018.51
510.08	1037.23
510.512	1054.47
510.943	1070.12
511.374	1081.94
511.805	1103.63
512.237	1123.53
512.668	1157.12
513.099	1185.5
513.53	1214.9
513.961	1238.69
514.391	1271.7
514.822	1307.46
515.253	1345.99
515.684	1375.14
516.114	1407.79
516.545	1430.86
516.975	1461.57
517.406	1482.26
517.836	1486.58
518.267	1495.42
518.697	1515.98
519.127	1522.78
519.558	1532.71
519.988	1538.45
520.418	1550.57
520.848	1570.67
521.278	1582.85
521.708	1592.25
522.138	1607.87
522.567	1643.02
522.997	1671.25
523.427	1688.71
523.857	1708.43
524.286	1720.93
524.716	1739.52
525.145	1762.16
525.575	1775.6
526.004	1792.01
526.433	1798.71
526.863	1801.32
527.292	1793.03
527.721	1800.91
528.15	1807.97
528.579	1810.82
529.008	1824.99
529.437	1850.99
529.866	1866.33
530.295	1886.43
530.724	1902.45
531.152	1931.35
531.581	1947.92
532.01	1967.55
532.438	1977.94
532.867	1996.31
533.295	2017.78
533.723	2024.32
534.152	2021.99
534.58	2022.85
535.008	2005.89
535.436	2008.24
535.865	2018.17
536.293	2035.95
536.721	2053.92
537.149	2082.44
537.576	2084.94
538.004	2099.23
538.432	2109.29
538.86	2107.77
539.287	2116.33
539.715	2132.84
540.143	2137.31
540.57	2134.48
540.998	2128.31
541.425	2102.9
541.852	2079.5
542.28	2079.1
542.707	2061.45
543.134	2045.71
543.561	2043.11
543.988	2035.18
544.415	2036.03
544.842	2029.37
545.269	2021.06
545.696	2023.84
546.123	2039.19
546.549	2029.05
546.976	2014.29
547.403	2013.34
547.829	2015.46
548.256	2016.7
548.682	2012.13
549.108	2001.64
549.535	1999.95
549.961	2002.06
550.387	1988.47
550.813	1981.91
551.24	1988.85
551.666	1990.7
552.092	1981.04
552.518	1974.67
552.943	1967.26
553.369	1976.26
553.795	1983.91
554.221	1986.36
554.646	1982.61
555.072	1994.09
555.498	1999.92
555.923	2008.74
556.349	2026.19
556.774	2036.3
557.199	2037.2
557.625	2045.15
558.05	2037.57
558.475	2048.51
558.9	2046.76
559.325	2037.61
559.75	2030.28
560.175	2022.97
560.6	2016.55
561.025	2012.24
561.449	2012.44
561.874	2019.15
562.299	2023.09
562.723	2031.36
563.148	2020.18
563.572	2023.62
563.997	2034.62
564.421	2039.34
564.846	2038.89
565.27	2041.66
565.694	2039.01
566.118	2051.22
566.542	2057.66
566.966	2049.78
567.39	2043.62
567.814	2029.26
568.238	2028.26
568.662	2033.43
569.086	2036.17
569.509	2043.55
569.933	2026.3
570.357	2016.78
570.78	1992.82
571.204	1978.42
571.627	1966.44
572.05	1964
572.474	1963.68
572.897	1950.41
573.32	1940.72
573.743	1929.84
574.166	1909.71
574.589	1908.87
575.012	1900.94
575.435	1898.09
575.858	1887.52
576.281	1874.72
576.704	1856.35
577.126	1841.97
577.549	1829.04
577.972	1817.98
578.394	1805.57
578.817	1796.94
579.239	1776.09
579.661	1760.18
580.084	1743.09
580.506	1727.4
580.928	1722.44
581.35	1710.96
581.772	1707.12
582.194	1691.98
582.616	1677.37
583.038	1660.72
583.46	1648.52
583.882	1645.34
584.303	1650.01
584.725	1644.55
585.147	1646.87
585.568	1657.96
585.99	1670.63
586.411	1676.93
586.833	1692.61
587.254	1692.84
587.675	1709.19
588.096	1722.94
588.518	1716.15
588.939	1697.23
589.36	1695.58
589.781	1684.08
590.202	1652.56
590.623	1643.34
591.043	1640.86
591.464	1625.78
591.885	1623.68
592.305	1616.97
592.726	1601.97
593.147	1603.94
593.567	1598.3
593.987	1588.65
594.408	1583.39
594.828	1581.85
595.248	1575.2
595.669	1554.08
596.089	1546.14
596.509	1537.7
596.929	1522.54
597.349	1522.38
597.769	1511.08
598.189	1504.65
598.608	1506.92
599.028	1508.51
599.448	1508.93
599.867	1493.79
600.287	1489.47
600.706	1485.87
601.126	1474.79
601.545	1473.03
601.965	1471.18
602.384	1464.85
602.803	1467.07
603.222	1461.71
603.641	1454.16
604.061	1449.24
604.48	1444.83
604.898	1452.94
605.317	1457.3
605.736	1459.64
606.155	1456.59
606.574	1446.42
606.992	1451.77
607.411	1446.04
607.829	1436.66
608.248	1432.53
608.666	1429.32
609.085	1429.38
609.503	1418.95
609.921	1412.46
610.339	1413.69
610.758	1411.55
611.176	1406.87
611.594	1396.52
612.012	1392.36
612.43	1394.92
612.847	1401.35
613.265	1401.24
613.683	1403.98
614.101	1405.77
614.518	1400.68
614.936	1389.68
615.353	1374.43
615.771	1369.93
616.188	1369.69
616.606	1364.93
617.023	1357.05
617.44	1342.15
617.857	1334.81
618.274	1325.61
618.691	1319.05
619.108	1308.15
619.525	1301.33
619.942	1308.1
620.359	1311.43
620.776	1306.01
621.192	1302.97
621.609	1300.7
622.026	1306.7
622.442	1312.42
622.859	1315.76
623.275	1307.91
623.691	1313.89
624.108	1326.84
624.524	1341.51
624.94	1341.44
625.356	1352.81
625.772	1366.11
626.188	1379.05
626.604	1381.45
627.02	1377.58
627.436	1375.96
627.852	1382.32
628.268	1395.22
628.683	1384.36
629.099	1374.69
629.514	1368.86
629.93	1371.55
630.345	1375.31
630.761	1369.98
631.176	1371.75
631.591	1364.08
632.007	1357.77
632.422	1355.94
632.837	1343.39
633.252	1340.68
633.667	1329.93
634.082	1321.02
634.497	1307.29
634.911	1286.74
635.326	1283.05
635.741	1266.62
636.155	1257.88
636.57	1258.29
636.984	1257.86
637.399	1259.61
637.813	1259.57
638.228	1259.23
638.642	1263.46
639.056	1252.88
639.47	1252.8
639.884	1244.86
640.298	1237.08
640.712	1235.59
641.126	1222.35
641.54	1213.18
641.954	1206.72
642.368	1194.73
642.781	1185.96
643.195	1167.25
643.609	1168.72
644.022	1163.02
644.436	1157.69
644.849	1144.63
645.262	1132.37
645.676	1134.18
646.089	1129.57
646.502	1114.92
646.915	1108.72
647.328	1091.27
647.741	1088.87
648.154	1073.78
648.567	1071.01
648.98	1056.61
649.393	1056.88
649.805	1051.33
650.218	1042.98
650.631	1026.12
651.043	1018.53
651.456	1012.81
651.868	1012.01
652.28	1028.3
652.693	1041.31
653.105	1046.67
653.517	1056.69
653.929	1057.11
654.341	1062.25
654.753	1049.87
655.165	1055.16
655.577	1052.83
655.989	1046.96
656.401	1037.55
656.813	1000.1
657.224	978.7
657.636	948.7
658.047	930.11
658.459	908.93
658.87	899.02
659.282	885.53
659.693	865.04
660.104	850.28
660.515	834.99
660.926	833.95
661.338	831.41
661.749	825.1
662.159	816.09
662.57	810.54
662.981	806.01
663.392	799.2
663.803	803.7
664.213	800.42
664.624	795.72
665.035	799.25
665.445	784.72
665.855	777.39
666.266	770.59
666.676	769.04
667.086	760.36
667.497	759.63
667.907	754.09
668.317	745.68
668.727	743.37
669.137	744.52
669.547	743.35
669.956	746.48
670.366	748
670.776	749.24
671.186	752.61
671.595	756.31
672.005	759.07
672.414	758.43
672.824	755.95
673.233	759.9
673.642	761.2
674.052	763.22
674.461	765.5
674.87	769.23
675.279	766.24
675.688	766.99
676.097	767.69
676.506	764.65
676.915	778.52
677.323	781.58
677.732	778.41
678.141	779.07
678.549	768.42
678.958	767.41
679.366	767.44
679.775	771.71
680.183	781.16
680.592	786.14
681	792.44
681.408	784.83
681.816	791.78
682.224	799.96
682.632	808.52
683.04	836.99
683.448	860.01
683.856	889.42
684.264	924.18
684.671	955.92
685.079	993.29
685.487	1034.49
685.894	1094.63
686.302	1143.56
686.709	1184.48
687.116	1232.37
687.524	1270.23
687.931	1304.93
688.338	1333.1
688.745	1355.38
689.152	1382.95
689.559	1423.62
689.966	1464.92
690.373	1480.91
690.78	1518.28
691.187	1579.35
691.593	1623.39
692	1665.73
692.407	1724.91
692.813	1800.93
693.22	1862.2
693.626	1926.33
694.032	1977.43
694.439	2054.32
694.845	2117.06
695.251	2193.55
695.657	2262.03
696.063	2365.4
696.469	2441.24
696.875	2514.04
697.281	2556.52
697.687	2610.98
698.093	2655.36
698.498	2738.19
698.904	2803.78
699.31	2900.84
699.715	2972.56
700.12	3072.95
700.526	3098.4
700.931	3178.03
701.337	3238.89
701.742	3281.13
702.147	3372.97
702.552	3409.9
702.957	3479.1
703.362	3506.41
703.767	3543.74
704.172	3592.43
704.577	3549.27
704.981	3606.53
705.386	3629.59
705.791	3627.68
706.195	3714.04
706.6	3730.29
707.004	3825.09
707.408	3796.54
707.813	3831.19
708.217	3823.1
708.621	3830.99
709.025	3940.73
709.43	3946.74
709.834	4017.72
710.237	4098.47
710.641	4084.45
711.045	4114.27
711.449	4111.44
711.853	4148.78
712.256	4200.08
712.66	4246.43
713.064	4332.62
713.467	4382.97
713.87	4511.83
714.274	4568.2
714.677	4693.84
715.08	4879.07
715.484	5069.29
715.887	5298.52
716.29	5525.52
716.693	5761.99
717.096	6030.67
717.499	6185.47
717.901	6220.67
718.304	6256.83
718.707	6287.74
719.109	6177.47
719.512	6145.25
719.915	6000.77
720.317	5941.61
720.719	5994.48
721.122	5963.45
721.524	5915.17
721.926	5867.97
722.328	5982.87
722.731	5973.75
723.133	6005.98
723.535	6227.39
723.937	6252.92
724.338	6313.02
724.74	6359.08
725.142	6280.69
725.544	6282.98
725.945	6312.85
726.347	6310.68
726.748	6306.3
727.15	6325.91
727.551	6288.18
727.952	6257.48
728.354	6228.86
728.755	6233.18
729.156	6189.52
729.557	6185.94
729.958	6047.6
730.359	5984.82
730.76	5970.32
731.161	5903.17
731.562	5876.08
731.962	5881.25
732.363	5810.98
732.763	5742.32
733.164	5780.44
733.564	5705.91
733.965	5598.27
734.365	5559.86
734.766	5595.84
735.166	5551.53
735.566	5490.79
735.966	5459.44
736.366	5455.45
736.766	5389.7
737.166	5424.42
737.566	5380.13
737.966	5353
738.365	5400.11
738.765	5397.43
739.165	5313.63
739.564	5286.36
739.964	5339.29
740.363	5291.07
740.763	5288.58
741.162	5272.17
741.561	5234.97
741.96	5183.56
742.36	5209.17
742.759	5215.55
743.158	5257.36
743.557	5275.93
743.955	5319.7
744.354	5268.16
744.753	5330.68
745.152	5282.9
745.55	5347.1
745.949	5342.9
746.348	5344.64
746.746	5359.89
747.144	5314.72
747.543	5292.72
747.941	5347.34
748.339	5269.26
748.737	5261.31
749.136	5251.38
749.534	5325.41
749.932	5294.03
750.33	5318.21
750.727	5380.13
751.125	5353.18
751.523	5334.6
751.921	5383.3
752.318	5345.45
752.716	5410.81
753.113	5425.47
753.511	5456.68
753.908	5457.29
754.305	5435.61
754.703	5505.72
755.1	5576.33
755.497	5645.82
755.894	5861.81
756.291	6061.96
756.688	6431.69
757.085	6928.97
757.482	7625.45
757.878	8382.69
758.275	9075
758.672	10027.8
759.068	10804.36
759.465	11906.51
759.861	13326.04
760.258	14973.9
760.654	15829.39
761.05	15709.35
761.447	14984.17
761.843	13955.45
762.239	12889.05
762.635	12401.19
763.031	11940.47
763.427	11269.54
763.822	10569.58
764.218	9878.65
764.614	8978.07
765.01	8377.3
765.405	7987.64
765.801	7693.2
766.196	7315.88
766.592	7106.59
766.987	6752.18
767.382	6511.89
767.778	6413.05
768.173	6264.57
768.568	6182.29
768.963	6042.94
769.358	6060.71
769.753	6007.07
770.148	5913.11
770.542	5909.27
770.937	5873.98
771.332	5977.7
771.726	5999.36
772.121	5925.81
772.515	5988.84
772.91	5973.21
773.304	6050.79
773.699	5975.58
774.093	6038.42
774.487	6102.76
774.881	6154.97
775.275	6147.63
775.669	6095.83
776.063	6143.19
776.457	6184.61
776.851	6098.48
777.245	6088.85
777.638	6126.4
778.032	6259.77
778.425	6217.14
778.819	6263.47
779.212	6211.61
779.606	6167.01
779.999	6191.02
780.392	6171.51
780.786	6263.63
781.179	6289.42
781.572	6338.05
781.965	6351.74
782.358	6284.73
782.751	6347.81
783.143	6291.1
783.536	6373.4
783.929	6423.46
784.322	6552.26
784.714	6587.16
785.107	6583.24
785.499	6662.18
785.891	6633.34
786.284	6612.34
786.676	6772.86
787.068	6748.34
787.46	6806.86
787.852	6833.48
788.245	6928.51
788.636	6961.79
789.028	7041.7
789.42	7083.31
789.812	7090.58
790.204	7202.75
790.595	7314.57
790.987	7097.2
791.378	7126.19
791.77	7271.92
792.161	7420.56
792.553	7487.42
792.944	7363.63
793.335	7285.16
793.726	7369.56
794.117	7477.62
794.508	7632.01
794.899	7601.37
795.29	7757.72
795.681	7821.03
796.072	7664
796.463	7459.92
796.853	7468.7
797.244	7650.61
797.634	7687.91
798.025	7687.12
798.415	7699.66
798.806	7800.16
799.196	7895.64
799.586	7952.4
799.976	7912.64
800.366	8171.63
800.756	8444.15
801.146	8399.15
801.536	8429.89
801.926	8512.58
802.316	8543.85
802.706	8625.98
803.095	8485.35
803.485	8600.78
803.874	8644.43
804.264	8934.78
804.653	8910.91
805.043	9073.32
805.432	9196.12
805.821	9197.58
806.21	9227.07
806.599	9360.28
806.988	9408.84
807.377	9533.59
807.766	9682.74
808.155	10007.86
808.544	9709.95
808.933	9725.17
809.321	9701.61
809.71	10037.08
810.098	10214.02
810.487	10735.67
810.875	11276.88
811.264	11304.79
811.652	11630.37
812.04	11790.61
812.428	11974.19
812.816	12841.78
813.204	13313.75
813.592	13938.96
813.98	14316.81
814.368	14219.47
814.756	14753.17
815.144	14661.64
815.531	15179.13
815.919	15098.61
816.306	15449.41
816.694	15094.19
817.081	15150
817.469	15535.19
817.856	15535.57
818.243	15842.41
818.63	16279.62
819.017	15809.02
819.404	15884.08
819.791	16315.14
820.178	17014.19
820.565	17296.67
820.952	18351.58
821.339	17799.28
821.725	18014.51
822.112	17161.27
822.498	17118.35
822.885	17268.65
823.271	17166.69
823.657	17637.74
824.044	17649.08
824.43	17717.54
824.816	17676.76
825.202	17187.57
825.588	18339.12
825.974	18349.17
826.36	18931.88
826.746	18962.23
827.132	19354.56
827.517	19310.8
827.903	18434.04
828.289	18479.59
828.674	17611.16
829.06	17494.03
829.445	17945.39
829.83	18339.12
830.216	18880.57
830.601	19300
830.986	18840.66
831.371	18691.71
831.756	19323.45
832.141	18833.08
832.526	18827.44
832.911	19141.92
833.295	19013.68
833.68	19540.88
834.065	18842.76
834.449	17811.22
834.834	17726.86
835.218	17732.02
835.603	18116
835.987	17882.52
836.371	18822.25
836.755	18694.3
837.139	19145.83
837.524	19418.52
837.908	19219.97
838.291	19284.69
838.675	19371.22
839.059	19609.79
839.443	19587.09
839.827	19330.92
840.21	19866.33
840.594	19698.78
840.977	19938.5
841.361	19919.34
841.744	20346.95
842.127	20162.7
842.511	20438.48
842.894	21101.38
843.277	21525.42
843.66	22137.18
844.043	22222.24
844.426	21326.59
844.809	20985.17
845.191	21017.06
845.574	20496.34
845.957	20083.52
846.339	19961.99
846.722	19370.6
847.104	19450.26
847.487	19257.44
847.869	19275.49
848.252	19591.27
848.634	19956.24
849.016	20246.52
849.398	20397.25
849.78	21344.91
850.162	21347.19
850.544	21812.25
850.926	22524.77
851.307	22416.31
851.689	22732.54
852.071	23241.49
852.452	23608.15
852.834	23586.58
853.215	24028.38
853.597	24196.25
853.978	24532.59
854.359	25048.93
854.741	23930.16
855.122	23820.61
855.503	23501.25
855.884	23647.35
856.265	23574.57
856.646	23707.72
857.026	23262.09
857.407	23187.47
857.788	23364.83
858.169	23694.25
858.549	22723.29
858.93	23425.27
859.31	23487.4
859.69	23721.92
860.071	23267.75
860.451	23024.68
860.831	22180.96
861.211	23480.05
861.591	24096.21
861.971	24059.27
862.351	24278.3
862.731	24728.33
863.111	25024.16
863.491	25380.11
863.87	26368.47
864.25	26764.05
864.629	26320.46
865.009	26902.82
865.388	27866.01
865.768	29871.57
866.147	29771.96
866.526	28116.45
866.905	28452.23
867.284	30049.56
867.663	28524.68
868.042	27343.24
868.421	27252.08
868.8	27701.66
869.179	27981.5
869.558	26349.16
869.936	24278.78
870.315	24702.93
870.693	25304.85
871.072	27288.7
871.45	25995.59
871.828	26344.99
872.207	27702.14
872.585	27293.01
872.963	28026.88
873.341	27060.27
873.719	26742.47
874.097	26422.4
874.475	26921.31
874.853	27535.91
875.23	26379.6
875.608	27487.57
875.986	29719.6
876.363	28413.08
876.741	29272.08
877.118	28535.96
877.495	29941.93
877.873	30444.23
878.25	32041.83
878.627	30739.91
879.004	31179.47
879.381	31040.24
879.758	30229.16
880.135	28134.16
880.512	29743.21
880.889	28953.56
881.265	28667.41
881.642	28415.76
882.019	28895.78
882.395	28311.76
882.772	29432.28
883.148	28147.67
883.524	28043.01
883.901	27876.21
884.277	28320.47
884.653	28150
885.029	28955.24
885.405	32067.91
885.781	31828.34
886.157	30519.8
886.532	30889.55
886.908	30888.07
887.284	34351.11
887.659	35459.68
888.035	36573.77
888.411	37500.08
888.786	37979.84
889.161	39288.32
889.537	38558.87
889.912	39795.62
890.287	39766.82
890.662	40793.44
891.037	40038.14
891.412	37334.35
891.787	36967.58
892.162	35666.45
892.536	36510.08
892.911	35140.69
893.286	34413.08
893.66	33024.39
894.035	33868.24
894.409	36880.41
894.784	35398.28
895.158	35994.04
895.532	38137.73
895.906	39173.36
896.281	40104.45
896.655	39461.99
897.029	45109.9
897.402	46973.46
897.776	52284.27
898.15	52095.86
898.524	51522.81
898.898	52197.48
899.271	58444.51
899.645	50597.76
900.018	48616.67
900.392	50405.01
900.765	50827.77
901.138	47018.63
901.511	46313.67
901.884	42528.2
902.258	39231.54
902.631	40538.24
903.003	46672.88
903.376	42099.83
903.749	47232.34
904.122	50548.9
904.495	55687.43
904.867	56368.1
905.24	48954.25
905.612	45573.34
905.985	46600.87
906.357	48738.54
906.729	46519.8
907.102	39723.59
907.474	38195.61
907.846	38434.19
908.218	37927.79
908.59	33501.37
908.962	32403.66
909.334	34884.32
909.705	36651.27
910.077	35594.82
910.449	37028.12
910.82	38068.26
911.192	41885.44
911.563	43544.24
911.935	46594.07
912.306	46637.08
912.677	48130.74
913.048	47627.66
913.419	51692
913.79	51973.34
914.161	55716.95
914.532	53259.57
914.903	48940.51
915.274	46470.96
915.645	45751.28
916.015	40271.96
916.386	38394.04
916.756	40886.13
917.127	42196.08
917.497	37680.15
917.868	40999.95
918.238	38966.94
918.608	40101.68
918.978	40940.69
919.348	43377.16
919.718	44837.62
920.088	43175.4
920.458	44877.54
920.828	47236.89
921.198	44764.38
921.567	47843.55
921.937	37046.03
922.306	37391.69
922.676	40336.5
923.045	33640.39
923.415	31958.81
923.784	29104.23
924.153	29928.68
924.522	29904.16
924.891	28101.52
925.26	30114.75
925.629	29411.57
925.998	33831.21
926.367	33025.31
926.736	31429.9
927.104	37420.85
927.473	40237.33
927.842	48590.55
928.21	48123.37
928.578	50563.29
928.947	47841.46
929.315	48141.03
929.683	56449.93
930.051	56889.94
930.42	66082.46
930.788	56518.44
931.156	56112.01
931.523	52587.46
931.891	48624.8
932.259	46727.4
932.627	54193.18
932.994	76689.56
933.362	63415.28
933.729	55078.2
934.097	52746.42
934.464	44640.12
934.831	51517.61
935.199	50830.78
935.566	49328.27
935.933	49968.92
936.3	60508.84
936.667	47106.63
937.034	42501.44
937.401	42012.74
937.767	36250.59
938.134	32272.19
938.501	45547.79
938.867	48511.57
939.234	81967.42
939.6	69917.11
939.967	77062.71
940.333	51579.24
940.699	43920.82
941.065	35223.81
941.431	46201.75
941.798	44538.31
942.163	58453.82
942.529	36489.01
942.895	33610.61
943.261	21750.19
943.627	28535.64
943.992	24993.54
944.358	25040.23
944.723	25097.16
945.089	24464.38
945.454	22593.59
945.82	24125.91
946.185	23186.6
946.55	26857.86
946.915	24092.39
947.28	28277.8
947.645	24909.93
948.01	23001.75
948.375	23981.73
948.74	28758.81
949.104	33556.18
949.469	48459.17
949.834	85672.19
950.198	81199.72
950.562	48691.46
950.927	40563.63
951.291	48779.46
951.655	41503.46
952.02	38970.15
952.384	29451.32
952.748	25642.43
953.112	25023.36
953.476	21778.51
953.839	20149.77
954.203	19964.94
954.567	24987.42
954.931	39319.36
955.294	33644.22
955.658	33846.64
956.021	57529.82
956.385	97626.92
956.748	144118.26
957.111	223201.01
957.474	250556.78
957.837	282193.94
958.2	213469.39
958.563	76726.82
958.926	51917.58
959.289	78739.31
959.652	87952.85
960.015	66025.68
960.377	94792.3
960.74	108220.02
961.102	187060.88
961.465	200781.46
961.827	107471.98
962.189	206125.11
962.552	142934.95
962.914	114601.71
963.276	74474.24
963.638	61572.7
964	60963.43
964.362	41186.68
964.724	39793
965.085	28356.7
965.447	23241.1
965.809	26515.58
966.17	26549.13
966.532	28741.75
966.893	26384.49
967.255	23990.54
967.616	28315.14
967.977	22684.21
968.338	24786.08
968.699	20364.95
969.061	20392.65
969.421	20518.73
969.782	22995.18
970.143	19419.37
970.504	20103.47
970.865	22845.88
971.225	23360.2
971.586	22866.15
971.946	32600.86
972.307	28306.71
972.667	37015.92
973.027	38030.61
973.388	46148.96
973.748	31407.17
974.108	34208.84
974.468	46258.6
974.828	35674.88
975.188	27465.47
975.548	25213.77
975.907	21162.01
976.267	23719.46
976.627	19937.06
976.986	20696.27
977.346	19721.45
977.705	18947.1
978.064	17280.65
978.424	14394.46
978.783	14870.57
979.142	16954.12
979.501	16231.57
979.86	17153.44
980.219	16531.98
980.578	21304.92
980.937	23858.25
981.296	21284.69
981.654	21922.17
982.013	34114.35
982.371	44239.08
982.73	41346.72
983.088	46839.41
983.447	50056.63
983.805	71594.42
984.163	149728.99
984.521	166454.59
984.879	244313.56
985.237	-397495.17
985.595	383604.44
985.953	95239.13
986.311	55038.79
986.669	31921.05
987.026	27576.87
987.384	37076.61
987.741	38320.68
988.099	27368.13
988.456	21776.58
988.814	20355.31
989.171	17686.25
989.528	17435.13
989.885	18403.43
990.242	14579.93
990.599	18176.37
990.956	14870.17
991.313	10388.47
991.67	8517.09
992.027	9024.25
992.383	8040.75
992.74	7051.86
993.096	7397.07
993.453	7661.16
993.809	7942.29
994.165	10574.68
994.522	9692.68
994.878	10669.25
995.234	13399.6
995.59	13243.23
995.946	12552.79
996.302	14293.27
996.658	16531.9
997.013	18226.46
997.369	21663.2
997.725	27743.37
998.08	17989.8
998.436	27740.3
998.791	38288.29
999.147	38288.43
999.502	41766.53
999.857	30347.36
1000.212	49507.55
1000.567	70582.07
1000.922	40741.74
1001.277	25876.74
1001.632	19196.1
1001.987	24678.6
1002.342	17719.2
1002.696	14165.22
1003.051	11270.48
1003.406	13662.34
1003.76	13618.22
1004.114	13426.85
1004.469	11262.88
1004.823	9309.86
1005.177	10045.69
1005.531	7969.36
1005.885	7080
1006.239	7977.07
1006.593	9994.47
1006.947	13401.18
1007.301	10036.24
1007.655	10923.17
1008.008	8020.36
1008.362	9012.29
1008.715	12894.73
1009.069	11708.99
1009.422	17590.6
1009.776	35279.55
1010.129	23429.03
1010.482	19660.68
1010.835	16560.85
1011.188	34554.1
1011.541	32610.51
1011.894	-199206.15
1012.247	587939.97
1012.6	39942.23
1012.952	25211.41
1013.305	12990.72
1013.657	9364.86
1014.01	8877.12
1014.362	7302.95
1014.715	6507.33
1015.067	5664.47
1015.419	5530.9
1015.771	4886.4
1016.123	4344.49
1016.475	4470.67
1016.827	4756.82
1017.179	5124.58
1017.531	5162.25
1017.883	5261.44
1018.234	5073.04
1018.586	6412.27
1018.938	6792.34
1019.289	9348.42
1019.64	10753.01
1019.992	10000.87
1020.343	9131.78
1020.694	7200.01
1021.045	6367.16
1021.396	7278.05
1021.747	7812.23
1022.098	9390.63
1022.449	6799.47
1022.8	6301.74
1023.151	4387.33
1023.501	3876.94
1023.852	4224.35
1024.202	4381.97
1024.553	4834.06
1024.903	4728.49
1025.253	4032.66
1025.604	3629.15
1025.954	4496.72
1026.304	5491
1026.654	6417.65
1027.004	9405.55
1027.354	15217.43
1027.703	14243.85
1028.053	18680.68
1028.403	27121.43
1028.753	39211.26
1029.102	53306.94
1029.452	274066.28
1029.801	11821.91
1030.15	7611.35
1030.499	6403.53
897.758	2901.33
901.051	2874.22
904.343	2912.77
907.636	2905.31
910.928	2970.56
914.22	2874.47
917.511	2885.88
920.803	2958.1
924.094	2988.48
927.384	2955.36
930.675	2924.14
933.965	2871.94
937.255	2869.56
940.544	2836.08
943.834	2746.89
947.123	2697.36
950.411	2798.66
953.7	2767.51
956.988	2721.81
960.276	2669.33
963.563	2766.54
966.851	2752.56
970.138	2821.33
973.424	2808.43
976.711	2753.01
979.997	2933.45
983.283	2961.75
986.568	2853.43
989.853	2885.21
993.138	2915.77
996.423	2989.96
999.708	2918.35
1002.992	3009.1
1006.275	2800.83
1009.559	2871.12
1012.842	2998.96
1016.125	2918.77
1019.408	2892.94
1022.69	2996.25
1025.972	3003.66
1029.254	2978.97
1032.536	2897.57
1035.817	2933.42
1039.098	2856.09
1042.379	3050.33
1045.659	3031.05
1048.939	2955.91
1052.219	2983.62
1055.498	3011.93
1058.778	2989.4
1062.057	2980.49
1065.335	3000.14
1068.614	3022.32
1071.892	2997.59
1075.17	3086.35
1078.447	3070.14
1081.724	3058.16
1085.001	3099.16
1088.278	3073.07
1091.554	3088.02
1094.83	3088.83
1098.106	3111.79
1101.382	3163.46
1104.657	3166.1
1107.932	3159.72
1111.206	3116.82
1114.481	3074.77
1117.755	3082.84
1121.029	3054.72
1124.302	3105.58
1127.575	3046.13
1130.848	3027.15
1134.121	2983.62
1137.393	2927.25
1140.665	3002.57
1143.937	2976.44
1147.208	2940.66
1150.48	2973.13
1153.75	2954.18
1157.021	3006.27
1160.291	2970.31
1163.561	3012.19
1166.831	3014.31
1170.101	3049.55
1173.37	3032.21
1176.639	2966.56
1179.907	3033.45
1183.176	3034.18
1186.444	3043.65
1189.711	3073.63
1192.979	3074.66
1196.246	3033.65
1199.513	3055.62
1202.78	3051.67
1206.046	3059.28
1209.312	3085.11
1212.578	3113.85
1215.843	3058.41
1219.108	3037.82
1222.373	3060.02
1225.638	3018.32
1228.902	2999.67
1232.166	2968.36
1235.43	2946.88
1238.693	2968.15
1241.956	2969.05
1245.219	3003.65
1248.482	3003.98
1251.744	2994.31
1255.006	3158.22
1258.268	3117.16
1261.529	3055.57
1264.79	3065
1268.051	3176.09
1271.312	3196.96
1274.572	3151.41
1277.832	3143.7
1281.092	3139.93
1284.351	3098.96
1287.61	3075.74
1290.869	2979.38
1294.128	2944.58
1297.386	3057
1300.644	3043.36
1303.902	3055.19
1307.159	2908.63
1310.416	2966.72
1313.673	2987.1
1316.93	2965.43
1320.186	3020.56
1323.442	3071.86
1326.697	3052.34
1329.953	3053.72
1333.208	3069.24
1336.463	3054.55
1339.717	2978.51
1342.972	3121.55
1346.226	3103.7
1349.479	3026.79
1352.733	2990.61
1355.986	3024.11
1359.238	2993.98
1362.491	2995.25
1365.743	2998.88
1368.995	2997.62
1372.247	3011.42
1375.498	3039.07
1378.749	3042.73
1382	3000.86
1385.251	3065.29
1388.501	3030.38
1391.751	3003.88
1395	2978.24
1398.25	3013.36
1401.499	3014.16
1404.748	2925.35
1407.996	2909.33
1411.244	2890.62
1414.492	2870.58
1417.74	2839.98
1420.987	2854.96
1424.234	2907.95
1427.481	2898.92
1430.728	2958.27
1433.974	2930.98
1437.22	2953.25
1440.465	2962.02
1443.711	2915.75
1446.956	2959.11
1450.201	2957.65
1453.445	3006.86
1456.689	2976.82
1459.933	2994.05
1463.177	3022.55
1466.42	2993.46
1469.663	2973.59
1472.906	2956.16
1476.148	3063.1
1479.391	2992.69
1482.633	2971.27
1485.874	2974.04
1489.115	2951.75
1492.356	2969.87
1495.597	2940.61
1498.838	2949.68
1502.078	2908.63
1505.318	2847.53
1508.557	2895.22
1511.797	2842.79
1515.036	2955.18
1518.274	2941.88
1521.513	2922.74
1524.751	2949.97
1527.989	2959.6
1531.227	2970.82
1534.464	2953.4
1537.701	2990.55
1540.938	3014.12
1544.174	2969.9
1547.41	2974.54
1550.646	3015.75
1553.882	3047.1
1557.117	3100.78
1560.352	3121.96
1563.587	3073.64
1566.821	3029.68
1570.055	3076.52
1573.289	3042.23
1576.523	3129.95
1579.756	3132.88
1582.989	3151.17
1586.222	3110.3
1589.454	3150.8
1592.686	3121.33
1595.918	3143.67
1599.15	3128.85
1602.381	3220.09
1605.612	3159.82
1608.843	3261.07
1612.073	3164.61
1615.303	3147.19
1618.533	3135.38
1621.762	3139.3
1624.992	3138.75
1628.221	3114.77
1631.449	3097.76
1634.678	3172.12
1637.906	3122.48
1641.134	3170.85
1644.361	3118.17
1647.588	3107.5
1650.815	3123
1654.042	3105.92
1657.269	3141.59
1660.495	3084.51
1663.72	3072.07
1666.946	3044.9
1670.171	2966.67
1673.396	2941.24
1676.621	2934.74
1679.845	2970.73
1683.069	2996.74
1686.293	3047.67
1689.517	3011.16
1692.74	2924.28
1695.963	2952.53
1699.185	3003.1
1702.408	2969.04
1705.63	3019.73
1708.852	3027.39
1712.073	2999.59
1715.294	2969.67
1718.515	3040.93
1721.736	2979.33
1724.956	2977.25
1728.176	3006.27
1731.396	3027.62
1734.616	3016.77
1737.835	3037.95
1741.054	3022.31
1744.272	3019.45
1747.491	3041.47
1750.709	3112.36
1753.927	2991.88
1757.144	3048
1760.361	3081.34
1763.578	3085.87
1766.795	3022.6
1770.011	3036.19
1773.227	3089.49
1776.443	3118.39
1779.658	3161.99
1782.874	3106.94
1786.089	3077.86
1789.303	3080.77
1792.518	3093.68
1795.732	3080.23
1798.945	3082.48
1802.159	3141.89
1805.372	3021.66
1808.585	2995.93
1811.797	3000.18
1815.01	3061.36
1818.222	3061.31
1821.434	2992.08
1824.645	3071.26
1827.856	3034.96
1831.067	3075.51
1834.278	3046.28
1837.488	3025.32
1840.698	3192.7
1843.908	3106.49
1847.117	3065.86
1850.326	2923.93
1853.535	3044.69
1856.744	3113.76
1859.952	3008.84
1863.16	3013.25
1866.368	3034.63
1869.575	3134.92
1872.782	3020.06
1875.989	2956.5
1879.196	3063.66
1882.402	3055.48
1885.608	3100.56
1888.814	2982.64
1892.019	2866.74
1895.224	2918.91
1898.429	2907.15
1901.634	2881.71
1904.838	2860.28
1908.042	2904.92
1911.246	2910.69
1914.449	2820.33
1917.652	2826.07
1920.855	2809.74
1924.058	2873.09
1927.26	2904.23
1930.462	2937.86
1933.664	2956.66
1936.865	2895.62
1940.066	2894.95
1943.267	2843.61
1946.467	2864.88
1949.668	2896.79
1952.868	2964.29
1956.067	2934.32
1959.267	2857.15
1962.466	2887.94
1965.665	2872.37
1968.863	2871.69
1972.061	2890.3
1975.259	2896.41
1978.457	2976.37
1981.654	2931.51
1984.852	2930.7
1988.048	2851.38
1991.245	2863.63
1994.441	2948.32
1997.637	2949.45
2000.833	2934.48
2004.028	2973.28
2007.223	3027.11
2010.418	2993.93
2013.613	2963.59
2016.807	2922.01
2020.001	2933.96
2023.194	2992.31
2026.388	2963.71
2029.581	2911.09
2032.774	2949.85
2035.966	2950.68
2039.158	2872.88
2042.35	2901.83
2045.542	2829.91
2048.733	2941.99
2051.924	2984.03
2055.115	3021.18
2058.306	2948.75
2061.496	3010.84
2064.686	3086.27
2067.875	3003.91
2071.065	3028.1
2074.254	3059.92
2077.442	3008.92
2080.631	3105.75
2083.819	2971.7
2087.007	2948.93
2090.195	2908.46
2093.382	2955.33
2096.569	2932.48
2099.756	2878.78
2102.942	2893.1
2106.128	2887.63
2109.314	2883.98
2112.5	2835.34
2115.685	2815.9
2118.87	2828.77
2122.055	2891.8
2125.239	2854.25
2128.424	2817.8
2131.608	2947.39
2134.791	2931.15
2137.974	3000.82
2141.157	2984.97
2144.34	2922.83
2147.523	2954.5
2150.705	2960.75
2153.887	2944.99
2157.068	2883.58
2160.25	2897.84
2163.431	2948.05
2166.611	2877.32
2169.792	2886.72
2172.972	2770.82
2176.152	2866.95
2179.331	2907.84
2182.511	2874.84
2185.69	2905.24
2188.868	2893.51
2192.047	2963.44
2195.225	2936.51
2198.403	2883.87
2201.58	2880.47
2204.758	2885.74
2207.935	2972.56
2211.111	2843.24
2214.288	2824.62
2217.464	2868.19
2220.64	2852.91
2223.815	2913.12
2226.991	2824.82
2230.166	2846.41
2233.34	2871.17
2236.515	2904.24
2239.689	2976.12
2242.863	2915.95
2246.036	2978.73
2249.209	2986.06
2252.382	3030.24
2255.555	3004.31
2258.727	2933.36
2261.9	2978.64
2265.071	2972.11
2268.243	2973.65
2271.414	2897.63
2274.585	2846.28
2277.756	2920.17
2280.926	2872.37
2284.096	2923.25
2287.266	2816.43
2290.436	2875.8
2293.605	2910.33
2296.774	2936.83
2299.942	2968.86
2303.111	2985.94
2306.279	3031.28
2309.447	3022.06
2312.614	2998
2315.781	3014.99
2318.948	2979.58
2322.115	3016.97
2325.281	2922.85
2328.447	2949.27
2331.613	2926.05
2334.779	2886.86
2337.944	2897.6
2341.109	2889.18
2344.274	2867.64
2347.438	2833.02
2350.602	2861.27
2353.766	2879.72
2356.929	2865.13
2360.092	2905.74
2363.255	2846.79
2366.418	2761.42
2369.58	2899.31
2372.742	2638.13
2375.904	2663.68
2379.066	2633.22
2382.227	2675.14
2385.388	2638.2
2388.548	2549.78
2391.709	2616.35
2394.869	2587.82
2398.029	2713.28
2401.188	2737.17
2404.347	2654.37
2407.506	2828.71
2410.665	2857.66
2413.823	2875.33
2416.981	2817.48
2420.139	2858.21
2423.296	2913.99
2426.453	2882.83
2429.61	2916.22
2432.767	2826.11
2435.923	2861.62
2439.079	2800.48
2442.235	2859.52
2445.391	2776.21
2448.546	2792.33
2451.701	2853.33
2454.855	2808.13
2458.009	2874.58
2461.163	2886.48
2464.317	2835.55
2467.471	2875.09
2470.624	2921.07
2473.777	2916.74
2476.929	2927
2480.082	2951.47
2483.234	2913.26
2486.385	2850.26
2489.537	2842.89
2492.688	2788.79
2495.839	2809.24
2498.989	2812.03
2502.14	2793.68
2505.29	2771.12
2508.439	2799.37
2511.589	2711.86
2514.738	2733.25
2517.887	2768.43
2521.035	2853
2524.183	2848.92
2527.331	2821.92
2530.479	2781.26
2533.627	2799.22
