Data from C_2_DEC_OH_4N_Splice17_12-04-49-621.txt Node
Date: Sat Mar 14 12:04:49 EDT 2020
User: sa697716
Spectrometer: FLMS03696
Trigger mode: 0
Integration Time (sec): 3.180400E-1
Scans to average: 20
Electric dark correction enabled: true
Nonlinearity correction enabled: true
Boxcar width: 5
XAxis mode: Wavelengths
Number of Pixels in Spectrum: 2048
>>>>>Begin Spectral Data<<<<<
187.83	-312695.78
188.298	2432.88
188.766	1222.69
189.233	1109.79
189.701	1527.27
190.169	2164.05
190.636	850.7
191.104	714.24
191.571	114.55
192.039	-76.05
192.506	-149.27
192.974	396.34
193.441	-315.76
193.908	-148.3
194.375	-51.98
194.842	14.37
195.31	17.37
195.777	107.73
196.244	276.04
196.711	319.58
197.177	400.75
197.644	564.96
198.111	1043.84
198.578	1439.46
199.045	1185.29
199.511	1952.05
199.978	2245.82
200.445	1933.84
200.911	2173.52
201.378	2399.35
201.844	2176.58
202.31	3791.43
202.777	3933.99
203.243	2181.59
203.709	2121.12
204.176	2527.98
204.642	2075.91
205.108	1964.59
205.574	1604.62
206.04	1437.7
206.506	1358.83
206.972	1271.88
207.438	1211.28
207.903	1377.54
208.369	1209.31
208.835	1185.78
209.301	1234.9
209.766	1257.79
210.232	1230.32
210.697	1518.51
211.163	1883.11
211.628	2862.52
212.094	2408.97
212.559	2979.48
213.024	1851.84
213.49	2277.79
213.955	2223
214.42	2168.54
214.885	2051.08
215.35	1978.59
215.815	1929.69
216.28	2038.99
216.745	1636.31
217.21	1780.74
217.675	1629.04
218.14	1831.14
218.604	2021
219.069	2306.69
219.534	2439.05
219.998	2813.34
220.463	3397.47
220.927	4166.91
221.392	3934.19
221.856	4001.81
222.32	5025.95
222.785	6196.15
223.249	7802.14
223.713	8738.24
224.177	8729.6
224.642	11175.44
225.106	13739.3
225.57	15008.52
226.034	11174.9
226.497	17008.62
226.961	15394.31
227.425	17945.08
227.889	19842.23
228.353	19848.45
228.816	40883.68
229.28	39188.61
229.744	32982.33
230.207	20117.23
230.671	19802.77
231.134	32698.75
231.597	37728.56
232.061	37704.56
232.524	36701.52
232.987	25354.39
233.45	22870.04
233.914	20530.22
234.377	21051.67
234.84	19297.07
235.303	22711.78
235.766	25396.13
236.229	26266.28
236.691	16545.9
237.154	18597.94
237.617	14045.31
238.08	14400.12
238.542	16844.31
239.005	12045.52
239.468	11954.95
239.93	11265.89
240.393	10240.21
240.855	8986.14
241.317	9202.39
241.78	11188.16
242.242	11576.42
242.704	12498.29
243.166	10882.59
243.629	9900.06
244.091	11431.23
244.553	12539.3
245.015	13518
245.477	17518.32
245.939	25701.11
246.4	27359.27
246.862	26644.56
247.324	25135.38
247.786	28148.3
248.247	36897.42
248.709	38079.56
249.17	28535
249.632	26954.29
250.093	31291.94
250.555	27070.23
251.016	16532.46
251.477	15679.95
251.939	16941.76
252.4	17790.99
252.861	21177.94
253.322	19763.45
253.783	23538.92
254.244	30495.4
254.705	24049.97
255.166	21367.34
255.627	21041.32
256.088	29725.98
256.549	31644.22
257.009	27251.27
257.47	33112.78
257.931	27020.59
258.391	20274.72
258.852	20952.12
259.312	22058.6
259.773	27309.08
260.233	23156.85
260.694	19587.73
261.154	22261.26
261.614	17915.6
262.074	16087.8
262.534	16754.22
262.994	15823.98
263.455	21114.4
263.915	17812.37
264.374	16777.34
264.834	18357.34
265.294	20376.27
265.754	21139.66
266.214	20052.66
266.673	18841.81
267.133	23819.41
267.593	23691.7
268.052	29036.17
268.512	25315.8
268.971	30628.26
269.431	33663.02
269.89	30175.06
270.349	45310.38
270.809	50611.4
271.268	45582.68
271.727	102297.95
272.186	66344.75
272.645	49808.73
273.104	35973.54
273.563	52109.19
274.022	41032.18
274.481	34980.53
274.94	26991.68
275.399	20094.37
275.857	23424.82
276.316	31726.89
276.775	28267.1
277.233	27853.72
277.692	26116.17
278.15	29622.51
278.609	30550.92
279.067	28312.64
279.525	26340.65
279.984	34075.45
280.442	41009.99
280.9	40514.79
281.358	26688.2
281.816	24893.42
282.274	24430.53
282.732	25270.97
283.19	25423.02
283.648	21953.79
284.106	23403.91
284.564	23821.45
285.021	22119.41
285.479	16496.45
285.937	15018.95
286.394	13191.48
286.852	13606.11
287.309	14317.63
287.767	13857.08
288.224	13180.18
288.682	14490.03
289.139	15937.71
289.596	14610.18
290.053	15177.7
290.511	19177.31
290.968	23310.96
291.425	31672.9
291.882	26402.62
292.339	23025.66
292.796	22894.08
293.252	21598.05
293.709	17170.92
294.166	15392.45
294.623	17037.56
295.079	16400.44
295.536	16497.72
295.992	14982.42
296.449	14833.18
296.905	15406.96
297.362	14774.44
297.818	15526.15
298.274	16143.93
298.731	16472.4
299.187	16322.17
299.643	17526.65
300.099	21197.27
300.555	23260.3
301.011	19437.5
301.467	18764.15
301.923	21997.58
302.379	21503.14
302.835	21161.32
303.291	21181.03
303.746	24112.99
304.202	30473.04
304.658	30580.53
305.113	20596.14
305.569	20203
306.024	21567.19
306.479	20515.18
306.935	17299.9
307.39	18900.81
307.845	17451.21
308.301	17572.68
308.756	17122.6
309.211	16508.55
309.666	16918.13
310.121	20997.96
310.576	21310.44
311.031	21124
311.486	24227.2
311.94	24211.18
312.395	32414.71
312.85	61053.54
313.305	299826.14
313.759	1554435.16
314.214	112835.03
314.668	89692.22
315.123	75555.64
315.577	27163.23
316.032	24225.22
316.486	30384.94
316.94	24044.41
317.394	16754.63
317.849	13017.93
318.303	12335.53
318.757	11628.89
319.211	12860.15
319.665	11251.97
320.119	11403.46
320.572	16327.86
321.026	15252.97
321.48	12700.4
321.934	13857.4
322.387	13883.99
322.841	15005.61
323.295	13507.61
323.748	15603.73
324.202	15829.52
324.655	19044.12
325.108	26595.28
325.562	18832.17
326.015	22438.39
326.468	17004.82
326.921	18990.06
327.374	17739.63
327.827	18486.54
328.28	20938.06
328.733	14023.84
329.186	12329.69
329.639	11753.69
330.092	9905.54
330.545	9440.19
330.997	9506.15
331.45	10379.24
331.903	12179.86
332.355	20950.95
332.808	20381.36
333.26	16837.91
333.713	18283.27
334.165	18460.19
334.617	24655.48
335.069	19909.15
335.522	36019.02
335.974	39956.45
336.426	36477.13
336.878	25330.61
337.33	12844.49
337.782	12520.11
338.234	15672.85
338.686	18778.22
339.137	22239.89
339.589	20924.88
340.041	16427.48
340.493	14119.6
340.944	14441.39
341.396	15570.17
341.847	13092.38
342.299	15467.28
342.75	18894.97
343.201	16518.95
343.653	19026.17
344.104	23391.57
344.555	18440.06
345.006	28765.46
345.457	22054.52
345.908	17543.12
346.359	16528.28
346.81	13458.38
347.261	14187.53
347.712	13995.05
348.163	15018.84
348.613	15196.91
349.064	14189.34
349.515	12436.59
349.965	12766.95
350.416	15361.51
350.866	16893.81
351.317	19099.23
351.767	31678.65
352.217	40078.94
352.668	33279.31
353.118	30500.62
353.568	29394.69
354.018	23277.66
354.468	24592.22
354.918	17640.47
355.368	15448.23
355.818	21808.33
356.268	62767.89
356.718	262408.66
357.168	65291.16
357.617	32788.63
358.067	36451.81
358.517	34160.76
358.966	40031.71
359.416	44827.28
359.865	48442.93
360.315	57711.72
360.764	26983.15
361.213	15133.94
361.663	14315.29
362.112	17692.5
362.561	28595.78
363.01	21572.24
363.459	18197.2
363.908	19736.31
364.357	16793.55
364.806	28339.37
365.255	19510.71
365.703	17861.28
366.152	17884.81
366.601	14551.2
367.05	11829.28
367.498	10741.64
367.947	11240.53
368.395	11713.52
368.844	10364.04
369.292	12480.07
369.74	8634.59
370.189	13191.59
370.637	15480.86
371.085	13361.61
371.533	16234.92
371.981	15586.13
372.429	14853.17
372.877	15485.7
373.325	12951.23
373.773	13207.19
374.221	11735.42
374.669	14541.03
375.116	12558.92
375.564	12643.43
376.012	14112.33
376.459	11656.22
376.907	13910.04
377.354	16824.17
377.801	15680.42
378.249	17963.16
378.696	22924.39
379.143	27811.42
379.591	29619.72
380.038	50183.46
380.485	36280.43
380.932	39158.23
381.379	35701.19
381.826	26346.44
382.273	18707.87
382.72	16291.39
383.166	15882.88
383.613	10292.25
384.06	9273.42
384.506	10722.43
384.953	7854.88
385.4	7886.8
385.846	6914.94
386.292	6736.65
386.739	6579.28
387.185	6492.59
387.631	6500.4
388.078	6314.03
388.524	6767.11
388.97	6242.94
389.416	5204.56
389.862	5532.06
390.308	5248.73
390.754	5325.44
391.2	5780.83
391.645	5921.15
392.091	5677.22
392.537	5492.37
392.983	5491.9
393.428	5399.15
393.874	5780.05
394.319	5805.89
394.765	5512
395.21	5658.07
395.655	5304.41
396.101	4974.46
396.546	4485.81
396.991	4517.41
397.436	4193.97
397.881	4054.08
398.326	3833.28
398.771	3629.94
399.216	3173.77
399.661	2857.36
400.106	2851.95
400.551	2924.69
400.995	2625.57
401.44	2600.59
401.885	2447.94
402.329	2477.08
402.774	2377.64
403.218	2305.63
403.663	2225.77
404.107	2290.1
404.551	2311.69
404.995	2120.56
405.44	2040.78
405.884	2071.93
406.328	2007.3
406.772	2004.52
407.216	1827.32
407.66	1767.44
408.104	1680.66
408.547	1573.17
408.991	1525.09
409.435	1470.56
409.879	1454.88
410.322	1441.09
410.766	1395.5
411.209	1328.97
411.653	1274.29
412.096	1250.6
412.54	1251.51
412.983	1244.68
413.426	1250.31
413.869	1247.45
414.312	1223.12
414.756	1178.01
415.199	1121.86
415.642	1089.6
416.085	1091.59
416.527	1086.1
416.97	1103.85
417.413	1048.16
417.856	1037.93
418.298	1028.04
418.741	1023.71
419.184	1025.17
419.626	1069.16
420.069	1073.71
420.511	1078.59
420.953	1055.58
421.396	1047.07
421.838	1020.8
422.28	1046.93
422.722	1053.48
423.164	1069.59
423.606	1052.49
424.048	1049.05
424.49	995.09
424.932	988.43
425.374	977.19
425.816	994.3
426.258	1011.62
426.699	1020.94
427.141	1006.47
427.582	1021.65
428.024	1016.94
428.465	1009.09
428.907	985.55
429.348	973.84
429.789	971.7
430.231	948.21
430.672	956.71
431.113	934.5
431.554	919.03
431.995	894.21
432.436	858.45
432.877	836.31
433.318	821.76
433.759	815.05
434.2	814.98
434.64	806.57
435.081	809.41
435.522	769.91
435.962	739.79
436.403	726.25
436.843	733.23
437.284	717.28
437.724	696.74
438.164	698.47
438.604	682.34
439.045	654.82
439.485	626.52
439.925	612.75
440.365	597.17
440.805	590.38
441.245	579.09
441.685	557.54
442.125	553.67
442.564	555.16
443.004	540
443.444	537.66
443.883	538.06
444.323	532.38
444.762	529.51
445.202	534.54
445.641	541.77
446.081	538
446.52	541.96
446.959	534.97
447.398	522.77
447.837	516.48
448.276	507.62
448.716	512.79
449.154	515.85
449.593	504.5
450.032	501.57
450.471	490.18
450.91	490.64
451.349	490.1
451.787	485.8
452.226	492.83
452.664	493.28
453.103	492.72
453.541	490.37
453.98	490.29
454.418	492.45
454.856	484.64
455.295	486.24
455.733	489.89
456.171	490.88
456.609	494.03
457.047	493.8
457.485	501.17
457.923	502.43
458.361	494.57
458.798	495.85
459.236	496.12
459.674	499.4
460.111	500.83
460.549	495.8
460.987	494.5
461.424	491.6
461.862	489.15
462.299	482.51
462.736	483.21
463.173	486.01
463.611	481.63
464.048	480.32
464.485	485.48
464.922	481.07
465.359	478.44
465.796	475.44
466.233	472.51
466.67	469.11
467.106	467.61
467.543	462.12
467.98	456.06
468.416	444.48
468.853	441.44
469.29	427.88
469.726	423.44
470.162	412.98
470.599	405.17
471.035	402.03
471.471	392.28
471.907	389.41
472.344	387.03
472.78	388.8
473.216	393.04
473.652	388.34
474.088	387.99
474.523	387.33
474.959	391.17
475.395	388.15
475.831	387.2
476.266	388.35
476.702	387.28
477.138	383.18
477.573	381.11
478.008	379.64
478.444	380.93
478.879	384.99
479.314	386.12
479.75	386.02
480.185	387.08
480.62	389.03
481.055	391.91
481.49	394.92
481.925	400.67
482.36	408.62
482.795	420.2
483.229	431.76
483.664	440.03
484.099	442.37
484.534	449.27
484.968	454.38
485.403	456.14
485.837	455.37
486.271	455.36
486.706	455.99
487.14	450.63
487.574	443.22
488.009	440.11
488.443	435.72
488.877	440.05
489.311	441.52
489.745	447.04
490.179	451.03
490.613	460.18
491.046	464.22
491.48	468.36
491.914	469.99
492.348	474.51
492.781	477.78
493.215	479.84
493.648	481.54
494.082	485.25
494.515	486.44
494.948	493.18
495.382	496.48
495.815	500.04
496.248	504.58
496.681	513.69
497.114	522.31
497.547	529.97
497.98	541.2
498.413	547.15
498.846	556.34
499.279	562.86
499.711	566.64
500.144	570.32
500.577	579.62
501.009	588.55
501.442	597.22
501.874	599.75
502.306	602.53
502.739	610.35
503.171	622.42
503.603	626.34
504.036	634.89
504.468	641.76
504.9	651.88
505.332	657.7
505.764	663.41
506.196	671.3
506.627	684.81
507.059	697.87
507.491	705.74
507.923	706.45
508.354	719.34
508.786	729.88
509.217	744.08
509.649	757.43
510.08	774.51
510.512	788.83
510.943	802.05
511.374	812.01
511.805	827.88
512.237	844.06
512.668	869.58
513.099	891.96
513.53	914.3
513.961	932.49
514.391	958.82
514.822	985.95
515.253	1014.85
515.684	1035.23
516.114	1059.71
516.545	1078.75
516.975	1100.77
517.406	1116.3
517.836	1119.88
518.267	1126.39
518.697	1142.48
519.127	1147.11
519.558	1154.78
519.988	1158.52
520.418	1167.34
520.848	1182.4
521.278	1189.34
521.708	1209.53
522.138	1220.99
522.567	1246.16
522.997	1267.12
523.427	1279.69
523.857	1293.08
524.286	1300.72
524.716	1313.4
525.145	1329.11
525.575	1337.77
526.004	1349.05
526.433	1338.54
526.863	1339.19
527.292	1331.05
527.721	1335.15
528.15	1339.74
528.579	1340.74
529.008	1350.7
529.437	1369.55
529.866	1380.35
530.295	1394.93
530.724	1406.7
531.152	1428.92
531.581	1440.94
532.01	1456.59
532.438	1464.39
532.867	1476.64
533.295	1491.88
533.723	1496.25
534.152	1495.21
534.58	1495.29
535.008	1482.68
535.436	1484.7
535.865	1491.61
536.293	1503.63
536.721	1517.3
537.149	1539.6
537.576	1542.87
538.004	1554.43
538.432	1561.84
538.86	1561.77
539.287	1569.86
539.715	1582.42
540.143	1585.97
540.57	1584.95
540.998	1582.76
541.425	1564.28
541.852	1547.11
542.28	1546.52
542.707	1533.57
543.134	1522.64
543.561	1520.06
543.988	1513.94
544.415	1512.86
544.842	1508.34
545.269	1502
545.696	1503.43
546.123	1514.21
546.549	1506.2
546.976	1495.87
547.403	1494.87
547.829	1497.01
548.256	1497.86
548.682	1495.82
549.108	1490.38
549.535	1489.46
549.961	1491.11
550.387	1479.68
550.813	1475.63
551.24	1480.07
551.666	1481.21
552.092	1473.6
552.518	1467.72
552.943	1463.82
553.369	1468.42
553.795	1473
554.221	1473.95
554.646	1470.28
555.072	1479.97
555.498	1482.74
555.923	1490.02
556.349	1501.72
556.774	1508.25
557.199	1509.75
557.625	1513.22
558.05	1509.2
558.475	1518.06
558.9	1518.26
559.325	1512.08
559.75	1507.38
560.175	1502.62
560.6	1498.11
561.025	1496.06
561.449	1497.96
561.874	1503.16
562.299	1508.13
562.723	1513.76
563.148	1505.31
563.572	1507.74
563.997	1516.34
564.421	1520.16
564.846	1521.4
565.27	1524.59
565.694	1523.16
566.118	1533.43
566.542	1539.69
566.966	1533.78
567.39	1531.1
567.814	1523.36
568.238	1523.3
568.662	1528.5
569.086	1531.95
569.509	1539.5
569.933	1528.29
570.357	1523.56
570.78	1506.8
571.204	1496.24
571.627	1488.02
572.05	1487.14
572.474	1487.59
572.897	1478.65
573.32	1472.71
573.743	1463.98
574.166	1448.91
574.589	1447.65
575.012	1441.39
575.435	1440.77
575.858	1434.12
576.281	1424.91
576.704	1411.47
577.126	1401.1
577.549	1390.9
577.972	1382.56
578.394	1373.75
578.817	1367.52
579.239	1352.56
579.661	1341.12
580.084	1327.44
580.506	1315.58
580.928	1312.51
581.35	1303.81
581.772	1300.11
582.194	1289.75
582.616	1279.05
583.038	1268.87
583.46	1258.86
583.882	1256.18
584.303	1258.69
584.725	1255.48
585.147	1258.75
585.568	1267.72
585.99	1277.13
586.411	1282.81
586.833	1294.59
587.254	1296.6
587.675	1307.67
588.096	1318.59
588.518	1313.64
588.939	1300.62
589.36	1298.15
589.781	1288.14
590.202	1265.25
590.623	1257.65
591.043	1255.1
591.464	1245.62
591.885	1242.32
592.305	1236.67
592.726	1225.7
593.147	1226.65
593.567	1222.83
593.987	1217.62
594.408	1212.94
594.828	1210.39
595.248	1206.11
595.669	1191.45
596.089	1184.74
596.509	1179.68
596.929	1169.25
597.349	1169.56
597.769	1161.5
598.189	1155.4
598.608	1156.05
599.028	1157.86
599.448	1157.91
599.867	1147.61
600.287	1143.95
600.706	1141.07
601.126	1132.41
601.545	1131.28
601.965	1129.62
602.384	1125.61
602.803	1128.42
603.222	1123.62
603.641	1118.22
604.061	1115.76
604.48	1112.43
604.898	1118.38
605.317	1121.71
605.736	1123
606.155	1120.74
606.574	1113.49
606.992	1117.53
607.411	1112.75
607.829	1106.34
608.248	1103.15
608.666	1099.78
609.085	1098.2
609.503	1090.38
609.921	1085.42
610.339	1086.8
610.758	1085.15
611.176	1081.25
611.594	1073.95
612.012	1071.57
612.43	1074.34
612.847	1079.3
613.265	1080.96
613.683	1084.83
614.101	1087.03
614.518	1084.29
614.936	1075.81
615.353	1065.15
615.771	1063.13
616.188	1062.95
616.606	1060.21
617.023	1054.83
617.44	1043.95
617.857	1037.72
618.274	1031.32
618.691	1025.9
619.108	1017.64
619.525	1012.53
619.942	1017.32
620.359	1019
620.776	1014.63
621.192	1011.26
621.609	1009.5
622.026	1013.58
622.442	1017.67
622.859	1019.93
623.275	1013.63
623.691	1018
624.108	1026.96
624.524	1039.2
624.94	1039.23
625.356	1048.17
625.772	1058.96
626.188	1069.32
626.604	1071.9
627.02	1070.52
627.436	1069.12
627.852	1076.22
628.268	1086.49
628.683	1080.38
629.099	1072.56
629.514	1069.46
629.93	1071.77
630.345	1074.92
630.761	1069.91
631.176	1071.91
631.591	1066.2
632.007	1061.91
632.422	1059.88
632.837	1050.55
633.252	1049.02
633.667	1041.07
634.082	1033.07
634.497	1023.03
634.911	1006.87
635.326	1004.73
635.741	989.98
636.155	982.18
636.57	982.4
636.984	980.64
637.399	981.18
637.813	979.39
638.228	977.14
638.642	979.36
639.056	969.48
639.47	969.19
639.884	961.32
640.298	955.91
640.712	952.44
641.126	940.19
641.54	932.99
641.954	926.81
642.368	915.67
642.781	908.1
643.195	892.36
643.609	892.37
644.022	885.88
644.436	880.24
644.849	869.09
645.262	858.83
645.676	859.43
646.089	853.39
646.502	840.97
646.915	835.03
647.328	820.56
647.741	818.05
648.154	806.72
648.567	804.66
648.98	794.08
649.393	793.37
649.805	790.24
650.218	783.15
650.631	770.09
651.043	764.35
651.456	759
651.868	758.9
652.28	771.92
652.693	780.59
653.105	784.17
653.517	789.28
653.929	789.57
654.341	792.77
654.753	782.77
655.165	787.42
655.577	784.73
655.989	780.72
656.401	773.71
656.813	744.58
657.224	728.33
657.636	704.76
658.047	691.89
658.459	676.32
658.87	667.89
659.282	658.8
659.693	642.9
660.104	631.53
660.515	620.53
660.926	617.01
661.338	613.77
661.749	607.47
662.159	600.64
662.57	595.49
662.981	590.57
663.392	584.56
663.803	585.53
664.213	581.57
664.624	577.37
665.035	578.2
665.445	567.89
665.855	562.47
666.266	557.38
666.676	554.85
667.086	548.26
667.497	546.56
667.907	542.66
668.317	535.46
668.727	533.73
669.137	532.34
669.547	530.18
669.956	531.88
670.366	532.62
670.776	532.25
671.186	533.96
671.595	535.75
672.005	538.88
672.414	536.84
672.824	535.99
673.233	537.84
673.642	540.2
674.052	541.72
674.461	543.21
674.87	546.99
675.279	546.33
675.688	547.1
676.097	548.53
676.506	545.97
676.915	556.31
677.323	557.88
677.732	556.47
678.141	555.74
678.549	548.83
678.958	547.72
679.366	547.42
679.775	550.45
680.183	559.29
680.592	563.31
681	568.54
681.408	565.49
681.816	573.19
682.224	581.23
682.632	590.93
683.04	615.05
683.448	635.65
683.856	659.11
684.264	688.38
684.671	714.5
685.079	746.77
685.487	781.99
685.894	830.4
686.302	871.36
686.709	907.72
687.116	948.89
687.524	984.95
687.931	1016.84
688.338	1045.83
688.745	1068.89
689.152	1097.45
689.559	1133.67
689.966	1170.56
690.373	1191.36
690.78	1226.69
691.187	1279.15
691.593	1321.07
692	1355.79
692.407	1407.61
692.813	1471.11
693.22	1521.91
693.626	1572.6
694.032	1615.34
694.439	1678.23
694.845	1726.72
695.251	1788.25
695.657	1841.96
696.063	1920.3
696.469	1978.9
696.875	2034.03
697.281	2064.69
697.687	2104.56
698.093	2135.66
698.498	2196.51
698.904	2243.29
699.31	2314.03
699.715	2363.51
700.12	2438.06
700.526	2452.8
700.931	2510.53
701.337	2551.87
701.742	2576.21
702.147	2641.15
702.552	2662.92
702.957	2711.07
703.362	2725.16
703.767	2745.59
704.172	2776.79
704.577	2734.72
704.981	2772.46
705.386	2783.3
705.791	2774.71
706.195	2833.59
706.6	2839.7
707.004	2904.13
707.408	2875.19
707.813	2894.05
708.217	2883.22
708.621	2883.39
709.025	2960.37
709.43	2959.08
709.834	3004.94
710.237	3060.3
710.641	3046.45
711.045	3062.59
711.449	3056.95
711.853	3077.99
712.256	3110.85
712.66	3139.9
713.064	3197.76
713.467	3230.87
713.87	3319.32
714.274	3354.11
714.677	3439.54
715.08	3568.29
715.484	3701.5
715.887	3863.24
716.29	4023.28
716.693	4191.19
717.096	4381.07
717.499	4484.54
717.901	4501.62
718.304	4518.83
718.707	4536.21
719.109	4450.43
719.512	4424.36
719.915	4315.51
720.317	4267.24
720.719	4299.26
721.122	4272.33
721.524	4232.27
721.926	4199.56
722.328	4277.52
722.731	4269.23
723.133	4293.02
723.535	4448.91
723.937	4464.31
724.338	4504.81
724.74	4535.5
725.142	4490.79
725.544	4490.41
725.945	4510.57
726.347	4504.85
726.748	4499.04
727.15	4509.4
727.551	4477.98
727.952	4453.36
728.354	4425.91
728.755	4421.77
729.156	4387.42
729.557	4370.17
729.958	4267.52
730.359	4221.84
730.76	4205.71
731.161	4158.73
731.562	4138.5
731.962	4138.92
732.363	4087.43
732.763	4036.65
733.164	4065.43
733.564	4011.53
733.965	3933.88
734.365	3907.16
734.766	3928.12
735.166	3896.81
735.566	3851.63
735.966	3830.78
736.366	3825.88
736.766	3774.56
737.166	3798.75
737.566	3765.98
737.966	3746.79
738.365	3777.56
738.765	3772.5
739.165	3710.03
739.564	3689.73
739.964	3722.35
740.363	3684.74
740.763	3682.06
741.162	3674
741.561	3649.42
741.96	3611.95
742.36	3625.86
742.759	3631.7
743.158	3661.07
743.557	3674.82
743.955	3705.44
744.354	3670.97
744.753	3716.08
745.152	3683.22
745.55	3727.44
745.949	3720.8
746.348	3723.39
746.746	3736.51
747.144	3704.35
747.543	3687.04
747.941	3725.99
748.339	3669.77
748.737	3665.23
749.136	3657.83
749.534	3709.08
749.932	3686.7
750.33	3706.32
750.727	3747.17
751.125	3727.3
751.523	3715.44
751.921	3749.32
752.318	3719.91
752.716	3765.74
753.113	3775.03
753.511	3794.28
753.908	3794.63
754.305	3780.48
754.703	3827.5
755.1	3876.09
755.497	3925.48
755.894	4072.25
756.291	4211.47
756.688	4472.23
757.085	4814.64
757.482	5299.74
757.878	5825.2
758.275	6301.38
758.672	6957.93
759.068	7492.17
759.465	8255.09
759.861	9230.89
760.258	10374.32
760.654	10962.04
761.05	10870.69
761.447	10377.17
761.843	9658.59
762.239	8924.26
762.635	8589.47
763.031	8270.53
763.427	7811.56
763.822	7326.2
764.218	6847.93
764.614	6218.1
765.01	5800.68
765.405	5532.4
765.801	5327.48
766.196	5067.91
766.592	4921.97
766.987	4676.76
767.382	4508.6
767.778	4438.89
768.173	4335.41
768.568	4279.99
768.963	4184.83
769.358	4200.54
769.753	4162.77
770.148	4095.32
770.542	4091.44
770.937	4065.39
771.332	4134.7
771.726	4147.23
772.121	4097.82
772.515	4143.43
772.91	4131.06
773.304	4186.39
773.699	4134.37
774.093	4177.01
774.487	4223.54
774.881	4259.7
775.275	4256.65
775.669	4224.92
776.063	4262.72
776.457	4292.47
776.851	4233.3
777.245	4229.48
777.638	4256.7
778.032	4347.35
778.425	4319.04
778.819	4354
779.212	4320.27
779.606	4289.33
779.999	4306.52
780.392	4293.08
780.786	4355.42
781.179	4372.56
781.572	4404.23
781.965	4411.68
782.358	4365.26
782.751	4407.99
783.143	4368.6
783.536	4426.27
783.929	4459.76
784.322	4546.58
784.714	4573.15
785.107	4567.21
785.499	4622.23
785.891	4606.49
786.284	4594.26
786.676	4707.15
787.068	4693.15
787.46	4731.27
787.852	4743.82
788.245	4811.54
788.636	4837
789.028	4886.86
789.42	4916.78
789.812	4924.42
790.204	4998.2
790.595	5076.08
790.987	4922.85
791.378	4940.98
791.77	5043.17
792.161	5152.48
792.553	5196.3
792.944	5109.89
793.335	5053.7
793.726	5113.83
794.117	5181.11
794.508	5287.38
794.899	5259.55
795.29	5367.69
795.681	5410.6
796.072	5298.62
796.463	5154.97
796.853	5163.59
797.244	5284.15
797.634	5311.98
798.025	5307.75
798.415	5320.68
798.806	5390.06
799.196	5462.76
799.586	5499.83
799.976	5468.65
800.366	5646.36
800.756	5830.13
801.146	5798.98
801.536	5819.93
801.926	5877.2
802.316	5903.78
802.706	5953.54
803.095	5856.12
803.485	5933.38
803.874	5968.09
804.264	6175.03
804.653	6157.32
805.043	6272.65
805.432	6354.69
805.821	6357.92
806.21	6374.07
806.599	6460.14
806.988	6498.3
807.377	6580.9
807.766	6676.55
808.155	6892.22
808.544	6685.08
808.933	6695.06
809.321	6682.37
809.71	6912.83
810.098	7034.5
810.487	7392.72
810.875	7763.95
811.264	7782.33
811.652	8010.13
812.04	8124.78
812.428	8255.57
812.816	8844.36
813.204	9166.99
813.592	9589.85
813.98	9842.32
814.368	9761.97
814.756	10134.71
815.144	10074.46
815.531	10431.94
815.919	10364
816.306	10603.3
816.694	10365.18
817.081	10412.21
817.469	10677.28
817.856	10667.21
818.243	10879.24
818.63	11191.36
819.017	10868.68
819.404	10914.44
819.791	11207.15
820.178	11691.53
820.565	11882.89
820.952	12601.32
821.339	12215.24
821.725	12357.09
822.112	11779.18
822.498	11744.25
822.885	11845.84
823.271	11766.51
823.657	12090.56
824.044	12100.55
824.43	12145.92
824.816	12123.96
825.202	11786.39
825.588	12570.51
825.974	12588.03
826.36	12991.88
826.746	13025.03
827.132	13295.28
827.517	13278.63
827.903	12670.85
828.289	12700.21
828.674	12101.65
829.06	12014.59
829.445	12322.93
829.83	12599.72
830.216	12962.27
830.601	13254
830.986	12933.01
831.371	12830.43
831.756	13258.73
832.141	12930.61
832.526	12923.23
832.911	13151.08
833.295	13067.71
833.68	13435.97
834.065	12957.3
834.449	12258.72
834.834	12194.18
835.218	12199.8
835.603	12467.96
835.987	12305.97
836.371	12955.63
836.755	12883.47
837.139	13195.87
837.524	13378.32
837.908	13235.06
838.291	13285.66
838.675	13337.3
839.059	13506
839.443	13496.36
839.827	13318.71
840.21	13690.96
840.594	13574.86
840.977	13729.53
841.361	13711.99
841.744	14008.42
842.127	13897.06
842.511	14090.33
842.894	14554.57
843.277	14849.12
843.66	15271.81
844.043	15335.24
844.426	14710.07
844.809	14468.07
845.191	14498.96
845.574	14147.35
845.957	13867.18
846.339	13784.97
846.722	13381.1
847.104	13436.77
847.487	13306.01
847.869	13319.5
848.252	13537.07
848.634	13803.3
849.016	14017.35
849.398	14109.46
849.78	14770.06
850.162	14778.53
850.544	15097.86
850.926	15582.08
851.307	15511
851.689	15727.06
852.071	16071.45
852.452	16322.98
852.834	16310.13
853.215	16613.08
853.597	16734.45
853.978	16960.23
854.359	17312.72
854.741	16541.25
855.122	16464.6
855.503	16244.07
855.884	16342.74
856.265	16293.64
856.646	16374.32
857.026	16066.94
857.407	16011.91
857.788	16139.13
858.169	16362.47
858.549	15702.54
858.93	16179.72
859.31	16215.33
859.69	16374.05
860.071	16066.85
860.451	15898.15
860.831	15336.38
861.211	16232.71
861.591	16669.88
861.971	16646.27
862.351	16793.11
862.731	17088.19
863.111	17298.47
863.491	17553.56
863.87	18221.19
864.25	18493.13
864.629	18198.66
865.009	18583.96
865.388	19242.95
865.768	20608.81
866.147	20527.79
866.526	19396.06
866.905	19628.55
867.284	20725.72
867.663	19681.96
868.042	18879.23
868.421	18810.06
868.8	19103.63
869.179	19296.25
869.558	18159.14
869.936	16733.14
870.315	17028.25
870.693	17443.11
871.072	18811.06
871.45	17921.76
871.828	18143.21
872.207	19069.37
872.585	18781.91
872.963	19302.34
873.341	18631.45
873.719	18416.58
874.097	18205.41
874.475	18550.22
874.853	18970.2
875.23	18177
875.608	18928.49
875.986	20474.34
876.363	19585.74
876.741	20185.06
877.118	19679.88
877.495	20654.46
877.873	21009.59
878.25	22110.53
878.627	21201.7
879.004	21495.43
879.381	21389.69
879.758	20837.78
880.135	19400.58
880.512	20512.36
880.889	19962.53
881.265	19744.08
881.642	19574.26
882.019	19901.73
882.395	19484.65
882.772	20265.03
883.148	19386.24
883.524	19313.45
883.901	19201.17
884.277	19496.26
884.653	19368.93
885.029	19947.59
885.405	22110.39
885.781	21947.71
886.157	21049.95
886.532	21321.14
886.908	21311.92
887.284	23704.86
887.659	24490.48
888.035	25244.96
888.411	25892.2
888.786	26238.74
889.161	27123.9
889.537	26622.85
889.912	27476.62
890.287	27434.69
890.662	28136.06
891.037	27626.13
891.412	25758.66
891.787	25494.14
892.162	24615.38
892.536	25205.38
892.911	24265.15
893.286	23759.03
893.66	22791.88
894.035	23371.54
894.409	25461.04
894.784	24441.2
895.158	24854.26
895.532	26335.01
895.906	27057.05
896.281	27690.32
896.655	27253.29
897.029	31137.17
897.402	32438.08
897.776	36107.59
898.15	35985.61
898.524	35597.78
898.898	36056.79
899.271	40337.19
899.645	34918.5
900.018	33521.04
900.392	34759.15
900.765	35010.71
901.138	32395.44
901.511	31880.49
901.884	29278.04
902.258	26996.2
902.631	27899.93
903.003	32093.37
903.376	28989.55
903.749	32517.9
904.122	34812.28
904.495	38324.36
904.867	38812.93
905.24	33700.73
905.612	31374.4
905.985	32082.48
906.357	33550.35
906.729	32005.33
907.102	27352.22
907.474	26289.16
907.846	26455.42
908.218	26121.6
908.59	23097.59
908.962	22339.54
909.334	24056.42
909.705	25272.76
910.077	24524.8
910.449	25519.78
910.82	26247.28
911.192	28891.13
911.563	30006.14
911.935	32100.14
912.306	32117.94
912.677	33141.78
913.048	32826.96
913.419	35606.88
913.79	35817.49
914.161	38422.17
914.532	36758.72
914.903	33781.84
915.274	32080.22
915.645	31615.43
916.015	27831.92
916.386	26544.94
916.756	28247.32
917.127	29106.94
917.497	25995.26
917.868	28275.14
918.238	26871.33
918.608	27634.63
918.978	28190.54
919.348	29845.28
919.718	30834.72
920.088	29701.28
920.458	30849.51
920.828	32484.4
921.198	30824.81
921.567	32924.05
921.937	25504.15
922.306	25739.26
922.676	27744.54
923.045	23145.58
923.415	21997.84
923.784	20048.91
924.153	20607.25
924.522	20592.21
924.891	19349.78
925.26	20720.73
925.629	20252.21
925.998	23288.98
926.367	22727.79
926.736	21647.79
927.104	25795.03
927.473	27720.59
927.842	33456.48
928.21	33149.66
928.578	34862.04
928.947	32980.26
929.315	33180.42
929.683	38879.03
930.051	39200.33
930.42	45531.28
930.788	38936.31
931.156	38621.88
931.523	36195.99
931.891	33452.14
932.259	32109.54
932.627	37186.17
932.994	52608.27
933.362	43499.39
933.729	37795.73
934.097	36163.19
934.464	30597.88
934.831	35285.6
935.199	34786.02
935.566	33775.08
935.933	34290.46
936.3	41582.04
936.667	32394.82
937.034	29246.04
937.401	28909.54
937.767	24970.68
938.134	22223.56
938.501	31365.97
938.867	33460.46
939.234	56614.78
939.6	48291.39
939.967	53106.77
940.333	35542.94
940.699	30258.86
941.065	24278.29
941.431	31847.62
941.798	30683.54
942.163	40338.3
942.529	25186.53
942.895	23166.91
943.261	15002.04
943.627	19664.98
943.992	17222.85
944.358	17265.38
944.723	17348.54
945.089	16920.86
945.454	15624.35
945.82	16688.66
946.185	16051.29
946.55	18613.49
946.915	16723.16
947.28	19623.39
947.645	17282.63
948.01	15950.77
948.375	16627.32
948.74	19923.05
949.104	23195.28
949.469	33508.87
949.834	59191.53
950.198	56010.65
950.562	33595.07
950.927	27948.46
951.291	33561.03
951.655	28581.2
952.02	26857.27
952.384	20286.1
952.748	17648.82
953.112	17248.83
953.476	15010.76
953.839	13893.38
954.203	13753.74
954.567	17184.34
954.931	27055.43
955.294	23156.33
955.658	23291.96
956.021	39548.99
956.385	67017.47
956.748	98830.01
957.111	152774.68
957.474	171433.15
957.837	192741.41
958.2	146003.22
958.563	52515.33
958.926	35497.96
959.289	53885.94
959.652	60178.4
960.015	45211.85
960.377	64921.64
960.74	74163.73
961.102	128225.16
961.465	137587.23
961.827	73747.88
962.189	141414.56
962.552	97976.73
962.914	78496.16
963.276	50967.57
963.638	42124.49
964	41641.46
964.362	28146.94
964.724	27202.46
965.085	19402.3
965.447	15932.63
965.809	18147.73
966.17	18178.95
966.532	19707.75
966.893	18111.27
967.255	16462.37
967.616	19421.98
967.977	15559.08
968.338	16984.65
968.699	13959.23
969.061	13954.47
969.421	14027.39
969.782	15747.54
970.143	13286.27
970.504	13757.37
970.865	15631.36
971.225	15971.86
971.586	15626.69
971.946	22260.43
972.307	19333.28
972.667	25243.99
973.027	25967.69
973.388	31477.87
973.748	21426.95
974.108	23366.92
974.468	31544.86
974.828	24300.8
975.188	18711.98
975.548	17205.67
975.907	14467.63
976.267	16238.7
976.627	13647.88
976.986	14153.97
977.346	13488.78
977.705	12970.19
978.064	11811.49
978.424	9847.15
978.783	10193.02
979.142	11632.96
979.501	11126.38
979.86	11747.34
980.219	11294.75
980.578	14581.12
980.937	16329.2
981.296	14557.54
981.654	14953.07
982.013	23256.65
982.371	30152.99
982.73	28178.05
983.088	31869.83
983.447	34046.15
983.805	48685.47
984.163	101886
984.521	113035.4
984.879	165577.69
985.237	-269118.95
985.595	260121.77
985.953	64557.02
986.311	37208.19
986.669	21600.21
987.026	18662.88
987.384	25053.88
987.741	25915.87
988.099	18520.61
988.456	14756.39
988.814	13856.84
989.171	12051.7
989.528	11881.47
989.885	12553.94
990.242	9984.22
990.599	12412.22
990.956	10154.92
991.313	7123.96
991.67	5850.55
992.027	6212.25
992.383	5525.49
992.74	4839.67
993.096	5079.39
993.453	5260.56
993.809	5448
994.165	7225.08
994.522	6642.43
994.878	7335.41
995.234	9177.79
995.59	9048.36
995.946	8564.46
996.302	9756.44
996.658	11275.93
997.013	12428.52
997.369	14768.85
997.725	18954.75
998.08	12340.98
998.436	19014.39
998.791	26226.01
999.147	26221
999.502	28577.52
999.857	20768.47
1000.212	33836.69
1000.567	48214.01
1000.922	27803.2
1001.277	17652.39
1001.632	13080.69
1001.987	16767.36
1002.342	12013.33
1002.696	9582.54
1003.051	7652.94
1003.406	9254.72
1003.76	9190.81
1004.114	9087.96
1004.469	7632.56
1004.823	6315.27
1005.177	6799.33
1005.531	5387.64
1005.885	4791.21
1006.239	5407.35
1006.593	6776.77
1006.947	9048.4
1007.301	6799.33
1007.655	7402.49
1008.008	5422.63
1008.362	6086.55
1008.715	8707.38
1009.069	7914.96
1009.422	11920.65
1009.776	23948.33
1010.129	15879.96
1010.482	13292.71
1010.835	11240.2
1011.188	23435.37
1011.541	22132.02
1011.894	-135220.13
1012.247	397388.34
1012.6	27098.32
1012.952	17105.82
1013.305	8834.42
1013.657	6362.18
1014.01	6031.54
1014.362	4967.21
1014.715	4422.86
1015.067	3851
1015.419	3754.45
1015.771	3341.77
1016.123	2990.58
1016.475	3058.99
1016.827	3259.61
1017.179	3498.28
1017.531	3511.82
1017.883	3586.1
1018.234	3480.48
1018.586	4401.83
1018.938	4672.14
1019.289	6448.22
1019.64	7335.88
1019.992	6832.59
1020.343	6266.06
1020.694	4980.02
1021.045	4412.97
1021.396	5047.42
1021.747	5401.11
1022.098	6463.21
1022.449	4676.73
1022.8	4345.93
1023.151	3035.65
1023.501	2701.41
1023.852	2932.38
1024.202	3052.88
1024.553	3323.57
1024.903	3232.17
1025.253	2777.33
1025.604	2492.73
1025.954	3089.73
1026.304	3761.56
1026.654	4360.11
1027.004	6378.12
1027.354	10316.09
1027.703	9737.04
1028.053	12800.46
1028.403	18941.29
1028.753	27501.61
1029.102	37265.42
1029.452	192461.63
1029.801	8303.55
1030.15	5387.51
1030.499	4590.11
897.758	2224.2
901.051	2153.08
904.343	2188.2
907.636	2196.71
910.928	2259.73
914.22	2176.62
917.511	2181.91
920.803	2233.28
924.094	2231
927.384	2234.84
930.675	2198.51
933.965	2159.81
937.255	2192
940.544	2158.99
943.834	2158.48
947.123	2098.48
950.411	2188.89
953.7	2168.3
956.988	2151.06
960.276	2086.76
963.563	2136.89
966.851	2145.78
970.138	2187.62
973.424	2189.32
976.711	2143
979.997	2190.8
983.283	2234.03
986.568	2164.5
989.853	2155.52
993.138	2183.86
996.423	2269.51
999.708	2226.36
1002.992	2257.13
1006.275	2171.15
1009.559	2176.65
1012.842	2275.5
1016.125	2226.65
1019.408	2204.79
1022.69	2262.31
1025.972	2299.1
1029.254	2271.11
1032.536	2231.16
1035.817	2242.21
1039.098	2212.75
1042.379	2263.76
1045.659	2291.12
1048.939	2238.1
1052.219	2247.35
1055.498	2241.71
1058.778	2238.04
1062.057	2211.42
1065.335	2235.16
1068.614	2248.88
1071.892	2244.88
1075.17	2296.92
1078.447	2299.73
1081.724	2293.99
1085.001	2322.15
1088.278	2297.61
1091.554	2303.2
1094.83	2298.29
1098.106	2333.77
1101.382	2366.56
1104.657	2362.64
1107.932	2363.82
1111.206	2340.52
1114.481	2292.95
1117.755	2291.52
1121.029	2282.56
1124.302	2343.93
1127.575	2311.03
1130.848	2307.85
1134.121	2276.85
1137.393	2236.93
1140.665	2298.13
1143.937	2273.58
1147.208	2223.21
1150.48	2281.86
1153.75	2273.39
1157.021	2273.63
1160.291	2250.54
1163.561	2303.74
1166.831	2271.08
1170.101	2298.19
1173.37	2259.45
1176.639	2215.13
1179.907	2260.81
1183.176	2284.17
1186.444	2283.18
1189.711	2307.01
1192.979	2335.34
1196.246	2289.12
1199.513	2300.75
1202.78	2307.17
1206.046	2316.79
1209.312	2343.83
1212.578	2362.01
1215.843	2328.66
1219.108	2295.61
1222.373	2322.07
1225.638	2294
1228.902	2286.26
1232.166	2242.17
1235.43	2230.21
1238.693	2255.86
1241.956	2247.2
1245.219	2295.28
1248.482	2277.66
1251.744	2276.27
1255.006	2400.21
1258.268	2346.67
1261.529	2303.06
1264.79	2300.92
1268.051	2403.29
1271.312	2409.18
1274.572	2380.91
1277.832	2368.14
1281.092	2346.97
1284.351	2337.74
1287.61	2321.42
1290.869	2255.18
1294.128	2251.17
1297.386	2301.36
1300.644	2294.07
1303.902	2301.05
1307.159	2174.05
1310.416	2222.65
1313.673	2250.79
1316.93	2250.45
1320.186	2282.29
1323.442	2316.39
1326.697	2317.45
1329.953	2292.91
1333.208	2326.66
1336.463	2299.5
1339.717	2260.53
1342.972	2366.65
1346.226	2340.85
1349.479	2288.96
1352.733	2268.45
1355.986	2273.7
1359.238	2254.89
1362.491	2258.57
1365.743	2259.95
1368.995	2254.92
1372.247	2269.14
1375.498	2288.85
1378.749	2329.63
1382	2279.53
1385.251	2316.97
1388.501	2270.31
1391.751	2272.15
1395	2236.01
1398.25	2264.09
1401.499	2283.22
1404.748	2231.31
1407.996	2207.43
1411.244	2197.27
1414.492	2181.38
1417.74	2164.95
1420.987	2172.77
1424.234	2231.18
1427.481	2193.81
1430.728	2251.66
1433.974	2226.46
1437.22	2225.74
1440.465	2222.67
1443.711	2221.86
1446.956	2244.33
1450.201	2218.51
1453.445	2260.17
1456.689	2245.97
1459.933	2257.82
1463.177	2295.08
1466.42	2268.3
1469.663	2252.8
1472.906	2268.66
1476.148	2314.03
1479.391	2288.17
1482.633	2262.73
1485.874	2288.43
1489.115	2292.67
1492.356	2273.08
1495.597	2253.24
1498.838	2247.76
1502.078	2231.38
1505.318	2199.86
1508.557	2233.3
1511.797	2231.65
1515.036	2273.27
1518.274	2248.33
1521.513	2199.19
1524.751	2211.38
1527.989	2237.72
1531.227	2255.61
1534.464	2268.31
1537.701	2262.12
1540.938	2274.84
1544.174	2223.06
1547.41	2214.5
1550.646	2250.94
1553.882	2297.91
1557.117	2356.77
1560.352	2365.06
1563.587	2325.57
1566.821	2290.9
1570.055	2304.35
1573.289	2288.65
1576.523	2348.15
1579.756	2358.46
1582.989	2376.87
1586.222	2340.16
1589.454	2370
1592.686	2351.8
1595.918	2379.13
1599.15	2378.24
1602.381	2423.04
1605.612	2406.86
1608.843	2497.94
1612.073	2421.61
1615.303	2413.46
1618.533	2412.02
1621.762	2409.62
1624.992	2383.64
1628.221	2386.38
1631.449	2375.87
1634.678	2402.77
1637.906	2372.29
1641.134	2398.58
1644.361	2363.2
1647.588	2350.56
1650.815	2371.75
1654.042	2336.14
1657.269	2364.94
1660.495	2344.73
1663.72	2330.2
1666.946	2297.87
1670.171	2271.42
1673.396	2244.35
1676.621	2227.73
1679.845	2224.45
1683.069	2233.45
1686.293	2263.69
1689.517	2252.9
1692.74	2203.44
1695.963	2225.06
1699.185	2266.25
1702.408	2238.4
1705.63	2268.29
1708.852	2285.14
1712.073	2256.26
1715.294	2267.3
1718.515	2310.59
1721.736	2268.47
1724.956	2249.31
1728.176	2270.83
1731.396	2293.37
1734.616	2278.68
1737.835	2315.84
1741.054	2285.85
1744.272	2279.48
1747.491	2319.47
1750.709	2342.5
1753.927	2289.48
1757.144	2313.28
1760.361	2371.24
1763.578	2347.84
1766.795	2296.47
1770.011	2289.65
1773.227	2313.3
1776.443	2356.62
1779.658	2397.1
1782.874	2337.72
1786.089	2332.11
1789.303	2334.11
1792.518	2336.22
1795.732	2321.33
1798.945	2338.71
1802.159	2379.15
1805.372	2317.35
1808.585	2314.62
1811.797	2313.9
1815.01	2337.75
1818.222	2359.97
1821.434	2317.2
1824.645	2359.3
1827.856	2367.25
1831.067	2399.93
1834.278	2336.12
1837.488	2320.36
1840.698	2444.83
1843.908	2385.88
1847.117	2354.45
1850.326	2278.52
1853.535	2339.19
1856.744	2376.89
1859.952	2300.21
1863.16	2303.01
1866.368	2316.19
1869.575	2429.47
1872.782	2316.82
1875.989	2249.74
1879.196	2299.75
1882.402	2291.49
1885.608	2327.64
1888.814	2270.3
1892.019	2174.49
1895.224	2226.48
1898.429	2190.42
1901.634	2176.25
1904.838	2149.87
1908.042	2205.18
1911.246	2215.35
1914.449	2177.83
1917.652	2161.29
1920.855	2139.7
1924.058	2164.47
1927.26	2211.97
1930.462	2235.16
1933.664	2274.77
1936.865	2216.04
1940.066	2235.93
1943.267	2178.3
1946.467	2188.96
1949.668	2208.65
1952.868	2279.73
1956.067	2270.64
1959.267	2210.48
1962.466	2233.03
1965.665	2215.18
1968.863	2208.8
1972.061	2210.7
1975.259	2202.19
1978.457	2279.7
1981.654	2240.43
1984.852	2243.01
1988.048	2193.93
1991.245	2181.74
1994.441	2268.7
1997.637	2231.79
2000.833	2210.16
2004.028	2248.24
2007.223	2312.69
2010.418	2300.17
2013.613	2251.35
2016.807	2245.6
2020.001	2239.94
2023.194	2263.27
2026.388	2248.8
2029.581	2192.1
2032.774	2252.34
2035.966	2267.82
2039.158	2210.08
2042.35	2228.05
2045.542	2154.04
2048.733	2235.64
2051.924	2228.07
2055.115	2243.32
2058.306	2207.21
2061.496	2261.27
2064.686	2315.15
2067.875	2221.27
2071.065	2224.85
2074.254	2244.02
2077.442	2196.59
2080.631	2280.91
2083.819	2209.98
2087.007	2204.03
2090.195	2189.57
2093.382	2205.7
2096.569	2189.03
2099.756	2147.04
2102.942	2195.25
2106.128	2206.78
2109.314	2195.26
2112.5	2182.31
2115.685	2150.07
2118.87	2157.9
2122.055	2219.93
2125.239	2197.91
2128.424	2185.52
2131.608	2247.95
2134.791	2234.5
2137.974	2271.74
2141.157	2261.5
2144.34	2234.46
2147.523	2222.59
2150.705	2248.05
2153.887	2216.16
2157.068	2186.62
2160.25	2168.52
2163.431	2191.69
2166.611	2159.35
2169.792	2179.88
2172.972	2092.68
2176.152	2144.01
2179.331	2170.25
2182.511	2175.03
2185.69	2199.28
2188.868	2203.66
2192.047	2238.5
2195.225	2255.11
2198.403	2203.94
2201.58	2194.32
2204.758	2182.58
2207.935	2254.17
2211.111	2169.91
2214.288	2160.28
2217.464	2194.18
2220.64	2147.37
2223.815	2197.92
2226.991	2131.32
2230.166	2147.92
2233.34	2190.31
2236.515	2201.86
2239.689	2265.42
2242.863	2217.89
2246.036	2270.59
2249.209	2252.25
2252.382	2272.14
2255.555	2281.48
2258.727	2230.95
2261.9	2258.81
2265.071	2249.66
2268.243	2246.98
2271.414	2194.6
2274.585	2177.75
2277.756	2237.36
2280.926	2194.82
2284.096	2223.81
2287.266	2152.72
2290.436	2201.49
2293.605	2220.59
2296.774	2258.41
2299.942	2263.78
2303.111	2280.91
2306.279	2333.7
2309.447	2318.64
2312.614	2290.43
2315.781	2313.12
2318.948	2291.36
2322.115	2328.39
2325.281	2225.31
2328.447	2234.69
2331.613	2204.79
2334.779	2196.22
2337.944	2192.25
2341.109	2192.8
2344.274	2179.98
2347.438	2148.8
2350.602	2171.31
2353.766	2181.11
2356.929	2169.91
2360.092	2207.58
2363.255	2179.66
2366.418	2145.05
2369.58	2214.84
2372.742	2083.09
2375.904	2077.74
2379.066	2064.33
2382.227	2087.98
2385.388	2049.07
2388.548	1998.37
2391.709	2040.6
2394.869	2030.82
2398.029	2085.28
2401.188	2082.59
2404.347	2043.5
2407.506	2126.55
2410.665	2165.41
2413.823	2150.58
2416.981	2129.76
2420.139	2146.69
2423.296	2188.53
2426.453	2162.05
2429.61	2181.05
2432.767	2150.57
2435.923	2190.28
2439.079	2138.17
2442.235	2172.65
2445.391	2113.02
2448.546	2157.43
2451.701	2190.72
2454.855	2186.91
2458.009	2213.54
2461.163	2203.31
2464.317	2176.64
2467.471	2203.82
2470.624	2232.99
2473.777	2219.74
2476.929	2237.22
2480.082	2259.52
2483.234	2231.38
2486.385	2175.33
2489.537	2168.87
2492.688	2160.84
2495.839	2176.44
2498.989	2193.02
2502.14	2178.76
2505.29	2170.12
2508.439	2196.18
2511.589	2135.58
2514.738	2138.16
2517.887	2160.15
2521.035	2235.04
2524.183	2195.27
2527.331	2181.92
2530.479	2175.98
2533.627	2176.19
