Data from C_2_HIR_WI_4N_Splice17_12-33-51-911.txt Node
Date: Sat Mar 14 12:33:51 EDT 2020
User: sa697716
Spectrometer: FLMS03696
Trigger mode: 0
Integration Time (sec): 3.180400E-1
Scans to average: 20
Electric dark correction enabled: true
Nonlinearity correction enabled: true
Boxcar width: 5
XAxis mode: Wavelengths
Number of Pixels in Spectrum: 2048
>>>>>Begin Spectral Data<<<<<
187.83	-301809.37
188.298	2196.07
188.766	1184.64
189.233	1096.23
189.701	1513.75
190.169	2131.02
190.636	865.13
191.104	677.42
191.571	105.43
192.039	-95.28
192.506	-80.2
192.974	393.53
193.441	-678.33
193.908	-73.73
194.375	-15.23
194.842	-6.2
195.31	114.09
195.777	186.43
196.244	372.21
196.711	380.52
197.177	466.16
197.644	626.59
198.111	1068.05
198.578	1465.61
199.045	1182.47
199.511	1987.38
199.978	2308.42
200.445	1972.44
200.911	2184.91
201.378	2408.88
201.844	2207.09
202.31	3730.96
202.777	3930.47
203.243	2200.06
203.709	2150.15
204.176	2570.22
204.642	2127.43
205.108	1987.17
205.574	1607.59
206.04	1466.48
206.506	1386.32
206.972	1293.5
207.438	1258.83
207.903	1436.36
208.369	1266.88
208.835	1262.53
209.301	1318.03
209.766	1321.73
210.232	1316.06
210.697	1636.98
211.163	2013.48
211.628	2995.58
212.094	2549.15
212.559	3163.83
213.024	1985.03
213.49	2439.97
213.955	2372.72
214.42	2328.53
214.885	2194.35
215.35	2125.14
215.815	2069.69
216.28	2198.04
216.745	1815.15
217.21	1990.88
217.675	1837.45
218.14	2090.79
218.604	2331.36
219.069	2691.76
219.534	2847.91
219.998	3330.65
220.463	4071.54
220.927	5024.29
221.392	4778.21
221.856	4875.15
222.32	6167.42
222.785	7638.05
223.249	9636.28
223.713	10824.39
224.177	10859.95
224.642	13923.6
225.106	17181.48
225.57	18784.55
226.034	14029.3
226.497	21367.76
226.961	19302.64
227.425	22460.26
227.889	24919.51
228.353	24885.11
228.816	51349.54
229.28	49098.1
229.744	41441.45
230.207	25176.26
230.671	24739.75
231.134	40890.28
231.597	47132.44
232.061	47126.3
232.524	45914.37
232.987	31626.95
233.45	28471.97
233.914	25571.75
234.377	26163.51
234.84	23966.33
235.303	28262.91
235.766	31565.56
236.229	32625.21
236.691	20532.67
237.154	23025.76
237.617	17336.54
238.08	17766.7
238.542	20811.09
239.005	14843.54
239.468	14736.6
239.93	13878.93
240.393	12602.2
240.855	11063.77
241.317	11323.25
241.78	13763.73
242.242	14243.45
242.704	15366.81
243.166	13359.44
243.629	12114.81
244.091	13964.43
244.553	15312.13
245.015	16452.38
245.477	21290.8
245.939	31161.86
246.4	33056.03
246.862	32148.83
247.324	30305.71
247.786	33903.85
248.247	44417.58
248.709	45818.23
249.17	34238.63
249.632	32235.91
250.093	37371.03
250.555	32225.37
251.016	19662
251.477	18619.69
251.939	20062.16
252.4	21021.9
252.861	24986.54
253.322	23236.55
253.783	27637.93
254.244	35825.13
254.705	28207.99
255.166	25019.84
255.627	24600.61
256.088	34656.56
256.549	36802.62
257.009	31667.89
257.47	38330.06
257.931	31166.84
258.391	23337.55
258.852	24007.03
259.312	25129.5
259.773	31059.55
260.233	26270.16
260.694	22187.34
261.154	25140.08
261.614	20165.46
262.074	18022.51
262.534	18749.08
262.994	17656.6
263.455	23501.97
263.915	19793.06
264.374	18621.22
264.834	20283.66
265.294	22440.32
265.754	23207.72
266.214	21950.78
266.673	20542.92
267.133	25917.07
267.593	25685.2
268.052	31437.93
268.512	27308.72
268.971	32926.25
269.431	36109.68
269.89	32316.79
270.349	48435.68
270.809	53928.71
271.268	48433.4
271.727	108472.58
272.186	70181.34
272.645	52581.95
273.104	37841.89
273.563	54795.28
274.022	43084.4
274.481	36641.63
274.94	28218.58
275.399	20947.96
275.857	24398.14
276.316	32964.5
276.775	29367.17
277.233	28902.54
277.692	27033.61
278.15	30592.96
278.609	31461.95
279.067	29063.06
279.525	26971.74
279.984	34761.81
280.442	41764.56
280.9	41154.71
281.358	27083.83
281.816	25202.81
282.274	24642.65
282.732	25450.21
283.19	25542.66
283.648	22007.92
284.106	23431.04
284.564	23773.76
285.021	22066.96
285.479	16405.03
285.937	14886.11
286.394	13034.12
286.852	13380.44
287.309	14060.55
287.767	13570.23
288.224	12912.4
288.682	14146.05
289.139	15526.78
289.596	14206.62
290.053	14742.55
290.511	18574.24
290.968	22495.13
291.425	30529.31
291.882	25439.46
292.339	22115.39
292.796	21929.14
293.252	20626.42
293.709	16378.27
294.166	14670.07
294.623	16205.16
295.079	15540.03
295.536	15635.17
295.992	14212.37
296.449	14036.44
296.905	14577.22
297.362	13985.68
297.818	14692.69
298.274	15232.02
298.731	15522.1
299.187	15340.87
299.643	16465.29
300.099	19895.69
300.555	21798.96
301.011	18208.31
301.467	17596.02
301.923	20565.88
302.379	20070.59
302.835	19702.6
303.291	19735.54
303.746	22439.43
304.202	28352.11
304.658	28450.93
305.113	19116.11
305.569	18751.4
306.024	19936.39
306.479	18925.42
306.935	15948.68
307.39	17386.86
307.845	16052.86
308.301	16120.24
308.756	15697.63
309.211	15102.1
309.666	15462.53
310.121	19209.83
310.576	19445.31
311.031	19286.4
311.486	22038.57
311.94	22004.27
312.395	29424.53
312.85	55217.56
313.305	271339.62
313.759	1404990.5
314.214	101681.42
314.668	80411.88
315.123	67593.66
315.577	24228.73
316.032	21558.95
316.486	27023.32
316.94	21358.49
317.394	14877.86
317.849	11542.83
318.303	10910.07
318.757	10270.21
319.211	11327.64
319.665	9915.18
320.119	10020.9
320.572	14352.39
321.026	13397.56
321.48	11146.4
321.934	12116.66
322.387	12115.64
322.841	13097.9
323.295	11783
323.748	13578.23
324.202	13796.51
324.655	16557.04
325.108	23162.35
325.562	16360.59
326.015	19445.72
326.468	14680.01
326.921	16402.55
327.374	15322.91
327.827	15978.21
328.28	18050.01
328.733	12088.45
329.186	10627.53
329.639	10140.55
330.092	8530.25
330.545	8131.4
330.997	8187.91
331.45	8956.61
331.903	10498.21
332.355	18022.49
332.808	17451.49
333.26	14411.21
333.713	15628.4
334.165	15714.23
334.617	20900.21
335.069	16815.62
335.522	30346.02
335.974	33578.02
336.426	30635.34
336.878	21167.87
337.33	10725.34
337.782	10477.56
338.234	13131.22
338.686	15730.96
339.137	18648.79
339.589	17584.82
340.041	13843.03
340.493	11872.02
340.944	12144.09
341.396	13085.37
341.847	11039.53
342.299	13037.5
342.75	15957.68
343.201	13887.31
343.653	15935.23
344.104	19598.09
344.555	15447.01
345.006	23999.8
345.457	18471.72
345.908	14694.27
346.359	13833.61
346.81	11236.33
347.261	11821.63
347.712	11596.75
348.163	12454.43
348.613	12623.31
349.064	11768.92
349.515	10271.35
349.965	10535.59
350.416	12625.53
350.866	13841.83
351.317	15621.72
351.767	25869.42
352.217	32639.48
352.668	27077.65
353.118	24818.33
353.568	23865.36
354.018	18876.06
354.468	19899.23
354.918	14240.55
355.368	12470.62
355.818	17570.62
356.268	50544.05
356.718	211613.94
357.168	52624.61
357.617	26369.95
358.067	29257.29
358.517	27412.88
358.966	32171.55
359.416	36160.5
359.865	39119.88
360.315	46500.96
360.764	21745.5
361.213	12179.68
361.663	11506.92
362.112	14180.66
362.561	22934.94
363.01	17294.92
363.459	14558.08
363.908	15704.55
364.357	13329.36
364.806	22474.24
365.255	15456.83
365.703	14186.37
366.152	14171.76
366.601	11496.99
367.05	9351.86
367.498	8493.05
367.947	8872.6
368.395	9213.18
368.844	8161
369.292	9786.1
369.74	6764.33
370.189	10340.05
370.637	12101.86
371.085	10429.3
371.533	12687.35
371.981	12227.75
372.429	11685.12
372.877	12145.95
373.325	10160.18
373.773	10334.33
374.221	9238.42
374.669	11485.15
375.116	9930.93
375.564	10005.03
376.012	11202.54
376.459	9219.68
376.907	11010.21
377.354	13303.47
377.801	12416.56
378.249	14298.97
378.696	18351.33
379.143	22248.53
379.591	23676.48
380.038	40142.17
380.485	29086.61
380.932	31481.66
381.379	28985.96
381.826	21380.02
382.273	15193.94
382.72	13304.41
383.166	12986.57
383.613	8434.29
384.06	7622.15
384.506	8859.36
384.953	6507.68
385.4	6557.72
385.846	5739.72
386.292	5576.4
386.739	5460.89
387.185	5411.76
387.631	5446.57
388.078	5317.92
388.524	5703
388.97	5269.97
389.416	4413.94
389.862	4719.57
390.308	4481.75
390.754	4586.22
391.2	5016.33
391.645	5160.08
392.091	4973.42
392.537	4819.46
392.983	4837.51
393.428	4789.59
393.874	5157.28
394.319	5194.93
394.765	4952.9
395.21	5123.27
395.655	4817.77
396.101	4530.96
396.546	4119.01
396.991	4165.42
397.436	3892.09
397.881	3780.54
398.326	3587.61
398.771	3419.25
399.216	2996.27
399.661	2709.25
400.106	2712.03
400.551	2792.4
400.995	2524.49
401.44	2505.22
401.885	2359.01
402.329	2385.93
402.774	2296.33
403.218	2238.58
403.663	2160.86
404.107	2235.23
404.551	2260.13
404.995	2072.69
405.44	1999.65
405.884	2023.52
406.328	1959.21
406.772	1954.26
407.216	1784.96
407.66	1726.85
408.104	1640.35
408.547	1534.77
408.991	1482.87
409.435	1426.02
409.879	1411.03
410.322	1397.09
410.766	1355.17
411.209	1291.72
411.653	1245.71
412.096	1224.51
412.54	1226.22
412.983	1219.3
413.426	1228.95
413.869	1227.34
414.312	1206.61
414.756	1164.45
415.199	1109.46
415.642	1078.78
416.085	1080.34
416.527	1073.14
416.97	1088.51
417.413	1031.25
417.856	1018.83
418.298	1005.95
418.741	1000.33
419.184	998.01
419.626	1040.24
420.069	1042.71
420.511	1049.16
420.953	1029.23
421.396	1019.45
421.838	992.86
422.28	1017.1
422.722	1025.54
423.164	1040.36
423.606	1025.4
424.048	1024.21
424.49	972.73
424.932	966.03
425.374	950.55
425.816	963.98
426.258	983.69
426.699	993.91
427.141	982.34
427.582	994.73
428.024	990.74
428.465	984.25
428.907	960.18
429.348	947.11
429.789	948.29
430.231	933.73
430.672	947.27
431.113	925.23
431.554	913.14
431.995	887.08
432.436	856.94
432.877	837.84
433.318	823.94
433.759	823
434.2	824.52
434.64	815.06
435.081	814.86
435.522	773.36
435.962	744.11
436.403	728.05
436.843	738.53
437.284	723.13
437.724	702.84
438.164	704.33
438.604	687.24
439.045	661.82
439.485	635.62
439.925	622.22
440.365	607.69
440.805	600.65
441.245	595.23
441.685	575.42
442.125	571.97
442.564	578.31
443.004	567.65
443.444	568.34
443.883	571.38
444.323	569.23
444.762	570.28
445.202	580.55
445.641	595.25
446.081	594.35
446.52	601.41
446.959	598.87
447.398	586.16
447.837	581.04
448.276	572.66
448.716	579.93
449.154	587.29
449.593	579.06
450.032	579.89
450.471	569.61
450.91	572.26
451.349	574.96
451.787	574.18
452.226	585.69
452.664	588.19
453.103	591.8
453.541	593.81
453.98	596.55
454.418	601.06
454.856	592.88
455.295	592.52
455.733	598.82
456.171	602.71
456.609	605.15
457.047	606.02
457.485	616
457.923	618.13
458.361	610.09
458.798	611.57
459.236	610.45
459.674	614.91
460.111	619.81
460.549	613.89
460.987	612.23
461.424	610.05
461.862	607.19
462.299	598.01
462.736	597.51
463.173	599.89
463.611	593.61
464.048	592.52
464.485	597.75
464.922	591.97
465.359	589.17
465.796	582.89
466.233	578.85
466.67	574.4
467.106	573.18
467.543	567.66
467.98	559.39
468.416	544.76
468.853	540.05
469.29	522.96
469.726	518.25
470.162	504.08
470.599	495.79
471.035	490.88
471.471	478.29
471.907	475.23
472.344	472.48
472.78	475.37
473.216	480.46
473.652	475.58
474.088	474.57
474.523	473.2
474.959	478.66
475.395	475.32
475.831	472.81
476.266	475.9
476.702	475.43
477.138	470.88
477.573	469.04
478.008	468.82
478.444	471.96
478.879	477.59
479.314	479.5
479.75	479.43
480.185	482.02
480.62	486.31
481.055	489.96
481.49	494.47
481.925	501.95
482.36	512.22
482.795	526.81
483.229	540.67
483.664	553.17
484.099	556.64
484.534	566.53
484.968	572.94
485.403	575.72
485.837	575
486.271	575.63
486.706	577.41
487.14	570.94
487.574	563.13
488.009	559.6
488.443	555.52
488.877	562.58
489.311	565.92
489.745	574.61
490.179	582.06
490.613	595.89
491.046	601.95
491.48	607.88
491.914	611.55
492.348	618.68
492.781	624.71
493.215	628.68
493.648	632.18
494.082	638.95
494.515	641.6
494.948	651.3
495.382	657.41
495.815	664.12
496.248	672.59
496.681	687.24
497.114	700.9
497.547	713.25
497.98	728.93
498.413	739.02
498.846	751.76
499.279	762.71
499.711	769.99
500.144	775.56
500.577	788.9
501.009	803.22
501.442	817.16
501.874	821.14
502.306	826.38
502.739	837.31
503.171	853.72
503.603	860.34
504.036	872.82
504.468	882.12
504.9	896.14
505.332	905.57
505.764	912.04
506.196	920.07
506.627	937.78
507.059	953.88
507.491	964.15
507.923	964.29
508.354	981.61
508.786	994.21
509.217	1013.77
509.649	1031.92
510.08	1052.4
510.512	1071.03
510.943	1088.08
511.374	1100.57
511.805	1122.35
512.237	1142.67
512.668	1176.37
513.099	1203.73
513.53	1231.65
513.961	1252.52
514.391	1283.7
514.822	1317.53
515.253	1352.28
515.684	1376.17
516.114	1404.44
516.545	1423.78
516.975	1449
517.406	1464.59
517.836	1464.55
518.267	1469.25
518.697	1484.96
519.127	1486.83
519.558	1490.34
519.988	1491.22
520.418	1498.62
520.848	1513.23
521.278	1518.75
521.708	1523.47
522.138	1534.13
522.567	1563.03
522.997	1584.64
523.427	1597.32
523.857	1610.46
524.286	1618.61
524.716	1631.1
525.145	1648.16
525.575	1655.42
526.004	1666.29
526.433	1665.45
526.863	1663.22
527.292	1649.47
527.721	1653.31
528.15	1656.2
528.579	1654.94
529.008	1663.62
529.437	1683.74
529.866	1694.23
530.295	1710.75
530.724	1721.77
531.152	1746.09
531.581	1758.46
532.01	1775.29
532.438	1781.91
532.867	1795.32
533.295	1811.78
533.723	1816.15
534.152	1813.52
534.58	1811.84
535.008	1794.38
535.436	1796.02
535.865	1803.7
536.293	1816.49
536.721	1830.72
537.149	1854.52
537.576	1856.18
538.004	1868.42
538.432	1876.03
538.86	1873.41
539.287	1880.63
539.715	1893.35
540.143	1894.89
540.57	1890.16
540.998	1885.13
541.425	1862.28
541.852	1840.89
542.28	1839.04
542.707	1822.38
543.134	1807.94
543.561	1802.99
543.988	1794.96
544.415	1793.77
544.842	1787.49
545.269	1780.09
545.696	1782.23
546.123	1794.44
546.549	1784.09
546.976	1770.26
547.403	1769.77
547.829	1770.82
548.256	1773.16
548.682	1769.64
549.108	1761.97
549.535	1761.69
549.961	1763.43
550.387	1750.28
550.813	1744.38
551.24	1749.95
551.666	1750.09
552.092	1740.02
552.518	1733.72
552.943	1727.89
553.369	1734.05
553.795	1740.26
554.221	1741.64
554.646	1738.46
555.072	1749.91
555.498	1755.25
555.923	1765.04
556.349	1781.34
556.774	1790.94
557.199	1792.46
557.625	1798.63
558.05	1794.29
558.475	1805.28
558.9	1805.88
559.325	1798.74
559.75	1792.91
560.175	1787.44
560.6	1781.63
561.025	1779.53
561.449	1780.82
561.874	1788.47
562.299	1794.11
562.723	1803.35
563.148	1794.91
563.572	1799.94
563.997	1811.82
564.421	1819.62
564.846	1822.41
565.27	1828.92
565.694	1829.85
566.118	1844.61
566.542	1855.02
566.966	1851.69
567.39	1849.73
567.814	1841.4
568.238	1843.71
568.662	1851.2
569.086	1856.19
569.509	1866.03
569.933	1852.47
570.357	1847.3
570.78	1828.27
571.204	1816.5
571.627	1807.85
572.05	1808.32
572.474	1811.17
572.897	1800.53
573.32	1795.48
573.743	1787.1
574.166	1770.77
574.589	1772.44
575.012	1767.12
575.435	1767.64
575.858	1760.5
576.281	1750.4
576.704	1734.58
577.126	1722.54
577.549	1712.17
577.972	1702.79
578.394	1692.5
578.817	1687.59
579.239	1669.73
579.661	1657.13
580.084	1643.04
580.506	1630.51
580.928	1627.54
581.35	1618.47
581.772	1615.81
582.194	1603.24
582.616	1591.1
583.038	1578.28
583.46	1567.25
583.882	1565.95
584.303	1570.76
584.725	1565.99
585.147	1569.1
585.568	1580.75
585.99	1593.82
586.411	1601.85
586.833	1618.61
587.254	1622.74
587.675	1639.29
588.096	1652.57
588.518	1647.63
588.939	1631.31
589.36	1631.42
589.781	1621.05
590.202	1592.17
590.623	1583.66
591.043	1580.55
591.464	1567.47
591.885	1562.68
592.305	1556.43
592.726	1541.82
593.147	1543.38
593.567	1539.56
593.987	1530.76
594.408	1524.82
594.828	1524.15
595.248	1518.64
595.669	1500.85
596.089	1493.15
596.509	1486.96
596.929	1472.75
597.349	1475.11
597.769	1464.78
598.189	1457.18
598.608	1460.1
599.028	1463.51
599.448	1463.37
599.867	1450.49
600.287	1445.69
600.706	1443.06
601.126	1433.61
601.545	1433.25
601.965	1431.84
602.384	1427.17
602.803	1430.9
603.222	1424.99
603.641	1417.95
604.061	1414.55
604.48	1410.21
604.898	1419.4
605.317	1424.68
605.736	1426.82
606.155	1424.31
606.574	1415.52
606.992	1421.93
607.411	1416.88
607.829	1409.33
608.248	1407.03
608.666	1405.09
609.085	1405.04
609.503	1396.45
609.921	1389.27
610.339	1392.7
610.758	1392.9
611.176	1388.19
611.594	1379.49
612.012	1377.26
612.43	1381.65
612.847	1388.64
613.265	1390.31
613.683	1395.25
614.101	1397.31
614.518	1393.98
614.936	1383.18
615.353	1367.17
615.771	1365.12
616.188	1365.38
616.606	1361.72
617.023	1353.84
617.44	1338.91
617.857	1330.74
618.274	1322.04
618.691	1314.81
619.108	1304.72
619.525	1298.07
619.942	1306.19
620.359	1308.95
620.776	1303.42
621.192	1299.24
621.609	1297.75
622.026	1306.21
622.442	1313.69
622.859	1316.88
623.275	1310.05
623.691	1317.22
624.108	1329.62
624.524	1343.57
624.94	1342.94
625.356	1352.61
625.772	1366.41
626.188	1378.38
626.604	1378.97
627.02	1373.05
627.436	1372.65
627.852	1379.67
628.268	1391.95
628.683	1383.5
629.099	1374.65
629.514	1370.38
629.93	1375.09
630.345	1379.74
630.761	1375.31
631.176	1378.39
631.591	1373.26
632.007	1366.48
632.422	1364.36
632.837	1352.42
633.252	1349.68
633.667	1340.31
634.082	1330.33
634.497	1317.06
634.911	1296.06
635.326	1292.24
635.741	1274.19
636.155	1264.17
636.57	1264.84
636.984	1265.82
637.399	1268.08
637.813	1267.96
638.228	1265.74
638.642	1270.96
639.056	1259.46
639.47	1260.09
639.884	1251.58
640.298	1246.46
640.712	1244.71
641.126	1231.26
641.54	1221.22
641.954	1215.16
642.368	1202.58
642.781	1195.43
643.195	1176.53
643.609	1178.5
644.022	1172.65
644.436	1168.22
644.849	1154.92
645.262	1142.54
645.676	1143.65
646.089	1138.24
646.502	1123.16
646.915	1115.69
647.328	1096.94
647.741	1093.23
648.154	1076.73
648.567	1072.67
648.98	1058.1
649.393	1057.57
649.805	1052.86
650.218	1043.53
650.631	1025.23
651.043	1016.33
651.456	1007.95
651.868	1006.39
652.28	1022.09
652.693	1035.24
653.105	1039.44
653.517	1047.19
653.929	1044.6
654.341	1048.19
654.753	1035.89
655.165	1039.35
655.577	1034.7
655.989	1028.61
656.401	1017.55
656.813	980.15
657.224	957.54
657.636	926.55
658.047	906.56
658.459	884.65
658.87	870.37
659.282	854.08
659.693	832.69
660.104	814.57
660.515	798.16
660.926	794.43
661.338	786.87
661.749	776.04
662.159	762.97
662.57	754.12
662.981	746.53
663.392	737.47
663.803	736.98
664.213	728.42
664.624	720.4
665.035	719.24
665.445	701.07
665.855	690.53
666.266	679.94
666.676	673.26
667.086	660.74
667.497	654.76
667.907	645.23
668.317	633.64
668.727	629.35
669.137	626.57
669.547	620.17
669.956	618.91
670.366	617.58
670.776	616.75
671.186	618.59
671.595	620.26
672.005	620.57
672.414	618.02
672.824	615.98
673.233	616
673.642	616.23
674.052	618.45
674.461	619.89
674.87	622.67
675.279	619.3
675.688	618.37
676.097	618.77
676.506	616.31
676.915	627.7
677.323	629.18
677.732	627.98
678.141	628.49
678.549	620.51
678.958	620.85
679.366	620.6
679.775	626.12
680.183	638.5
680.592	644.54
681	652.65
681.408	651.39
681.816	661.99
682.224	674.07
682.632	686.97
683.04	718.78
683.448	744.78
683.856	778.54
684.264	817.72
684.671	852.62
685.079	896.09
685.487	943.11
685.894	1006.87
686.302	1063.09
686.709	1111.54
687.116	1167.39
687.524	1212
687.931	1254.59
688.338	1291.7
688.745	1320.97
689.152	1355.48
689.559	1400.45
689.966	1444.96
690.373	1466.85
690.78	1504.28
691.187	1564.16
691.593	1607.48
692	1645.46
692.407	1700.8
692.813	1769.13
693.22	1822.66
693.626	1876.59
694.032	1917.16
694.439	1982.48
694.845	2031.97
695.251	2096.51
695.657	2151.39
696.063	2235.78
696.469	2295.08
696.875	2349.68
697.281	2375.14
697.687	2409.85
698.093	2436.42
698.498	2497.17
698.904	2540.07
699.31	2611.02
699.715	2659.87
700.12	2735.72
700.526	2743.88
700.931	2799.55
701.337	2837.89
701.742	2859.23
702.147	2925.09
702.552	2943.34
702.957	2990.31
703.362	2999.87
703.767	3015.92
704.172	3041.75
704.577	2989.84
704.981	3022.02
705.386	3026.1
705.791	3010.5
706.195	3069.94
706.6	3070.64
707.004	3132.73
707.408	3094.54
707.813	3111.09
708.217	3094.62
708.621	3089.08
709.025	3166.12
709.43	3160.78
709.834	3206.52
710.237	3260.05
710.641	3237.41
711.045	3249.77
711.449	3237.19
711.853	3258.07
712.256	3286.46
712.66	3310.76
713.064	3369.8
713.467	3399.57
713.87	3490.58
714.274	3525.32
714.677	3613.17
715.08	3745.32
715.484	3881.45
715.887	4049.92
716.29	4208.32
716.693	4379.47
717.096	4576.72
717.499	4681.25
717.901	4694.17
718.304	4709.43
718.707	4721.91
719.109	4628.32
719.512	4594.65
719.915	4476.76
720.317	4423.38
720.719	4457.03
721.122	4425.31
721.524	4377.18
721.926	4336.55
722.328	4413.43
722.731	4401.47
723.133	4421.22
723.535	4573.64
723.937	4587.6
724.338	4627.66
724.74	4657.38
725.142	4614.38
725.544	4609.49
725.945	4631.02
726.347	4621.09
726.748	4611.29
727.15	4617.05
727.551	4582.95
727.952	4556.61
728.354	4528.2
728.755	4522.52
729.156	4483.64
729.557	4454.9
729.958	4353.19
730.359	4302.83
730.76	4286.26
731.161	4234.77
731.562	4210.98
731.962	4209.27
732.363	4157.35
732.763	4105.04
733.164	4131.07
733.564	4074.24
733.965	3996.25
734.365	3965.99
734.766	3984.25
735.166	3951.2
735.566	3907.73
735.966	3884.74
736.366	3877.93
736.766	3826.02
737.166	3849.65
737.566	3815.3
737.966	3792.77
738.365	3823.03
738.765	3818.54
739.165	3759.4
739.564	3736.22
739.964	3770.8
740.363	3733.79
740.763	3731.33
741.162	3723.3
741.561	3695.02
741.96	3657.77
742.36	3673.3
742.759	3679.76
743.158	3708.88
743.557	3719.35
743.955	3752.1
744.354	3715.61
744.753	3760.18
745.152	3727.09
745.55	3770.02
745.949	3766.7
746.348	3768.59
746.746	3780.93
747.144	3746.66
747.543	3725.27
747.941	3763.52
748.339	3707.42
748.737	3699.78
749.136	3692.58
749.534	3742.86
749.932	3718.32
750.33	3734.21
750.727	3777.88
751.125	3758.4
751.523	3743.74
751.921	3780.06
752.318	3752.8
752.716	3799.07
753.113	3808.83
753.511	3829.61
753.908	3831.04
754.305	3820.02
754.703	3869.19
755.1	3915.42
755.497	3962.7
755.894	4112.69
756.291	4253.88
756.688	4516.41
757.085	4860.63
757.482	5352.91
757.878	5884.16
758.275	6366.94
758.672	7026.78
759.068	7566.7
759.465	8337.85
759.861	9331.89
760.258	10487.15
760.654	11084.07
761.05	10991.54
761.447	10500.93
761.843	9774.95
762.239	9027.44
762.635	8685.4
763.031	8361.12
763.427	7893.66
763.822	7402.57
764.218	6922.92
764.614	6293.04
765.01	5869.38
765.405	5594.07
765.801	5383.85
766.196	5116.43
766.592	4968.38
766.987	4719.1
767.382	4551.72
767.778	4480.31
768.173	4376.96
768.568	4313.69
768.963	4213.78
769.358	4231.32
769.753	4196.9
770.148	4130.04
770.542	4129.2
770.937	4108.03
771.332	4179.76
771.726	4192.88
772.121	4145.96
772.515	4187.28
772.91	4180.37
773.304	4236.56
773.699	4181.71
774.093	4220.68
774.487	4265.91
774.881	4299.78
775.275	4294.42
775.669	4260.91
776.063	4295.98
776.457	4323.49
776.851	4264.42
777.245	4256.92
777.638	4282.49
778.032	4373.52
778.425	4348.52
778.819	4381.73
779.212	4347.39
779.606	4313.75
779.999	4331.19
780.392	4319.31
780.786	4381.19
781.179	4400.62
781.572	4433.68
781.965	4444.74
782.358	4397.76
782.751	4440.37
783.143	4399.04
783.536	4458
783.929	4491.81
784.322	4580.05
784.714	4602.84
785.107	4598.63
785.499	4654.89
785.891	4637.74
786.284	4620.86
786.676	4731.31
787.068	4717.88
787.46	4758.73
787.852	4774.02
788.245	4840.52
788.636	4865.7
789.028	4917.05
789.42	4951.32
789.812	4957.88
790.204	5033.98
790.595	5116.63
790.987	4964.94
791.378	4980.01
791.77	5082.76
792.161	5187.82
792.553	5233.32
792.944	5143.87
793.335	5092.79
793.726	5149.52
794.117	5219.57
794.508	5324.72
794.899	5296.56
795.29	5405.18
795.681	5451.74
796.072	5337.37
796.463	5203.53
796.853	5213.4
797.244	5337.01
797.634	5363.1
798.025	5361.65
798.415	5368.15
798.806	5436.98
799.196	5505.73
799.586	5545.6
799.976	5513.51
800.366	5694.48
800.756	5868.81
801.146	5835.88
801.536	5860.33
801.926	5915.92
802.316	5934.08
802.706	5990.36
803.095	5895.55
803.485	5974.3
803.874	6007.85
804.264	6212.61
804.653	6197.11
805.043	6314.56
805.432	6398.72
805.821	6401
806.21	6420.2
806.599	6519.17
806.988	6555.82
807.377	6642.11
807.766	6738.66
808.155	6960.77
808.544	6752.66
808.933	6761.13
809.321	6745.77
809.71	6977.04
810.098	7097.85
810.487	7456.96
810.875	7827.21
811.264	7846.82
811.652	8076.18
812.04	8194.58
812.428	8317.98
812.816	8918.79
813.204	9246.28
813.592	9674.47
813.98	9931.17
814.368	9856.41
814.756	10230.04
815.144	10169.51
815.531	10534.79
815.919	10467.52
816.306	10707.85
816.694	10466.89
817.081	10499.74
817.469	10769.96
817.856	10768.26
818.243	10980.5
818.63	11293.26
819.017	10967.5
819.404	11010.83
819.791	11305.29
820.178	11788.83
820.565	11981.75
820.952	12715.12
821.339	12334.14
821.725	12479.62
822.112	11893.49
822.498	11864.61
822.885	11957.93
823.271	11878.71
823.657	12208.73
824.044	12208.74
824.43	12255
824.816	12235.3
825.202	11890.61
825.588	12687.68
825.974	12706.37
826.36	13114.58
826.746	13133.66
827.132	13414.35
827.517	13402.47
827.903	12787.01
828.289	12826.29
828.674	12226
829.06	12135.6
829.445	12438.88
829.83	12712.99
830.216	13067.63
830.601	13350.85
830.986	13041.74
831.371	12933.86
831.756	13366.12
832.141	13036.39
832.526	13023.66
832.911	13243.88
833.295	13160.59
833.68	13532.05
834.065	13050.57
834.449	12344.9
834.834	12287.3
835.218	12287.94
835.603	12554.92
835.987	12380.87
836.371	13026.65
836.755	12945.18
837.139	13257.43
837.524	13441.53
837.908	13308.23
838.291	13359.22
838.675	13412.93
839.059	13573.82
839.443	13555.73
839.827	13370.56
840.21	13751.07
840.594	13641.72
840.977	13804.06
841.361	13790.73
841.744	14081.35
842.127	13954.92
842.511	14136.9
842.894	14597.06
843.277	14894.01
843.66	15320.83
844.043	15388.12
844.426	14765.65
844.809	14513.02
845.191	14544.13
845.574	14175.04
845.957	13886.12
846.339	13797.16
846.722	13393.44
847.104	13447.52
847.487	13312.76
847.869	13323.04
848.252	13535.02
848.634	13785.46
849.016	13996.51
849.398	14086.87
849.78	14757.93
850.162	14775.49
850.544	15101.37
850.926	15586.63
851.307	15514.84
851.689	15736.23
852.071	16084.84
852.452	16339.19
852.834	16330.49
853.215	16636.09
853.597	16758.73
853.978	16986.79
854.359	17326.52
854.741	16556.95
855.122	16480.02
855.503	16257.43
855.884	16356.54
856.265	16308
856.646	16401.38
857.026	16085.07
857.407	16040.05
857.788	16157.56
858.169	16381.16
858.549	15736.35
858.93	16218.61
859.31	16261.31
859.69	16427.21
860.071	16112.8
860.451	15941.88
860.831	15364.41
861.211	16270.26
861.591	16688.91
861.971	16671
862.351	16814.17
862.731	17111.65
863.111	17320.37
863.491	17578.09
863.87	18253.19
864.25	18525.23
864.629	18217.69
865.009	18622.81
865.388	19281.21
865.768	20663.54
866.147	20586.86
866.526	19445.9
866.905	19674.96
867.284	20774.35
867.663	19711.04
868.042	18895.28
868.421	18830.34
868.8	19144.26
869.179	19324.5
869.558	18204.61
869.936	16782.23
870.315	17067.79
870.693	17490.27
871.072	18857.59
871.45	17965.54
871.828	18206.72
872.207	19145.33
872.585	18859.33
872.963	19358.34
873.341	18701.1
873.719	18482.61
874.097	18252.88
874.475	18617.09
874.853	19038.21
875.23	18251.26
875.608	19013.92
875.986	20568.39
876.363	19667.06
876.741	20274.05
877.118	19786.06
877.495	20761.93
877.873	21102.18
878.25	22211.34
878.627	21293.66
879.004	21592.6
879.381	21489.33
879.758	20921.9
880.135	19470.67
880.512	20586.53
880.889	20042.46
881.265	19822.65
881.642	19653.02
882.019	19995.02
882.395	19601.66
882.772	20388.45
883.148	19515.05
883.524	19442.74
883.901	19342.28
884.277	19644.51
884.653	19528.5
885.029	20089.55
885.405	22275.05
885.781	22105.52
886.157	21203.93
886.532	21454.39
886.908	21441.09
887.284	23839.51
887.659	24614.72
888.035	25377.53
888.411	26038.51
888.786	26382.04
889.161	27308.64
889.537	26793.79
889.912	27652.45
890.287	27619.45
890.662	28335.8
891.037	27820.39
891.412	25938.56
891.787	25663.01
892.162	24763.43
892.536	25333.13
892.911	24385.83
893.286	23861.02
893.66	22902.37
894.035	23480.07
894.409	25559.73
894.784	24524.54
895.158	24936.03
895.532	26423.12
895.906	27165.28
896.281	27795.8
896.655	27356.07
897.029	31253.63
897.402	32549.08
897.776	36211.42
898.15	36088.87
898.524	35712.37
898.898	36189.67
899.271	40507.02
899.645	35075.16
900.018	33676.29
900.392	34941.03
900.765	35201.47
901.138	32571.8
901.511	32088.93
901.884	29479.04
902.258	27201.55
902.631	28107.37
903.003	32349.36
903.376	29199.41
903.749	32749.2
904.122	35056.75
904.495	38609.07
904.867	39117.12
905.24	33963.01
905.612	31607.56
905.985	32321.59
906.357	33801.52
906.729	32277.78
907.102	27590.62
907.474	26551.59
907.846	26733.4
908.218	26398.01
908.59	23323.7
908.962	22562.97
909.334	24309.6
909.705	25537.86
910.077	24803.11
910.449	25806.38
910.82	26524.82
911.192	29170.29
911.563	30301.07
911.935	32388.67
912.306	32416.66
912.677	33491.64
913.048	33174.47
913.419	35996
913.79	36217.1
914.161	38829.19
914.532	37147.3
914.903	34127.62
915.274	32419.77
915.645	31946.67
916.015	28149.11
916.386	26848.5
916.756	28586.62
917.127	29486.13
917.497	26330.07
917.868	28668.81
918.238	27238.59
918.608	28016.99
918.978	28607.22
919.348	30295.72
919.718	31318.45
920.088	30153.09
920.458	31341.48
920.828	32966.24
921.198	31253
921.567	33415.04
921.937	25875.78
922.306	26142.97
922.676	28192.15
923.045	23517.41
923.415	22362.44
923.784	20369.71
924.153	20958.33
924.522	20926.3
924.891	19669.96
925.26	21083.62
925.629	20592.51
925.998	23661.28
926.367	23089.36
926.736	21989.29
927.104	26197.15
927.473	28152.42
927.842	33992.41
928.21	33686.51
928.578	35437.56
928.947	33518.63
929.315	33716.38
929.683	39563.78
930.051	39918.61
930.42	46353.79
930.788	39626.77
931.156	39355.71
931.523	36937.53
931.891	34149.14
932.259	32788.35
932.627	38002.94
932.994	53775.06
933.362	44466.6
933.729	38626.66
934.097	36952.36
934.464	31292.88
934.831	36133.34
935.199	35638.35
935.566	34550.47
935.933	35107.52
936.3	42581.51
936.667	33178.37
937.034	29998.86
937.401	29675.72
937.767	25613.33
938.134	22819.95
938.501	32224.19
938.867	34379.27
939.234	58111.57
939.6	49613.08
939.967	54474.62
940.333	36444.29
940.699	31038.46
941.065	24875.52
941.431	32650.06
941.798	31501.25
942.163	41394.08
942.529	25808.67
942.895	23729.5
943.261	15353.39
943.627	20133.06
943.992	17634.13
944.358	17649.69
944.723	17702.31
945.089	17248.71
945.454	15921.15
945.82	16988.99
946.185	16314
946.55	18910.58
946.915	16963.34
947.28	19882.38
947.645	17505.13
948.01	16171.24
948.375	16885.5
948.74	20241.41
949.104	23627.64
949.469	34106.97
949.834	60254.86
950.198	57269.86
950.562	34334.23
950.927	28609.11
951.291	34421.42
951.655	29330.96
952.02	27559.25
952.384	20831.85
952.748	18156.02
953.112	17708.11
953.476	15390.09
953.839	14223.44
954.203	14065.84
954.567	17577.11
954.931	27693.39
955.294	23723.61
955.658	23849.75
956.021	40548.2
956.385	68691.37
956.748	101327.13
957.111	157105.04
957.474	176660.17
957.837	198946.92
958.2	150547.22
958.563	54195.43
958.926	36654.9
959.289	55580.94
959.652	62126.49
960.015	46594.16
960.377	66962.8
960.74	76448.22
961.102	131866.82
961.465	141550.27
961.827	76027.96
962.189	145860.42
962.552	101297.03
962.914	81257.5
963.276	52741.67
963.638	43634.02
964	43222.19
964.362	29206.4
964.724	28226.18
965.085	20163.96
965.447	16543.28
965.809	18822.94
966.17	18843.85
966.532	20378.66
966.893	18690.33
967.255	17031.19
967.616	20087.15
967.977	16100.08
968.338	17589.47
968.699	14477.74
969.061	14481.37
969.421	14588.04
969.782	16379.05
970.143	13822.63
970.504	14339.77
970.865	16315.28
971.225	16684.89
971.586	16324.46
971.946	23235.24
972.307	20151.93
972.667	26301.89
973.027	27083.48
973.388	32819.83
973.748	22319.66
974.108	24355.09
974.468	32956.14
974.828	25415.18
975.188	19553.08
975.548	17976.07
975.907	15097.42
976.267	16937.82
976.627	14256.45
976.986	14765.8
977.346	14084.37
977.705	13565.2
978.064	12341.76
978.424	10263.26
978.783	10610.58
979.142	12106.42
979.501	11578.13
979.86	12255.94
980.219	11812.14
980.578	15212.83
980.937	17045.96
981.296	15209.06
981.654	15628.45
982.013	24330.71
982.371	31561.3
982.73	29480.24
983.088	33355.49
983.447	35642.28
983.805	50912.96
984.163	106426.18
984.521	118285.01
984.879	173405.01
985.237	-281982.21
985.595	272560.2
985.953	67822.58
986.311	39183.68
986.669	22762.16
987.026	19668.47
987.384	26428.52
987.741	27346.8
988.099	19569.89
988.456	15584.33
988.814	14603.41
989.171	12686.05
989.528	12466.94
989.885	13137.99
990.242	10410.83
990.599	12955.29
990.956	10607.28
991.313	7435.5
991.67	6107.87
992.027	6503.41
992.383	5786.27
992.74	5087.18
993.096	5344.81
993.453	5551.43
993.809	5777.07
994.165	7693.93
994.522	7069.4
994.878	7784.01
995.234	9780.43
995.59	9645.97
995.946	9087.45
996.302	10375.97
996.658	11966.22
997.013	13136.55
997.369	15640.16
997.725	19976.76
998.08	12924.88
998.436	19898.68
998.791	27506.09
999.147	27441.54
999.502	29911.23
999.857	21802.21
1000.212	35540.01
1000.567	50697.33
1000.922	29269.56
1001.277	18510.66
1001.632	13715.96
1001.987	17710.93
1002.342	12720.24
1002.696	10178.61
1003.051	8133.04
1003.406	9858.9
1003.76	9780.15
1004.114	9634.95
1004.469	8104.08
1004.823	6733.02
1005.177	7276.53
1005.531	5783.99
1005.885	5130.09
1006.239	5794.62
1006.593	7248.99
1006.947	9676.33
1007.301	7279.02
1007.655	7958.32
1008.008	5829.72
1008.362	6547.38
1008.715	9332.68
1009.069	8498.22
1009.422	12847.35
1009.776	25698.11
1010.129	17060.57
1010.482	14259.03
1010.835	12048.91
1011.188	25069.85
1011.541	23520.24
1011.894	-143780.48
1012.247	423468.28
1012.6	28823.99
1012.952	18211.87
1013.305	9313.41
1013.657	6747.97
1014.01	6364.32
1014.362	5243.05
1014.715	4684.3
1015.067	4074.54
1015.419	3996.1
1015.771	3555.08
1016.123	3157.38
1016.475	3239.17
1016.827	3438.35
1017.179	3716.45
1017.531	3730.43
1017.883	3808.53
1018.234	3706.97
1018.586	4673.35
1018.938	4961.77
1019.289	6854.25
1019.64	7838.41
1019.992	7326.16
1020.343	6723.45
1020.694	5309.9
1021.045	4680.45
1021.396	5345.72
1021.747	5742.87
1022.098	6869.92
1022.449	4960.13
1022.8	4579.79
1023.151	3193.92
1023.501	2827.64
1023.852	3064.77
1024.202	3168.82
1024.553	3480.61
1024.903	3434.78
1025.253	2952.1
1025.604	2662.83
1025.954	3297.36
1026.304	4008.07
1026.654	4681.23
1027.004	6810.17
1027.354	10985.46
1027.703	10367.05
1028.053	13704.81
1028.403	19918.17
1028.753	28418.96
1029.102	38435.36
1029.452	196834.33
1029.801	8480.24
1030.15	5493.43
1030.499	4651.96
897.758	2776.16
901.051	2739.41
904.343	2778.36
907.636	2776.37
910.928	2842.53
914.22	2749.16
917.511	2758.32
920.803	2826.08
924.094	2851.04
927.384	2824.42
930.675	2791.61
933.965	2742.22
937.255	2748.98
940.544	2715.36
943.834	2640.93
947.123	2587.3
950.411	2685.16
953.7	2655.97
956.988	2620.2
960.276	2561.38
963.563	2650.35
966.851	2640.73
970.138	2702.13
973.424	2690.23
976.711	2640.05
979.997	2794.65
983.283	2824.9
986.568	2724.18
989.853	2748.03
993.138	2776.59
996.423	2857.52
999.708	2788.54
1002.992	2867.07
1006.275	2683.77
1009.559	2740.72
1012.842	2858.52
1016.125	2785
1019.408	2764.46
1022.69	2858.66
1025.972	2871.84
1029.254	2844.91
1032.536	2769.67
1035.817	2801.82
1039.098	2734.41
1042.379	2903.01
1045.659	2892.15
1048.939	2821.2
1052.219	2845.56
1055.498	2861.49
1058.778	2842.32
1062.057	2830.15
1065.335	2850.66
1068.614	2869.82
1071.892	2849.56
1075.17	2928.65
1078.447	2915.57
1081.724	2904.27
1085.001	2946.97
1088.278	2918.69
1091.554	2933.41
1094.83	2930.61
1098.106	2957.36
1101.382	3004.47
1104.657	3008.75
1107.932	3001.49
1111.206	2964.75
1114.481	2919.82
1117.755	2927.63
1121.029	2900.12
1124.302	2952.99
1127.575	2899.26
1130.848	2884.72
1134.121	2843.66
1137.393	2790.23
1140.665	2861.23
1143.937	2835.67
1147.208	2797.41
1150.48	2832.29
1153.75	2814.8
1157.021	2854.77
1160.291	2822.61
1163.561	2868.15
1166.831	2864.24
1170.101	2895.35
1173.37	2875.8
1176.639	2813.03
1179.907	2877.07
1183.176	2881.24
1186.444	2889.58
1189.711	2921.16
1192.979	2929.01
1196.246	2884.45
1199.513	2904.13
1202.78	2900.66
1206.046	2910.02
1209.312	2931.53
1212.578	2961.19
1215.843	2908.29
1219.108	2886.15
1222.373	2909.77
1225.638	2871.33
1228.902	2852.79
1232.166	2821.35
1235.43	2799.07
1238.693	2823.9
1241.956	2823.32
1245.219	2862.2
1248.482	2853.57
1251.744	2848.35
1255.006	3002.89
1258.268	2960.05
1261.529	2898.5
1264.79	2908.55
1268.051	3016.93
1271.312	3034.94
1274.572	2993.18
1277.832	2983.1
1281.092	2977.42
1284.351	2946.58
1287.61	2923.64
1290.869	2832.32
1294.128	2803.36
1297.386	2905.51
1300.644	2890.04
1303.902	2900.78
1307.159	2757.97
1310.416	2814.51
1313.673	2836.65
1316.93	2820.54
1320.186	2868.61
1323.442	2915.76
1326.697	2900.34
1329.953	2898.21
1333.208	2916.74
1336.463	2902.09
1339.717	2834.27
1342.972	2977.55
1346.226	2956.78
1349.479	2884.21
1352.733	2852.56
1355.986	2882.37
1359.238	2855.11
1362.491	2856.84
1365.743	2862.72
1368.995	2856.99
1372.247	2871.37
1375.498	2897.82
1378.749	2905.84
1382	2862.8
1385.251	2922.65
1388.501	2881.52
1391.751	2863.02
1395	2835.9
1398.25	2872.4
1401.499	2873.36
1404.748	2793.02
1407.996	2785.92
1411.244	2769.22
1414.492	2749.98
1417.74	2724.52
1420.987	2735.09
1424.234	2793.84
1427.481	2774.5
1430.728	2837.13
1433.974	2808.45
1437.22	2827.96
1440.465	2834.08
1443.711	2788.02
1446.956	2826.01
1450.201	2818.39
1453.445	2863.59
1456.689	2839.14
1459.933	2852.08
1463.177	2885.09
1466.42	2853.97
1469.663	2833.33
1472.906	2821.87
1476.148	2910.6
1479.391	2858.12
1482.633	2832.49
1485.874	2838.69
1489.115	2819.93
1492.356	2831.13
1495.597	2804.85
1498.838	2810.59
1502.078	2774.58
1505.318	2720.43
1508.557	2764.36
1511.797	2727.18
1515.036	2814.74
1518.274	2804.83
1521.513	2779.64
1524.751	2803.89
1527.989	2816.68
1531.227	2829.31
1534.464	2814.96
1537.701	2844.13
1540.938	2864.76
1544.174	2818.01
1547.41	2819.88
1550.646	2860.12
1553.882	2891.87
1557.117	2945.07
1560.352	2964.39
1563.587	2915.47
1566.821	2873.03
1570.055	2914.42
1573.289	2880.75
1576.523	2963.44
1579.756	2969.23
1582.989	2985.67
1586.222	2944.97
1589.454	2985.91
1592.686	2956.73
1595.918	2979.58
1599.15	2968.73
1602.381	3051.17
1605.612	2998.74
1608.843	3099.32
1612.073	3007.41
1615.303	2992.45
1618.533	2983.56
1621.762	2986.76
1624.992	2976.59
1628.221	2959.07
1631.449	2945.52
1634.678	3011.1
1637.906	2960.84
1641.134	3005.28
1644.361	2956.43
1647.588	2943.16
1650.815	2957.44
1654.042	2939.98
1657.269	2971.1
1660.495	2916.27
1663.72	2926.6
1666.946	2886.61
1670.171	2818.23
1673.396	2794.79
1676.621	2787.03
1679.845	2816.24
1683.069	2840.15
1686.293	2884.99
1689.517	2852.7
1692.74	2776.57
1695.963	2808.36
1699.185	2835.85
1702.408	2814.2
1705.63	2858.83
1708.852	2870.22
1712.073	2843.12
1715.294	2820.26
1718.515	2886.5
1721.736	2830.55
1724.956	2825.24
1728.176	2852.91
1731.396	2876.7
1734.616	2866.35
1737.835	2890.68
1741.054	2875.73
1744.272	2870.63
1747.491	2894.71
1750.709	2953.76
1753.927	2847.74
1757.144	2901.16
1760.361	2938.5
1763.578	2937.1
1766.795	2875.71
1770.011	2886.27
1773.227	2932
1776.443	2962.11
1779.658	3005.18
1782.874	2950.28
1786.089	2928.37
1789.303	2929.67
1792.518	2936.45
1795.732	2922.72
1798.945	2928.72
1802.159	2984.46
1805.372	2876.26
1808.585	2858.03
1811.797	2859.79
1815.01	2916.05
1818.222	2913.81
1821.434	2868.63
1824.645	2931.64
1827.856	2907.95
1831.067	2946.36
1834.278	2910.01
1837.488	2888.43
1840.698	3045.66
1843.908	2963.53
1847.117	2930.03
1850.326	2800.51
1853.535	2912.99
1856.744	2958.61
1859.952	2869.7
1863.16	2872.11
1866.368	2895.08
1869.575	2997.58
1872.782	2883.82
1875.989	2823.12
1879.196	2919.6
1882.402	2910.37
1885.608	2952.45
1888.814	2849.37
1892.019	2733.88
1895.224	2788.73
1898.429	2772.87
1901.634	2752.06
1904.838	2728.27
1908.042	2776.47
1911.246	2783.46
1914.449	2703.65
1917.652	2704.24
1920.855	2689.93
1924.058	2744.35
1927.26	2782.33
1930.462	2812.36
1933.664	2834.93
1936.865	2770.27
1940.066	2775.27
1943.267	2723.02
1946.467	2740.66
1949.668	2770.04
1952.868	2835.98
1956.067	2809.8
1959.267	2739.59
1962.466	2768.42
1965.665	2755.44
1968.863	2749.71
1972.061	2769.11
1975.259	2769.43
1978.457	2849.74
1981.654	2806.53
1984.852	2807.34
1988.048	2734.99
1991.245	2739.61
1994.441	2825.6
1997.637	2818.71
2000.833	2800.35
2004.028	2842.15
2007.223	2896.14
2010.418	2870.24
2013.613	2833.72
2016.807	2796.38
2020.001	2808.44
2023.194	2858.05
2026.388	2831.97
2029.581	2777.34
2032.774	2823.25
2035.966	2823.34
2039.158	2752.11
2042.35	2778.05
2045.542	2705.89
2048.733	2813.85
2051.924	2847.27
2055.115	2876.95
2058.306	2813.38
2061.496	2879.64
2064.686	2943.93
2067.875	2859.65
2071.065	2880.83
2074.254	2908.83
2077.442	2858.89
2080.631	2953.86
2083.819	2831.68
2087.007	2811.02
2090.195	2776.55
2093.382	2816.04
2096.569	2792.2
2099.756	2745.93
2102.942	2764.12
2106.128	2763.66
2109.314	2758.86
2112.5	2716.6
2115.685	2695.71
2118.87	2707.4
2122.055	2772.33
2125.239	2737
2128.424	2708.39
2131.608	2820.89
2134.791	2804.44
2137.974	2870.1
2141.157	2855.63
2144.34	2800.05
2147.523	2825.67
2150.705	2835.29
2153.887	2816.08
2157.068	2760.13
2160.25	2765.86
2163.431	2810.8
2166.611	2749.81
2169.792	2762.66
2172.972	2648.94
2176.152	2735.49
2179.331	2772.37
2182.511	2746.5
2185.69	2775.77
2188.868	2765.04
2192.047	2830.02
2195.225	2812.55
2198.403	2759.34
2201.58	2756.63
2204.758	2753.27
2207.935	2840.61
2211.111	2718.27
2214.288	2702.39
2217.464	2741.42
2220.64	2719.1
2223.815	2779.92
2226.991	2694.09
2230.166	2717.15
2233.34	2742.82
2236.515	2772.05
2239.689	2850.46
2242.863	2788.53
2246.036	2850.85
2249.209	2854.72
2252.382	2892.17
2255.555	2874.91
2258.727	2807.55
2261.9	2849.51
2265.071	2839.52
2268.243	2843.31
2271.414	2769.74
2274.585	2723.86
2277.756	2796.85
2280.926	2751.31
2284.096	2794.75
2287.266	2697.35
2290.436	2754.67
2293.605	2785.28
2296.774	2814.49
2299.942	2840.96
2303.111	2855.88
2306.279	2903.06
2309.447	2891.38
2312.614	2869.57
2315.781	2886.13
2318.948	2857.2
2322.115	2894.74
2325.281	2799.15
2328.447	2823.74
2331.613	2799.93
2334.779	2768.34
2337.944	2777.39
2341.109	2772.9
2344.274	2752.7
2347.438	2712.76
2350.602	2743.5
2353.766	2757.49
2356.929	2743.13
2360.092	2785.62
2363.255	2730.56
2366.418	2654.33
2369.58	2779.23
2372.742	2541.58
2375.904	2561.57
2379.066	2534.17
2382.227	2574.82
2385.388	2534.83
2388.548	2456.78
2391.709	2517.27
2394.869	2491.31
2398.029	2603.3
2401.188	2622.18
2404.347	2545.97
2407.506	2704.09
2410.665	2732.99
2413.823	2743.39
2416.981	2694.38
2420.139	2730.26
2423.296	2780.7
2426.453	2754.01
2429.61	2778.03
2432.767	2702.37
2435.923	2738.06
2439.079	2697.95
2442.235	2751.83
2445.391	2671.75
2448.546	2698.55
2451.701	2753.03
2454.855	2718.88
2458.009	2778.07
2461.163	2783.11
2464.317	2739.61
2467.471	2774.95
2470.624	2818.16
2473.777	2794
2476.929	2806.52
2480.082	2833.92
2483.234	2794.59
2486.385	2751.34
2489.537	2741.93
2492.688	2697.07
2495.839	2714.37
2498.989	2724.46
2502.14	2706.74
2505.29	2687.39
2508.439	2713.73
2511.589	2630.68
2514.738	2648.02
2517.887	2681.95
2521.035	2742.37
2524.183	2733.27
2527.331	2709.83
2530.479	2677.92
2533.627	2691.13
