Data from C_2_DEC_ON_6N_Splice17_12-16-14-129.txt Node
Date: Sat Mar 14 12:16:14 EDT 2020
User: sa697716
Spectrometer: FLMS03696
Trigger mode: 0
Integration Time (sec): 3.180400E-1
Scans to average: 20
Electric dark correction enabled: true
Nonlinearity correction enabled: true
Boxcar width: 5
XAxis mode: Wavelengths
Number of Pixels in Spectrum: 2048
>>>>>Begin Spectral Data<<<<<
187.83	-224880.03
188.298	1726.5
188.766	921.83
189.233	814.95
189.701	1144.12
190.169	1604.92
190.636	591.06
191.104	476.77
191.571	49.29
192.039	-108.75
192.506	-87.92
192.974	414.1
193.441	-495.22
193.908	-156.67
194.375	-63.54
194.842	14.84
195.31	88.83
195.777	131.59
196.244	323.62
196.711	377.02
197.177	474.95
197.644	680.85
198.111	1166.01
198.578	1634.26
199.045	1330.18
199.511	2152.74
199.978	2465.26
200.445	2101.03
200.911	2325.86
201.378	2592.78
201.844	2361.64
202.31	4003.49
202.777	4219.78
203.243	2377.67
203.709	2268.5
204.176	2711.86
204.642	2277.71
205.108	2133.93
205.574	1739.32
206.04	1599.25
206.506	1499.88
206.972	1413.1
207.438	1371.23
207.903	1546.76
208.369	1358.71
208.835	1352.61
209.301	1417.86
209.766	1437.34
210.232	1434.64
210.697	1783.85
211.163	2206.93
211.628	3320.11
212.094	2809.15
212.559	3511.02
213.024	2196.43
213.49	2687.21
213.955	2606.1
214.42	2537.16
214.885	2389.77
215.35	2307.02
215.815	2235.5
216.28	2379.79
216.745	1975.14
217.21	2170.9
217.675	2004.38
218.14	2294.89
218.604	2615.91
219.069	3070.62
219.534	3297
219.998	3891.85
220.463	4790.73
220.927	6002.92
221.392	5734.36
221.856	5838.62
222.32	7406.91
222.785	9187.83
223.249	11632.95
223.713	13032.32
224.177	13054.48
224.642	16797.16
225.106	20739.21
225.57	22779.89
226.034	16968.86
226.497	25849.88
226.961	23387.78
227.425	27294.43
227.889	30357.28
228.353	30431.51
228.816	62931.55
229.28	60317.64
229.744	50921.67
230.207	30987.13
230.671	30479.81
231.134	50460.22
231.597	58270.74
232.061	58358.62
232.524	56996.91
232.987	39367.46
233.45	35444.57
233.914	31874.95
234.377	32727.57
234.84	29981.3
235.303	35387.39
235.766	39502.83
236.229	40879.12
236.691	25761
237.154	28956.39
237.617	21793.9
238.08	22323.14
238.542	26128.76
239.005	18687.95
239.468	18555.15
239.93	17487.62
240.393	15894.52
240.855	13959.34
241.317	14313.88
241.78	17445.85
242.242	18047.14
242.704	19490.97
243.166	16979.85
243.629	15427.63
244.091	17781.67
244.553	19488.87
245.015	20983.21
245.477	27153.05
245.939	39902.05
246.4	42360.43
246.862	41193.25
247.324	38882.13
247.786	43587.32
248.247	57173.03
248.709	59116.2
249.17	44250.75
249.632	41746.45
250.093	48420.51
250.555	41931.38
251.016	25557.78
251.477	24273.54
251.939	26217.87
252.4	27544.09
252.861	32800.66
253.322	30561.28
253.783	36425.34
254.244	47293.69
254.705	37317.96
255.166	33176.4
255.627	32647.57
256.088	46070.98
256.549	48914.25
257.009	42138.49
257.47	51147.82
257.931	41615.2
258.391	31183.66
258.852	32132.84
259.312	33696.31
259.773	41617.7
260.233	35178.65
260.694	29641.56
261.154	33633.18
261.614	27006.55
262.074	24157.27
262.534	25099.53
262.994	23643.67
263.455	31494.44
263.915	26546.75
264.374	25029.59
264.834	27361.97
265.294	30347.86
265.754	31508.69
266.214	29842.84
266.673	27964.21
267.133	35276.71
267.593	35020.73
268.052	42911.05
268.512	37324.06
268.971	45015.59
269.431	49327.79
269.89	44138.65
270.349	66162.87
270.809	73804.21
271.268	66352.74
271.727	148884.83
272.186	96556.46
272.645	72383.47
273.104	52227.64
273.563	75660.1
274.022	59497.49
274.481	50573.79
274.94	38962.1
275.399	29003.72
275.857	33722.6
276.316	45583.43
276.775	40536.11
277.233	39897.04
277.692	37369.38
278.15	42265.86
278.609	43469.76
279.067	40215.91
279.525	37390.89
279.984	48299.63
280.442	57955.46
280.9	57140.67
281.358	37623.58
281.816	35090.47
282.274	34349.63
282.732	35478.55
283.19	35652.17
283.648	30788.2
284.106	32817.86
284.564	33381.74
285.021	30968.32
285.479	23093.58
285.937	21022.29
286.394	18415.43
286.852	18949.35
287.309	19928.82
287.767	19240.38
288.224	18309.41
288.682	20079.05
289.139	22055.22
289.596	20198.14
290.053	21008.72
290.511	26513.37
290.968	32161.51
291.425	43775.59
291.882	36459.29
292.339	31726.82
292.796	31537.92
293.252	29755.94
293.709	23653.6
294.166	21229.16
294.623	23475.98
295.079	22550.83
295.536	22680.78
295.992	20622.44
296.449	20405.54
296.905	21219.21
297.362	20369.75
297.818	21455.26
298.274	22263.88
298.731	22712.39
299.187	22493.31
299.643	24176.37
300.099	29281.23
300.555	32134.32
301.011	26876.44
301.467	25916.29
301.923	30393.04
302.379	29708.74
302.835	29178.91
303.291	29256.09
303.746	33328.17
304.202	42118.08
304.658	42315.22
305.113	28491.78
305.569	27956.98
306.024	29826.6
306.479	28449.93
306.935	23992.17
307.39	26253.1
307.845	24292.5
308.301	24438.83
308.756	23848.99
309.211	22976.39
309.666	23542.87
310.121	29205.9
310.576	29659.51
311.031	29480.73
311.486	33781.68
311.94	33805.9
312.395	45290.1
312.85	85247.22
313.305	419436.34
313.759	2172720.8
314.214	157622.16
314.668	125153.8
315.123	105374.86
315.577	37852.49
316.032	33686.7
316.486	42226.06
316.94	33366.69
317.394	23229.24
317.849	18065.02
318.303	17137.63
318.757	16189.21
319.211	17957.74
319.665	15758.6
320.119	15981.78
320.572	22963.78
321.026	21465.02
321.48	17881.08
321.934	19521.26
322.387	19570.47
322.841	21119.1
323.295	18995.05
323.748	21906.25
324.202	22230.99
324.655	26670.76
325.108	37221.75
325.562	26276.29
326.015	31215.81
326.468	23631.35
326.921	26405.95
327.374	24653.88
327.827	25726.24
328.28	29122.84
328.733	19515.33
329.186	17151.39
329.639	16363.42
330.092	13817.76
330.545	13165.38
330.997	13288.81
331.45	14521.64
331.903	17026.22
332.355	29301.28
332.808	28467.78
333.26	23494.05
333.713	25509.61
334.165	25713.68
334.617	34335.32
335.069	27756.1
335.522	50250.99
335.974	55692.61
336.426	50915
336.878	35273.25
337.33	17876.5
337.782	17479.72
338.234	21858.17
338.686	26165.92
339.137	30974.71
339.589	29193.92
340.041	22886.79
340.493	19671.59
340.944	20156.07
341.396	21693.91
341.847	18249.25
342.299	21553.96
342.75	26291.35
343.201	23005.57
343.653	26490.18
344.104	32663.9
344.555	25738.27
345.006	40067.85
345.457	30701.45
345.908	24426.51
346.359	23011.65
346.81	18806.41
347.261	19843.44
347.712	19565.07
348.163	21023.39
348.613	21267.52
349.064	19866.46
349.515	17422.17
349.965	17894.43
350.416	21572.07
350.866	23698.98
351.317	26834.77
351.767	44404.79
352.217	56052.86
352.668	46574.3
353.118	42705.85
353.568	41271.36
354.018	32600.12
354.468	34328.6
354.918	24619.35
355.368	21555.44
355.818	30450.6
356.268	87716.93
356.718	367104.31
357.168	91625.23
357.617	46033.1
358.067	51252.82
358.517	48024.93
358.966	56421.58
359.416	63344.53
359.865	68615.58
360.315	81790.09
360.764	38195.19
361.213	21400.1
361.663	20302.31
362.112	25061.5
362.561	40464.67
363.01	30545.22
363.459	25739.31
363.908	27891.09
364.357	23686.02
364.806	40030.69
365.255	27522.56
365.703	25255.42
366.152	25299.32
366.601	20517.22
367.05	16667.38
367.498	15170.08
367.947	15846.01
368.395	16487.73
368.844	14584.7
369.292	17622.93
369.74	12171.09
370.189	18679.47
370.637	21901.36
371.085	18898.13
371.533	23008.93
371.981	22212.12
372.429	21138.93
372.877	22026.99
373.325	18463.16
373.773	18831.17
374.221	16745.14
374.669	20752.44
375.116	17921
375.564	18072.93
376.012	20254.84
376.459	16719.04
376.907	19982.03
377.354	24171.01
377.801	22532.43
378.249	25868.22
378.696	33077.9
379.143	40070.29
379.591	42765.9
380.038	72417.05
380.485	52255.84
380.932	56321.73
381.379	51440.98
381.826	37823.7
382.273	26917.52
382.72	23535.56
383.166	22934.8
383.613	14855.65
384.06	13396.49
384.506	15515.87
384.953	11392.95
385.4	11479.11
385.846	10065.47
386.292	9836.46
386.739	9628.06
387.185	9517.3
387.631	9526.29
388.078	9240.65
388.524	9893.3
388.97	9134.5
389.416	7609.49
389.862	8083.91
390.308	7658.78
390.754	7764.54
391.2	8419
391.645	8614.47
392.091	8235.88
392.537	7963.89
392.983	7978.59
393.428	7834.37
393.874	8399.65
394.319	8421.96
394.765	7990.56
395.21	8214.54
395.655	7708.47
396.101	7208.77
396.546	6502.87
396.991	6562.43
397.436	6091.35
397.881	5880.66
398.326	5582.62
398.771	5279.96
399.216	4613.08
399.661	4153.42
400.106	4139.32
400.551	4244.24
400.995	3813.58
401.44	3779.24
401.885	3553.61
402.329	3598.2
402.774	3456.37
403.218	3343.29
403.663	3222.01
404.107	3317.98
404.551	3342.12
404.995	3066.75
405.44	2959.35
405.884	3005.73
406.328	2913.29
406.772	2906.69
407.216	2648.52
407.66	2560.55
408.104	2435.7
408.547	2285.93
408.991	2217.5
409.435	2138.18
409.879	2113.63
410.322	2086.68
410.766	2016.8
411.209	1916.3
411.653	1840.95
412.096	1802.64
412.54	1809.17
412.983	1801.01
413.426	1806.61
413.869	1806.89
414.312	1774.63
414.756	1708.78
415.199	1630.26
415.642	1584.1
416.085	1588.94
416.527	1579.75
416.97	1606.95
417.413	1522.84
417.856	1507.69
418.298	1492.42
418.741	1485.86
419.184	1483.34
419.626	1546.51
420.069	1546.68
420.511	1557.15
420.953	1522.46
421.396	1510.39
421.838	1472.06
422.28	1506.97
422.722	1511.93
423.164	1533.04
423.606	1506.87
424.048	1504.83
424.49	1428.16
424.932	1421.18
425.374	1400.44
425.816	1426.95
426.258	1453.79
426.699	1471.53
427.141	1450.18
427.582	1474.98
428.024	1470.69
428.465	1459.93
428.907	1422.33
429.348	1407.32
429.789	1407.74
430.231	1378.88
430.672	1396.37
431.113	1360.35
431.554	1338.99
431.995	1303.89
432.436	1256.3
432.877	1226.28
433.318	1202.95
433.759	1197.33
434.2	1195.48
434.64	1181.78
435.081	1183.49
435.522	1119.5
435.962	1078.53
436.403	1054.12
436.843	1070.59
437.284	1046.13
437.724	1018.42
438.164	1022.54
438.604	999.58
439.045	961.28
439.485	920.9
439.925	900.87
440.365	877.58
440.805	866.96
441.245	854.81
441.685	821.09
442.125	816.1
442.564	819.26
443.004	799.13
443.444	796.36
443.883	797.72
444.323	791.79
444.762	793.18
445.202	804.51
445.641	817.02
446.081	812.14
446.52	818.09
446.959	807.88
447.398	788.25
447.837	778.51
448.276	765.29
448.716	772.29
449.154	779.04
449.593	759.31
450.032	756.34
450.471	743.19
450.91	744.88
451.349	744.29
451.787	741.24
452.226	752.07
452.664	752.37
453.103	753.31
453.541	752.71
453.98	750.67
454.418	756.59
454.856	745.63
455.295	743.3
455.733	748.67
456.171	752.44
456.609	754.44
457.047	755.72
457.485	766.32
457.923	768.47
458.361	757.34
458.798	759.95
459.236	757.48
459.674	762.1
460.111	766.86
460.549	758.24
460.987	756.39
461.424	753.19
461.862	749.7
462.299	737.95
462.736	736.48
463.173	739.78
463.611	731.37
464.048	730.15
464.485	735.03
464.922	727.68
465.359	725.52
465.796	714.7
466.233	710.41
466.67	702.96
467.106	701.54
467.543	695.45
467.98	686.5
468.416	669.34
468.853	665.15
469.29	646.23
469.726	638.95
470.162	621.18
470.599	613.88
471.035	607.5
471.471	592.28
471.907	589.16
472.344	584.65
472.78	585.68
473.216	593.2
473.652	585.47
474.088	583.91
474.523	582.88
474.959	588.98
475.395	582.69
475.831	578.71
476.266	583.04
476.702	581.06
477.138	574.69
477.573	571.99
478.008	569.4
478.444	571.52
478.879	576.06
479.314	578.08
479.75	575.92
480.185	578.84
480.62	585.12
481.055	587.74
481.49	593.02
481.925	601.73
482.36	613.51
482.795	631.12
483.229	648.9
483.664	663.52
484.099	666.87
484.534	678.54
484.968	686.75
485.403	688.85
485.837	687.92
486.271	686.71
486.706	688.67
487.14	680.93
487.574	670.46
488.009	665.29
488.443	659.73
488.877	666.7
489.311	669.39
489.745	676.6
490.179	683.49
490.613	697.09
491.046	703.82
491.48	709.24
491.914	710.34
492.348	716.9
492.781	721.64
493.215	723.83
493.648	726.19
494.082	732.37
494.515	733.61
494.948	741.74
495.382	746.83
495.815	751.98
496.248	757.87
496.681	772
497.114	783.62
497.547	793.83
497.98	807.47
498.413	813.82
498.846	824.37
499.279	834.48
499.711	839.04
500.144	842.01
500.577	853.13
501.009	865.29
501.442	875.82
501.874	877.49
502.306	881.01
502.739	889.16
503.171	904.01
503.603	907.15
504.036	916.15
504.468	922.38
504.9	934.48
505.332	940.61
505.764	945.06
506.196	951.32
506.627	964.98
507.059	976.38
507.491	984.64
507.923	982.23
508.354	996.25
508.786	1005.46
509.217	1021.88
509.649	1034.81
510.08	1052.38
510.512	1066.59
510.943	1080.4
511.374	1090.56
511.805	1109.35
512.237	1126.71
512.668	1156.24
513.099	1180.68
513.53	1205.33
513.961	1222.92
514.391	1251.57
514.822	1280.91
515.253	1312.65
515.684	1334.11
516.114	1359.65
516.545	1376.85
516.975	1398.08
517.406	1412.02
517.836	1410.61
518.267	1413
518.697	1426.93
519.127	1427.72
519.558	1431.03
519.988	1431.12
520.418	1436.45
520.848	1448.41
521.278	1453.45
521.708	1467.14
522.138	1475.74
522.567	1502.3
522.997	1522.21
523.427	1532.53
523.857	1544.87
524.286	1551.71
524.716	1562.68
525.145	1577.47
525.575	1584.86
526.004	1595.16
526.433	1584.64
526.863	1581.76
527.292	1569.48
527.721	1572.12
528.15	1574.77
528.579	1572.48
529.008	1579.52
529.437	1598.97
529.866	1609.72
530.295	1623.93
530.724	1632.44
531.152	1656.46
531.581	1668.43
532.01	1683.26
532.438	1690.25
532.867	1703.73
533.295	1719.28
533.723	1723.95
534.152	1720.29
534.58	1719.36
535.008	1703.82
535.436	1706.6
535.865	1711.76
536.293	1724.2
536.721	1738.49
537.149	1761
537.576	1762.53
538.004	1774.04
538.432	1780.96
538.86	1779.48
539.287	1785.6
539.715	1798.02
540.143	1799.52
540.57	1796.79
540.998	1793.67
541.425	1772.16
541.852	1752.86
542.28	1750.55
542.707	1735.17
543.134	1721.33
543.561	1716.75
543.988	1709.7
544.415	1708.99
544.842	1702.4
545.269	1694.77
545.696	1695.31
546.123	1706.29
546.549	1694.66
546.976	1682.39
547.403	1681.33
547.829	1683.83
548.256	1685.4
548.682	1681.18
549.108	1673.53
549.535	1672.64
549.961	1674.16
550.387	1661.21
550.813	1656.74
551.24	1663.03
551.666	1663.25
552.092	1654.5
552.518	1647.39
552.943	1641.72
553.369	1648.29
553.795	1652.71
554.221	1654.56
554.646	1651.06
555.072	1661.13
555.498	1664.82
555.923	1673.82
556.349	1688.23
556.774	1695.66
557.199	1697.19
557.625	1703.06
558.05	1697.39
558.475	1708.96
558.9	1708.32
559.325	1701.87
559.75	1696.07
560.175	1690.82
560.6	1685.22
561.025	1684.16
561.449	1686.64
561.874	1693
562.299	1697.75
562.723	1706.18
563.148	1697.76
563.572	1703
563.997	1713.56
564.421	1720.86
564.846	1722.5
565.27	1727.5
565.694	1726.86
566.118	1739.62
566.542	1747.64
566.966	1742.75
567.39	1739.74
567.814	1730.72
568.238	1732.23
568.662	1739.47
569.086	1743.18
569.509	1752.14
569.933	1740.55
570.357	1736.19
570.78	1718.92
571.204	1709.48
571.627	1701.63
572.05	1703.08
572.474	1704.63
572.897	1694.37
573.32	1688.05
573.743	1681.35
574.166	1666.19
574.589	1667.56
575.012	1661.96
575.435	1661.89
575.858	1654.47
576.281	1645.27
576.704	1631.13
577.126	1621.48
577.549	1611.99
577.972	1604.08
578.394	1595.22
578.817	1589.27
579.239	1572.62
579.661	1560.52
580.084	1546.34
580.506	1534.49
580.928	1532.24
581.35	1521.88
581.772	1518.65
582.194	1506.96
582.616	1496.13
583.038	1482.38
583.46	1471.95
583.882	1469.54
584.303	1473.94
584.725	1471.23
585.147	1473.34
585.568	1484.07
585.99	1496.85
586.411	1504
586.833	1519.32
587.254	1521.36
587.675	1536.41
588.096	1551.14
588.518	1546.2
588.939	1530.94
589.36	1528.47
589.781	1519.29
590.202	1492.36
590.623	1485.4
591.043	1482.28
591.464	1469.71
591.885	1466.03
592.305	1461.6
592.726	1448.2
593.147	1450.21
593.567	1445.33
593.987	1438.4
594.408	1433.82
594.828	1431.74
595.248	1425.14
595.669	1408.56
596.089	1401.93
596.509	1395.04
596.929	1380.64
597.349	1380.95
597.769	1371.05
598.189	1365.12
598.608	1366.01
599.028	1367.23
599.448	1367.56
599.867	1356.21
600.287	1351.41
600.706	1347.98
601.126	1339.36
601.545	1339.02
601.965	1337.77
602.384	1333.31
602.803	1335.98
603.222	1332.63
603.641	1327.68
604.061	1325.11
604.48	1321.67
604.898	1331.55
605.317	1337.15
605.736	1340.24
606.155	1338.37
606.574	1331.05
606.992	1337.21
607.411	1334.64
607.829	1326.57
608.248	1325.13
608.666	1324.34
609.085	1325.07
609.503	1317.88
609.921	1313.24
610.339	1316.9
610.758	1318.27
611.176	1315.17
611.594	1307.52
612.012	1305.25
612.43	1311.65
612.847	1319.99
613.265	1323.01
613.683	1328.77
614.101	1331.05
614.518	1328.61
614.936	1319.79
615.353	1307.24
615.771	1306.2
616.188	1307.96
616.606	1305.74
617.023	1300.04
617.44	1285.72
617.857	1278.79
618.274	1271.62
618.691	1266.52
619.108	1257.8
619.525	1252.98
619.942	1259.92
620.359	1263.35
620.776	1259.82
621.192	1257.27
621.609	1255.27
622.026	1263.08
622.442	1269.78
622.859	1274.02
623.275	1268.44
623.691	1275.37
624.108	1287.91
624.524	1302.74
624.94	1303.21
625.356	1313.62
625.772	1327.09
626.188	1340.1
626.604	1342.26
627.02	1339.1
627.436	1336.55
627.852	1343.22
628.268	1355.81
628.683	1347.09
629.099	1338.39
629.514	1333.87
629.93	1337.45
630.345	1340.72
630.761	1336.29
631.176	1339.16
631.591	1332.46
632.007	1326.28
632.422	1323.99
632.837	1311.96
633.252	1307.6
633.667	1296.61
634.082	1286.02
634.497	1272.71
634.911	1253.17
635.326	1248.7
635.741	1230.64
636.155	1219.92
636.57	1221.11
636.984	1219.5
637.399	1219.71
637.813	1219.18
638.228	1218.1
638.642	1221.78
639.056	1211.05
639.47	1210.85
639.884	1201.04
640.298	1194.64
640.712	1193.03
641.126	1179.27
641.54	1170.62
641.954	1165.11
642.368	1153.22
642.781	1144.66
643.195	1127.39
643.609	1127.93
644.022	1122.21
644.436	1119.29
644.849	1107.87
645.262	1095.98
645.676	1098.63
646.089	1093.51
646.502	1079.9
646.915	1074.85
647.328	1058.76
647.741	1056.92
648.154	1043.72
648.567	1041.61
648.98	1028.51
649.393	1029.94
649.805	1028.19
650.218	1021.56
650.631	1006.65
651.043	1000.6
651.456	996.9
651.868	998.62
652.28	1017.96
652.693	1033.76
653.105	1041.19
653.517	1053.88
653.929	1054.46
654.341	1061.09
654.753	1050.75
655.165	1059.16
655.577	1059.75
655.989	1056.13
656.401	1050.28
656.813	1015.74
657.224	997.1
657.636	970.01
658.047	952.22
658.459	934.4
658.87	927.41
659.282	917.01
659.693	897.74
660.104	884.47
660.515	872.42
660.926	871.41
661.338	868.66
661.749	863.55
662.159	855.71
662.57	852.8
662.981	849.25
663.392	843.35
663.803	848.93
664.213	847.95
664.624	843.84
665.035	847.57
665.445	836.13
665.855	830.64
666.266	823.07
666.676	821.05
667.086	812.28
667.497	812.65
667.907	807.22
668.317	798.5
668.727	795.01
669.137	797.58
669.547	796.12
669.956	799.62
670.366	801.92
670.776	804.4
671.186	809.5
671.595	814.62
672.005	819.76
672.414	819.64
672.824	818.71
673.233	825.39
673.642	828.13
674.052	831.63
674.461	834.53
674.87	841.76
675.279	841.05
675.688	843.96
676.097	846.36
676.506	843.35
676.915	859.94
677.323	864.12
677.732	863.34
678.141	864.46
678.549	855.49
678.958	856.09
679.366	856.1
679.775	862.8
680.183	875.13
680.592	882.06
681	890.55
681.408	884.51
681.816	893.98
682.224	905.17
682.632	915.9
683.04	948.55
683.448	975.99
683.856	1009.11
684.264	1047.97
684.671	1083.06
685.079	1126.73
685.487	1174.21
685.894	1240.01
686.302	1293.06
686.709	1334.56
687.116	1385.1
687.524	1422.99
687.931	1451.65
688.338	1475.78
688.745	1493.05
689.152	1516.83
689.559	1550.44
689.966	1581.91
690.373	1590.03
690.78	1619.28
691.187	1671.21
691.593	1705.96
692	1735.28
692.407	1785.22
692.813	1849.17
693.22	1895.97
693.626	1944.03
694.032	1979.37
694.439	2039.07
694.845	2083.58
695.251	2143.62
695.657	2195.4
696.063	2278.88
696.469	2335.91
696.875	2387.34
697.281	2410.79
697.687	2444.7
698.093	2468.57
698.498	2529.33
698.904	2574.98
699.31	2647.6
699.715	2695.47
700.12	2771.06
700.526	2775.2
700.931	2828.6
701.337	2867.2
701.742	2887.95
702.147	2955.45
702.552	2976.06
702.957	3022.46
703.362	3031.45
703.767	3048.7
704.172	3075.77
704.577	3023.77
704.981	3060.11
705.386	3068.54
705.791	3055.17
706.195	3115.48
706.6	3114.92
707.004	3179.65
707.408	3144.03
707.813	3162.48
708.217	3145.94
708.621	3141.67
709.025	3221.87
709.43	3217.26
709.834	3264.96
710.237	3322.1
710.641	3302.68
711.045	3319.82
711.449	3309.15
711.853	3329.71
712.256	3362.14
712.66	3389.94
713.064	3451.66
713.467	3482.89
713.87	3576.33
714.274	3612.51
714.677	3703.74
715.08	3842.47
715.484	3982.12
715.887	4156.51
716.29	4326.54
716.693	4502.52
717.096	4706.95
717.499	4817.26
717.901	4837.19
718.304	4855.65
718.707	4875.45
719.109	4779.49
719.512	4744.75
719.915	4626.49
720.317	4571.44
720.719	4605.76
721.122	4576.78
721.524	4533.1
721.926	4494.21
722.328	4574.87
722.731	4563.44
723.133	4580.76
723.535	4744.06
723.937	4759.36
724.338	4801.79
724.74	4833.37
725.142	4783.29
725.544	4779.44
725.945	4797.78
726.347	4791.09
726.748	4784.52
727.15	4795.23
727.551	4762.02
727.952	4734.7
728.354	4707.55
728.755	4704.42
729.156	4668.8
729.557	4649.76
729.958	4543.11
730.359	4492.26
730.76	4473.56
731.161	4418.06
731.562	4394.41
731.962	4395.76
732.363	4342.55
732.763	4287.68
733.164	4314.83
733.564	4254.87
733.965	4173.26
734.365	4142.03
734.766	4165.08
735.166	4133.25
735.566	4089.69
735.966	4067.73
736.366	4061.28
736.766	4008.69
737.166	4034.11
737.566	3999.8
737.966	3979.32
738.365	4011.82
738.765	4007.78
739.165	3945.94
739.564	3923.19
739.964	3960.06
740.363	3918.96
740.763	3917.27
741.162	3906.55
741.561	3879.77
741.96	3840.09
742.36	3854.94
742.759	3858.91
743.158	3891.13
743.557	3902.69
743.955	3935.38
744.354	3896.36
744.753	3944.94
745.152	3910.95
745.55	3957.7
745.949	3950.96
746.348	3951.89
746.746	3964.51
747.144	3928.21
747.543	3907.91
747.941	3944.85
748.339	3885.5
748.737	3876.38
749.136	3868.94
749.534	3921.8
749.932	3894.84
750.33	3915.03
750.727	3961.33
751.125	3941.93
751.523	3929.49
751.921	3966.45
752.318	3939.9
752.716	3989.87
753.113	4003.05
753.511	4023.3
753.908	4022.85
754.305	4010.31
754.703	4061.04
755.1	4112.74
755.497	4163.36
755.894	4318.93
756.291	4467.01
756.688	4740.19
757.085	5102.18
757.482	5614.3
757.878	6175.59
758.275	6678.37
758.672	7376.38
759.068	7944.9
759.465	8755.15
759.861	9796.75
760.258	11010.45
760.654	11634.11
761.05	11541.77
761.447	11011.67
761.843	10252.5
762.239	9461.8
762.635	9110.2
763.031	8767.24
763.427	8275.76
763.822	7758.45
764.218	7251.21
764.614	6590.47
765.01	6147.7
765.405	5860.6
765.801	5644.47
766.196	5364.62
766.592	5212.74
766.987	4953.11
767.382	4776.78
767.778	4703.82
768.173	4592.04
768.568	4530.77
768.963	4429.9
769.358	4443.81
769.753	4405
770.148	4337.47
770.542	4337.95
770.937	4310.67
771.332	4384.79
771.726	4401.25
772.121	4349.1
772.515	4397.25
772.91	4384.33
773.304	4441.51
773.699	4388.79
774.093	4434.39
774.487	4478.68
774.881	4516.77
775.275	4514.48
775.669	4479.41
776.063	4515.43
776.457	4543.17
776.851	4480.02
777.245	4472.37
777.638	4498.99
778.032	4591.51
778.425	4560.49
778.819	4595.89
779.212	4560.31
779.606	4528.75
779.999	4546.66
780.392	4532.94
780.786	4600.07
781.179	4619.45
781.572	4659.38
781.965	4668.37
782.358	4622.27
782.751	4670.58
783.143	4629.08
783.536	4686.92
783.929	4721.77
784.322	4814.58
784.714	4837.33
785.107	4837.22
785.499	4895.54
785.891	4871.77
786.284	4858.4
786.676	4975.14
787.068	4958.11
787.46	5002.87
787.852	5021.21
788.245	5089.22
788.636	5113.96
789.028	5172.45
789.42	5203.07
789.812	5211.18
790.204	5294.77
790.595	5376.91
790.987	5214.56
791.378	5235.37
791.77	5340.7
792.161	5450.77
792.553	5497.96
792.944	5405.61
793.335	5350.25
793.726	5410.73
794.117	5483.15
794.508	5595.45
794.899	5568.7
795.29	5686.2
795.681	5728.09
796.072	5614.03
796.463	5465.72
796.853	5477.4
797.244	5609.82
797.634	5637.09
798.025	5635.09
798.415	5645.79
798.806	5719.28
799.196	5793.4
799.586	5835.96
799.976	5809.15
800.366	5997.67
800.756	6191.39
801.146	6154.25
801.536	6178.19
801.926	6240.39
802.316	6260.56
802.706	6319.95
803.095	6219.24
803.485	6303.59
803.874	6338.07
804.264	6552.08
804.653	6530.09
805.043	6653.89
805.432	6744.52
805.821	6744.13
806.21	6762.89
806.599	6865.02
806.988	6900.49
807.377	6987.22
807.766	7093.76
808.155	7327.87
808.544	7114.78
808.933	7127.77
809.321	7109.78
809.71	7351.87
810.098	7484.9
810.487	7862.54
810.875	8255.23
811.264	8272.16
811.652	8513.5
812.04	8631.71
812.428	8759.95
812.816	9381.58
813.204	9725.97
813.592	10184.27
813.98	10460.68
814.368	10382.36
814.756	10777.84
815.144	10714.24
815.531	11100.95
815.919	11039.02
816.306	11286.78
816.694	11036.19
817.081	11078.27
817.469	11352.03
817.856	11343.98
818.243	11567.67
818.63	11888.39
819.017	11543.74
819.404	11591.8
819.791	11905.71
820.178	12414.01
820.565	12612.87
820.952	13376.45
821.339	12971.78
821.725	13134.64
822.112	12519.25
822.498	12483.43
822.885	12589.16
823.271	12508.8
823.657	12852.39
824.044	12854.4
824.43	12913.08
824.816	12900.34
825.202	12549.37
825.588	13388.42
825.974	13398.89
826.36	13817.77
826.746	13846.1
827.132	14130.43
827.517	14110.42
827.903	13466.33
828.289	13507.29
828.674	12863.07
829.06	12779.72
829.445	13106.53
829.83	13399.42
830.216	13788.46
830.601	14103.31
830.986	13781.36
831.371	13676.56
831.756	14144.07
832.141	13789.99
832.526	13785.83
832.911	14024.11
833.295	13928.69
833.68	14313.37
834.065	13805.67
834.449	13056.9
834.834	12995.71
835.218	12989.68
835.603	13278.84
835.987	13096.5
836.371	13789.73
836.755	13702.14
837.139	14032.42
837.524	14230.77
837.908	14085.11
838.291	14136.89
838.675	14201.29
839.059	14372.88
839.443	14361.5
839.827	14173.01
840.21	14571.59
840.594	14450.23
840.977	14624.16
841.361	14611.77
841.744	14921.04
842.127	14796.56
842.511	15000.72
842.894	15487.21
843.277	15801.57
843.66	16254.5
844.043	16318.05
844.426	15654.74
844.809	15393.92
845.191	15420.85
845.574	15041.98
845.957	14742.33
846.339	14650.73
846.722	14219.35
847.104	14280.37
847.487	14140.19
847.869	14148.25
848.252	14379.97
848.634	14657.42
849.016	14881.23
849.398	14980.14
849.78	15671.66
850.162	15676.03
850.544	16015.4
850.926	16532.54
851.307	16456.21
851.689	16689.32
852.071	17052.92
852.452	17320.12
852.834	17299.65
853.215	17616.24
853.597	17744
853.978	17995.68
854.359	18370.44
854.741	17560.6
855.122	17472.32
855.503	17234.27
855.884	17335.3
856.265	17295.69
856.646	17386.81
857.026	17069.4
857.407	17029.82
857.788	17162.84
858.169	17390.3
858.549	16689.37
858.93	17188.72
859.31	17237.87
859.69	17405.18
860.071	17074.33
860.451	16889.97
860.831	16279.93
861.211	17227.45
861.591	17676.77
861.971	17649.01
862.351	17814.99
862.731	18132.95
863.111	18352.72
863.491	18618.55
863.87	19344.62
864.25	19630.67
864.629	19310.24
865.009	19731.43
865.388	20432.71
865.768	21883.1
866.147	21799.22
866.526	20592.96
866.905	20840.98
867.284	22015.28
867.663	20897.04
868.042	20034.59
868.421	19967.16
868.8	20281.39
869.179	20477.3
869.558	19275.23
869.936	17775.58
870.315	18090.71
870.693	18530.5
871.072	19984.45
871.45	19037.99
871.828	19286.07
872.207	20266.01
872.585	19967.26
872.963	20511.57
873.341	19811.55
873.719	19586.58
874.097	19342.17
874.475	19711
874.853	20168.59
875.23	19318.4
875.608	20133.93
875.986	21780.81
876.363	20834.49
876.741	21467.51
877.118	20937.23
877.495	21976.31
877.873	22344.12
878.25	23519.44
878.627	22560.1
879.004	22874.55
879.381	22764.94
879.758	22165.68
880.135	20645.18
880.512	21833.25
880.889	21255.87
881.265	21036.29
881.642	20858.44
882.019	21205.8
882.395	20782.8
882.772	21614.73
883.148	20677.06
883.524	20609.6
883.901	20492.51
884.277	20786.69
884.653	20658.53
885.029	21260.56
885.405	23549.24
885.781	23365.36
886.157	22407.66
886.532	22678.01
886.908	22665.67
887.284	25199.22
887.659	26015.13
888.035	26822.62
888.411	27524.73
888.786	27880.64
889.161	28833.85
889.537	28304.8
889.912	29209.77
890.287	29179.57
890.662	29924.2
891.037	29377.27
891.412	27389.65
891.787	27124.21
892.162	26174.43
892.536	26782.62
892.911	25780.65
893.286	25241.56
893.66	24221.14
894.035	24843.89
894.409	27050.71
894.784	25984.49
895.158	26421.39
895.532	27996.11
895.906	28751.62
896.281	29425.13
896.655	28951.4
897.029	33093.19
897.402	34454.55
897.776	38347.09
898.15	38209.26
898.524	37813.79
898.898	38252.45
899.271	42823.75
899.645	37088.57
900.018	35623.34
900.392	36947.12
900.765	37246.59
901.138	34434.36
901.511	33907.77
901.884	31124.08
902.258	28701.87
902.631	29637.86
903.003	34139.46
903.376	30796.5
903.749	34522.83
904.122	36941.51
904.495	40656.05
904.867	41155.77
905.24	35743.74
905.612	33284.98
905.985	34041.15
906.357	35593.89
906.729	33999.04
907.102	29023.46
907.474	27907.53
907.846	28090.8
908.218	27718.59
908.59	24498.68
908.962	23696.74
909.334	25518.02
909.705	26804.76
910.077	26018.64
910.449	27088.7
910.82	27838.95
911.192	30651.14
911.563	31845.12
911.935	34075.32
912.306	34117.62
912.677	35241.53
913.048	34895.22
913.419	37864.03
913.79	38079.4
914.161	40828.53
914.532	39021.42
914.903	35842.33
915.274	34029.6
915.645	33545.7
916.015	29510.14
916.386	28139.5
916.756	29940.63
917.127	30890.42
917.497	27593.78
917.868	30042.6
918.238	28556.63
918.608	29368.83
918.978	29981.79
919.348	31744.67
919.718	32797.96
920.088	31600.89
920.458	32832.48
920.828	34530.12
921.198	32728.69
921.567	34967.38
921.937	27069.42
922.306	27322.74
922.676	29454.64
923.045	24574.33
923.415	23352.68
923.784	21257.54
924.153	21869.52
924.522	21860.39
924.891	20558.63
925.26	22021.4
925.629	21507.82
925.998	24718.67
926.367	24145.3
926.736	22995.42
927.104	27392.85
927.473	29470.57
927.842	35605.75
928.21	35253.04
928.578	37041.69
928.947	35042.26
929.315	35250.44
929.683	41325.21
930.051	41669.97
930.42	48364.72
930.788	41361.85
931.156	41049.32
931.523	38457.17
931.891	35535.26
932.259	34113.62
932.627	39519.61
932.994	55892.22
933.362	46199.62
933.729	40124.62
934.097	38396.85
934.464	32486.91
934.831	37492.88
935.199	36974.7
935.566	35874.84
935.933	36303.05
936.3	43965.57
936.667	34247.79
937.034	30894.05
937.401	30552.16
937.767	26378.23
938.134	23491.54
938.501	33127.96
938.867	35260.82
939.234	59591.34
939.6	50777.86
939.967	56037.26
940.333	37548.04
940.699	31962.81
941.065	25693.01
941.431	33709.14
941.798	32497.45
942.163	42668.82
942.529	26697.42
942.895	24596.66
943.261	15910.47
943.627	20902.29
943.992	18300.31
944.358	18312.14
944.723	18378.91
945.089	17866.46
945.454	16492.1
945.82	17605.7
946.185	16924.61
946.55	19600.88
946.915	17588.07
947.28	20627.11
947.645	18144.39
948.01	16749.56
948.375	17447.25
948.74	20917.57
949.104	24441.53
949.469	35323.67
949.834	62448.55
950.198	59188.54
950.562	35459.32
950.927	29536.42
951.291	35531.11
951.655	30276.54
952.02	28398.71
952.384	21500.07
952.748	18717.27
953.112	18257.38
953.476	15884.87
953.839	14676.97
954.203	14529.05
954.567	18180.03
954.931	28609.47
955.294	24489.74
955.658	24613.48
956.021	41894.03
956.385	71041.91
956.748	104769.79
957.111	162285.95
957.474	182103.65
957.837	205137.7
958.2	155228.76
958.563	55760.13
958.926	37730.71
959.289	57201.07
959.652	63886.36
960.015	47957.18
960.377	68789.49
960.74	78550.41
961.102	135702.41
961.465	145693.76
961.827	78013.57
962.189	149576.78
962.552	103755.94
962.914	83209.46
963.276	54031.75
963.638	44702.31
964	44240.13
964.362	29922.89
964.724	28913.58
965.085	20608.61
965.447	16885.72
965.809	19231.76
966.17	19269.72
966.532	20851.04
966.893	19122.86
967.255	17394.36
967.616	20521.86
967.977	16434.6
968.338	17942.19
968.699	14740.91
969.061	14727.34
969.421	14845.28
969.782	16662.44
970.143	14044.77
970.504	14564.11
970.865	16550.1
971.225	16919.15
971.586	16555.74
971.946	23594.22
972.307	20452.57
972.667	26725.99
973.027	27536.64
973.388	33367.07
973.748	22681.08
974.108	24756.92
974.468	33410.92
974.828	25774.7
975.188	19864.92
975.548	18241.48
975.907	15311.63
976.267	17192.7
976.627	14459.62
976.986	14993.91
977.346	14292.19
977.705	13757.92
978.064	12511.64
978.424	10435.11
978.783	10796.24
979.142	12308.84
979.501	11782.72
979.86	12452.81
980.219	12002.2
980.578	15473.58
980.937	17350.08
981.296	15456.4
981.654	15914.7
982.013	24787.52
982.371	32104.12
982.73	29919.27
983.088	33831.37
983.447	36156.9
983.805	51742.32
984.163	108200.1
984.521	120167.89
984.879	175841.61
985.237	-286238.12
985.595	276108.69
985.953	68640.66
986.311	39678.72
986.669	23079.9
987.026	19956.61
987.384	26802
987.741	27680.84
988.099	19806.29
988.456	15805.31
988.814	14808.66
989.171	12882.79
989.528	12702.61
989.885	13407.01
990.242	10606.15
990.599	13213.87
990.956	10812.65
991.313	7565.51
991.67	6230.73
992.027	6600.42
992.383	5863.5
992.74	5138.03
993.096	5394.39
993.453	5595.65
993.809	5793.23
994.165	7726.94
994.522	7071.14
994.878	7780.24
995.234	9748.77
995.59	9590.93
995.946	9081.09
996.302	10370.59
996.658	12011.53
997.013	13210.73
997.369	15665.75
997.725	20088.04
998.08	13040.5
998.436	20130.49
998.791	27806.25
999.147	27807.51
999.502	30292.35
999.857	21949.42
1000.212	35697.45
1000.567	50723.54
1000.922	29290.4
1001.277	18592.14
1001.632	13799.21
1001.987	17753.26
1002.342	12715.38
1002.696	10166.92
1003.051	8126.45
1003.406	9855.83
1003.76	9805.13
1004.114	9664.62
1004.469	8138.87
1004.823	6727.47
1005.177	7280.36
1005.531	5771.9
1005.885	5115.39
1006.239	5767.27
1006.593	7229.53
1006.947	9656.12
1007.301	7258.06
1007.655	7925.75
1008.008	5808.74
1008.362	6509.8
1008.715	9308.83
1009.069	8440.85
1009.422	12720.1
1009.776	25514.64
1010.129	16942.78
1010.482	14150.08
1010.835	11976.38
1011.188	24903.44
1011.541	23488.68
1011.894	-143750.62
1012.247	424487.2
1012.6	28789.29
1012.952	18219.35
1013.305	9330.59
1013.657	6749.1
1014.01	6384.12
1014.362	5274.91
1014.715	4694.99
1015.067	4089.48
1015.419	3991.12
1015.771	3543.38
1016.123	3146.37
1016.475	3250.69
1016.827	3450.05
1017.179	3737
1017.531	3743.57
1017.883	3843.08
1018.234	3725.09
1018.586	4702.19
1018.938	4983.09
1019.289	6891.23
1019.64	7871.91
1019.992	7331.7
1020.343	6677.41
1020.694	5286.96
1021.045	4659.32
1021.396	5348.26
1021.747	5737.39
1022.098	6830.9
1022.449	4941.21
1022.8	4589.72
1023.151	3191.23
1023.501	2838.62
1023.852	3092.26
1024.202	3215.56
1024.553	3522.89
1024.903	3431.38
1025.253	2933.84
1025.604	2633.51
1025.954	3282.93
1026.304	4000.69
1026.654	4666.71
1027.004	6820.9
1027.354	10988.89
1027.703	10424.01
1028.053	13641.48
1028.403	19778.7
1028.753	28581.72
1029.102	38756
1029.452	199302.62
1029.801	8584.29
1030.15	5543.58
1030.499	4672.52
897.758	2439.26
901.051	2388.32
904.343	2422.59
907.636	2427.41
910.928	2488.99
914.22	2402
917.511	2409.85
920.803	2466.52
924.094	2477.15
927.384	2466.56
930.675	2430.8
933.965	2388.74
937.255	2405.33
940.544	2368.96
943.834	2341.67
947.123	2280.84
950.411	2373.7
953.7	2349.57
956.988	2324.33
960.276	2263.69
963.563	2330.88
966.851	2332.68
970.138	2383.95
973.424	2379.97
976.711	2335.04
979.997	2423.56
983.283	2465.91
986.568	2383.4
989.853	2390
993.138	2416.68
996.423	2496.73
999.708	2442.78
1002.992	2487.72
1006.275	2363.43
1009.559	2387.64
1012.842	2495.68
1016.125	2433.38
1019.408	2414.4
1022.69	2487.86
1025.972	2512.97
1029.254	2485.99
1032.536	2433.13
1035.817	2452.95
1039.098	2412.23
1042.379	2512.3
1045.659	2525.19
1048.939	2462.53
1052.219	2480.36
1055.498	2485.55
1058.778	2474.89
1062.057	2452.51
1065.335	2476.55
1068.614	2491.58
1071.892	2476.39
1075.17	2545.6
1078.447	2535.68
1081.724	2530.78
1085.001	2563.27
1088.278	2536.83
1091.554	2548.55
1094.83	2542.53
1098.106	2572.47
1101.382	2611.31
1104.657	2611.44
1107.932	2611.43
1111.206	2578.85
1114.481	2538.08
1117.755	2540.68
1121.029	2526.24
1124.302	2581.76
1127.575	2537.41
1130.848	2530.54
1134.121	2497.42
1137.393	2451.83
1140.665	2513.87
1143.937	2490.02
1147.208	2446.69
1150.48	2492.61
1153.75	2477.29
1157.021	2499.03
1160.291	2472.81
1163.561	2517
1166.831	2499.84
1170.101	2528.59
1173.37	2500.08
1176.639	2450.75
1179.907	2501.88
1183.176	2513.75
1186.444	2517.49
1189.711	2545.68
1192.979	2558.56
1196.246	2516.18
1199.513	2533.77
1202.78	2532.02
1206.046	2541.46
1209.312	2564.56
1212.578	2586.73
1215.843	2546.09
1219.108	2517.89
1222.373	2542.57
1225.638	2509.1
1228.902	2498.01
1232.166	2463.1
1235.43	2445.84
1238.693	2470.61
1241.956	2466.33
1245.219	2508.39
1248.482	2497.36
1251.744	2494.39
1255.006	2629.95
1258.268	2580.25
1261.529	2530.66
1264.79	2531.94
1268.051	2632.13
1271.312	2646.97
1274.572	2615.25
1277.832	2603.09
1281.092	2591.5
1284.351	2570.16
1287.61	2552.2
1290.869	2477.79
1294.128	2464.94
1297.386	2534.62
1300.644	2527.9
1303.902	2536.05
1307.159	2402.27
1310.416	2454.1
1313.673	2480.06
1316.93	2469.95
1320.186	2509.78
1323.442	2547.68
1326.697	2540.14
1329.953	2525.37
1333.208	2555
1336.463	2533.9
1339.717	2482.68
1342.972	2601.95
1346.226	2579.97
1349.479	2519.15
1352.733	2492.11
1355.986	2510.95
1359.238	2488.56
1362.491	2493.84
1365.743	2493.41
1368.995	2486.63
1372.247	2501.93
1375.498	2524.21
1378.749	2551.05
1382	2503.58
1385.251	2550.55
1388.501	2510.9
1391.751	2499.29
1395	2469.92
1398.25	2500.12
1401.499	2513.83
1404.748	2451.22
1407.996	2433.9
1411.244	2421.35
1414.492	2404.14
1417.74	2382.14
1420.987	2392.28
1424.234	2448.62
1427.481	2421.55
1430.728	2479.56
1433.974	2453.78
1437.22	2464.69
1440.465	2464.44
1443.711	2442.1
1446.956	2469.65
1450.201	2453.4
1453.445	2498.06
1456.689	2477.29
1459.933	2492.21
1463.177	2526.16
1466.42	2496.95
1469.663	2478.58
1472.906	2478.08
1476.148	2535.2
1479.391	2529.76
1482.633	2499.95
1485.874	2512.57
1489.115	2507.54
1492.356	2503.91
1495.597	2477.41
1498.838	2478.17
1502.078	2455.13
1505.318	2414.71
1508.557	2452.9
1511.797	2443.62
1515.036	2471.97
1518.274	2459.2
1521.513	2428.14
1524.751	2444.99
1527.989	2460.1
1531.227	2476.13
1534.464	2475.52
1537.701	2485.91
1540.938	2501.55
1544.174	2454.76
1547.41	2450.19
1550.646	2486.6
1553.882	2529.94
1557.117	2578.77
1560.352	2591.01
1563.587	2553.31
1566.821	2515.26
1570.055	2542.53
1573.289	2514.58
1576.523	2582.81
1579.756	2590.54
1582.989	2607.23
1586.222	2571.83
1589.454	2601.86
1592.686	2580.98
1595.918	2606.6
1599.15	2597.03
1602.381	2661.44
1605.612	2628.64
1608.843	2722.64
1612.073	2641.71
1615.303	2626.03
1618.533	2621.29
1621.762	2623.84
1624.992	2609.27
1628.221	2601.5
1631.449	2588.93
1634.678	2634.57
1637.906	2595.16
1641.134	2626.38
1644.361	2590.62
1647.588	2575.57
1650.815	2596.53
1654.042	2573.21
1657.269	2599.13
1660.495	2560.96
1663.72	2571.72
1666.946	2537.77
1670.171	2493.56
1673.396	2467.19
1676.621	2452.22
1679.845	2463.45
1683.069	2482.48
1686.293	2519.24
1689.517	2495.09
1692.74	2436.05
1695.963	2461.93
1699.185	2487.11
1702.408	2459.95
1705.63	2495.59
1708.852	2509.35
1712.073	2485.77
1715.294	2479.15
1718.515	2530.5
1721.736	2481.95
1724.956	2472.2
1728.176	2495.81
1731.396	2519.12
1734.616	2502.96
1737.835	2535.91
1741.054	2513.2
1744.272	2507.32
1747.491	2541.1
1750.709	2581.5
1753.927	2505.09
1757.144	2542.18
1760.361	2588.84
1763.578	2575.2
1766.795	2520.13
1770.011	2521.85
1773.227	2554.53
1776.443	2591.34
1779.658	2633.21
1782.874	2574.7
1786.089	2559.13
1789.303	2561.85
1792.518	2563.58
1795.732	2551.2
1798.945	2564.26
1802.159	2609.69
1805.372	2528.08
1808.585	2517.51
1811.797	2519
1815.01	2556.71
1818.222	2566.75
1821.434	2543.06
1824.645	2593.22
1827.856	2589.75
1831.067	2621.97
1834.278	2570.37
1837.488	2557.2
1840.698	2692.93
1843.908	2626.08
1847.117	2591.47
1850.326	2494.73
1853.535	2578.86
1856.744	2600.17
1859.952	2519.32
1863.16	2522
1866.368	2540.86
1869.575	2647.46
1872.782	2533.23
1875.989	2473.54
1879.196	2542.09
1882.402	2534.51
1885.608	2573.39
1888.814	2492.39
1892.019	2395.66
1895.224	2448.63
1898.429	2425
1901.634	2406.93
1904.838	2380.74
1908.042	2432.96
1911.246	2442.78
1914.449	2389.11
1917.652	2380.88
1920.855	2362.53
1924.058	2402.17
1927.26	2442.02
1930.462	2468.63
1933.664	2496.81
1936.865	2439.34
1940.066	2452.79
1943.267	2397.55
1946.467	2411.94
1949.668	2433.53
1952.868	2500.67
1956.067	2483.82
1959.267	2422.78
1962.466	2446.74
1965.665	2429.75
1968.863	2425.59
1972.061	2436.05
1975.259	2430.75
1978.457	2508.65
1981.654	2464.27
1984.852	2467.44
1988.048	2408.56
1991.245	2406.27
1994.441	2487.12
1997.637	2462.68
2000.833	2444.08
2004.028	2481.06
2007.223	2539.07
2010.418	2520.82
2013.613	2479.32
2016.807	2460.78
2020.001	2462.56
2023.194	2497.45
2026.388	2474.98
2029.581	2422.29
2032.774	2477.48
2035.966	2485.88
2039.158	2423.7
2042.35	2443.69
2045.542	2372.77
2048.733	2463.35
2051.924	2477.05
2055.115	2499.43
2058.306	2452.1
2061.496	2508.58
2064.686	2567.18
2067.875	2478.37
2071.065	2486.63
2074.254	2510.43
2077.442	2462.54
2080.631	2549.8
2083.819	2458.86
2087.007	2442.99
2090.195	2419.27
2093.382	2445.99
2096.569	2429.03
2099.756	2388.07
2102.942	2421.2
2106.128	2428.84
2109.314	2420.26
2112.5	2394.09
2115.685	2367.4
2118.87	2375.6
2122.055	2437.13
2125.239	2407.4
2128.424	2391.26
2131.608	2475.52
2134.791	2453.7
2137.974	2504.03
2141.157	2494.24
2144.34	2453.67
2147.523	2461.2
2150.705	2478.54
2153.887	2455.4
2157.068	2415.26
2160.25	2412.66
2163.431	2438.9
2166.611	2394.96
2169.792	2415.19
2172.972	2315.55
2176.152	2381.36
2179.331	2411.62
2182.511	2400.16
2185.69	2427.16
2188.868	2422.57
2192.047	2469.35
2195.225	2468.83
2198.403	2422.94
2201.58	2411.19
2204.758	2402.8
2207.935	2485.04
2211.111	2382.96
2214.288	2370.91
2217.464	2407.16
2220.64	2373.38
2223.815	2426.22
2226.991	2354.27
2230.166	2371.65
2233.34	2405.4
2236.515	2426.1
2239.689	2494.64
2242.863	2439.68
2246.036	2497.79
2249.209	2489.28
2252.382	2517.39
2255.555	2514.11
2258.727	2458.16
2261.9	2493.18
2265.071	2484.37
2268.243	2483.11
2271.414	2425.54
2274.585	2395.54
2277.756	2459.65
2280.926	2413.74
2284.096	2450.88
2287.266	2369.22
2290.436	2418.46
2293.605	2444.5
2296.774	2474.67
2299.942	2487.85
2303.111	2508.68
2306.279	2554.41
2309.447	2541.66
2312.614	2515.7
2315.781	2537.87
2318.948	2512.77
2322.115	2547.49
2325.281	2449.1
2328.447	2464.36
2331.613	2440.21
2334.779	2422.55
2337.944	2417.33
2341.109	2417.71
2344.274	2406.37
2347.438	2369.8
2350.602	2393.03
2353.766	2406.24
2356.929	2395.61
2360.092	2438.38
2363.255	2396.37
2366.418	2342.48
2369.58	2436.18
2372.742	2265.25
2375.904	2271.44
2379.066	2248.06
2382.227	2281.66
2385.388	2245.75
2388.548	2178.68
2391.709	2228.18
2394.869	2208.77
2398.029	2289.88
2401.188	2298.91
2404.347	2244.39
2407.506	2355.96
2410.665	2387.36
2413.823	2387.21
2416.981	2354.16
2420.139	2378.88
2423.296	2426.97
2426.453	2397.57
2429.61	2422.31
2432.767	2371.5
2435.923	2405.63
2439.079	2362.8
2442.235	2407.34
2445.391	2341.79
2448.546	2373.49
2451.701	2418.11
2454.855	2397.08
2458.009	2442.55
2461.163	2438
2464.317	2401.31
2467.471	2432.65
2470.624	2466.33
2473.777	2445.64
2476.929	2457.7
2480.082	2482.83
2483.234	2451.63
2486.385	2400.63
2489.537	2393.89
2492.688	2364.1
2495.839	2387.06
2498.989	2399.11
2502.14	2380.85
2505.29	2371.55
2508.439	2394.96
2511.589	2327.61
2514.738	2332.96
2517.887	2360
2521.035	2428.68
2524.183	2404.04
2527.331	2387.19
2530.479	2366.19
2533.627	2373.26
