Data from C_2_DIV_IL_4N_Splice17_12-37-07-155.txt Node
Date: Sat Mar 14 12:37:07 EDT 2020
User: sa697716
Spectrometer: FLMS03696
Trigger mode: 0
Integration Time (sec): 3.180400E-1
Scans to average: 20
Electric dark correction enabled: true
Nonlinearity correction enabled: true
Boxcar width: 5
XAxis mode: Wavelengths
Number of Pixels in Spectrum: 2048
>>>>>Begin Spectral Data<<<<<
187.83	-380840.07
188.298	2916.67
188.766	1518.52
189.233	1386.87
189.701	1955.11
190.169	2642.25
190.636	953.42
191.104	778.9
191.571	83.54
192.039	-114.47
192.506	-126.44
192.974	461.39
193.441	-447.8
193.908	12.02
194.375	13.88
194.842	45.51
195.31	48.72
195.777	157.19
196.244	424.3
196.711	506.33
197.177	655.75
197.644	949.77
198.111	1663.26
198.578	2323.92
199.045	1837.08
199.511	3044.43
199.978	3578.84
200.445	3056.23
200.911	3375.35
201.378	3774.36
201.844	3412.56
202.31	5844.59
202.777	6046.43
203.243	3341.22
203.709	3179.33
204.176	3808.45
204.642	3157.71
205.108	2972.6
205.574	2434.87
206.04	2222.16
206.506	2098.77
206.972	1996.32
207.438	1939.95
207.903	2239.99
208.369	1975.41
208.835	1989.6
209.301	2103.57
209.766	2167.89
210.232	2164.69
210.697	2709.83
211.163	3391.42
211.628	5167.43
212.094	4371.58
212.559	5398.21
213.024	3379.01
213.49	4175.65
213.955	4126.09
214.42	4089.21
214.885	3813.3
215.35	3697.96
215.815	3594.29
216.28	3865.53
216.745	3206.59
217.21	3529.48
217.675	3362.43
218.14	3893.5
218.604	4504.33
219.069	5309.22
219.534	5732.47
219.998	6888.52
220.463	8577.97
220.927	10880.02
221.392	10469.38
221.856	10814.95
222.32	13894.16
222.785	17331.83
223.249	22062.66
223.713	24815.55
224.177	25004.6
224.642	32339.45
225.106	40032.68
225.57	43936.08
226.034	32707.68
226.497	49902.39
226.961	45079.11
227.425	52604.34
227.889	58524
228.353	58624.01
228.816	121188.2
229.28	115972.72
229.744	97924.87
230.207	59460.56
230.671	58508.41
231.134	96964.48
231.597	111722.18
232.061	111735.29
232.524	108974.56
232.987	74994.05
233.45	67467.32
233.914	60546.11
234.377	62054.56
234.84	56728.56
235.303	66891.02
235.766	74638.83
236.229	77087.91
236.691	48559.69
237.154	54527.94
237.617	40994.87
238.08	41971.16
238.542	49054.49
239.005	34995.52
239.468	34706.1
239.93	32698.84
240.393	29689.88
240.855	26019.1
241.317	26627.87
241.78	32362.67
242.242	33403.06
242.704	35967.25
243.166	31269.27
243.629	28324.92
244.091	32606.07
244.553	35714.4
245.015	38293.89
245.477	49520.15
245.939	72585.33
246.4	76944.01
246.862	74744.17
247.324	70398.19
247.786	78746.86
248.247	103200.92
248.709	106653.09
249.17	79699.28
249.632	74889.39
250.093	86676.51
250.555	74669.03
251.016	45430.5
251.477	43031.39
251.939	46337.11
252.4	48562.37
252.861	57749.83
253.322	53562.47
253.783	63665.41
254.244	82478.18
254.705	64981.07
255.166	57767.61
255.627	56846.13
256.088	80061.57
256.549	84882.95
257.009	73081.95
257.47	88578.49
257.931	71949.36
258.391	53937.41
258.852	55556.67
259.312	58175.36
259.773	71830.5
260.233	60578.3
260.694	51021.17
261.154	57842.23
261.614	46341.13
262.074	41376.85
262.534	42913.37
262.994	40429.98
263.455	53809.58
263.915	45290.41
264.374	42653
264.834	46539.62
265.294	51562.42
265.754	53366.56
266.214	50470.05
266.673	47275.9
267.133	59667.3
267.593	59212.27
268.052	72391.76
268.512	62893.69
268.971	75714.8
269.431	82962.69
269.89	74239.23
270.349	111300.58
270.809	124042.59
271.268	111485.83
271.727	250112.07
272.186	161911.77
272.645	121353.47
273.104	87547.82
273.563	126691.16
274.022	99644.78
274.481	84701
274.94	65166.72
275.399	48377.44
275.857	56298.53
276.316	76064.12
276.775	67608.99
277.233	66486.04
277.692	62163.93
278.15	70225.43
278.609	72191.94
279.067	66725.37
279.525	61877.48
279.984	79886.81
280.442	95895.86
280.9	94416.75
281.358	62076.74
281.816	57811.08
282.274	56588.17
282.732	58463.27
283.19	58722.52
283.648	50630.41
284.106	53938.42
284.564	54852.5
285.021	50793.78
285.479	37854.85
285.937	34427.2
286.394	30164.7
286.852	31019.94
287.309	32542.14
287.767	31352.66
288.224	29767.03
288.682	32627.73
289.139	35754.12
289.596	32659.89
290.053	33905.89
290.511	42746.13
290.968	51712.94
291.425	70104.83
291.882	58209.86
292.339	50657.21
292.796	50283.64
293.252	47353.3
293.709	37567.43
294.166	33659.7
294.623	37200.39
295.079	35678.29
295.536	35790.75
295.992	32489.71
296.449	32104.96
296.905	33330.1
297.362	31926.09
297.818	33571.96
298.274	34798.14
298.731	35483.02
299.187	35067.21
299.643	37601.25
300.099	45436.47
300.555	49800.65
301.011	41599.14
301.467	40011.07
301.923	46892.06
302.379	45730.76
302.835	44882.68
303.291	44899.29
303.746	51038.75
304.202	64445.84
304.658	64677.22
305.113	43467.86
305.569	42569.07
306.024	45325.15
306.479	43197.81
306.935	36362.92
307.39	39730.14
307.845	36635.48
308.301	36817.8
308.756	35809.2
309.211	34461.02
309.666	35298.99
310.121	43779.48
310.576	44408.08
311.031	44062.67
311.486	50436.79
311.94	50342.42
312.395	67245.11
312.85	126303.19
313.305	621588.17
313.759	3214558.22
314.214	232748.06
314.668	184132.06
315.123	154551.88
315.577	55357.13
316.032	49194.53
316.486	61606.63
316.94	48569.73
317.394	33749.77
317.849	26192.94
318.303	24740.74
318.757	23305
319.211	25764.32
319.665	22519.27
320.119	22789.66
320.572	32667.11
321.026	30480.68
321.48	25347.75
321.934	27625.24
322.387	27677.99
322.841	29894.29
323.295	26819.92
323.748	30923.48
324.202	31309.58
324.655	37573.46
325.108	52452.25
325.562	37009.56
326.015	43958.12
326.468	33180.04
326.921	37115.94
327.374	34591.06
327.827	35959.64
328.28	40674.98
328.733	27238.91
329.186	23951.71
329.639	22824.73
330.092	19234.76
330.545	18305.91
330.997	18446.28
331.45	20150.91
331.903	23556.5
332.355	40525.47
332.808	39383.08
333.26	32494.64
333.713	35218.73
334.165	35482.15
334.617	47341.23
335.069	38223.49
335.522	69059.96
335.974	76422.74
336.426	69755.78
336.878	48329.97
337.33	24464.86
337.782	23879.27
338.234	29849.43
338.686	35726.68
339.137	42259.99
339.589	39763.83
340.041	31148.64
340.493	26814.28
340.944	27427.18
341.396	29550.36
341.847	24804.55
342.299	29235.39
342.75	35636
343.201	31199.97
343.653	35836.98
344.104	44021.27
344.555	34691.96
345.006	54034.17
345.457	41293.06
345.908	32844.44
346.359	30869.04
346.81	25154.05
347.261	26503.02
347.712	26096.6
348.163	27934.23
348.613	28233.86
349.064	26359.59
349.515	23044.44
349.965	23621.15
350.416	28426.95
350.866	31186.15
351.317	35251.01
351.767	58363.26
352.217	73776.96
352.668	61171.42
353.118	56010.89
353.568	54068.03
354.018	42673.02
354.468	44961.83
354.918	32197.51
355.368	28162.37
355.818	39715.38
356.268	114194.91
356.718	477085.87
357.168	118552.06
357.617	59415.87
358.067	66150.56
358.517	61934.25
358.966	72615.85
359.416	81273.42
359.865	87836.7
360.315	104566.76
360.764	48761.26
361.213	27280.93
361.663	25850.61
362.112	31902.88
362.561	51498.18
363.01	38728.56
363.459	32571.4
363.908	35224.96
364.357	29880.7
364.806	50403.11
365.255	34597.67
365.703	31680.82
366.152	31715.88
366.601	25686.9
367.05	20817.41
367.498	18903.27
367.947	19759.25
368.395	20515.3
368.844	18138.77
369.292	21913.29
369.74	15122.25
370.189	23160.41
370.637	27139.04
371.085	23367.18
371.533	28468.66
371.981	27440.45
372.429	26106.8
372.877	27179.37
373.325	22736.77
373.773	23176.74
374.221	20600.99
374.669	25562.25
375.116	22077.8
375.564	22207.19
376.012	24849.79
376.459	20421.24
376.907	24359.16
377.354	29439.7
377.801	27387.21
378.249	31420.22
378.696	40106.34
379.143	48444.85
379.591	51574.21
380.038	87105.95
380.485	62968.9
380.932	67796.95
381.379	61973.02
381.826	45568.93
382.273	32388.89
382.72	28299.36
383.166	27526.53
383.613	17832.55
384.06	16082.96
384.506	18558.76
384.953	13622.91
385.4	13704.41
385.846	12013.07
386.292	11707.68
386.739	11455.58
387.185	11320.27
387.631	11321.4
388.078	10978.29
388.524	11735.15
388.97	10824
389.416	9016.16
389.862	9556.51
390.308	9030.71
390.754	9144.2
391.2	9913.91
391.645	10145.08
392.091	9677.54
392.537	9326.94
392.983	9343.44
393.428	9154.96
393.874	9803.58
394.319	9835.19
394.765	9317.27
395.21	9573.67
395.655	8976.78
396.101	8388.88
396.546	7556.56
396.991	7623.35
397.436	7088.02
397.881	6836.48
398.326	6483.11
398.771	6126.19
399.216	5352.41
399.661	4824.11
400.106	4804.45
400.551	4909.99
400.995	4405.06
401.44	4351.94
401.885	4080.33
402.329	4116.53
402.774	3945.47
403.218	3809.74
403.663	3665.13
404.107	3764.15
404.551	3787.3
404.995	3468.84
405.44	3344.62
405.884	3386.92
406.328	3275.42
406.772	3272.51
407.216	2975.77
407.66	2877.49
408.104	2736.35
408.547	2560.29
408.991	2476.15
409.435	2382.17
409.879	2349.17
410.322	2313.25
410.766	2237.01
411.209	2127.64
411.653	2037.29
412.096	1995.18
412.54	1992.17
412.983	1978.45
413.426	1982.27
413.869	1980.58
414.312	1941.74
414.756	1868.05
415.199	1781.24
415.642	1726.29
416.085	1726.34
416.527	1715.04
416.97	1740.31
417.413	1650.85
417.856	1631.97
418.298	1615.15
418.741	1603.47
419.184	1598.59
419.626	1668.05
420.069	1671.52
420.511	1680.83
420.953	1645.12
421.396	1630.24
421.838	1590.22
422.28	1629.29
422.722	1636.05
423.164	1660.39
423.606	1631.51
424.048	1628.14
424.49	1543.91
424.932	1531.85
425.374	1510.81
425.816	1536.4
426.258	1563.16
426.699	1579.24
427.141	1554.19
427.582	1577.27
428.024	1571.12
428.465	1561.61
428.907	1520.81
429.348	1503.15
429.789	1504.03
430.231	1472.82
430.672	1492.41
431.113	1458.47
431.554	1437.22
431.995	1399.76
432.436	1351.03
432.877	1316.37
433.318	1294.3
433.759	1291.57
434.2	1289.03
434.64	1275.81
435.081	1278.87
435.522	1210.28
435.962	1166.11
436.403	1140.62
436.843	1155.73
437.284	1129.23
437.724	1101.92
438.164	1104.91
438.604	1079.06
439.045	1038.53
439.485	994.83
439.925	970.3
440.365	944.63
440.805	930.42
441.245	917.47
441.685	884.05
442.125	877.81
442.564	881.02
443.004	859.44
443.444	855.33
443.883	857.73
444.323	850.21
444.762	855.63
445.202	868.71
445.641	883.78
446.081	877.31
446.52	884.98
446.959	875.76
447.398	854.75
447.837	843.68
448.276	830.06
448.716	835.32
449.154	844.55
449.593	822.06
450.032	817.95
450.471	802.95
450.91	804.1
451.349	801.39
451.787	796.74
452.226	809.19
452.664	809.82
453.103	811.76
453.541	811.09
453.98	808.85
454.418	815.03
454.856	801.02
455.295	798.21
455.733	803.68
456.171	807.73
456.609	809.56
457.047	808.65
457.485	820
457.923	820.06
458.361	807.93
458.798	810.83
459.236	809.14
459.674	815.51
460.111	820.53
460.549	812.56
460.987	809.85
461.424	806.38
461.862	802.26
462.299	790.07
462.736	788.58
463.173	792.7
463.611	783
464.048	780.45
464.485	787.04
464.922	780.04
465.359	775.92
465.796	764.96
466.233	759.39
466.67	751.65
467.106	750.64
467.543	744.94
467.98	734.64
468.416	715.86
468.853	708.99
469.29	686.4
469.726	677.65
470.162	659.09
470.599	651.56
471.035	645.02
471.471	630.32
471.907	625.63
472.344	620.41
472.78	621.07
473.216	628.88
473.652	622.35
474.088	621.35
474.523	619.57
474.959	625.85
475.395	619.02
475.831	615.82
476.266	616.92
476.702	614.22
477.138	607.3
477.573	605.09
478.008	601.95
478.444	603.43
478.879	608.03
479.314	610.6
479.75	610.72
480.185	613
480.62	617.72
481.055	621.28
481.49	625.43
481.925	634.65
482.36	646.25
482.795	664.29
483.229	681.83
483.664	695.98
484.099	697.93
484.534	708.02
484.968	715.11
485.403	717.35
485.837	716.16
486.271	715.25
486.706	714.84
487.14	706.82
487.574	694.32
488.009	687.75
488.443	681.22
488.877	687.5
489.311	688.64
489.745	695.76
490.179	700.94
490.613	713.5
491.046	717.64
491.48	722.21
491.914	721.49
492.348	726.35
492.781	729.69
493.215	730.11
493.648	731.37
494.082	735.65
494.515	735.01
494.948	741.75
495.382	745.56
495.815	749.69
496.248	755.25
496.681	767.99
497.114	778.65
497.547	788.15
497.98	800.73
498.413	805.83
498.846	815.36
499.279	823.54
499.711	827.22
500.144	828.27
500.577	839.19
501.009	848.89
501.442	856.78
501.874	857.47
502.306	858.01
502.739	866.29
503.171	880.69
503.603	882.51
504.036	891.55
504.468	897.16
504.9	907.93
505.332	913.5
505.764	917.3
506.196	925.27
506.627	939.66
507.059	953.52
507.491	961.36
507.923	959.06
508.354	974.74
508.786	985.36
509.217	1003.15
509.649	1019.02
510.08	1038.85
510.512	1056.81
510.943	1072.86
511.374	1084.59
511.805	1106.3
512.237	1126.93
512.668	1160.26
513.099	1189.7
513.53	1219.17
513.961	1241.89
514.391	1276.12
514.822	1311.17
515.253	1348.76
515.684	1375.23
516.114	1407.45
516.545	1431.34
516.975	1460.86
517.406	1482.11
517.836	1486.4
518.267	1494.77
518.697	1515.38
519.127	1520.5
519.558	1530.24
519.988	1536.77
520.418	1549.87
520.848	1570.66
521.278	1581.42
521.708	1601.31
522.138	1616.81
522.567	1651.22
522.997	1680.2
523.427	1699.48
523.857	1720.9
524.286	1732.63
524.716	1750.17
525.145	1773.41
525.575	1787.33
526.004	1805.7
526.433	1801.53
526.863	1802.55
527.292	1793.64
527.721	1802.07
528.15	1810
528.579	1811.79
529.008	1826.77
529.437	1853.59
529.866	1868.38
530.295	1888.23
530.724	1902.47
531.152	1934.3
531.581	1952.05
532.01	1972.07
532.438	1981.66
532.867	1998.17
533.295	2020.11
533.723	2026.56
534.152	2025.04
534.58	2026.39
535.008	2009.73
535.436	2012.17
535.865	2020.78
536.293	2038.07
536.721	2056.23
537.149	2085.68
537.576	2088.75
538.004	2103.91
538.432	2114.05
538.86	2113.19
539.287	2121.68
539.715	2138.36
540.143	2142.39
540.57	2137.62
540.998	2132.2
541.425	2107.78
541.852	2085.23
542.28	2084.6
542.707	2064.93
543.134	2050.33
543.561	2045.9
543.988	2037.59
544.415	2036.22
544.842	2030.48
545.269	2023.11
545.696	2026.32
546.123	2040.7
546.549	2028.73
546.976	2014.69
547.403	2015.42
547.829	2018.04
548.256	2020.37
548.682	2016.71
549.108	2008.74
549.535	2008.37
549.961	2009.95
550.387	1995.84
550.813	1989.88
551.24	1996.41
551.666	1998.02
552.092	1987.88
552.518	1979.22
552.943	1972.2
553.369	1980.91
553.795	1987
554.221	1987.54
554.646	1985.15
555.072	1996.12
555.498	2002.13
555.923	2011.57
556.349	2027.01
556.774	2035.88
557.199	2037.34
557.625	2043.53
558.05	2036.75
558.475	2048.57
558.9	2047.27
559.325	2038.69
559.75	2031.78
560.175	2024.69
560.6	2017.55
561.025	2015.22
561.449	2016.15
561.874	2022.63
562.299	2027.14
562.723	2033.9
563.148	2021.59
563.572	2025.56
563.997	2035.52
564.421	2039.88
564.846	2038.8
565.27	2042.05
565.694	2038.35
566.118	2050.43
566.542	2056.58
566.966	2048.36
567.39	2043.34
567.814	2030.2
568.238	2028.6
568.662	2032.5
569.086	2035.4
569.509	2042.59
569.933	2024.53
570.357	2016.35
570.78	1991.41
571.204	1978.4
571.627	1967.3
572.05	1963.91
572.474	1964.18
572.897	1950.45
573.32	1942.01
573.743	1930.64
574.166	1910.1
574.589	1910.26
575.012	1901.14
575.435	1901.45
575.858	1890.08
576.281	1877.17
576.704	1858.83
577.126	1843.68
577.549	1830.28
577.972	1818.25
578.394	1805.91
578.817	1798.08
579.239	1776.18
579.661	1760.39
580.084	1741.84
580.506	1726.71
580.928	1721.91
581.35	1710.24
581.772	1705.43
582.194	1690.73
582.616	1677.63
583.038	1661.44
583.46	1648.72
583.882	1646.3
584.303	1650.15
584.725	1644.9
585.147	1647.92
585.568	1659.14
585.99	1671.91
586.411	1678.81
586.833	1695.74
587.254	1696.09
587.675	1711.43
588.096	1724.58
588.518	1717.86
588.939	1700.31
589.36	1697.8
589.781	1684.33
590.202	1651.98
590.623	1642.47
591.043	1640.22
591.464	1625.99
591.885	1621.71
592.305	1614.52
592.726	1600.77
593.147	1602.82
593.567	1596.62
593.987	1588.29
594.408	1582.92
594.828	1581.03
595.248	1574.62
595.669	1553.93
596.089	1546.14
596.509	1539.01
596.929	1525.85
597.349	1525.84
597.769	1513.63
598.189	1506.75
598.608	1507.57
599.028	1509.29
599.448	1509.35
599.867	1495.63
600.287	1490.49
600.706	1485.61
601.126	1474.57
601.545	1472.96
601.965	1471.67
602.384	1466.2
602.803	1469.43
603.222	1463.68
603.641	1456.72
604.061	1452.53
604.48	1447.98
604.898	1456.86
605.317	1460.93
605.736	1462.81
606.155	1460.14
606.574	1449.39
606.992	1454.61
607.411	1448.45
607.829	1440.08
608.248	1435.7
608.666	1432.54
609.085	1430.94
609.503	1421.7
609.921	1414.73
610.339	1417.4
610.758	1414.7
611.176	1409.73
611.594	1400.9
612.012	1396.92
612.43	1398.76
612.847	1405.99
613.265	1406.62
613.683	1411.13
614.101	1411.6
614.518	1407.79
614.936	1396.25
615.353	1381.09
615.771	1376.62
616.188	1375.19
616.606	1370.53
617.023	1364.84
617.44	1349.06
617.857	1340.83
618.274	1331.24
618.691	1324.59
619.108	1313.57
619.525	1307.13
619.942	1313.45
620.359	1316.32
620.776	1310.88
621.192	1306.36
621.609	1301.65
622.026	1307.12
622.442	1312.86
622.859	1315.53
623.275	1307.73
623.691	1313.97
624.108	1325.06
624.524	1339.36
624.94	1339.48
625.356	1349.09
625.772	1363.93
626.188	1377.43
626.604	1379.78
627.02	1375.69
627.436	1372.57
627.852	1379.26
628.268	1390.79
628.683	1380.51
629.099	1371.33
629.514	1365.78
629.93	1370.02
630.345	1373.37
630.761	1367.83
631.176	1370.73
631.591	1365.57
632.007	1360.91
632.422	1359.94
632.837	1348.29
633.252	1345.49
633.667	1335
634.082	1326.33
634.497	1313.08
634.911	1294
635.326	1290.29
635.741	1272.33
636.155	1260.81
636.57	1261.43
636.984	1259.64
637.399	1261.54
637.813	1262.12
638.228	1260.48
638.642	1263.38
639.056	1253.14
639.47	1252.2
639.884	1244.66
640.298	1239.38
640.712	1238.14
641.126	1225.04
641.54	1216.86
641.954	1211.22
642.368	1198.71
642.781	1191.4
643.195	1173.66
643.609	1173.43
644.022	1167.52
644.436	1163.23
644.849	1150.79
645.262	1139.35
645.676	1141.77
646.089	1136.77
646.502	1122.21
646.915	1116.25
647.328	1098.53
647.741	1096.09
648.154	1082.05
648.567	1079.29
648.98	1064.27
649.393	1063.39
649.805	1058.59
650.218	1049.62
650.631	1032.86
651.043	1025.12
651.456	1018.72
651.868	1019.65
652.28	1037.1
652.693	1050.44
653.105	1056.17
653.517	1066.71
653.929	1066.37
654.341	1071.42
654.753	1058.91
655.165	1064.26
655.577	1061.1
655.989	1055.99
656.401	1045.28
656.813	1007.11
657.224	986.19
657.636	956.32
658.047	937.39
658.459	916.61
658.87	906.6
659.282	893.73
659.693	873.23
660.104	858.2
660.515	844.03
660.926	843.48
661.338	841.38
661.749	834.06
662.159	824.55
662.57	819.2
662.981	815.56
663.392	808.05
663.803	811.91
664.213	808.99
664.624	805.74
665.035	809.02
665.445	794.22
665.855	787.68
666.266	780.99
666.676	779.35
667.086	770.59
667.497	770.04
667.907	765.19
668.317	756.82
668.727	754.85
669.137	755.14
669.547	753.56
669.956	757.15
670.366	758.01
670.776	759.82
671.186	763.22
671.595	768.16
672.005	771.6
672.414	770.13
672.824	769.21
673.233	772.95
673.642	776.02
674.052	779.52
674.461	781.2
674.87	785.96
675.279	785.38
675.688	786.85
676.097	787.25
676.506	782.94
676.915	798.11
677.323	799.7
677.732	797.47
678.141	795.21
678.549	783.55
678.958	783.11
679.366	782.97
679.775	786.3
680.183	797.64
680.592	803.42
681	810.76
681.408	804.14
681.816	812.26
682.224	820.35
682.632	831.59
683.04	861.98
683.448	885.39
683.856	914.17
684.264	948.14
684.671	979.61
685.079	1019
685.487	1062.13
685.894	1121.59
686.302	1170.27
686.709	1211.04
687.116	1257.62
687.524	1294.57
687.931	1327.01
688.338	1355.09
688.745	1377.89
689.152	1403.79
689.559	1441.31
689.966	1479.25
690.373	1497.72
690.78	1534.77
691.187	1593.44
691.593	1636.3
692	1675.41
692.407	1735.02
692.813	1808.93
693.22	1868.67
693.626	1931
694.032	1981.12
694.439	2057.62
694.845	2117.99
695.251	2194.53
695.657	2263.64
696.063	2367.98
696.469	2445.98
696.875	2519.72
697.281	2562.56
697.687	2613.95
698.093	2659.09
698.498	2740.79
698.904	2806.07
699.31	2903.17
699.715	2974.5
700.12	3076.97
700.526	3101.76
700.931	3179.92
701.337	3241.39
701.742	3284.95
702.147	3380.09
702.552	3418.56
702.957	3490.82
703.362	3519.87
703.767	3554.95
704.172	3605.12
704.577	3560.9
704.981	3619.54
705.386	3644.71
705.791	3641.71
706.195	3725.96
706.6	3741.95
707.004	3834.72
707.408	3807.97
707.813	3841.32
708.217	3834.88
708.621	3841.36
709.025	3952.18
709.43	3959.7
709.834	4029.01
710.237	4110.24
710.641	4100.63
711.045	4132.34
711.449	4132.66
711.853	4168.44
712.256	4220.71
712.66	4266.11
713.064	4356.42
713.467	4406.88
713.87	4534.81
714.274	4592.21
714.677	4722.43
715.08	4908.59
715.484	5100.51
715.887	5330.58
716.29	5558.17
716.693	5796.13
717.096	6071.57
717.499	6223.39
717.901	6258.22
718.304	6293.56
718.707	6325.44
719.109	6213
719.512	6179.66
719.915	6033.98
720.317	5975.22
720.719	6029.03
721.122	5998.32
721.524	5947.09
721.926	5902.59
722.328	6021.72
722.731	6013.73
723.133	6051.36
723.535	6273.46
723.937	6302.89
724.338	6363.98
724.74	6412.27
725.142	6337.02
725.544	6335.95
725.945	6366.76
726.347	6365.64
726.748	6357.25
727.15	6376.53
727.551	6335.88
727.952	6302
728.354	6268.44
728.755	6268.86
729.156	6222.72
729.557	6216.23
729.958	6083.11
730.359	6023.47
730.76	6005.55
731.161	5938.93
731.562	5913.44
731.962	5915.91
732.363	5846.56
732.763	5775.68
733.164	5818.3
733.564	5745.61
733.965	5639.6
734.365	5600.66
734.766	5633.5
735.166	5589.04
735.566	5527.56
735.966	5497.49
736.366	5493.73
736.766	5424.78
737.166	5461.89
737.566	5415.18
737.966	5386.08
738.365	5429.35
738.765	5423.46
739.165	5340.95
739.564	5312.05
739.964	5365.23
740.363	5314.25
740.763	5312.65
741.162	5301.72
741.561	5266.92
741.96	5218.25
742.36	5242.1
742.759	5249.69
743.158	5294.98
743.557	5311.93
743.955	5359.12
744.354	5307.53
744.753	5375.15
745.152	5327.51
745.55	5391.67
745.949	5385.25
746.348	5385.31
746.746	5401.5
747.144	5354.87
747.543	5329.18
747.941	5382.84
748.339	5300.69
748.737	5292.03
749.136	5278.09
749.534	5349.81
749.932	5316.62
750.33	5341.05
750.727	5405.32
751.125	5381.25
751.523	5365.76
751.921	5416.22
752.318	5378.45
752.716	5446.6
753.113	5462.09
753.511	5490.89
753.908	5492.88
754.305	5472.93
754.703	5544.6
755.1	5613.07
755.497	5680.89
755.894	5895.74
756.291	6097.83
756.688	6472.52
757.085	6973.81
757.482	7679.46
757.878	8449.8
758.275	9145.16
758.672	10102.54
759.068	10880.35
759.465	11987.3
759.861	13418.47
760.258	15085.16
760.654	15953.52
761.05	15831.34
761.447	15103.88
761.843	14056
762.239	12978.2
762.635	12498.21
763.031	12029.79
763.427	11361.15
763.822	10662.4
764.218	9966.03
764.614	9053.84
765.01	8442.47
765.405	8048.5
765.801	7751.59
766.196	7373.34
766.592	7159.93
766.987	6797.46
767.382	6555.18
767.778	6452.27
768.173	6299.59
768.568	6214.55
768.963	6072.96
769.358	6092.59
769.753	6039
770.148	5941.84
770.542	5940.27
770.937	5906.58
771.332	6010.92
771.726	6033.44
772.121	5964.94
772.515	6029.64
772.91	6012.56
773.304	6092.84
773.699	6019.28
774.093	6080.35
774.487	6146.14
774.881	6196.65
775.275	6194.15
775.669	6146.1
776.063	6195.33
776.457	6233.25
776.851	6149.01
777.245	6142.21
777.638	6179.91
778.032	6309.84
778.425	6268.39
778.819	6312.58
779.212	6264.7
779.606	6214.77
779.999	6237.87
780.392	6220.46
780.786	6312.7
781.179	6335.06
781.572	6385.98
781.965	6402.01
782.358	6336.42
782.751	6401.69
783.143	6346.65
783.536	6426.8
783.929	6475.79
784.322	6605.72
784.714	6641.99
785.107	6637.64
785.499	6717.1
785.891	6690.44
786.284	6668.44
786.676	6832.17
787.068	6808.79
787.46	6873.27
787.852	6897.03
788.245	6996.79
788.636	7031.35
789.028	7104.41
789.42	7148.18
789.812	7160.11
790.204	7269.83
790.595	7380.83
790.987	7155.64
791.378	7185.1
791.77	7329.48
792.161	7484.6
792.553	7546.96
792.944	7422.65
793.335	7350.37
793.726	7436.35
794.117	7536.19
794.508	7689.69
794.899	7654.25
795.29	7813.11
795.681	7875.89
796.072	7712.69
796.463	7499.81
796.853	7511.3
797.244	7691.23
797.634	7728.62
798.025	7725.24
798.415	7741.92
798.806	7842.36
799.196	7940.81
799.586	7998.75
799.976	7954.8
800.366	8220.86
800.756	8496.01
801.146	8448
801.536	8475.78
801.926	8557.07
802.316	8590.65
802.706	8671.28
803.095	8536.48
803.485	8654
803.874	8703.91
804.264	8999.92
804.653	8965.92
805.043	9134.08
805.432	9263.02
805.821	9264.76
806.21	9290.58
806.599	9421.36
806.988	9474.26
807.377	9594.09
807.766	9745.13
808.155	10068.95
808.544	9772.32
808.933	9792.71
809.321	9764.99
809.71	10101.28
810.098	10289.17
810.487	10817.17
810.875	11368.58
811.264	11397.71
811.652	11727.65
812.04	11891.58
812.428	12072.79
812.816	12946.08
813.204	13422.86
813.592	14053.53
813.98	14436.34
814.368	14321.21
814.756	14861.18
815.144	14766.6
815.531	15296.28
815.919	15213.34
816.306	15559.49
816.694	15211.5
817.081	15267.43
817.469	15658.18
817.856	15653.98
818.243	15963.37
818.63	16420.24
819.017	15945.63
819.404	16021.1
819.791	16450.7
820.178	17141.65
820.565	17430.69
820.952	18495.12
821.339	17929.02
821.725	18143.85
822.112	17306.45
822.498	17255.06
822.885	17397.5
823.271	17291.3
823.657	17761.95
824.044	17766.25
824.43	17857.53
824.816	17816.25
825.202	17312.9
825.588	18471.72
825.974	18487.17
826.36	19063.12
826.746	19102.91
827.132	19506.24
827.517	19468.45
827.903	18579.67
828.289	18630.18
828.674	17745.28
829.06	17627.63
829.445	18076.7
829.83	18482.75
830.216	19021.71
830.601	19435.18
830.986	18975.99
831.371	18828.7
831.756	19465.11
832.141	18973.64
832.526	18960.25
832.911	19288.26
833.295	19163.23
833.68	19705.63
834.065	19002.56
834.449	17966.53
834.834	17885.84
835.218	17877.85
835.603	18256.41
835.987	18023.94
836.371	18977.36
836.755	18863.81
837.139	19311.32
837.524	19587.41
837.908	19381.15
838.291	19449.06
838.675	19529.98
839.059	19769.38
839.443	19755.64
839.827	19498.59
840.21	20037.08
840.594	19857.36
840.977	20089.52
841.361	20069.96
841.744	20490.91
842.127	20309.14
842.511	20581.37
842.894	21251.83
843.277	21683.86
843.66	22293.64
844.043	22387.57
844.426	21472.24
844.809	21129.73
845.191	21166.42
845.574	20643.62
845.957	20224.84
846.339	20107.59
846.722	19517.9
847.104	19596.07
847.487	19399.49
847.869	19416.52
848.252	19725.14
848.634	20110.49
849.016	20415.77
849.398	20556.71
849.78	21527.09
850.162	21544.77
850.544	22018.64
850.926	22731.32
851.307	22639.11
851.689	22966.87
852.071	23491.62
852.452	23870.11
852.834	23839.43
853.215	24287.28
853.597	24463.59
853.978	24796.86
854.359	25311.32
854.741	24182.06
855.122	24069.4
855.503	23732.32
855.884	23883.45
856.265	23802.28
856.646	23930.64
857.026	23483.56
857.407	23403.56
857.788	23580.46
858.169	23893.83
858.549	22920.95
858.93	23626.75
859.31	23672.07
859.69	23909.37
860.071	23446.03
860.451	23204.5
860.831	22356.69
861.211	23665.2
861.591	24282.52
861.971	24253.74
862.351	24472.01
862.731	24910.27
863.111	25201.52
863.491	25585.07
863.87	26579.09
864.25	26963.17
864.629	26510.28
865.009	27091.38
865.388	28062.43
865.768	30085.71
866.147	29970.94
866.526	28308.92
866.905	28650.25
867.284	30270.8
867.663	28740.43
868.042	27546.16
868.421	27455.44
868.8	27920.95
869.179	28200.21
869.558	26546.91
869.936	24467.91
870.315	24901.21
870.693	25518.57
871.072	27530.36
871.45	26227.27
871.828	26573.25
872.207	27936.45
872.585	27517.34
872.963	28250.04
873.341	27277.21
873.719	26955.85
874.097	26627.26
874.475	27125.71
874.853	27743.55
875.23	26585.37
875.608	27687.16
875.986	29938.08
876.363	28631.57
876.741	29507.63
877.118	28765.38
877.495	30181.45
877.873	30679.31
878.25	32275.4
878.627	30961.61
879.004	31389.46
879.381	31232.67
879.758	30410.95
880.135	28321.51
880.512	29943.34
880.889	29154.17
881.265	28865.23
881.642	28620.2
882.019	29115.9
882.395	28528.89
882.772	29668.82
883.148	28390.35
883.524	28278.94
883.901	28113.78
884.277	28527.68
884.653	28348.91
885.029	29160.42
885.405	32291.43
885.781	32046.78
886.157	30724.62
886.532	31098.74
886.908	31075.8
887.284	34553.73
887.659	35670.88
888.035	36776.4
888.411	37735.06
888.786	38216.24
889.161	39554.24
889.537	38822.77
889.912	40073.12
890.287	40046.82
890.662	41083.5
891.037	40350.92
891.412	37621.82
891.787	37247.58
892.162	35956.99
892.536	36790.06
892.911	35432.4
893.286	34683.45
893.66	33283.51
894.035	34127.41
894.409	37164.07
894.784	35671.76
895.158	36255.63
895.532	38418.36
895.906	39481.51
896.281	40417.25
896.655	39773.94
897.029	45443
897.402	47323.25
897.776	52666.86
898.15	52481.1
898.524	51898
898.898	52585.69
899.271	58892.14
899.645	51013.21
900.018	49008.3
900.392	50821.51
900.765	51238.07
901.138	47416.48
901.511	46694.87
901.884	42890.99
902.258	39583.01
902.631	40899.67
903.003	47072.36
903.376	42475.84
903.749	47612.7
904.122	50936.61
904.495	56076.99
904.867	56805.93
905.24	49340.66
905.612	45936.53
905.985	46978.94
906.357	49126.52
906.729	46908.96
907.102	40062.13
907.474	38519.54
907.846	38761.31
908.218	38270.59
908.59	33808.17
908.962	32683.97
909.334	35191.85
909.705	36968.93
910.077	35897.79
910.449	37346.54
910.82	38383.96
911.192	42230.31
911.563	43875.53
911.935	46958.16
912.306	46974.69
912.677	48510.79
913.048	48031.5
913.419	52104.25
913.79	52379.78
914.161	56133.25
914.532	53685.23
914.903	49322.45
915.274	46867.06
915.645	46192.65
916.015	40646.66
916.386	38784.69
916.756	41274.38
917.127	42565.18
917.497	38007.46
917.868	41381.16
918.238	39354.89
918.608	40458.34
918.978	41326.07
919.348	43753.28
919.718	45213.27
920.088	43566.83
920.458	45270.05
920.828	47669.82
921.198	45205.81
921.567	48318.44
921.937	37426.26
922.306	37782.38
922.676	40764.6
923.045	33987.88
923.415	32302.6
923.784	29414.61
924.153	30228.23
924.522	30200.76
924.891	28373.65
925.26	30390.18
925.629	29670.38
925.998	34112.72
926.367	33288.3
926.736	31688.76
927.104	37737.74
927.473	40548.07
927.842	48945.22
928.21	48480.71
928.578	50964.71
928.947	48205.1
929.315	48494.59
929.683	56870.15
930.051	57322.74
930.42	66567.2
930.788	56886.99
931.156	56513.68
931.523	53000.58
931.891	49027.72
932.259	47138.39
932.627	54597.27
932.994	77265.29
933.362	63870.22
933.729	55491.81
934.097	53116
934.464	44966.77
934.831	51910.95
935.199	51167.7
935.566	49638.91
935.933	50355.17
936.3	60963.56
936.667	47504.77
937.034	42887.3
937.401	42441.67
937.767	36623.42
938.134	32593.83
938.501	45984.09
938.867	49030.47
939.234	82871.46
939.6	70644.21
939.967	77734.23
940.333	52009.43
940.699	44268.41
941.065	35486.01
941.431	46496.28
941.798	44820.32
942.163	58845.08
942.529	36735.7
942.895	33820.25
943.261	21879.35
943.627	28717.76
943.992	25121.45
944.358	25172.04
944.723	25253.02
945.089	24624.35
945.454	22747.98
945.82	24304.69
946.185	23377.17
946.55	27096.99
946.915	24299.91
947.28	28516.3
947.645	25107.49
948.01	23178.02
948.375	24157.58
948.74	28966.14
949.104	33804.19
949.469	48835.28
949.834	86232.83
950.198	81741.87
950.562	48979.43
950.927	40815.47
951.291	49092.52
951.655	41844.31
952.02	39276.34
952.384	29714.02
952.748	25869.27
953.112	25214.72
953.476	21927.95
953.839	20312.56
954.203	20106.57
954.567	25136.94
954.931	39551.31
955.294	33829.27
955.658	34017.49
956.021	57897.88
956.385	98157.84
956.748	144850.22
957.111	224715.31
957.474	252291.79
957.837	283646.63
958.2	214578.58
958.563	77234.19
958.926	52243.96
959.289	79354.71
959.652	88646.62
960.015	66527.94
960.377	95553.61
960.74	109026.29
961.102	188356.38
961.465	202231.86
961.827	108285.36
962.189	207934.99
962.552	144119.37
962.914	115603.01
963.276	75008.89
963.638	62013.21
964	61409.86
964.362	41447.4
964.724	40068.9
965.085	28562.8
965.447	23415.21
965.809	26723.87
966.17	26755.4
966.532	28971.85
966.893	26594.33
967.255	24221.85
967.616	28568.37
967.977	22866.17
968.338	24984.1
968.699	20554.27
969.061	20551.91
969.421	20675.36
969.782	23186.38
970.143	19583.59
970.504	20262.2
970.865	22996.59
971.225	23472.37
971.586	22987.1
971.946	32772.13
972.307	28474.26
972.667	37182.3
973.027	38292.72
973.388	46488.1
973.748	31632.48
974.108	34425.88
974.468	46626.33
974.828	35987.65
975.188	27708.8
975.548	25444.9
975.907	21371.27
976.267	23970.59
976.627	20152.11
976.986	20885.57
977.346	19926.05
977.705	19154.31
978.064	17452.32
978.424	14518.5
978.783	15014.43
979.142	17124.35
979.501	16394.31
979.86	17320.79
980.219	16680.27
980.578	21503.46
980.937	24105.93
981.296	21478.74
981.654	22084.83
982.013	34382.08
982.371	44627.59
982.73	41643.81
983.088	47219.36
983.447	50378.79
983.805	71975.38
984.163	150547.43
984.521	167136.71
984.879	244676.45
985.237	-397592.03
985.595	384043.3
985.953	95459.83
986.311	55158.06
986.669	32086.19
987.026	27691.46
987.384	37260.7
987.741	38592.31
988.099	27572.63
988.456	21975.75
988.814	20608.86
989.171	17900.83
989.528	17677.74
989.885	18658.09
990.242	14760.72
990.599	18379.5
990.956	15030.81
991.313	10518.13
991.67	8624.47
992.027	9135.43
992.383	8132.65
992.74	7129.61
993.096	7488.48
993.453	7746.19
993.809	8016.73
994.165	10675.78
994.522	9778.4
994.878	10797.68
995.234	13551.34
995.59	13372.81
995.946	12653.42
996.302	14428.16
996.658	16675.85
997.013	18390.72
997.369	21821.46
997.725	27967.73
998.08	18141.26
998.436	27954.89
998.791	38426.06
999.147	38310.51
999.502	41820.78
999.857	30428.49
1000.212	49474.52
1000.567	70449.84
1000.922	40544.42
1001.277	25725.25
1001.632	19087.93
1001.987	24575.32
1002.342	17631.01
1002.696	14128.4
1003.051	11277.51
1003.406	13675.56
1003.76	13604.52
1004.114	13406.71
1004.469	11262.98
1004.823	9343.54
1005.177	10109.29
1005.531	8014.59
1005.885	7094.7
1006.239	8005.7
1006.593	10038.46
1006.947	13439.36
1007.301	10066.57
1007.655	10979.54
1008.008	8085.33
1008.362	9104.7
1008.715	12996.67
1009.069	11784.87
1009.422	17749.69
1009.776	35644.1
1010.129	23695.28
1010.482	19784.92
1010.835	16725.95
1011.188	34795.82
1011.541	32763.91
1011.894	-200173.64
1012.247	589778.15
1012.6	39985.71
1012.952	25251.68
1013.305	12968.82
1013.657	9360.97
1014.01	8849.95
1014.362	7321.8
1014.715	6506.7
1015.067	5662.49
1015.419	5530.59
1015.771	4897.71
1016.123	4343.13
1016.475	4479.03
1016.827	4773.85
1017.179	5144.43
1017.531	5191.3
1017.883	5309.97
1018.234	5108.18
1018.586	6456.82
1018.938	6851.2
1019.289	9480.75
1019.64	10841.32
1019.992	10094.53
1020.343	9235.53
1020.694	7317.67
1021.045	6465.22
1021.396	7372.52
1021.747	7895.37
1022.098	9470.15
1022.449	6887.98
1022.8	6386.59
1023.151	4449.28
1023.501	3948.27
1023.852	4298.79
1024.202	4483.59
1024.553	4903.14
1024.903	4804.52
1025.253	4114.72
1025.604	3705.31
1025.954	4608.24
1026.304	5600.16
1026.654	6514.09
1027.004	9561.85
1027.354	15495.1
1027.703	14590.26
1028.053	19073
1028.403	27800.29
1028.753	40258.63
1029.102	54643.69
1029.452	280878.92
1029.801	12116.33
1030.15	7814.63
1030.499	6644.6
897.758	2923.71
901.051	2898.84
904.343	2938.59
907.636	2935.16
910.928	2998.95
914.22	2903.51
917.511	2913.97
920.803	2989.35
924.094	3021.5
927.384	2986.68
930.675	2953.81
933.965	2902.72
937.255	2899.68
940.544	2865.81
943.834	2769.36
947.123	2722.15
950.411	2823.08
953.7	2792.15
956.988	2748.23
960.276	2692.59
963.563	2795.63
966.851	2780.72
970.138	2848.97
973.424	2836.09
976.711	2781.27
979.997	2970.31
983.283	2994.93
986.568	2884.8
989.853	2917.23
993.138	2944.67
996.423	3023.72
999.708	2948.21
1002.992	3041.57
1006.275	2829.53
1009.559	2903.01
1012.842	3031.78
1016.125	2948.53
1019.408	2926.12
1022.69	3032.26
1025.972	3041.04
1029.254	3015.92
1032.536	2931.01
1035.817	2967.57
1039.098	2889.11
1042.379	3089.73
1045.659	3067.5
1048.939	2991.45
1052.219	3019.91
1055.498	3047.38
1058.778	3022.13
1062.057	3013.43
1065.335	3033.33
1068.614	3056.41
1071.892	3029.12
1075.17	3120.17
1078.447	3101.45
1081.724	3089.19
1085.001	3130
1088.278	3105
1091.554	3120.39
1094.83	3120.93
1098.106	3145.64
1101.382	3197.98
1104.657	3199.32
1107.932	3192.22
1111.206	3148.75
1114.481	3112.35
1117.755	3117.75
1121.029	3089.46
1124.302	3137.72
1127.575	3077.95
1130.848	3059.93
1134.121	3014.64
1137.393	2957.31
1140.665	3033.71
1143.937	3008.59
1147.208	2971.24
1150.48	2997.06
1153.75	2982.42
1157.021	3034.85
1160.291	2999.13
1163.561	3040.35
1166.831	3044.73
1170.101	3079.71
1173.37	3064.63
1176.639	2998.91
1179.907	3066.94
1183.176	3067.32
1186.444	3079.48
1189.711	3108.94
1192.979	3113.57
1196.246	3068.16
1199.513	3091.75
1202.78	3085.8
1206.046	3093.43
1209.312	3117.86
1212.578	3148.05
1215.843	3090.78
1219.108	3069.55
1222.373	3091.49
1225.638	3048.48
1228.902	3025.21
1232.166	2997.03
1235.43	2974.41
1238.693	2994.63
1241.956	2995.96
1245.219	3027.46
1248.482	3027.88
1251.744	3020.31
1255.006	3187.92
1258.268	3146.22
1261.529	3083.04
1264.79	3096.05
1268.051	3206.62
1271.312	3229.02
1274.572	3185.15
1277.832	3175.93
1281.092	3175.92
1284.351	3134.19
1287.61	3109.34
1290.869	3009.63
1294.128	2973.95
1297.386	3092.9
1300.644	3075.38
1303.902	3086.54
1307.159	2938.09
1310.416	2997.28
1313.673	3017.76
1316.93	2994.31
1320.186	3050.74
1323.442	3101.06
1326.697	3081.51
1329.953	3084.76
1333.208	3095.12
1336.463	3084.67
1339.717	3009.07
1342.972	3147.53
1346.226	3130.11
1349.479	3051.05
1352.733	3010.71
1355.986	3047.65
1359.238	3018.83
1362.491	3018.27
1365.743	3023.01
1368.995	3021.9
1372.247	3033.98
1375.498	3061.54
1378.749	3067.34
1382	3024.58
1385.251	3092.01
1388.501	3059.11
1391.751	3030.81
1395	3005.03
1398.25	3043.77
1401.499	3042.05
1404.748	2953.4
1407.996	2931.6
1411.244	2914.3
1414.492	2895.25
1417.74	2866.84
1420.987	2881.66
1424.234	2934.55
1427.481	2925.77
1430.728	2986.49
1433.974	2958.89
1437.22	2981.62
1440.465	2989.23
1443.711	2946.45
1446.956	2991.27
1450.201	2990.6
1453.445	3038.73
1456.689	3007.84
1459.933	3028.08
1463.177	3054.77
1466.42	3024.08
1469.663	3005.17
1472.906	2985.95
1476.148	3097.09
1479.391	3022.84
1482.633	3001.55
1485.874	3004.07
1489.115	2978.84
1492.356	2998.18
1495.597	2966.7
1498.838	2977.67
1502.078	2936.64
1505.318	2871.05
1508.557	2919.7
1511.797	2864.55
1515.036	2983.17
1518.274	2968.24
1521.513	2950.67
1524.751	2979.99
1527.989	2987.33
1531.227	2999.34
1534.464	2978.13
1537.701	3018.73
1540.938	3042.48
1544.174	3000.67
1547.41	3004.92
1550.646	3045.34
1553.882	3075.51
1557.117	3129.73
1560.352	3149.67
1563.587	3103.88
1566.821	3057.13
1570.055	3107.31
1573.289	3071.57
1576.523	3160.83
1579.756	3163.5
1582.989	3182.54
1586.222	3140.34
1589.454	3183.49
1592.686	3152.77
1595.918	3174.16
1599.15	3159.49
1602.381	3252.58
1605.612	3191.39
1608.843	3291.12
1612.073	3196.98
1615.303	3176.4
1618.533	3162.59
1621.762	3170.77
1624.992	3167.72
1628.221	3139.52
1631.449	3123.9
1634.678	3201.78
1637.906	3152.31
1641.134	3198.98
1644.361	3147.2
1647.588	3131.4
1650.815	3147.43
1654.042	3134.35
1657.269	3167.36
1660.495	3112.68
1663.72	3098.74
1666.946	3071.85
1670.171	2989.1
1673.396	2963.79
1676.621	2959.43
1679.845	2996.17
1683.069	3029.6
1686.293	3077.94
1689.517	3039.09
1692.74	2950.76
1695.963	2979.14
1699.185	3034.48
1702.408	2999.64
1705.63	3049.56
1708.852	3058.01
1712.073	3028.79
1715.294	2997.99
1718.515	3066.83
1721.736	3007.57
1724.956	3007.81
1728.176	3037.3
1731.396	3058.79
1734.616	3048.11
1737.835	3068.01
1741.054	3054.11
1744.272	3049.08
1747.491	3072.27
1750.709	3144.97
1753.927	3021.21
1757.144	3079.25
1760.361	3110.03
1763.578	3117.32
1766.795	3051.52
1770.011	3065.45
1773.227	3121.6
1776.443	3149.29
1779.658	3194.52
1782.874	3141.4
1786.089	3107.96
1789.303	3110.57
1792.518	3121.25
1795.732	3108.84
1798.945	3110.38
1802.159	3170.92
1805.372	3047.87
1808.585	3020.42
1811.797	3024.66
1815.01	3089.39
1818.222	3086.91
1821.434	3015.84
1824.645	3097.61
1827.856	3061.69
1831.067	3101.03
1834.278	3074.12
1837.488	3051.69
1840.698	3220.54
1843.908	3133.25
1847.117	3094.74
1850.326	2948.49
1853.535	3070.81
1856.744	3143.69
1859.952	3036.93
1863.16	3041.67
1866.368	3065.68
1869.575	3161.37
1872.782	3052.79
1875.989	2988.19
1879.196	3098.82
1882.402	3088.52
1885.608	3132.97
1888.814	3011.99
1892.019	2898.34
1895.224	2950.48
1898.429	2941.48
1901.634	2915.44
1904.838	2895.37
1908.042	2933.7
1911.246	2942.53
1914.449	2849.94
1917.652	2856.79
1920.855	2842.02
1924.058	2906.09
1927.26	2935.2
1930.462	2971.31
1933.664	2986
1936.865	2922.17
1940.066	2920.88
1943.267	2872.29
1946.467	2892.51
1949.668	2923.05
1952.868	2991.91
1956.067	2961.36
1959.267	2887.03
1962.466	2918.38
1965.665	2899.57
1968.863	2901.06
1972.061	2921.6
1975.259	2927.79
1978.457	3010.21
1981.654	2964.69
1984.852	2964.57
1988.048	2883
1991.245	2892.75
1994.441	2977.73
1997.637	2982.29
2000.833	2967.38
2004.028	3004.55
2007.223	3057.55
2010.418	3022.48
2013.613	2989.78
2016.807	2945.6
2020.001	2961.78
2023.194	3019.32
2026.388	2991.03
2029.581	2937.25
2032.774	2972.89
2035.966	2973.32
2039.158	2896.46
2042.35	2925.84
2045.542	2855.65
2048.733	2968.86
2051.924	3014.72
2055.115	3052.02
2058.306	2980.1
2061.496	3043.79
2064.686	3117.22
2067.875	3037.28
2071.065	3062.46
2074.254	3094.67
2077.442	3046.21
2080.631	3142.16
2083.819	3006.3
2087.007	2979.65
2090.195	2940.88
2093.382	2988.86
2096.569	2966.39
2099.756	2911.7
2102.942	2922.88
2106.128	2918.27
2109.314	2914.16
2112.5	2861.48
2115.685	2844.88
2118.87	2856.57
2122.055	2923.77
2125.239	2877.94
2128.424	2842.04
2131.608	2973.5
2134.791	2959.28
2137.974	3030.96
2141.157	3013.88
2144.34	2951.34
2147.523	2986.05
2150.705	2989.79
2153.887	2977.22
2157.068	2912
2160.25	2930.88
2163.431	2980.86
2166.611	2908.17
2169.792	2916.93
2172.972	2798.84
2176.152	2898.11
2179.331	2939.44
2182.511	2903.41
2185.69	2935.32
2188.868	2920.6
2192.047	2991.6
2195.225	2962.24
2198.403	2910.94
2201.58	2910.25
2204.758	2912.84
2207.935	3000.4
2211.111	2868.4
2214.288	2848.75
2217.464	2892.72
2220.64	2878.3
2223.815	2939.67
2226.991	2852.23
2230.166	2875.7
2233.34	2895.3
2236.515	2928.36
2239.689	3004.75
2242.863	2945.65
2246.036	3006.18
2249.209	3015.69
2252.382	3062.08
2255.555	3033.59
2258.727	2960.85
2261.9	3009.37
2265.071	2999.68
2268.243	3004.23
2271.414	2926.16
2274.585	2873.28
2277.756	2945.56
2280.926	2902.83
2284.096	2952.61
2287.266	2843.75
2290.436	2905.13
2293.605	2941.14
2296.774	2963.78
2299.942	2996.47
2303.111	3015.35
2306.279	3059.16
2309.447	3052.81
2312.614	3027.58
2315.781	3040.92
2318.948	3009.03
2322.115	3045.66
2325.281	2952.63
2328.447	2979.32
2331.613	2957.56
2334.779	2919.04
2337.944	2927.92
2341.109	2921.74
2344.274	2894.88
2347.438	2861.83
2350.602	2892.04
2353.766	2907.34
2356.929	2894.52
2360.092	2933.87
2363.255	2873.63
2366.418	2784.75
2369.58	2926.5
2372.742	2661.06
2375.904	2687.62
2379.066	2657.41
2382.227	2701.91
2385.388	2662.99
2388.548	2576.39
2391.709	2639.89
2394.869	2612.49
2398.029	2743.17
2401.188	2767.89
2404.347	2682.24
2407.506	2860.14
2410.665	2886.69
2413.823	2907.58
2416.981	2846.25
2420.139	2890.46
2423.296	2942.92
2426.453	2916.55
2429.61	2947.87
2432.767	2852.42
2435.923	2890.29
2439.079	2825.03
2442.235	2888.96
2445.391	2804.48
2448.546	2819.45
2451.701	2881.7
2454.855	2833.4
2458.009	2905.03
2461.163	2915.99
2464.317	2864.18
2467.471	2906.19
2470.624	2951.31
2473.777	2951.66
2476.929	2957.93
2480.082	2985.09
2483.234	2945.08
2486.385	2876.8
2489.537	2868.71
2492.688	2811.78
2495.839	2829.37
2498.989	2835.73
2502.14	2815.92
2505.29	2790.79
2508.439	2819.16
2511.589	2730.59
2514.738	2753.8
2517.887	2788.58
2521.035	2877.56
2524.183	2876.88
2527.331	2848.36
2530.479	2809.49
2533.627	2824.45
