Data from C_2_HIR_WI_4N_Splice17_12-33-34-104.txt Node
Date: Sat Mar 14 12:33:34 EDT 2020
User: sa697716
Spectrometer: FLMS03696
Trigger mode: 0
Integration Time (sec): 3.180400E-1
Scans to average: 20
Electric dark correction enabled: true
Nonlinearity correction enabled: true
Boxcar width: 5
XAxis mode: Wavelengths
Number of Pixels in Spectrum: 2048
>>>>>Begin Spectral Data<<<<<
187.83	-243772.17
188.298	1803.04
188.766	998.22
189.233	941.16
189.701	1279.51
190.169	1673.65
190.636	614.15
191.104	505.46
191.571	26.31
192.039	-129.27
192.506	-199.66
192.974	214.84
193.441	-337.21
193.908	-77.09
194.375	17.97
194.842	25.34
195.31	55.52
195.777	153.85
196.244	356.3
196.711	418.1
197.177	521.29
197.644	729.55
198.111	1297.84
198.578	1825.89
199.045	1499.78
199.511	2464.7
199.978	2900.28
200.445	2452.45
200.911	2715.12
201.378	3049.3
201.844	2756.21
202.31	4756.37
202.777	4993.54
203.243	2769.76
203.709	2653.97
204.176	3179.61
204.642	2634.11
205.108	2483.06
205.574	2046.67
206.04	1862.34
206.506	1745.3
206.972	1655.3
207.438	1603.44
207.903	1822.33
208.369	1606.85
208.835	1607.2
209.301	1694.46
209.766	1739.66
210.232	1713.69
210.697	2125.32
211.163	2643.13
211.628	4022.08
212.094	3397.3
212.559	4196.01
213.024	2642.8
213.49	3240.84
213.955	3178.69
214.42	3088.42
214.885	2890.59
215.35	2807.01
215.815	2739.03
216.28	2921.53
216.745	2409.29
217.21	2642.66
217.675	2468.52
218.14	2836.37
218.604	3234.3
219.069	3765.14
219.534	4033.65
219.998	4768.92
220.463	5871.88
220.927	7334.38
221.392	7006.16
221.856	7179.62
222.32	9150.06
222.785	11397.26
223.249	14453.31
223.713	16224.89
224.177	16303.65
224.642	21013.75
225.106	25928.77
225.57	28420.81
226.034	21175.21
226.497	32303.76
226.961	29175.41
227.425	33975.14
227.889	37716.03
228.353	37710.69
228.816	77871.04
229.28	74445.51
229.744	62788.89
230.207	38202.68
230.671	37557.17
231.134	62148.4
231.597	71584.97
232.061	71571.43
232.524	69835.28
232.987	48037.15
233.45	43187.72
233.914	38715.14
234.377	39706.22
234.84	36321.12
235.303	42778.25
235.766	47695.86
236.229	49220.17
236.691	30978.66
237.154	34784.88
237.617	26150.41
238.08	26775.23
238.542	31317.49
239.005	22362.95
239.468	22164.1
239.93	20863.42
240.393	18940.89
240.855	16609.33
241.317	17002.96
241.78	20673.3
242.242	21339.88
242.704	22998.15
243.166	20013.83
243.629	18136.36
244.091	20874.72
244.553	22849.1
245.015	24535.91
245.477	31726.81
245.939	46476.77
246.4	49285.44
246.862	47855.7
247.324	45094.15
247.786	50456.2
248.247	66165.23
248.709	68378.94
249.17	51121
249.632	48136.24
250.093	55755.62
250.555	48126.38
251.016	29327.57
251.477	27801.24
251.939	29979.91
252.4	31441.8
252.861	37348.6
253.322	34644.06
253.783	41175.17
254.244	53375.26
254.705	42058.39
255.166	37379.99
255.627	36769.04
256.088	51781.68
256.549	54959.32
257.009	47328.6
257.47	57372.61
257.931	46716.77
258.391	35019.63
258.852	36067.45
259.312	37774.9
259.773	46640.64
260.233	39368.02
260.694	33187.69
261.154	37620.67
261.614	30150.3
262.074	26923.75
262.534	27950.06
262.994	26302.84
263.455	35012.5
263.915	29499.8
264.374	27769.08
264.834	30287.4
265.294	33562.96
265.754	34729.33
266.214	32889.66
266.673	30825.8
267.133	38917.4
267.593	38590.71
268.052	47219.02
268.512	41037.17
268.971	49462.81
269.431	54254.46
269.89	48551.85
270.349	72761.96
270.809	81085.02
271.268	72830.42
271.727	163172.26
272.186	105629.55
272.645	79175.09
273.104	57090.7
273.563	82601.53
274.022	64896.96
274.481	55151.09
274.94	42442.02
275.399	31543.41
275.857	36716.3
276.316	49628.58
276.775	44148.78
277.233	43444.38
277.692	40679.2
278.15	45966.31
278.609	47273.48
279.067	43727.37
279.525	40589.74
279.984	52425.78
280.442	62919.87
280.9	61951.05
281.358	40737.03
281.816	37912.03
282.274	37079.06
282.732	38223
283.19	38426.61
283.648	33144.52
284.106	35268.4
284.564	35819.65
285.021	33169.95
285.479	24692.19
285.937	22433.08
286.394	19666.29
286.852	20233.95
287.309	21245.83
287.767	20510.56
288.224	19467.31
288.682	21332.64
289.139	23388.59
289.596	21371.54
290.053	22198.64
290.511	27987.66
290.968	33951.02
291.425	46040.23
291.882	38270.72
292.339	33285.49
292.796	33022.15
293.252	31105.27
293.709	24674.98
294.166	22099.72
294.623	24424.93
295.079	23420.07
295.536	23503.02
295.992	21284.14
296.449	21025.41
296.905	21842.26
297.362	20914.43
297.818	21957.11
298.274	22744
298.731	23168.08
299.187	22900.85
299.643	24567.52
300.099	29695.72
300.555	32516.95
301.011	27168.52
301.467	26128.84
301.923	30527.99
302.379	29786.51
302.835	29217.82
303.291	29205.59
303.746	33170.04
304.202	41819.13
304.658	41920.77
305.113	28146.79
305.569	27567.72
306.024	29358.59
306.479	27897.7
306.935	23488.42
307.39	25593.63
307.845	23607.91
308.301	23744.34
308.756	23114.46
309.211	22259.95
309.666	22755.54
310.121	28208.44
310.576	28536.7
311.031	28263.01
311.486	32346.88
311.94	32307.09
312.395	43125.99
312.85	80991.52
313.305	397216.06
313.759	2053125.58
314.214	148539.98
314.668	117526.88
315.123	98771.34
315.577	35441.11
316.032	31493.55
316.486	39456.67
316.94	31033.09
317.394	21604.64
317.849	16756.06
318.303	15846.96
318.757	14936.8
319.211	16489.54
319.665	14431.25
320.119	14567.77
320.572	20877.83
321.026	19498.82
321.48	16201.04
321.934	17676.4
322.387	17693.75
322.841	19119.5
323.295	17155.91
323.748	19777.87
324.202	20042.89
324.655	24053.44
325.108	33558.91
325.562	23670.27
326.015	28086.74
326.468	21216.3
326.921	23690.51
327.374	22061.25
327.827	22928.36
328.28	25912.81
328.733	17327.45
329.186	15226.82
329.639	14496.13
330.092	12210.41
330.545	11614.71
330.997	11699.01
331.45	12770.94
331.903	14944.32
332.355	25719.76
332.808	24961.98
333.26	20606.58
333.713	22306.22
334.165	22442.82
334.617	29927.4
335.069	24141.63
335.522	43623.14
335.974	48230.21
336.426	44001.39
336.878	30467.57
337.33	15431.63
337.782	15051.75
338.234	18810.52
338.686	22522.61
339.137	26691.31
339.589	25090.55
340.041	19707.04
340.493	16892
340.944	17310.54
341.396	18671.43
341.847	15706.03
342.299	18532.99
342.75	22610.98
343.201	19751.62
343.653	22683.66
344.104	27826.42
344.555	21915.03
345.006	34052.17
345.457	26076.12
345.908	20696.39
346.359	19412.41
346.81	15777.63
347.261	16598.75
347.712	16338.96
348.163	17486.19
348.613	17686.78
349.064	16500.07
349.515	14431.17
349.965	14798.82
350.416	17833.08
350.866	19567.26
351.317	22112.74
351.767	36586.46
352.217	46137.18
352.668	38231.43
353.118	35028.09
353.568	33813.46
354.018	26707.46
354.468	28132.47
354.918	20122.03
355.368	17584.2
355.818	24750.43
356.268	71085.78
356.718	297469.05
357.168	73976.71
357.617	37131.58
358.067	41294.79
358.517	38507.15
358.966	45159.9
359.416	50579.52
359.865	54676.6
360.315	65070.91
360.764	30407.05
361.213	17055.72
361.663	16119.51
362.112	19898.51
362.561	32063.81
363.01	24170.63
363.459	20387.67
363.908	22033.5
364.357	18735.91
364.806	31639.62
365.255	21729.73
365.703	19946.9
366.152	19910.78
366.601	16146.28
367.05	13088.58
367.498	11880.68
367.947	12389.72
368.395	12853.56
368.844	11364.81
369.292	13654.57
369.74	9416.33
370.189	14412.62
370.637	16802.59
371.085	14501.43
371.533	17625.65
371.981	16962.48
372.429	16201.83
372.877	16880.97
373.325	14123.76
373.773	14356.57
374.221	12774.46
374.669	15825.14
375.116	13662.54
375.564	13750.98
376.012	15354.72
376.459	12682.33
376.907	15121.32
377.354	18230.54
377.801	16982.98
378.249	19491.04
378.696	24900.84
379.143	30052.82
379.591	32029.77
380.038	54147.76
380.485	39146.88
380.932	42274.3
381.379	38661.18
381.826	28518.53
382.273	20270.83
382.72	17686.68
383.166	17258.85
383.613	11201.96
384.06	10130.19
384.506	11714.76
384.953	8603.17
385.4	8676.14
385.846	7612.47
386.292	7412.32
386.739	7269.96
387.185	7193.01
387.631	7214.48
388.078	7013
388.524	7511.02
388.97	6950.58
389.416	5803.7
389.862	6171.76
390.308	5849.14
390.754	5951.09
391.2	6457.83
391.645	6608.52
392.091	6337.15
392.537	6128.08
392.983	6138.32
393.428	6052.35
393.874	6490.99
394.319	6543.55
394.765	6219.08
395.21	6410.75
395.655	6022.8
396.101	5657.79
396.546	5117.77
396.991	5170.86
397.436	4809.55
397.881	4660.6
398.326	4420.73
398.771	4192.87
399.216	3663.76
399.661	3309.72
400.106	3309
400.551	3396.4
400.995	3054.79
401.44	3024.04
401.885	2843.93
402.329	2877.68
402.774	2764.77
403.218	2687.1
403.663	2591.7
404.107	2670.58
404.551	2695.78
404.995	2468.66
405.44	2375.95
405.884	2415.25
406.328	2341.77
406.772	2334.56
407.216	2128
407.66	2058.13
408.104	1945.26
408.547	1821.17
408.991	1763.35
409.435	1693.55
409.879	1672.04
410.322	1650.69
410.766	1592.98
411.209	1512.3
411.653	1453.38
412.096	1423.71
412.54	1423.59
412.983	1420.04
413.426	1426.83
413.869	1424.65
414.312	1403.21
414.756	1354.01
415.199	1294
415.642	1258.72
416.085	1262.39
416.527	1255.41
416.97	1275.27
417.413	1211.01
417.856	1196.5
418.298	1183.08
418.741	1175.16
419.184	1170.29
419.626	1217.92
420.069	1217.04
420.511	1221.6
420.953	1196.26
421.396	1185.94
421.838	1157.2
422.28	1182.05
422.722	1188.82
423.164	1203.75
423.606	1185.2
424.048	1179.61
424.49	1119.69
424.932	1113.09
425.374	1095.87
425.816	1115.04
426.258	1136.42
426.699	1148.64
427.141	1133.19
427.582	1147.06
428.024	1141.26
428.465	1132.2
428.907	1106.38
429.348	1092.26
429.789	1091.24
430.231	1069.6
430.672	1081.96
431.113	1054.11
431.554	1037.14
431.995	1009.43
432.436	976.82
432.877	955.16
433.318	941.54
433.759	937.09
434.2	938.42
434.64	929.29
435.081	930.9
435.522	881.31
435.962	848.67
436.403	832.01
436.843	843.51
437.284	823.64
437.724	799.63
438.164	798.63
438.604	782.33
439.045	753.88
439.485	725.34
439.925	711.14
440.365	694.51
440.805	684.97
441.245	674.43
441.685	651.28
442.125	647.48
442.564	653.77
443.004	640.39
443.444	638.31
443.883	639.63
444.323	633.75
444.762	635.05
445.202	643.05
445.641	657.07
446.081	654.66
446.52	659.15
446.959	653.6
447.398	638.62
447.837	633.21
448.276	623.23
448.716	628.96
449.154	634.93
449.593	620.63
450.032	620.02
450.471	608.17
450.91	609.42
451.349	610.2
451.787	609.64
452.226	619.21
452.664	619.44
453.103	622.42
453.541	622.75
453.98	622.82
454.418	629.4
454.856	621.62
455.295	622.56
455.733	629.31
456.171	633.06
456.609	634.17
457.047	634.07
457.485	642.2
457.923	642.94
458.361	634.16
458.798	636.25
459.236	633.16
459.674	636.73
460.111	639.71
460.549	634.08
460.987	631.12
461.424	629.04
461.862	626.06
462.299	617.37
462.736	616.73
463.173	619.52
463.611	613.33
464.048	612.04
464.485	617.67
464.922	611.31
465.359	606.45
465.796	600.44
466.233	595.45
466.67	591.02
467.106	589.37
467.543	582.78
467.98	574.05
468.416	557.87
468.853	552.29
469.29	535.18
469.726	529.04
470.162	515.18
470.599	507.74
471.035	503.67
471.471	490.4
471.907	487.02
472.344	484.37
472.78	486.16
473.216	493.19
473.652	488.21
474.088	487.06
474.523	486.47
474.959	490.76
475.395	485.3
475.831	482.44
476.266	485.71
476.702	484.68
477.138	479.46
477.573	478.42
478.008	476.05
478.444	479.89
478.879	484.83
479.314	486.29
479.75	486.92
480.185	489.41
480.62	493.45
481.055	496.43
481.49	499.78
481.925	507.26
482.36	516.68
482.795	530.59
483.229	543.61
483.664	554.73
484.099	557.03
484.534	566.34
484.968	571.92
485.403	573.68
485.837	573.02
486.271	572.86
486.706	573.88
487.14	567.75
487.574	560.55
488.009	555.9
488.443	552.21
488.877	558.91
489.311	560.98
489.745	569.32
490.179	575.83
490.613	588.73
491.046	595.21
491.48	600.62
491.914	603.01
492.348	609.29
492.781	616.05
493.215	619.2
493.648	622.43
494.082	629.53
494.515	632.22
494.948	641.91
495.382	647.77
495.815	654.28
496.248	662.34
496.681	676.41
497.114	689.45
497.547	700.78
497.98	715.93
498.413	724.83
498.846	736.61
499.279	747.49
499.711	754.71
500.144	760.53
500.577	774.1
501.009	788.01
501.442	801.14
501.874	806.09
502.306	812.05
502.739	823.18
503.171	841.65
503.603	849.2
504.036	862.66
504.468	872.2
504.9	887.49
505.332	898.4
505.764	906.95
506.196	918.34
506.627	937.69
507.059	955.7
507.491	967.93
507.923	970.54
508.354	989.58
508.786	1003.75
509.217	1026.19
509.649	1044.85
510.08	1068.29
510.512	1089.81
510.943	1108.59
511.374	1123.89
511.805	1148.32
512.237	1173.54
512.668	1209.3
513.099	1241.5
513.53	1272.88
513.961	1297.94
514.391	1334.83
514.822	1372.04
515.253	1412.6
515.684	1441.35
516.114	1474.21
516.545	1498.16
516.975	1526.9
517.406	1548.31
517.836	1552.25
518.267	1560.83
518.697	1580.79
519.127	1585.94
519.558	1594.25
519.988	1597.91
520.418	1610.47
520.848	1630.41
521.278	1640.28
521.708	1660.03
522.138	1674.77
522.567	1708.25
522.997	1735.53
523.427	1751.29
523.857	1770.5
524.286	1781.84
524.716	1798.8
525.145	1818.45
525.575	1829.91
526.004	1845.58
526.433	1837.06
526.863	1835.54
527.292	1824.27
527.721	1830.81
528.15	1837.23
528.579	1836.02
529.008	1846.73
529.437	1871.19
529.866	1886.84
530.295	1904.4
530.724	1916.63
531.152	1946.9
531.581	1963.19
532.01	1982.34
532.438	1990.85
532.867	2007.36
533.295	2027.68
533.723	2035.59
534.152	2031.83
534.58	2031.17
535.008	2013.77
535.436	2016.63
535.865	2024.03
536.293	2038.33
536.721	2055.49
537.149	2083.22
537.576	2085.01
538.004	2098.83
538.432	2106.28
538.86	2105.13
539.287	2112.3
539.715	2127.49
540.143	2130.4
540.57	2125.42
540.998	2121.01
541.425	2095.86
541.852	2071.93
542.28	2070.39
542.707	2051.5
543.134	2036.35
543.561	2031.66
543.988	2022.04
544.415	2021.65
544.842	2013.4
545.269	2006.28
545.696	2008.64
546.123	2022.27
546.549	2010.79
546.976	1996.41
547.403	1996.86
547.829	1998.11
548.256	1999.95
548.682	1996.51
549.108	1987.7
549.535	1988.2
549.961	1989.61
550.387	1975.29
550.813	1968.53
551.24	1976.27
551.666	1976.96
552.092	1966.24
552.518	1959.66
552.943	1953.19
553.369	1961.23
553.795	1967.14
554.221	1968.42
554.646	1966.33
555.072	1978.25
555.498	1983.77
555.923	1992.52
556.349	2009.64
556.774	2018.92
557.199	2020.03
557.625	2026.34
558.05	2019.63
558.475	2030.03
558.9	2028.53
559.325	2018.9
559.75	2011.63
560.175	2005.54
560.6	1999.78
561.025	1997.8
561.449	1999.72
561.874	2007.4
562.299	2012.45
562.723	2020.97
563.148	2011.42
563.572	2018.31
563.997	2028.98
564.421	2036.68
564.846	2036.9
565.27	2041.71
565.694	2039.26
566.118	2052.71
566.542	2061.18
566.966	2054.47
567.39	2050.75
567.814	2039.2
568.238	2038.29
568.662	2046.06
569.086	2048.71
569.509	2057.79
569.933	2040.73
570.357	2033.9
570.78	2011.14
571.204	1996.68
571.627	1985.43
572.05	1983.5
572.474	1984.02
572.897	1970.14
573.32	1961.46
573.743	1951
574.166	1930.7
574.589	1931.47
575.012	1923.08
575.435	1921.79
575.858	1911.76
576.281	1899
576.704	1881.54
577.126	1868.07
577.549	1856.1
577.972	1844.4
578.394	1832.93
578.817	1825.06
579.239	1803.88
579.661	1788.91
580.084	1771.15
580.506	1757.59
580.928	1755.27
581.35	1743.49
581.772	1738.71
582.194	1724.62
582.616	1711.37
583.038	1694.67
583.46	1683.54
583.882	1680.76
584.303	1684.62
584.725	1680.17
585.147	1681.58
585.568	1692.16
585.99	1705.31
586.411	1711.93
586.833	1728.08
587.254	1729.89
587.675	1747.28
588.096	1761.27
588.518	1754.08
588.939	1736.5
589.36	1734.1
589.781	1721.5
590.202	1689.73
590.623	1679.94
591.043	1678.21
591.464	1664.19
591.885	1659.75
592.305	1652.46
592.726	1637.12
593.147	1640.02
593.567	1633.43
593.987	1626.66
594.408	1621.64
594.828	1619.54
595.248	1612.79
595.669	1592.34
596.089	1584.91
596.509	1577.01
596.929	1561.88
597.349	1562.01
597.769	1550.13
598.189	1542.82
598.608	1542.28
599.028	1544.02
599.448	1543.82
599.867	1530.38
600.287	1524.62
600.706	1518.63
601.126	1508.54
601.545	1507.13
601.965	1505.67
602.384	1499.56
602.803	1503.18
603.222	1498.06
603.641	1490.81
604.061	1487.07
604.48	1481.64
604.898	1490.69
605.317	1495.42
605.736	1496.74
606.155	1492.65
606.574	1482.93
606.992	1487.98
607.411	1482.45
607.829	1472.96
608.248	1468.51
608.666	1464.95
609.085	1464.33
609.503	1455.13
609.921	1447.6
610.339	1449.02
610.758	1448.33
611.176	1442.11
611.594	1432.33
612.012	1426.58
612.43	1429.04
612.847	1435.98
613.265	1436.16
613.683	1440.55
614.101	1440.56
614.518	1436.53
614.936	1424.46
615.353	1407.71
615.771	1403.38
616.188	1402.81
616.606	1398.98
617.023	1392.05
617.44	1375.25
617.857	1367.4
618.274	1356.23
618.691	1347.94
619.108	1336.83
619.525	1330.29
619.942	1336.06
620.359	1338.13
620.776	1331.54
621.192	1326.46
621.609	1322.52
622.026	1330.03
622.442	1335.1
622.859	1338.94
623.275	1331.34
623.691	1337.82
624.108	1350.1
624.524	1365.81
624.94	1366.28
625.356	1376.58
625.772	1390.75
626.188	1402.87
626.604	1403.65
627.02	1399.3
627.436	1396.44
627.852	1404.3
628.268	1416.58
628.683	1406.11
629.099	1396.28
629.514	1391.37
629.93	1395.64
630.345	1399.66
630.761	1394.73
631.176	1398.05
631.591	1391.98
632.007	1385.15
632.422	1382.21
632.837	1369.39
633.252	1366.61
633.667	1354.67
634.082	1343.63
634.497	1328.24
634.911	1306.45
635.326	1301.88
635.741	1282.96
636.155	1270.75
636.57	1271.35
636.984	1268.93
637.399	1268.55
637.813	1266.26
638.228	1264.85
638.642	1267.21
639.056	1255.58
639.47	1254.63
639.884	1244.07
640.298	1235.96
640.712	1232.79
641.126	1217.5
641.54	1207.7
641.954	1201.43
642.368	1186.06
642.781	1175.42
643.195	1154.57
643.609	1151.93
644.022	1144.02
644.436	1137.83
644.849	1121.67
645.262	1107.21
645.676	1106.34
646.089	1098.96
646.502	1081.72
646.915	1074.85
647.328	1054.6
647.741	1050.67
648.154	1035.98
648.567	1030.45
648.98	1015.21
649.393	1013.89
649.805	1008.3
650.218	998.1
650.631	979.24
651.043	970.66
651.456	963.15
651.868	962.55
652.28	977.8
652.693	989.92
653.105	992.56
653.517	998.64
653.929	996.2
654.341	998.19
654.753	985.76
655.165	989.6
655.577	982.92
655.989	975.01
656.401	964.32
656.813	926.76
657.224	903.93
657.636	874.23
658.047	855.06
658.459	833.46
658.87	821.96
659.282	806.23
659.693	783.78
660.104	767.42
660.515	751.02
660.926	745.87
661.338	737.95
661.749	727.33
662.159	715.4
662.57	706.38
662.981	698.07
663.392	687.02
663.803	685.48
664.213	678.79
664.624	670.69
665.035	668.71
665.445	651.5
665.855	644.12
666.266	634.45
666.676	629.05
667.086	618.73
667.497	615.14
667.907	607.23
668.317	597.03
668.727	593.09
669.137	591.35
669.547	587.58
669.956	587.91
670.366	586.37
670.776	586.03
671.186	587.45
671.595	588.9
672.005	589.27
672.414	587.94
672.824	586.6
673.233	588.02
673.642	588.24
674.052	590.48
674.461	592.36
674.87	594.8
675.279	593.29
675.688	593.28
676.097	595.04
676.506	593.82
676.915	605.76
677.323	608.51
677.732	607.52
678.141	607.5
678.549	599.88
678.958	600.05
679.366	600.4
679.775	604.49
680.183	616.6
680.592	622.98
681	630.1
681.408	627.67
681.816	637.15
682.224	647.5
682.632	661.67
683.04	690.49
683.448	714.79
683.856	747.03
684.264	784.29
684.671	816.81
685.079	858.3
685.487	904.67
685.894	967.97
686.302	1022.74
686.709	1071.89
687.116	1127.06
687.524	1174.54
687.931	1217.95
688.338	1257.36
688.745	1291.98
689.152	1331.94
689.559	1382.42
689.966	1432.06
690.373	1460.89
690.78	1506.79
691.187	1573.99
691.593	1626.75
692	1673.92
692.407	1743.36
692.813	1823.63
693.22	1888.29
693.626	1955.41
694.032	2007.95
694.439	2088.21
694.845	2150.34
695.251	2229.18
695.657	2299.63
696.063	2402.14
696.469	2479.34
696.875	2547.97
697.281	2588.01
697.687	2634.42
698.093	2674.38
698.498	2751.09
698.904	2809.73
699.31	2899.15
699.715	2962.16
700.12	3054.28
700.526	3070.61
700.931	3138.83
701.337	3191.81
701.742	3223.19
702.147	3308.43
702.552	3334.86
702.957	3394.54
703.362	3413.31
703.767	3440.21
704.172	3477.8
704.577	3426.58
704.981	3474.03
705.386	3488.99
705.791	3478.13
706.195	3553.61
706.6	3560.73
707.004	3641.28
707.408	3607.06
707.813	3632.48
708.217	3616.42
708.621	3616.7
709.025	3714.86
709.43	3713.41
709.834	3773.81
710.237	3840.63
710.641	3821.57
711.045	3841.86
711.449	3835.13
711.853	3864.7
712.256	3905.76
712.66	3941.42
713.064	4016.17
713.467	4056.01
713.87	4165.25
714.274	4208.1
714.677	4320.14
715.08	4481.95
715.484	4650.79
715.887	4854.33
716.29	5051.4
716.693	5258.01
717.096	5500.09
717.499	5629.94
717.901	5649.67
718.304	5677.36
718.707	5699.67
719.109	5591.82
719.512	5558.41
719.915	5418.12
720.317	5355.88
720.719	5395.96
721.122	5361.99
721.524	5308.97
721.926	5263.47
722.328	5363.87
722.731	5350.43
723.133	5377.73
723.535	5570.03
723.937	5586.31
724.338	5636.39
724.74	5676.24
725.142	5612.95
725.544	5610.57
725.945	5631.74
726.347	5625
726.748	5614.63
727.15	5624.51
727.551	5583.31
727.952	5549.85
728.354	5518.71
728.755	5515
729.156	5467.94
729.557	5450.6
729.958	5327.43
730.359	5273.32
730.76	5253.76
731.161	5194.03
731.562	5170.77
731.962	5169.76
732.363	5103.6
732.763	5038.39
733.164	5075.66
733.564	5010.59
733.965	4913.87
734.365	4879.79
734.766	4904.34
735.166	4862.92
735.566	4807.35
735.966	4779.86
736.366	4774.2
736.766	4713.38
737.166	4745.49
737.566	4701.86
737.966	4675.51
738.365	4714.69
738.765	4705.71
739.165	4632.95
739.564	4607.19
739.964	4651.11
740.363	4604.88
740.763	4603.33
741.162	4591.97
741.561	4559.45
741.96	4513.11
742.36	4532.19
742.759	4535.36
743.158	4572.88
743.557	4586.36
743.955	4627.58
744.354	4582.29
744.753	4638.76
745.152	4599.2
745.55	4655.21
745.949	4647.64
746.348	4649.24
746.746	4664.86
747.144	4628.34
747.543	4605.87
747.941	4652.11
748.339	4582.25
748.737	4573.47
749.136	4562.36
749.534	4623.72
749.932	4595.24
750.33	4617.27
750.727	4673.28
751.125	4650.18
751.523	4634.15
751.921	4678.51
752.318	4648.41
752.716	4704.98
753.113	4717.98
753.511	4745.75
753.908	4745.41
754.305	4727.58
754.703	4787.08
755.1	4847.37
755.497	4904.4
755.894	5091.47
756.291	5264.77
756.688	5588.07
757.085	6017.33
757.482	6621.57
757.878	7280.03
758.275	7878.79
758.672	8702.9
759.068	9377.96
759.465	10329.03
759.861	11560.44
760.258	12984.54
760.654	13726.77
761.05	13610.67
761.447	12984.73
761.843	12090.73
762.239	11160.19
762.635	10738.89
763.031	10331.96
763.427	9753.88
763.822	9150.97
764.218	8555.06
764.614	7773.4
765.01	7247.78
765.405	6909.91
765.801	6658.61
766.196	6329.96
766.592	6150.93
766.987	5844.04
767.382	5637.34
767.778	5548.03
768.173	5418.41
768.568	5342.94
768.963	5221.72
769.358	5239.25
769.753	5193.31
770.148	5110.59
770.542	5110.42
770.937	5074.14
771.332	5160.51
771.726	5178.91
772.121	5116.96
772.515	5168.99
772.91	5156.15
773.304	5223.31
773.699	5158.36
774.093	5209.21
774.487	5261.73
774.881	5300.8
775.275	5299.22
775.669	5259.7
776.063	5301.13
776.457	5336.19
776.851	5263.03
777.245	5252.42
777.638	5284.33
778.032	5398.64
778.425	5363.59
778.819	5404.87
779.212	5365.74
779.606	5325.46
779.999	5344.67
780.392	5329.99
780.786	5410.58
781.179	5432.36
781.572	5476.66
781.965	5492.03
782.358	5433.24
782.751	5488.24
783.143	5440.67
783.536	5512.85
783.929	5556.56
784.322	5671.2
784.714	5697.18
785.107	5693.64
785.499	5765.23
785.891	5746.72
786.284	5726.81
786.676	5866.03
787.068	5847.54
787.46	5898.95
787.852	5914.81
788.245	5999.93
788.636	6025.53
789.028	6096.73
789.42	6135.39
789.812	6141.72
790.204	6233.51
790.595	6328.07
790.987	6137.86
791.378	6161.2
791.77	6287.79
792.161	6425.65
792.553	6478.45
792.944	6372
793.335	6303.33
793.726	6370.39
794.117	6458.36
794.508	6592.66
794.899	6566.81
795.29	6701.93
795.681	6756.15
796.072	6615.64
796.463	6437.31
796.853	6449.17
797.244	6602.28
797.634	6633.5
798.025	6634.88
798.415	6644.86
798.806	6732
799.196	6814.03
799.586	6867.29
799.976	6833.35
800.366	7058.33
800.756	7289.09
801.146	7247.56
801.536	7274.56
801.926	7347.81
802.316	7375.91
802.706	7446.49
803.095	7324.25
803.485	7423.41
803.874	7459.94
804.264	7714.47
804.653	7689.45
805.043	7829.24
805.432	7935.26
805.821	7938.05
806.21	7962.97
806.599	8073.47
806.988	8119.66
807.377	8229.2
807.766	8354.18
808.155	8629.23
808.544	8369.65
808.933	8383.17
809.321	8361.65
809.71	8650.69
810.098	8801.75
810.487	9248.76
810.875	9718.33
811.264	9738.49
811.652	10011.23
812.04	10151.63
812.428	10316.49
812.816	11059.74
813.204	11469.07
813.592	12005.89
813.98	12333.1
814.368	12246.67
814.756	12716.81
815.144	12640.2
815.531	13099.29
815.919	13034.02
816.306	13339.36
816.694	13039.15
817.081	13084.14
817.469	13427.61
817.856	13429.37
818.243	13692.87
818.63	14079.4
819.017	13668.08
819.404	13732.19
819.791	14101.74
820.178	14700.72
820.565	14949.72
820.952	15862.16
821.339	15384.74
821.725	15558.06
822.112	14835.37
822.498	14797.72
822.885	14923.36
823.271	14832.22
823.657	15236.41
824.044	15242.08
824.43	15315.18
824.816	15283.5
825.202	14853.59
825.588	15847.52
825.974	15863.92
826.36	16368.35
826.746	16406.35
827.132	16752.36
827.517	16724.78
827.903	15961.09
828.289	15999.97
828.674	15246.29
829.06	15137.86
829.445	15520.56
829.83	15871.6
830.216	16333.82
830.601	16690.84
830.986	16295.87
831.371	16166.05
831.756	16712.46
832.141	16297.77
832.526	16287.71
832.911	16564.3
833.295	16451.16
833.68	16910.06
834.065	16299.92
834.449	15406.37
834.834	15337.2
835.218	15332.57
835.603	15662.58
835.987	15459.19
836.371	16270.53
836.755	16178.88
837.139	16564.53
837.524	16795.85
837.908	16624.57
838.291	16693
838.675	16764.89
839.059	16957.79
839.443	16937.77
839.827	16710.97
840.21	17172.78
840.594	17026.03
840.977	17226.33
841.361	17200.81
841.744	17565.86
842.127	17409.07
842.511	17644.26
842.894	18226.25
843.277	18606.03
843.66	19138.17
844.043	19220.27
844.426	18432.91
844.809	18127.11
845.191	18158.12
845.574	17722.15
845.957	17372.09
846.339	17277.19
846.722	16765.74
847.104	16826.31
847.487	16654.41
847.869	16661.98
848.252	16929.38
848.634	17253.08
849.016	17515.04
849.398	17629.13
849.78	18453.3
850.162	18457.11
850.544	18855.36
850.926	19462.54
851.307	19383.79
851.689	19660.45
852.071	20105.63
852.452	20417.08
852.834	20399.65
853.215	20782.21
853.597	20936.9
853.978	21224.47
854.359	21674.44
854.741	20706.02
855.122	20612.51
855.503	20329.68
855.884	20449.96
856.265	20384.37
856.646	20508.38
857.026	20120.99
857.407	20052.55
857.788	20197.3
858.169	20465.74
858.549	19634.75
858.93	20243.83
859.31	20285.39
859.69	20498.25
860.071	20103.6
860.451	19900.75
860.831	19177.18
861.211	20303.71
861.591	20841.27
861.971	20818.13
862.351	21012.89
862.731	21386.27
863.111	21635.68
863.491	21955.46
863.87	22799.56
864.25	23150.45
864.629	22753.05
865.009	23252.07
865.388	24086.73
865.768	25807.69
866.147	25705.45
866.526	24284.03
866.905	24577.46
867.284	25967.91
867.663	24664.57
868.042	23640.4
868.421	23550.3
868.8	23945.42
869.179	24177.84
869.558	22760.77
869.936	20987.68
870.315	21365.09
870.693	21882.68
871.072	23597.99
871.45	22473.06
871.828	22763.39
872.207	23918.22
872.585	23561.22
872.963	24201.14
873.341	23366.23
873.719	23096.05
874.097	22818.68
874.475	23262.35
874.853	23796.47
875.23	22807.43
875.608	23767.09
875.986	25705.81
876.363	24596.76
876.741	25360.68
877.118	24733.37
877.495	25959.66
877.873	26393.88
878.25	27783.22
878.627	26635.69
879.004	27006.59
879.381	26885.01
879.758	26177.69
880.135	24363.32
880.512	25757.58
880.889	25066.41
881.265	24796.03
881.642	24578.8
882.019	24994.24
882.395	24472.16
882.772	25451.83
883.148	24348.68
883.524	24249.12
883.901	24102.15
884.277	24472.5
884.653	24319.67
885.029	25012.66
885.405	27705.94
885.781	27500.07
886.157	26364.86
886.532	26689.27
886.908	26664.73
887.284	29645.34
887.659	30616.09
888.035	31565.98
888.411	32382.95
888.786	32796.61
889.161	33944.01
889.537	33315.32
889.912	34372.46
890.287	34346.65
890.662	35232.39
891.037	34605.77
891.412	32274.79
891.787	31932.56
892.162	30818.68
892.536	31527.09
892.911	30365.4
893.286	29727.6
893.66	28518.46
894.035	29249.86
894.409	31838.42
894.784	30555.04
895.158	31053.99
895.532	32890.13
895.906	33802.86
896.281	34597.18
896.655	34052.06
897.029	38887.35
897.402	40491.66
897.776	45087.65
898.15	44928.55
898.524	44463.75
898.898	45063.87
899.271	50449.3
899.645	43717.6
900.018	41976.54
900.392	43544.22
900.765	43891.57
901.138	40635.21
901.511	40019.21
901.884	36752.21
902.258	33908.89
902.631	35029.42
903.003	40301.62
903.376	36362.04
903.749	40753.42
904.122	43644.55
904.495	48035.43
904.867	48674.93
905.24	42258.45
905.612	39337.51
905.985	40197.22
906.357	42036.3
906.729	40136.12
907.102	34289.94
907.474	32984.47
907.846	33198.85
908.218	32764.61
908.59	28975.94
908.962	28008.5
909.334	30151.83
909.705	31685.65
910.077	30776.29
910.449	32020.75
910.82	32898.52
911.192	36193.59
911.563	37602.9
911.935	40229.13
912.306	40273.46
912.677	41555.14
913.048	41139.93
913.419	44632.41
913.79	44825.96
914.161	48049.34
914.532	45905.27
914.903	42208.92
915.274	40069.48
915.645	39489.72
916.015	34770.25
916.386	33148.66
916.756	35285.8
917.127	36390.87
917.497	32512.9
917.868	35431.13
918.238	33704.21
918.608	34686.41
918.978	35393.04
919.348	37483.74
919.718	38723.44
920.088	37283.06
920.458	38727.56
920.828	40737.33
921.198	38624.51
921.567	41267.43
921.937	31952.24
922.306	32237.94
922.676	34775.64
923.045	29008.32
923.415	27567.56
923.784	25109.54
924.153	25829.35
924.522	25815.95
924.891	24293.88
925.26	26029.91
925.629	25414.33
925.998	29204.93
926.367	28519.11
926.736	27148.62
927.104	32342.38
927.473	34775.4
927.842	42004.29
928.21	41588.99
928.578	43706.3
928.947	41283.2
929.315	41534.66
929.683	48705.56
930.051	49101.26
930.42	56972.11
930.788	48706.9
931.156	48334.92
931.523	45330.6
931.891	41882.82
932.259	40215.61
932.627	46618.68
932.994	66016.1
933.362	54559.5
933.729	47395.09
934.097	45391.03
934.464	38442.6
934.831	44357.2
935.199	43717.63
935.566	42383.13
935.933	43017.4
936.3	52127.68
936.667	40584.54
937.034	36647.83
937.401	36244.2
937.767	31268.96
938.134	27836.87
938.501	39286.02
938.867	41892.06
939.234	70899.41
939.6	60512.19
939.967	66594.65
940.333	44601.14
940.699	37979.56
941.065	30428.32
941.431	39919.95
941.798	38548.7
942.163	50609.74
942.529	31602.01
942.895	29114.43
943.261	18819.97
943.627	24663.17
943.992	21582.75
944.358	21596.16
944.723	21660.76
945.089	21127.7
945.454	19507.66
945.82	20797.17
946.185	19992.09
946.55	23151.23
946.915	20752.7
947.28	24364.19
947.645	21473.04
948.01	19826.16
948.375	20675.99
948.74	24809.7
949.104	28937.63
949.469	41836.95
949.834	73932.77
950.198	70123.63
950.562	42090.25
950.927	35055.28
951.291	42159.8
951.655	35935.37
952.02	33720.96
952.384	25513.01
952.748	22199.42
953.112	21658.78
953.476	18813.83
953.839	17394.81
954.203	17211.31
954.567	21506.56
954.931	33881.75
955.294	28996.03
955.658	29156.55
956.021	49579.41
956.385	84003.87
956.748	123784.29
957.111	191920.65
957.474	215805.32
957.837	243290.83
958.2	183939.54
958.563	66237.6
958.926	44779.7
959.289	67929.91
959.652	75850.21
960.015	56897.41
960.377	81723.99
960.74	93387.89
961.102	161141.61
961.465	172875.77
961.827	92616.2
962.189	178052.85
962.552	123474.13
962.914	99026.46
963.276	64219.02
963.638	53116.75
964	52601.85
964.362	35568.31
964.724	34358.34
965.085	24529.86
965.447	20098.14
965.809	22893.13
966.17	22906.35
966.532	24751.76
966.893	22719.75
967.255	20684.85
967.616	24407.57
967.977	19538.41
968.338	21333.55
968.699	17545.41
969.061	17561.06
969.421	17698.84
969.782	19869.38
970.143	16780.67
970.504	17401.07
970.865	19784.57
971.225	20251.38
971.586	19814.7
971.946	28281.19
972.307	24536.27
972.667	32095.24
973.027	32987.63
973.388	39970.28
973.748	27186.03
974.108	29635.88
974.468	40106.92
974.828	30925.41
975.188	23798.27
975.548	21863.92
975.907	18362.12
976.267	20599.42
976.627	17292.84
976.986	17933.37
977.346	17118.81
977.705	16471.35
978.064	14985.04
978.424	12455.45
978.783	12870.94
979.142	14686.04
979.501	14064.59
979.86	14872.37
980.219	14329.72
980.578	18468.57
980.937	20680.75
981.296	18413.44
981.654	18930.43
982.013	29469.22
982.371	38269.81
982.73	35780.32
983.088	40461.14
983.447	43189.18
983.805	61729.85
984.163	129102.85
984.521	143501.31
984.879	210446.58
985.237	-342291.07
985.595	330301.01
985.953	81995.72
986.311	47296.18
986.669	27422.75
987.026	23728.51
987.384	31924.68
987.741	32990.05
988.099	23582.98
988.456	18784.58
988.814	17592.84
989.171	15297.15
989.528	15077.02
989.885	15929.14
990.242	12645.5
990.599	15756.96
990.956	12874.63
991.313	8991.32
991.67	7385.32
992.027	7831.65
992.383	6964.98
992.74	6114.64
993.096	6411.91
993.453	6643.45
993.809	6884.74
994.165	9154.22
994.522	8393.38
994.878	9239.28
995.234	11590.8
995.59	11409.17
995.946	10786.31
996.302	12295.3
996.658	14207.76
997.013	15671.13
997.369	18616.87
997.725	23862.06
998.08	15439.75
998.436	23783.14
998.791	32818.18
999.147	32799.2
999.502	35851.75
999.857	26072.58
1000.212	42542.32
1000.567	60504.19
1000.922	34837.23
1001.277	22108.41
1001.632	16388.6
1001.987	21119.98
1002.342	15149.29
1002.696	12114.46
1003.051	9674.64
1003.406	11705.66
1003.76	11651.11
1004.114	11478.13
1004.469	9639.3
1004.823	7988.64
1005.177	8632.75
1005.531	6842.05
1005.885	6080.2
1006.239	6869.62
1006.593	8604.21
1006.947	11518.79
1007.301	8656.06
1007.655	9442.19
1008.008	6934.47
1008.362	7790.92
1008.715	11098.83
1009.069	10061.21
1009.422	15159.19
1009.776	30370.1
1010.129	20154.2
1010.482	16870.85
1010.835	14269.75
1011.188	29662.96
1011.541	27922.53
1011.894	-171061.25
1012.247	504630.19
1012.6	34328.9
1012.952	21696.54
1013.305	11191.39
1013.657	8075.34
1014.01	7639.43
1014.362	6296.2
1014.715	5598.42
1015.067	4883.75
1015.419	4780.61
1015.771	4234.54
1016.123	3769.42
1016.475	3884.58
1016.827	4130.9
1017.179	4431.6
1017.531	4456.83
1017.883	4535.01
1018.234	4394.59
1018.586	5522.5
1018.938	5840.03
1019.289	8043.64
1019.64	9196.55
1019.992	8552.13
1020.343	7824.29
1020.694	6184.14
1021.045	5478.4
1021.396	6271.17
1021.747	6764.79
1022.098	8105.28
1022.449	5905.13
1022.8	5489.85
1023.151	3828.39
1023.501	3401.44
1023.852	3698.52
1024.202	3847.93
1024.553	4242.59
1024.903	4140.41
1025.253	3542.33
1025.604	3189.54
1025.954	3963.74
1026.304	4825.89
1026.654	5599.67
1027.004	8196.7
1027.354	13173.84
1027.703	12438
1028.053	16186.74
1028.403	23473.03
1028.753	33967.54
1029.102	46171.62
1029.452	237381.79
1029.801	10226.76
1030.15	6582.17
1030.499	5585.88
897.758	2769.02
901.051	2734.12
904.343	2769.81
907.636	2769.34
910.928	2834.05
914.22	2742.16
917.511	2750.69
920.803	2819.2
924.094	2841.79
927.384	2816.04
930.675	2780.73
933.965	2732.74
937.255	2739.23
940.544	2706.79
943.834	2632.47
947.123	2579.83
950.411	2675.72
953.7	2646.68
956.988	2609.87
960.276	2554.09
963.563	2641.1
966.851	2634.24
970.138	2695.92
973.424	2683.54
976.711	2632.98
979.997	2785.86
983.283	2815.68
986.568	2715.4
989.853	2739.63
993.138	2767.12
996.423	2845.67
999.708	2777.17
1002.992	2853.28
1006.275	2671.51
1009.559	2726.73
1012.842	2843.97
1016.125	2771.09
1019.408	2750.5
1022.69	2846.16
1025.972	2859.13
1029.254	2832.38
1032.536	2757.92
1035.817	2790.73
1039.098	2723.62
1042.379	2891.06
1045.659	2880.19
1048.939	2811.26
1052.219	2834.22
1055.498	2851.22
1058.778	2830.09
1062.057	2817.6
1065.335	2839
1068.614	2859.46
1071.892	2838.62
1075.17	2917.3
1078.447	2903.08
1081.724	2894.81
1085.001	2933.72
1088.278	2905.57
1091.554	2919.49
1094.83	2918.48
1098.106	2942.79
1101.382	2988.74
1104.657	2990.59
1107.932	2983.7
1111.206	2947.69
1114.481	2904.32
1117.755	2909.41
1121.029	2882.5
1124.302	2935.37
1127.575	2881.42
1130.848	2866.19
1134.121	2826.2
1137.393	2773.3
1140.665	2842.11
1143.937	2816.68
1147.208	2779.74
1150.48	2813.26
1153.75	2796
1157.021	2839.89
1160.291	2808.86
1163.561	2851.81
1166.831	2846.84
1170.101	2879.08
1173.37	2858.88
1176.639	2799.1
1179.907	2863.93
1183.176	2867.7
1186.444	2875.14
1189.711	2906.99
1192.979	2912.08
1196.246	2869.14
1199.513	2890.98
1202.78	2886.03
1206.046	2895.39
1209.312	2921.97
1212.578	2948.58
1215.843	2893.52
1219.108	2872.6
1222.373	2896.32
1225.638	2855.61
1228.902	2838.73
1232.166	2804.84
1235.43	2783.66
1238.693	2811.37
1241.956	2809.09
1245.219	2844.5
1248.482	2837.23
1251.744	2833.56
1255.006	2987.32
1258.268	2944.5
1261.529	2885.59
1264.79	2894.69
1268.051	3002.27
1271.312	3019.69
1274.572	2975.68
1277.832	2966.57
1281.092	2958.88
1284.351	2928.33
1287.61	2905.73
1290.869	2814.34
1294.128	2785.17
1297.386	2884.78
1300.644	2871.66
1303.902	2884.04
1307.159	2741.66
1310.416	2798.32
1313.673	2820.45
1316.93	2805.14
1320.186	2856.12
1323.442	2901.44
1326.697	2885.83
1329.953	2883.76
1333.208	2904.37
1336.463	2887.85
1339.717	2818.72
1342.972	2960.48
1346.226	2941.93
1349.479	2870.32
1352.733	2837.42
1355.986	2865.75
1359.238	2840.52
1362.491	2841.23
1365.743	2847.56
1368.995	2842.68
1372.247	2854.48
1375.498	2881.56
1378.749	2890.82
1382	2844.2
1385.251	2904.71
1388.501	2866.97
1391.751	2847.23
1395	2820.32
1398.25	2856.11
1401.499	2858.79
1404.748	2778.66
1407.996	2774.69
1411.244	2758.42
1414.492	2737.18
1417.74	2714.85
1420.987	2726.13
1424.234	2784.4
1427.481	2764.56
1430.728	2825.81
1433.974	2798.55
1437.22	2816.85
1440.465	2822.56
1443.711	2775.68
1446.956	2812.3
1450.201	2806.07
1453.445	2851.61
1456.689	2824.63
1459.933	2839.13
1463.177	2873.9
1466.42	2842.09
1469.663	2824.12
1472.906	2811.35
1476.148	2900.36
1479.391	2849.58
1482.633	2824.34
1485.874	2830.18
1489.115	2811.5
1492.356	2823.86
1495.597	2793.96
1498.838	2797.88
1502.078	2763.84
1505.318	2707.47
1508.557	2752.03
1511.797	2714.33
1515.036	2799.78
1518.274	2789.31
1521.513	2764.55
1524.751	2788.95
1527.989	2798.78
1531.227	2813.38
1534.464	2799.39
1537.701	2828.01
1540.938	2848.12
1544.174	2801.17
1547.41	2803.83
1550.646	2842.76
1553.882	2876.5
1557.117	2927.48
1560.352	2945.04
1563.587	2899.31
1566.821	2855.19
1570.055	2897.98
1573.289	2862.51
1576.523	2943.34
1579.756	2949.23
1582.989	2968.02
1586.222	2927
1589.454	2964.73
1592.686	2937.12
1595.918	2959.53
1599.15	2946.2
1602.381	3030.13
1605.612	2974.67
1608.843	3077.09
1612.073	2987
1615.303	2969.15
1618.533	2956.78
1621.762	2960.82
1624.992	2953.92
1628.221	2935.55
1631.449	2922.17
1634.678	2988.86
1637.906	2937.88
1641.134	2980.49
1644.361	2931.46
1647.588	2919.13
1650.815	2935.79
1654.042	2915.75
1657.269	2948.04
1660.495	2892.35
1663.72	2906.64
1666.946	2867.31
1670.171	2798.51
1673.396	2776.42
1676.621	2770.2
1679.845	2798.44
1683.069	2823.37
1686.293	2869.57
1689.517	2837.61
1692.74	2761.51
1695.963	2792.03
1699.185	2816.96
1702.408	2795.14
1705.63	2841.01
1708.852	2851.43
1712.073	2824.21
1715.294	2801.42
1718.515	2865.58
1721.736	2809.04
1724.956	2806.51
1728.176	2833.45
1731.396	2856.63
1734.616	2846.25
1737.835	2870.39
1741.054	2852.78
1744.272	2847.7
1747.491	2874.17
1750.709	2935.04
1753.927	2829.29
1757.144	2880.51
1760.361	2916.44
1763.578	2915.85
1766.795	2856.25
1770.011	2865.31
1773.227	2913.04
1776.443	2945.45
1779.658	2988.77
1782.874	2931.61
1786.089	2908.64
1789.303	2910.26
1792.518	2916.85
1795.732	2905.29
1798.945	2910.12
1802.159	2964.74
1805.372	2856.84
1808.585	2836.51
1811.797	2838.97
1815.01	2894.82
1818.222	2892.36
1821.434	2850.03
1824.645	2914.54
1827.856	2893.22
1831.067	2930.61
1834.278	2894.94
1837.488	2873.13
1840.698	3033.89
1843.908	2952.55
1847.117	2916.86
1850.326	2789
1853.535	2903.41
1856.744	2946.83
1859.952	2858.31
1863.16	2860.07
1866.368	2880.99
1869.575	2983.72
1872.782	2871.57
1875.989	2811.94
1879.196	2906.73
1882.402	2898.23
1885.608	2941.34
1888.814	2837.9
1892.019	2725.98
1895.224	2778.98
1898.429	2763.37
1901.634	2743.44
1904.838	2721.06
1908.042	2768.04
1911.246	2775.47
1914.449	2697.52
1917.652	2696.38
1920.855	2679.33
1924.058	2735.36
1927.26	2770.68
1930.462	2803.49
1933.664	2826.02
1936.865	2761.97
1940.066	2765.14
1943.267	2717.99
1946.467	2730.46
1949.668	2760.85
1952.868	2829.09
1956.067	2804.94
1959.267	2731.98
1962.466	2760.74
1965.665	2742.28
1968.863	2738.77
1972.061	2759.91
1975.259	2761.73
1978.457	2838.06
1981.654	2794.45
1984.852	2794.88
1988.048	2723.25
1991.245	2727.41
1994.441	2815.03
1997.637	2807.84
2000.833	2790.9
2004.028	2830.92
2007.223	2885.12
2010.418	2858.15
2013.613	2823.09
2016.807	2789.8
2020.001	2800.18
2023.194	2848.26
2026.388	2823.78
2029.581	2767.22
2032.774	2810.95
2035.966	2814.32
2039.158	2743.75
2042.35	2766.67
2045.542	2697.07
2048.733	2802.9
2051.924	2834.53
2055.115	2865.26
2058.306	2801.82
2061.496	2866.45
2064.686	2931.84
2067.875	2850.42
2071.065	2870.66
2074.254	2896.83
2077.442	2849.09
2080.631	2941.83
2083.819	2822
2087.007	2800.98
2090.195	2766.54
2093.382	2807.01
2096.569	2783.92
2099.756	2735.7
2102.942	2753.55
2106.128	2752.54
2109.314	2749.07
2112.5	2706.99
2115.685	2685.38
2118.87	2695.76
2122.055	2761.59
2125.239	2726.06
2128.424	2697.59
2131.608	2810.69
2134.791	2793.62
2137.974	2857.37
2141.157	2842.72
2144.34	2786.08
2147.523	2809.65
2150.705	2819.08
2153.887	2803.28
2157.068	2747.82
2160.25	2754.17
2163.431	2796.28
2166.611	2735.68
2169.792	2750.74
2172.972	2638.96
2176.152	2725.71
2179.331	2763.2
2182.511	2738.97
2185.69	2768.72
2188.868	2757.92
2192.047	2820.88
2195.225	2804.39
2198.403	2753.65
2201.58	2747.51
2204.758	2746.67
2207.935	2833.39
2211.111	2711.28
2214.288	2695.5
2217.464	2735.01
2220.64	2712.72
2223.815	2771.08
2226.991	2685.61
2230.166	2707.9
2233.34	2734.31
2236.515	2764.26
2239.689	2838.02
2242.863	2778.29
2246.036	2837.55
2249.209	2841.83
2252.382	2881.22
2255.555	2863.89
2258.727	2797.29
2261.9	2841.27
2265.071	2830.63
2268.243	2833.78
2271.414	2760.5
2274.585	2716.84
2277.756	2788.51
2280.926	2746.07
2284.096	2789.16
2287.266	2688.93
2290.436	2745.83
2293.605	2777.09
2296.774	2804.34
2299.942	2831.75
2303.111	2848.73
2306.279	2895.83
2309.447	2884.54
2312.614	2858.88
2315.781	2877.22
2318.948	2845.96
2322.115	2885.51
2325.281	2788.83
2328.447	2813.71
2331.613	2790.53
2334.779	2758.29
2337.944	2763.83
2341.109	2760.83
2344.274	2740.17
2347.438	2705.89
2350.602	2730.87
2353.766	2749.33
2356.929	2733.99
2360.092	2779.4
2363.255	2723.58
2366.418	2647.67
2369.58	2772.46
2372.742	2537.43
2375.904	2556.96
2379.066	2528.93
2382.227	2568.46
2385.388	2532.23
2388.548	2450.25
2391.709	2511.11
2394.869	2482.93
2398.029	2595.78
2401.188	2614.06
2404.347	2539.81
2407.506	2697.84
2410.665	2725.14
2413.823	2735.13
2416.981	2685.31
2420.139	2721.34
2423.296	2776.62
2426.453	2746.81
2429.61	2774.61
2432.767	2697.36
2435.923	2735.56
2439.079	2694.37
2442.235	2746.03
2445.391	2668.08
2448.546	2693.94
2451.701	2749.64
2454.855	2713.47
2458.009	2770.15
2461.163	2778.86
2464.317	2730.61
2467.471	2768.88
2470.624	2807.41
2473.777	2785.26
2476.929	2797.53
2480.082	2824.73
2483.234	2788.24
2486.385	2741.19
2489.537	2734.04
2492.688	2688.47
2495.839	2706.57
2498.989	2716.24
2502.14	2696.37
2505.29	2681.78
2508.439	2704.82
2511.589	2623.58
2514.738	2639.94
2517.887	2672.72
2521.035	2735.77
2524.183	2724.83
2527.331	2703.19
2530.479	2669.31
2533.627	2684.23
