Data from C_2_DEC_CT_2N_Splice17_12-29-06-970.txt Node
Date: Sat Mar 14 12:29:06 EDT 2020
User: sa697716
Spectrometer: FLMS03696
Trigger mode: 0
Integration Time (sec): 3.180400E-1
Scans to average: 20
Electric dark correction enabled: true
Nonlinearity correction enabled: true
Boxcar width: 5
XAxis mode: Wavelengths
Number of Pixels in Spectrum: 2048
>>>>>Begin Spectral Data<<<<<
187.83	-268481.29
188.298	1949.43
188.766	1065.64
189.233	964.68
189.701	1340.04
190.169	1792.4
190.636	656.26
191.104	593.44
191.571	68.17
192.039	-111.64
192.506	-55.36
192.974	541
193.441	-1113.19
193.908	-330.89
194.375	-103.93
194.842	1.2
195.31	-3.37
195.777	130.46
196.244	372.95
196.711	383.75
197.177	483.51
197.644	695.91
198.111	1228.24
198.578	1744.43
199.045	1360.5
199.511	2221.26
199.978	2564.33
200.445	2207.88
200.911	2422.19
201.378	2659.69
201.844	2433.22
202.31	4144.48
202.777	4328.66
203.243	2406.56
203.709	2301.17
204.176	2776.19
204.642	2293.43
205.108	2128.06
205.574	1718.75
206.04	1558.51
206.506	1465.96
206.972	1389.29
207.438	1346.48
207.903	1533.83
208.369	1355.14
208.835	1356.43
209.301	1417.04
209.766	1450.31
210.232	1429.17
210.697	1782.15
211.163	2212.4
211.628	3369.24
212.094	2839.89
212.559	3521.41
213.024	2215.78
213.49	2711.09
213.955	2637.89
214.42	2584.67
214.885	2430.41
215.35	2347.81
215.815	2286.65
216.28	2454.43
216.745	2010.92
217.21	2203.96
217.675	2051.89
218.14	2348.49
218.604	2663.56
219.069	3107.28
219.534	3329.72
219.998	3942.56
220.463	4877.83
220.927	6100.91
221.392	5823.66
221.856	5981.33
222.32	7615.61
222.785	9479.75
223.249	12025.47
223.713	13551.28
224.177	13631.95
224.642	17604.02
225.106	21809.19
225.57	23970.33
226.034	17927.51
226.497	27378.8
226.961	24815.98
227.425	29029.32
227.889	32384.78
228.353	32509.8
228.816	67391.48
229.28	64765.27
229.744	54766.4
230.207	33328.43
230.671	32840.45
231.134	54432.45
231.597	62891.08
232.061	63109.02
232.524	61651.62
232.987	42506.69
233.45	38379.79
233.914	34466.38
234.377	35395.05
234.84	32446.78
235.303	38337.03
235.766	42863.7
236.229	44335.08
236.691	27997.3
237.154	31498.96
237.617	23735.3
238.08	24367.45
238.542	28527.58
239.005	20411.03
239.468	20259.5
239.93	19097.58
240.393	17359.76
240.855	15246.25
241.317	15642.88
241.78	19049.08
242.242	19695.22
242.704	21267.42
243.166	18513.42
243.629	16819.22
244.091	19394.54
244.553	21270.11
245.015	22903.07
245.477	29649.66
245.939	43527.57
246.4	46243.56
246.862	44972.94
247.324	42438.45
247.786	47561.49
248.247	62409.75
248.709	64497.56
249.17	48273.67
249.632	45552.23
250.093	52810.6
250.555	45675.94
251.016	27875.06
251.477	26439.64
251.939	28548.13
252.4	29973.22
252.861	35679.84
253.322	33219.15
253.783	39581.04
254.244	51384.82
254.705	40549.65
255.166	36105.89
255.627	35601.3
256.088	50242.71
256.549	53453.64
257.009	46092.12
257.47	55945.89
257.931	45627.19
258.391	34249.77
258.852	35333.48
259.312	37115.38
259.773	45934.42
260.233	38864.3
260.694	32813.33
261.154	37293.01
261.614	29953.06
262.074	26834.35
262.534	27952.42
262.994	26371.94
263.455	35212.74
263.915	29731.69
264.374	28040.4
264.834	30647.92
265.294	34055.7
265.754	35341.48
266.214	33532.64
266.673	31505.32
267.133	39835.44
267.593	39571.18
268.052	48539.8
268.512	42301.42
268.971	51085.51
269.431	56110.43
269.89	50322.74
270.349	75592.64
270.809	84467.44
271.268	76011.92
271.727	170728.67
272.186	110710.32
272.645	83198.5
273.104	60098.3
273.563	87061.1
274.022	68620.58
274.481	58482.16
274.94	45138.08
275.399	33581.7
275.857	39130.82
276.316	53015.15
276.775	47268.03
277.233	46620.22
277.692	43660.05
278.15	49455.92
278.609	50919.46
279.067	47136.48
279.525	43819.34
279.984	56662.58
280.442	68086.44
280.9	67130.62
281.358	44196.43
281.816	41174.81
282.274	40359.25
282.732	41773.95
283.19	42027.56
283.648	36316.76
284.106	38750.62
284.564	39440.73
285.021	36560.81
285.479	27287.44
285.937	24860.91
286.394	21815.28
286.852	22489.97
287.309	23669
287.767	22868.64
288.224	21728.89
288.682	23873.05
289.139	26216.68
289.596	23995.02
290.053	24988.46
290.511	31622.79
290.968	38388.23
291.425	52190.14
291.882	43423.98
292.339	37794.15
292.796	37553.19
293.252	35437.99
293.709	28126.54
294.166	25225.13
294.623	27932.05
295.079	26817.27
295.536	26921.81
295.992	24470.79
296.449	24212.73
296.905	25194.02
297.362	24186.27
297.818	25471.04
298.274	26446.88
298.731	26997.91
299.187	26721.11
299.643	28708.04
300.099	34764.14
300.555	38147.05
301.011	31883.81
301.467	30721.69
301.923	35999.61
302.379	35152.16
302.835	34538.11
303.291	34600.72
303.746	39420.62
304.202	49860.86
304.658	50087.38
305.113	33706.49
305.569	33037.29
306.024	35248.43
306.479	33629.74
306.935	28354.77
307.39	30990.37
307.845	28621.03
308.301	28785.5
308.756	28073.07
309.211	27053.99
309.666	27709.64
310.121	34361.16
310.576	34914.45
311.031	34667.67
311.486	39725.83
311.94	39732.19
312.395	53180.99
312.85	100069.81
313.305	492811.38
313.759	2548563.35
314.214	184911.67
314.668	146688.8
315.123	123522.09
315.577	44310.07
316.032	39439.96
316.486	49430.84
316.94	38996.34
317.394	27158.08
317.849	21132.24
318.303	20030.97
318.757	18926.23
319.211	20942.91
319.665	18351.21
320.119	18592.99
320.572	26714.74
321.026	24997.19
321.48	20835.15
321.934	22748.98
322.387	22833.5
322.841	24656.52
323.295	22137.41
323.748	25532.09
324.202	25892.06
324.655	31127.61
325.108	43474.98
325.562	30724.41
326.015	36527.32
326.468	27609.34
326.921	30891.59
327.374	28805.45
327.827	30004.24
328.28	34015.78
328.733	22806.48
329.186	20085.76
329.639	19149.51
330.092	16145.93
330.545	15381.36
330.997	15497.6
331.45	16928.12
331.903	19833.4
332.355	34155.69
332.808	33208.58
333.26	27381.94
333.713	29710.95
334.165	29947.96
334.617	39921.33
335.069	32321.5
335.522	58435.53
335.974	64755.21
336.426	59191.3
336.878	41042.98
337.33	20800.07
337.782	20317.01
338.234	25460.67
338.686	30468.86
339.137	36087.99
339.589	34067.22
340.041	26689.98
340.493	22972.61
340.944	23547.99
341.396	25386.7
341.847	21348.23
342.299	25195.82
342.75	30773.75
343.201	26913.42
343.653	30996.36
344.104	38152.38
344.555	30051.74
345.006	46826.59
345.457	35822.08
345.908	28495.53
346.359	26819.82
346.81	21872.49
347.261	23093.06
347.712	22747.67
348.163	24428.03
348.613	24718.88
349.064	23079.23
349.515	20213.04
349.965	20750.94
350.416	25060.62
350.866	27530.18
351.317	31184.9
351.767	51651.93
352.217	65280.77
352.668	54192.21
353.118	49645.81
353.568	47956.97
354.018	37896.03
354.468	39956.38
354.918	28630.6
355.368	25001.13
355.818	35349.65
356.268	101736.02
356.718	425881.72
357.168	105970.08
357.617	53273.2
358.067	59272.31
358.517	55536.62
358.966	65188.64
359.416	73162.39
359.865	79126.46
360.315	94236.47
360.764	43975.31
361.213	24609.15
361.663	23324.92
362.112	28793
362.561	46455.34
363.01	35084.65
363.459	29549.74
363.908	32009.89
364.357	27153.7
364.806	45882.35
365.255	31571.75
365.703	28887.13
366.152	28939.85
366.601	23481.16
367.05	19062.5
367.498	17328.04
367.947	18091.39
368.395	18812.46
368.844	16637.25
369.292	20079.64
369.74	13900.06
370.189	21318.74
370.637	24989.47
371.085	21578.84
371.533	26267.89
371.981	25344.43
372.429	24135.13
372.877	25175.25
373.325	21050.42
373.773	21433.62
374.221	19088.87
374.669	23678.43
375.116	20445.09
375.564	20605.6
376.012	23036.98
376.459	18984.84
376.907	22700.01
377.354	27441.55
377.801	25505.26
378.249	29299
378.696	37462.82
379.143	45334.09
379.591	48233.06
380.038	81473.94
380.485	58797.59
380.932	63418.39
381.379	57915.01
381.826	42536.94
382.273	30249.92
382.72	26501.08
383.166	25799.31
383.613	16731.58
384.06	15062.82
384.506	17425.97
384.953	12793.83
385.4	12874.22
385.846	11265.36
386.292	10983.66
386.739	10739.99
387.185	10613.83
387.631	10586.61
388.078	10261.98
388.524	10953.36
388.97	10100.75
389.416	8402.96
389.862	8937.56
390.308	8465.22
390.754	8593.32
391.2	9320.78
391.645	9538.82
392.091	9106.55
392.537	8794.5
392.983	8802.52
393.428	8654.78
393.874	9284.79
394.319	9318.67
394.765	8817.21
395.21	9075.29
395.655	8504.6
396.101	7967.79
396.546	7193.38
396.991	7262.95
397.436	6758.33
397.881	6538.49
398.326	6198.8
398.771	5869.22
399.216	5137.88
399.661	4637.91
400.106	4620.49
400.551	4730.44
400.995	4244.54
401.44	4200.29
401.885	3957.28
402.329	4004.9
402.774	3844.82
403.218	3725.43
403.663	3588.26
404.107	3693.34
404.551	3718.2
404.995	3414.75
405.44	3300.77
405.884	3354.64
406.328	3248.29
406.772	3238.77
407.216	2950.41
407.66	2854.24
408.104	2714.09
408.547	2547.91
408.991	2467.2
409.435	2378.92
409.879	2346.55
410.322	2317.62
410.766	2238.58
411.209	2132.91
411.653	2046.29
412.096	2004.3
412.54	2007.08
412.983	1995.1
413.426	1999.99
413.869	2001.62
414.312	1963.83
414.756	1893.02
415.199	1805.5
415.642	1755.52
416.085	1756.68
416.527	1748.48
416.97	1778.66
417.413	1688.18
417.856	1671.99
418.298	1657.65
418.741	1648.94
419.184	1646.01
419.626	1718.69
420.069	1723.38
420.511	1736.3
420.953	1699.65
421.396	1686.04
421.838	1646.55
422.28	1686.2
422.722	1694.57
423.164	1717.79
423.606	1687.74
424.048	1685.16
424.49	1599.28
424.932	1588.27
425.374	1563.64
425.816	1592.6
426.258	1618.69
426.699	1633.12
427.141	1607.35
427.582	1633.76
428.024	1626.39
428.465	1614.7
428.907	1577.38
429.348	1554.88
429.789	1551.88
430.231	1516.33
430.672	1532.95
431.113	1495.48
431.554	1471.67
431.995	1432.05
432.436	1376.75
432.877	1341.79
433.318	1316.77
433.759	1308.46
434.2	1307.54
434.64	1291.47
435.081	1294.15
435.522	1224.47
435.962	1178.53
436.403	1151.12
436.843	1165.55
437.284	1139.22
437.724	1107.49
438.164	1108.16
438.604	1081.12
439.045	1040.61
439.485	996.81
439.925	972.6
440.365	948.42
440.805	935.48
441.245	920.71
441.685	885.44
442.125	878.21
442.564	883.25
443.004	860.95
443.444	858.7
443.883	858.09
444.323	852.02
444.762	854.24
445.202	862.35
445.641	875.46
446.081	870.12
446.52	876.72
446.959	866.83
447.398	843.18
447.837	832.01
448.276	814.6
448.716	819.25
449.154	823.79
449.593	804.46
450.032	801.56
450.471	786.82
450.91	786.15
451.349	784.86
451.787	780.27
452.226	792.49
452.664	793.5
453.103	795.62
453.541	796.06
453.98	795.81
454.418	799.92
454.856	786.58
455.295	784.69
455.733	791.07
456.171	794.92
456.609	797.22
457.047	797.97
457.485	809.48
457.923	810.12
458.361	798.17
458.798	799.95
459.236	797.56
459.674	803.86
460.111	807.69
460.549	799.02
460.987	794.42
461.424	790.6
461.862	784.86
462.299	772.1
462.736	770.99
463.173	773.05
463.611	765.33
464.048	763.2
464.485	767.56
464.922	759.95
465.359	757.07
465.796	747.01
466.233	740.58
466.67	734.44
467.106	734.18
467.543	726.49
467.98	716.96
468.416	697.44
468.853	692.11
469.29	672.44
469.726	665.32
470.162	646.93
470.599	639.55
471.035	633.71
471.471	616.97
471.907	611.78
472.344	608.32
472.78	610.41
473.216	617.9
473.652	610.24
474.088	608.56
474.523	605.94
474.959	611.28
475.395	604.58
475.831	600.96
476.266	605.2
476.702	602.37
477.138	595.98
477.573	593.64
478.008	591.66
478.444	594.81
478.879	600.59
479.314	603.05
479.75	602.29
480.185	604.96
480.62	609.98
481.055	613.02
481.49	618.16
481.925	627.39
482.36	638.64
482.795	656.12
483.229	673.69
483.664	687.33
484.099	690.33
484.534	701.14
484.968	708.9
485.403	711.97
485.837	711.68
486.271	711.3
486.706	711.14
487.14	703.08
487.574	691.66
488.009	685.14
488.443	679.18
488.877	686.25
489.311	688.94
489.745	696.08
490.179	702.13
490.613	713.82
491.046	719.11
491.48	724.64
491.914	725.48
492.348	731.29
492.781	735.04
493.215	736.6
493.648	736.89
494.082	741.92
494.515	742.43
494.948	750.06
495.382	755.97
495.815	760.01
496.248	765.86
496.681	778.77
497.114	789.82
497.547	800.45
497.98	813.56
498.413	819.75
498.846	829.02
499.279	837.29
499.711	841.2
500.144	841.41
500.577	850.6
501.009	860.3
501.442	869.66
501.874	869.85
502.306	870.47
502.739	877.46
503.171	891.2
503.603	892.96
504.036	901.13
504.468	905.11
504.9	915.58
505.332	922.18
505.764	924.44
506.196	929.1
506.627	941.6
507.059	952.79
507.491	959.74
507.923	955.58
508.354	969.29
508.786	977.54
509.217	993
509.649	1005.37
510.08	1021.1
510.512	1035.51
510.943	1047.97
511.374	1056.91
511.805	1074.96
512.237	1090.52
512.668	1119.78
513.099	1142.98
513.53	1166.8
513.961	1184.7
514.391	1212.43
514.822	1242.39
515.253	1273.97
515.684	1294.85
516.114	1319.47
516.545	1336.03
516.975	1357.02
517.406	1370.92
517.836	1370.04
518.267	1372.78
518.697	1386.04
519.127	1387.26
519.558	1389.59
519.988	1389.16
520.418	1396.43
520.848	1409.85
521.278	1414.71
521.708	1432.91
522.138	1441.63
522.567	1468.15
522.997	1490.07
523.427	1500.85
523.857	1513.88
524.286	1521.32
524.716	1532.77
525.145	1547.85
525.575	1555.43
526.004	1566.79
526.433	1554.2
526.863	1552.28
527.292	1541.16
527.721	1543.5
528.15	1547.74
528.579	1546.65
529.008	1555.28
529.437	1574.86
529.866	1585.86
530.295	1599.62
530.724	1610.57
531.152	1632.91
531.581	1644.75
532.01	1660.2
532.438	1667.5
532.867	1679.52
533.295	1695.59
533.723	1699.88
534.152	1697.33
534.58	1696.43
535.008	1682.06
535.436	1682.4
535.865	1689.2
536.293	1702.4
536.721	1716
537.149	1739.53
537.576	1741.46
538.004	1752.07
538.432	1758.71
538.86	1757.76
539.287	1763.41
539.715	1776.09
540.143	1778.49
540.57	1774.71
540.998	1770.91
541.425	1749.8
541.852	1729.33
542.28	1727.73
542.707	1713.38
543.134	1700.81
543.561	1696.14
543.988	1689.99
544.415	1689.04
544.842	1683.44
545.269	1677.29
545.696	1678.95
546.123	1690.16
546.549	1680.05
546.976	1668.9
547.403	1668.21
547.829	1669.31
548.256	1670.99
548.682	1667.56
549.108	1660.93
549.535	1660.42
549.961	1661.77
550.387	1648.04
550.813	1642.51
551.24	1649.32
551.666	1649.03
552.092	1639.3
552.518	1633.3
552.943	1627.83
553.369	1633.97
553.795	1638.69
554.221	1639.11
554.646	1636.3
555.072	1647.71
555.498	1652.73
555.923	1661.14
556.349	1675.62
556.774	1683.39
557.199	1685.16
557.625	1690.98
558.05	1685.88
558.475	1695.93
558.9	1696.6
559.325	1690.48
559.75	1685.85
560.175	1681.28
560.6	1675.37
561.025	1674.87
561.449	1677.35
561.874	1684.21
562.299	1689.19
562.723	1697.02
563.148	1689.09
563.572	1693.84
563.997	1704.13
564.421	1710.46
564.846	1711.49
565.27	1716.69
565.694	1714.71
566.118	1727.51
566.542	1736.05
566.966	1731.2
567.39	1729.55
567.814	1720.72
568.238	1721.59
568.662	1728.66
569.086	1731.42
569.509	1740.57
569.933	1728.12
570.357	1725.05
570.78	1707.07
571.204	1696.55
571.627	1690.05
572.05	1689.53
572.474	1692.04
572.897	1683.1
573.32	1677.39
573.743	1671.1
574.166	1654.74
574.589	1656.14
575.012	1648.49
575.435	1649.48
575.858	1642.58
576.281	1632.63
576.704	1618.65
577.126	1607.3
577.549	1597.75
577.972	1589.19
578.394	1580.34
578.817	1575.6
579.239	1558.06
579.661	1548.06
580.084	1533.12
580.506	1521.22
580.928	1519.13
581.35	1509.41
581.772	1507.25
582.194	1495.01
582.616	1482.71
583.038	1469.69
583.46	1459.72
583.882	1458.26
584.303	1462.75
584.725	1460.41
585.147	1464.26
585.568	1474.61
585.99	1488.52
586.411	1496.2
586.833	1511.79
587.254	1515.04
587.675	1529.37
588.096	1542.94
588.518	1538.55
588.939	1523.85
589.36	1522.53
589.781	1511.92
590.202	1484.38
590.623	1475.56
591.043	1472.33
591.464	1460.07
591.885	1457.22
592.305	1452.28
592.726	1440.7
593.147	1441.67
593.567	1436.24
593.987	1429.19
594.408	1424.16
594.828	1423.08
595.248	1417.71
595.669	1400.54
596.089	1394.02
596.509	1388.25
596.929	1375.74
597.349	1375.46
597.769	1367.05
598.189	1361.15
598.608	1362.78
599.028	1365.12
599.448	1365.57
599.867	1353
600.287	1349.03
600.706	1346.04
601.126	1337.11
601.545	1336.47
601.965	1336.07
602.384	1331.16
602.803	1335.1
603.222	1331.52
603.641	1325.09
604.061	1322.21
604.48	1319.03
604.898	1328.31
605.317	1333.51
605.736	1336.48
606.155	1333.89
606.574	1325.75
606.992	1332.37
607.411	1328.34
607.829	1320.22
608.248	1318.73
608.666	1317.11
609.085	1317.01
609.503	1308.82
609.921	1303.74
610.339	1306.32
610.758	1306.74
611.176	1303.95
611.594	1295.57
612.012	1292.49
612.43	1297.7
612.847	1304.91
613.265	1306.66
613.683	1313.74
614.101	1316.84
614.518	1313.79
614.936	1304.85
615.353	1292.6
615.771	1288.96
616.188	1289.69
616.606	1287.88
617.023	1281.75
617.44	1269.04
617.857	1263.42
618.274	1255.67
618.691	1250.38
619.108	1241.77
619.525	1236.28
619.942	1241.55
620.359	1246.18
620.776	1242.11
621.192	1237.95
621.609	1235.68
622.026	1241.85
622.442	1248.61
622.859	1251.44
623.275	1245.16
623.691	1251.3
624.108	1264.95
624.524	1281.48
624.94	1282.08
625.356	1292.26
625.772	1306.3
626.188	1318.5
626.604	1320.38
627.02	1316.58
627.436	1316.18
627.852	1323.12
628.268	1336.25
628.683	1326.24
629.099	1317.64
629.514	1311.38
629.93	1315.4
630.345	1320.33
630.761	1316.94
631.176	1321.44
631.591	1315.63
632.007	1308.91
632.422	1306.98
632.837	1295.98
633.252	1293.9
633.667	1283.96
634.082	1277.14
634.497	1265.42
634.911	1246.07
635.326	1242.61
635.741	1226.17
636.155	1217.78
636.57	1220.96
636.984	1221.12
637.399	1223.69
637.813	1224.32
638.228	1224.25
638.642	1228.16
639.056	1219.14
639.47	1222.05
639.884	1215.98
640.298	1211.01
640.712	1211
641.126	1198.89
641.54	1192.53
641.954	1188.76
642.368	1177.56
642.781	1171.64
643.195	1156.13
643.609	1158.52
644.022	1153.07
644.436	1149.49
644.849	1138.32
645.262	1128.1
645.676	1131.31
646.089	1127.24
646.502	1112.93
646.915	1108.23
647.328	1091.19
647.741	1089.78
648.154	1076.19
648.567	1072.55
648.98	1060.34
649.393	1060.82
649.805	1056.44
650.218	1049.38
650.631	1033.3
651.043	1026.26
651.456	1020.6
651.868	1021.43
652.28	1038.87
652.693	1053.29
653.105	1061.33
653.517	1071.29
653.929	1072.81
654.341	1078.97
654.753	1066.7
655.165	1074.63
655.577	1073.01
655.989	1069.57
656.401	1062.98
656.813	1026.56
657.224	1006.36
657.636	977.81
658.047	960.64
658.459	941.24
658.87	933.35
659.282	920.95
659.693	899.67
660.104	885.36
660.515	872.75
660.926	871.68
661.338	869.29
661.749	864.05
662.159	855.66
662.57	850.93
662.981	846.53
663.392	838.43
663.803	844.33
664.213	842.38
664.624	838.87
665.035	841.15
665.445	826.52
665.855	819.1
666.266	810.8
666.676	807.84
667.086	799.47
667.497	799.3
667.907	793.74
668.317	783.73
668.727	780.23
669.137	780.38
669.547	778.32
669.956	780.35
670.366	782.52
670.776	783.55
671.186	786.93
671.595	789.43
672.005	792.69
672.414	790.83
672.824	789.59
673.233	794.14
673.642	796.27
674.052	797.41
674.461	799.97
674.87	804.64
675.279	802.12
675.688	803.92
676.097	804.12
676.506	800.63
676.915	815.12
677.323	816.42
677.732	813.54
678.141	811.37
678.549	799.84
678.958	797.45
679.366	794.25
679.775	797.21
680.183	805.59
680.592	810.87
681	814.69
681.408	807.13
681.816	813.95
682.224	822.28
682.632	831.68
683.04	861.74
683.448	885.58
683.856	917.2
684.264	952.93
684.671	984.49
685.079	1023.72
685.487	1066.94
685.894	1128.53
686.302	1177.28
686.709	1215.17
687.116	1260.86
687.524	1298.06
687.931	1328.94
688.338	1352.56
688.745	1371.22
689.152	1393.83
689.559	1426.59
689.966	1459.01
690.373	1467.56
690.78	1497.63
691.187	1547.35
691.593	1583.27
692	1610.28
692.407	1656.5
692.813	1717.96
693.22	1762.93
693.626	1811.65
694.032	1847.22
694.439	1908.64
694.845	1953.84
695.251	2012.91
695.657	2066.74
696.063	2148.08
696.469	2206.55
696.875	2261.47
697.281	2286.08
697.687	2321.52
698.093	2348.47
698.498	2410.33
698.904	2452.32
699.31	2524.67
699.715	2574.11
700.12	2646.91
700.526	2656.51
700.931	2712.36
701.337	2751.7
701.742	2776.84
702.147	2844.55
702.552	2865.41
702.957	2911.71
703.362	2924.31
703.767	2944.41
704.172	2972.68
704.577	2925.84
704.981	2961.85
705.386	2971.08
705.791	2959.16
706.195	3018.11
706.6	3021.71
707.004	3086.42
707.408	3056.25
707.813	3074.14
708.217	3058.55
708.621	3056.81
709.025	3137.74
709.43	3135.78
709.834	3184.95
710.237	3240.74
710.641	3223.14
711.045	3239.81
711.449	3231.79
711.853	3253.67
712.256	3288.08
712.66	3318.77
713.064	3379.74
713.467	3413.74
713.87	3507.28
714.274	3542.99
714.677	3636.21
715.08	3772.93
715.484	3913.79
715.887	4085.66
716.29	4250.02
716.693	4425.48
717.096	4625.85
717.499	4739
717.901	4757.59
718.304	4776.27
718.707	4793.62
719.109	4703.18
719.512	4674.23
719.915	4556.94
720.317	4505.57
720.719	4542.77
721.122	4515.11
721.524	4469.27
721.926	4431.7
722.328	4514.05
722.731	4502.19
723.133	4525.39
723.535	4685.9
723.937	4701.44
724.338	4743.69
724.74	4775.34
725.142	4732.29
725.544	4731.15
725.945	4758.38
726.347	4752.74
726.748	4744.06
727.15	4757.85
727.551	4725.21
727.952	4700.67
728.354	4674.24
728.755	4671.64
729.156	4637.95
729.557	4614.92
729.958	4509.11
730.359	4456.85
730.76	4437.77
731.161	4385.51
731.562	4361.64
731.962	4361.39
732.363	4306.78
732.763	4252.83
733.164	4282.41
733.564	4223.48
733.965	4140.57
734.365	4112.15
734.766	4133.43
735.166	4100.85
735.566	4055.2
735.966	4034.24
736.366	4030.52
736.766	3977.98
737.166	4004.45
737.566	3969.83
737.966	3949.6
738.365	3981.53
738.765	3975.46
739.165	3914.23
739.564	3889.8
739.964	3928.35
740.363	3889.13
740.763	3885.77
741.162	3877.6
741.561	3850.28
741.96	3811.54
742.36	3824.77
742.759	3829.19
743.158	3859.7
743.557	3870.22
743.955	3903.69
744.354	3863.84
744.753	3910.17
745.152	3877.29
745.55	3920.88
745.949	3913.53
746.348	3914.84
746.746	3929.16
747.144	3897.17
747.543	3878.9
747.941	3919.5
748.339	3862.35
748.737	3855.22
749.136	3846.87
749.534	3898.64
749.932	3875.84
750.33	3895.95
750.727	3942.1
751.125	3923.24
751.523	3910.42
751.921	3947.62
752.318	3920.32
752.716	3970.71
753.113	3983.87
753.511	4005.44
753.908	4008
754.305	3994.73
754.703	4046.01
755.1	4095.41
755.497	4145.19
755.894	4301.59
756.291	4450.39
756.688	4723.73
757.085	5086.65
757.482	5597.22
757.878	6159.01
758.275	6661.48
758.672	7357.7
759.068	7925.81
759.465	8736.88
759.861	9779.94
760.258	10989.02
760.654	11610.73
761.05	11519.12
761.447	10991.37
761.843	10232.61
762.239	9443.89
762.635	9091.39
763.031	8747.99
763.427	8255.95
763.822	7741.84
764.218	7232.64
764.614	6574.42
765.01	6132.31
765.405	5845.9
765.801	5628.55
766.196	5351.16
766.592	5196.59
766.987	4935.67
767.382	4757
767.778	4685.06
768.173	4576.83
768.568	4517.82
768.963	4413.52
769.358	4429.39
769.753	4391.08
770.148	4318.91
770.542	4318.87
770.937	4291.9
771.332	4366.81
771.726	4384.86
772.121	4335.2
772.515	4378.79
772.91	4364.2
773.304	4423.84
773.699	4371.04
774.093	4415.83
774.487	4463.72
774.881	4498.59
775.275	4499.53
775.669	4463.97
776.063	4501.65
776.457	4526.64
776.851	4466.35
777.245	4461.47
777.638	4488.43
778.032	4580.48
778.425	4550.09
778.819	4588.12
779.212	4556.09
779.606	4521.18
779.999	4540.23
780.392	4526.02
780.786	4598.97
781.179	4617.96
781.572	4654.86
781.965	4666.65
782.358	4619.77
782.751	4663.62
783.143	4622.32
783.536	4679.99
783.929	4715.8
784.322	4809.84
784.714	4834.28
785.107	4826.2
785.499	4884.24
785.891	4865.69
786.284	4849.82
786.676	4967.92
787.068	4956.76
787.46	4999.45
787.852	5015.81
788.245	5086.22
788.636	5107.39
789.028	5166.55
789.42	5200.03
789.812	5207.09
790.204	5285.77
790.595	5366.85
790.987	5205.1
791.378	5222.27
791.77	5327.45
792.161	5436.75
792.553	5480.22
792.944	5394.21
793.335	5332.3
793.726	5394.81
794.117	5469.5
794.508	5578.58
794.899	5553.14
795.29	5665.81
795.681	5711.25
796.072	5592.54
796.463	5451.67
796.853	5463.04
797.244	5589.01
797.634	5618.32
798.025	5615.32
798.415	5624.05
798.806	5701.76
799.196	5770.73
799.586	5813.77
799.976	5782.92
800.366	5975.37
800.756	6163.04
801.146	6127.04
801.536	6148.82
801.926	6208.27
802.316	6227.48
802.706	6288.99
803.095	6185.04
803.485	6267.58
803.874	6298.33
804.264	6508.87
804.653	6486.88
805.043	6607.35
805.432	6696.48
805.821	6699.47
806.21	6718.32
806.599	6818.36
806.988	6852.96
807.377	6935.57
807.766	7044.65
808.155	7280.12
808.544	7061.87
808.933	7075.86
809.321	7061.11
809.71	7305.23
810.098	7436.82
810.487	7817.67
810.875	8213.73
811.264	8231.27
811.652	8478.91
812.04	8594.77
812.428	8729.96
812.816	9361.4
813.204	9706.37
813.592	10154.68
813.98	10425.53
814.368	10351.43
814.756	10743.35
815.144	10675.61
815.531	11056.48
815.919	10989.47
816.306	11244.57
816.694	10989.37
817.081	11038.57
817.469	11324.43
817.856	11323.02
818.243	11547.7
818.63	11864.39
819.017	11521.01
819.404	11568.76
819.791	11883.02
820.178	12387.73
820.565	12593.94
820.952	13358.6
821.339	12948.48
821.725	13094.11
822.112	12486.37
822.498	12452.05
822.885	12558.5
823.271	12475.76
823.657	12817.5
824.044	12821.08
824.43	12881.2
824.816	12858.99
825.202	12506.03
825.588	13337.07
825.974	13346.13
826.36	13758.31
826.746	13786.05
827.132	14072.79
827.517	14054.19
827.903	13414.51
828.289	13442.2
828.674	12807.73
829.06	12721.63
829.445	13037.78
829.83	13334.26
830.216	13724.27
830.601	14041.45
830.986	13711.99
831.371	13601.83
831.756	14060.09
832.141	13709.9
832.526	13708.22
832.911	13943.35
833.295	13835.17
833.68	14224.15
834.065	13719.45
834.449	12977.56
834.834	12910.78
835.218	12906.25
835.603	13185.38
835.987	13016.27
836.371	13700.38
836.755	13616.48
837.139	13940.97
837.524	14147.2
837.908	14001.28
838.291	14046
838.675	14093.33
839.059	14264.05
839.443	14250.85
839.827	14058.29
840.21	14442.23
840.594	14314.2
840.977	14485.22
841.361	14468.96
841.744	14775.47
842.127	14639.88
842.511	14835.04
842.894	15321.93
843.277	15632
843.66	16077.67
844.043	16149.08
844.426	15498.4
844.809	15247.58
845.191	15275.06
845.574	14897.43
845.957	14599.68
846.339	14516.22
846.722	14094.77
847.104	14155.98
847.487	14017.88
847.869	14028.75
848.252	14261.76
848.634	14530.29
849.016	14747.07
849.398	14843.67
849.78	15549.69
850.162	15554.95
850.544	15896.26
850.926	16410.49
851.307	16347.21
851.689	16579.09
852.071	16949.93
852.452	17219.55
852.834	17202.14
853.215	17529.41
853.597	17664.33
853.978	17900.97
854.359	18278.74
854.741	17475.97
855.122	17395.61
855.503	17148.7
855.884	17257.77
856.265	17209.43
856.646	17303.84
857.026	16989.07
857.407	16932.93
857.788	17057.55
858.169	17289.5
858.549	16601.79
858.93	17109.67
859.31	17143.21
859.69	17321.49
860.071	16983.35
860.451	16804.95
860.831	16197.5
861.211	17139.61
861.591	17599.68
861.971	17577.93
862.351	17734.88
862.731	18044.65
863.111	18254.75
863.491	18529.85
863.87	19242.6
864.25	19533.06
864.629	19211.75
865.009	19628.64
865.388	20330.1
865.768	21774.29
866.147	21692.09
866.526	20490.05
866.905	20746.53
867.284	21915.63
867.663	20809.52
868.042	19951.99
868.421	19888.18
868.8	20218.92
869.179	20414.84
869.558	19235.04
869.936	17726.76
870.315	18039.9
870.693	18489.35
871.072	19921.31
871.45	18971.67
871.828	19219.75
872.207	20197.92
872.585	19891.94
872.963	20436.02
873.341	19734.72
873.719	19488.32
874.097	19261.66
874.475	19623.02
874.853	20061.97
875.23	19223.88
875.608	20021.94
875.986	21649.31
876.363	20708.48
876.741	21340.86
877.118	20792.43
877.495	21817.16
877.873	22175.32
878.25	23334.42
878.627	22389.14
879.004	22699.96
879.381	22595.39
879.758	22011.6
880.135	20495.52
880.512	21671.54
880.889	21092.21
881.265	20881.41
881.642	20714.18
882.019	21084.81
882.395	20656.76
882.772	21491.15
883.148	20564.73
883.524	20485.3
883.901	20372.08
884.277	20688.4
884.653	20558.48
885.029	21162.82
885.405	23437.13
885.781	23252.59
886.157	22290.85
886.532	22564.51
886.908	22550.82
887.284	25087.06
887.659	25916.49
888.035	26718.8
888.411	27415.05
888.786	27780.77
889.161	28739.42
889.537	28221.51
889.912	29153.47
890.287	29128.97
890.662	29888.45
891.037	29351.06
891.412	27364.86
891.787	27083.18
892.162	26142.93
892.536	26742.69
892.911	25743.42
893.286	25198.31
893.66	24170.4
894.035	24764.6
894.409	26960.1
894.784	25869.41
895.158	26291.59
895.532	27861.59
895.906	28631.05
896.281	29316.94
896.655	28867.87
897.029	32994.4
897.402	34367.16
897.776	38267.85
898.15	38149.76
898.524	37747.29
898.898	38241.46
899.271	42805.31
899.645	37053.32
900.018	35594.23
900.392	36902.41
900.765	37180.4
901.138	34405.98
901.511	33875.21
901.884	31114.98
902.258	28696.93
902.631	29659.32
903.003	34162.99
903.376	30835.07
903.749	34578.44
904.122	37012.13
904.495	40751.5
904.867	41275.98
905.24	35820.55
905.612	33355.3
905.985	34098.66
906.357	35657.93
906.729	34033.85
907.102	29061.7
907.474	27959.27
907.846	28167.76
908.218	27791.72
908.59	24565.91
908.962	23748.61
909.334	25578.1
909.705	26872.33
910.077	26100.03
910.449	27156.2
910.82	27916.72
911.192	30721.15
911.563	31924.05
911.935	34138.08
912.306	34171.73
912.677	35302.85
913.048	34965.79
913.419	37929.2
913.79	38149.39
914.161	40902.55
914.532	39125.14
914.903	35943.9
915.274	34134.81
915.645	33613.16
916.015	29586.28
916.386	28224.39
916.756	30032.36
917.127	30998.65
917.497	27698.05
917.868	30158.89
918.238	28651.81
918.608	29474.57
918.978	30100.54
919.348	31883.22
919.718	32986.48
920.088	31774.83
920.458	33034.17
920.828	34760.47
921.198	32943.59
921.567	35211.6
921.937	27274.89
922.306	27537.12
922.676	29685.12
923.045	24773.82
923.415	23539.56
923.784	21426.77
924.153	22041.33
924.522	22016.65
924.891	20694.69
925.26	22165.68
925.629	21633.33
925.998	24853.21
926.367	24266.79
926.736	23126.53
927.104	27545.58
927.473	29616.26
927.842	35767.52
928.21	35428.69
928.578	37269.51
928.947	35266.43
929.315	35509.4
929.683	41679.74
930.051	42073.69
930.42	48887.96
930.788	41814.47
931.156	41522.67
931.523	38930.16
931.891	35988.18
932.259	34572.68
932.627	40050.63
932.994	56670.03
933.362	46840.92
933.729	40691.07
934.097	38924.55
934.464	32934.04
934.831	37974.44
935.199	37409.43
935.566	36299.01
935.933	36756.94
936.3	44545.72
936.667	34690.4
937.034	31301.98
937.401	30954.44
937.767	26721.67
938.134	23812.16
938.501	33616.12
938.867	35858.07
939.234	60697.28
939.6	51764.88
939.967	57129.44
940.333	38208.82
940.699	32505.16
941.065	26087.49
941.431	34167.52
941.798	32953.16
942.163	43186.5
942.529	26963.4
942.895	24815.99
943.261	16024.26
943.627	21030.27
943.992	18394.6
944.358	18416.24
944.723	18490.79
945.089	18022.25
945.454	16662.78
945.82	17770.88
946.185	17094.24
946.55	19809.33
946.915	17760.46
947.28	20847.96
947.645	18343.49
948.01	16939.67
948.375	17672.68
948.74	21193.72
949.104	24716.8
949.469	35663.39
949.834	63112.94
950.198	59855.05
950.562	35833.67
950.927	29875.99
951.291	35960.13
951.655	30648.17
952.02	28781.24
952.384	21769.85
952.748	18956.14
953.112	18488.12
953.476	16097.58
953.839	14870.79
954.203	14725.61
954.567	18425.51
954.931	28997.5
955.294	24830.01
955.658	24978.15
956.021	42485.16
956.385	72114.49
956.748	106409.71
957.111	165092.46
957.474	185340.08
957.837	208872.67
958.2	158009.26
958.563	56881.22
958.926	38501.61
959.289	58422.16
959.652	65352.58
960.015	49059.48
960.377	70328.38
960.74	80335.02
961.102	138647.07
961.465	149016.23
961.827	79944.66
962.189	153418.06
962.552	106348.89
962.914	85265.11
963.276	55375.54
963.638	45722.02
964	45300.86
964.362	30639.04
964.724	29602.38
965.085	21138.87
965.447	17350.65
965.809	19771.54
966.17	19805.73
966.532	21431.46
966.893	19663.4
967.255	17901.98
967.616	21148.71
967.977	16937.72
968.338	18520.92
968.699	15210.73
969.061	15223.66
969.421	15307.74
969.782	17164.26
970.143	14511.88
970.504	15046.45
970.865	17098.96
971.225	17472.96
971.586	17098.67
971.946	24381.8
972.307	21159.67
972.667	27698.24
973.027	28475.41
973.388	34526.66
973.748	23472.37
974.108	25558.46
974.468	34590.4
974.828	26710.42
975.188	20557.72
975.548	18879.85
975.907	15850.65
976.267	17767.56
976.627	14942.12
976.986	15495.02
977.346	14778.91
977.705	14223.94
978.064	12960.15
978.424	10796.16
978.783	11166.35
979.142	12746.83
979.501	12207.25
979.86	12915.9
980.219	12455.63
980.578	16053.8
980.937	17968.8
981.296	16032.89
981.654	16518.33
982.013	25726.09
982.371	33381.27
982.73	31174.98
983.088	35323.94
983.447	37756.25
983.805	53955.72
984.163	112865.42
984.521	125297.91
984.879	183942.87
985.237	-299185.78
985.595	288524.63
985.953	71537.79
986.311	41254.94
986.669	23953.94
987.026	20661.63
987.384	27768.36
987.741	28739.59
988.099	20565.28
988.456	16390.74
988.814	15330.37
989.171	13331.47
989.528	13149.68
989.885	13909.35
990.242	11037.27
990.599	13738.29
990.956	11241.06
991.313	7863.5
991.67	6448.68
992.027	6838.05
992.383	6086.71
992.74	5353.62
993.096	5608.84
993.453	5816.56
993.809	6031.49
994.165	8025.28
994.522	7373.28
994.878	8133.08
995.234	10205.58
995.59	10077.95
995.946	9511.63
996.302	10844
996.658	12525.41
997.013	13827.59
997.369	16418.15
997.725	21000.77
998.08	13590.39
998.436	20860.28
998.791	28784.36
999.147	28728.96
999.502	31369.59
999.857	22842.82
1000.212	37226.09
1000.567	52987.63
1000.922	30482.59
1001.277	19346.3
1001.632	14361
1001.987	18572.02
1002.342	13354.25
1002.696	10685.54
1003.051	8538.93
1003.406	10326.28
1003.76	10280.58
1004.114	10139.21
1004.469	8537.29
1004.823	7084.04
1005.177	7639.84
1005.531	6059.28
1005.885	5373.23
1006.239	6062.11
1006.593	7604.51
1006.947	10179.59
1007.301	7643.93
1007.655	8326.48
1008.008	6119.46
1008.362	6867.88
1008.715	9794.31
1009.069	8887.09
1009.422	13384.38
1009.776	26809.17
1010.129	17808.78
1010.482	14879.06
1010.835	12553.84
1011.188	26155.93
1011.541	24646.46
1011.894	-150538.97
1012.247	441935.12
1012.6	30095.06
1012.952	19054.89
1013.305	9794.31
1013.657	7071.92
1014.01	6694.07
1014.362	5510.76
1014.715	4922.86
1015.067	4276.19
1015.419	4178.05
1015.771	3703.1
1016.123	3316.2
1016.475	3406.81
1016.827	3625.67
1017.179	3900.92
1017.531	3924.05
1017.883	4015.84
1018.234	3902.94
1018.586	4913.02
1018.938	5220.15
1019.289	7213.38
1019.64	8245.36
1019.992	7615.35
1020.343	6987.46
1020.694	5530.82
1021.045	4901.45
1021.396	5603.3
1021.747	6040.75
1022.098	7208.65
1022.449	5227.28
1022.8	4833.83
1023.151	3365.69
1023.501	3003.74
1023.852	3278.71
1024.202	3390.41
1024.553	3707.02
1024.903	3629.59
1025.253	3101.45
1025.604	2772.63
1025.954	3440.57
1026.304	4188.64
1026.654	4904.93
1027.004	7155.49
1027.354	11426.74
1027.703	10746.82
1028.053	14092.92
1028.403	20673.09
1028.753	29739.5
1029.102	40124.69
1029.452	204757.77
1029.801	8753.51
1030.15	5630.73
1030.499	4725.23
897.758	2699.52
901.051	2662.56
904.343	2700.19
907.636	2700.88
910.928	2763.78
914.22	2671.22
917.511	2679.44
920.803	2744.93
924.094	2766.29
927.384	2742.44
930.675	2710.01
933.965	2662.67
937.255	2667.22
940.544	2633.71
943.834	2569.19
947.123	2515.48
950.411	2611.83
953.7	2582.66
956.988	2549.15
960.276	2492.03
963.563	2576.91
966.851	2571.4
970.138	2630.2
973.424	2621.62
976.711	2571.29
979.997	2710.86
983.283	2742.49
986.568	2646.73
989.853	2668.41
993.138	2691.81
996.423	2771.62
999.708	2706.02
1002.992	2774.15
1006.275	2605.55
1009.559	2655.46
1012.842	2770.78
1016.125	2700.25
1019.408	2679.84
1022.69	2770.67
1025.972	2783.87
1029.254	2760.74
1032.536	2688.92
1035.817	2719.83
1039.098	2658.56
1042.379	2810.92
1045.659	2805.56
1048.939	2737.67
1052.219	2757.39
1055.498	2774.16
1058.778	2754
1062.057	2742.81
1065.335	2763.28
1068.614	2781.03
1071.892	2759.58
1075.17	2838.15
1078.447	2827.06
1081.724	2815.76
1085.001	2850.55
1088.278	2826.66
1091.554	2840.79
1094.83	2838.25
1098.106	2860.54
1101.382	2908.72
1104.657	2909.96
1107.932	2903.69
1111.206	2865.45
1114.481	2820.79
1117.755	2827.94
1121.029	2809.01
1124.302	2858.3
1127.575	2806.19
1130.848	2793.19
1134.121	2754.43
1137.393	2699.27
1140.665	2769.22
1143.937	2743.63
1147.208	2707.76
1150.48	2744.4
1153.75	2728
1157.021	2763.3
1160.291	2733.4
1163.561	2774.66
1166.831	2771.17
1170.101	2803.02
1173.37	2782.76
1176.639	2723.81
1179.907	2786.79
1183.176	2789.92
1186.444	2798.2
1189.711	2827.89
1192.979	2837.97
1196.246	2794.56
1199.513	2814.25
1202.78	2807.37
1206.046	2815.45
1209.312	2839.93
1212.578	2864.76
1215.843	2815.3
1219.108	2790.94
1222.373	2812.61
1225.638	2775.7
1228.902	2754.8
1232.166	2725.07
1235.43	2705.51
1238.693	2730.58
1241.956	2730.68
1245.219	2765.46
1248.482	2762.42
1251.744	2756.9
1255.006	2908.46
1258.268	2864.39
1261.529	2806.45
1264.79	2816.2
1268.051	2920.94
1271.312	2938.69
1274.572	2897.16
1277.832	2887.53
1281.092	2882.92
1284.351	2852.97
1287.61	2828.75
1290.869	2740.09
1294.128	2714.5
1297.386	2811.09
1300.644	2798.45
1303.902	2809.32
1307.159	2669.57
1310.416	2725.7
1313.673	2748.05
1316.93	2729.54
1320.186	2777.03
1323.442	2823.77
1326.697	2811.51
1329.953	2808.82
1333.208	2826.05
1336.463	2809.63
1339.717	2744.11
1342.972	2884.7
1346.226	2864.02
1349.479	2795.19
1352.733	2763.54
1355.986	2791.17
1359.238	2765.4
1362.491	2767.12
1365.743	2771.81
1368.995	2769.82
1372.247	2781.88
1375.498	2806.65
1378.749	2812.39
1382	2769.91
1385.251	2826.42
1388.501	2793.52
1391.751	2773.23
1395	2747.18
1398.25	2781.29
1401.499	2783.59
1404.748	2705.54
1407.996	2702.08
1411.244	2687
1414.492	2666.55
1417.74	2646.03
1420.987	2656.76
1424.234	2710.8
1427.481	2693.56
1430.728	2750.41
1433.974	2727.64
1437.22	2743.73
1440.465	2750.3
1443.711	2705.55
1446.956	2742.15
1450.201	2734.39
1453.445	2777.71
1456.689	2752.11
1459.933	2765.04
1463.177	2796.78
1466.42	2770.63
1469.663	2746.18
1472.906	2737.93
1476.148	2818.37
1479.391	2778.33
1482.633	2751.51
1485.874	2755.84
1489.115	2737.67
1492.356	2751.26
1495.597	2723.44
1498.838	2727.65
1502.078	2692.6
1505.318	2641.56
1508.557	2685.17
1511.797	2651.4
1515.036	2726.29
1518.274	2717.35
1521.513	2694.81
1524.751	2718.56
1527.989	2726.67
1531.227	2739.57
1534.464	2728.67
1537.701	2753.38
1540.938	2773.89
1544.174	2726.06
1547.41	2728.86
1550.646	2764.75
1553.882	2798.5
1557.117	2849.69
1560.352	2867.29
1563.587	2822.04
1566.821	2782.04
1570.055	2819.04
1573.289	2787.85
1576.523	2866.03
1579.756	2870.57
1582.989	2888.71
1586.222	2852.42
1589.454	2886.9
1592.686	2859.88
1595.918	2883.51
1599.15	2871.26
1602.381	2950.65
1605.612	2900.94
1608.843	2997.68
1612.073	2908.79
1615.303	2894.78
1618.533	2883.77
1621.762	2882.87
1624.992	2877.56
1628.221	2859.87
1631.449	2840.73
1634.678	2905.89
1637.906	2858.09
1641.134	2900.25
1644.361	2856.07
1647.588	2845.79
1650.815	2860.67
1654.042	2840.79
1657.269	2872.08
1660.495	2818
1663.72	2843.29
1666.946	2806.34
1670.171	2741.99
1673.396	2718.02
1676.621	2707.78
1679.845	2730.28
1683.069	2751.39
1686.293	2795.48
1689.517	2764.93
1692.74	2692.86
1695.963	2723.9
1699.185	2737.07
1702.408	2716.58
1705.63	2758.81
1708.852	2769.09
1712.073	2742.25
1715.294	2722.8
1718.515	2787.66
1721.736	2732.69
1724.956	2728.76
1728.176	2755.43
1731.396	2776.64
1734.616	2766.28
1737.835	2790.8
1741.054	2775.31
1744.272	2769.24
1747.491	2798.93
1750.709	2855.99
1753.927	2753.5
1757.144	2803.06
1760.361	2841.53
1763.578	2840.64
1766.795	2780.47
1770.011	2790.58
1773.227	2833.84
1776.443	2865.34
1779.658	2909.07
1782.874	2854.7
1786.089	2832.89
1789.303	2833.24
1792.518	2843.7
1795.732	2828.59
1798.945	2835.15
1802.159	2888.2
1805.372	2785.42
1808.585	2766.86
1811.797	2771
1815.01	2824.6
1818.222	2821.22
1821.434	2792.55
1824.645	2855.34
1827.856	2831.24
1831.067	2870.76
1834.278	2834.32
1837.488	2814.61
1840.698	2966.04
1843.908	2890.83
1847.117	2854.54
1850.326	2728.74
1853.535	2841.1
1856.744	2867.98
1859.952	2781.23
1863.16	2785.55
1866.368	2807.15
1869.575	2904.13
1872.782	2798.05
1875.989	2740.47
1879.196	2830
1882.402	2822.62
1885.608	2868.63
1888.814	2765.68
1892.019	2660.74
1895.224	2714.49
1898.429	2698.05
1901.634	2676.5
1904.838	2657.13
1908.042	2703.66
1911.246	2711.11
1914.449	2637.71
1917.652	2634.89
1920.855	2617.64
1924.058	2671.35
1927.26	2706.41
1930.462	2735.41
1933.664	2759
1936.865	2697.95
1940.066	2702.66
1943.267	2649.13
1946.467	2664.74
1949.668	2691.9
1952.868	2758.99
1956.067	2735.35
1959.267	2664.36
1962.466	2693.51
1965.665	2675.85
1968.863	2671.81
1972.061	2690.04
1975.259	2688.52
1978.457	2770.9
1981.654	2726.71
1984.852	2728.02
1988.048	2658
1991.245	2661.92
1994.441	2746.15
1997.637	2737.04
2000.833	2724.59
2004.028	2762.41
2007.223	2813.58
2010.418	2788.11
2013.613	2748.83
2016.807	2715.58
2020.001	2729.1
2023.194	2773.24
2026.388	2750.22
2029.581	2695.54
2032.774	2740.6
2035.966	2739.5
2039.158	2668.78
2042.35	2699.68
2045.542	2628.31
2048.733	2731.76
2051.924	2762.65
2055.115	2788.76
2058.306	2730.86
2061.496	2790.72
2064.686	2855.65
2067.875	2770.8
2071.065	2791.96
2074.254	2820.95
2077.442	2769.69
2080.631	2860.76
2083.819	2744.58
2087.007	2728.24
2090.195	2697.55
2093.382	2734.74
2096.569	2713.42
2099.756	2667.11
2102.942	2688.94
2106.128	2688.69
2109.314	2683.64
2112.5	2642.6
2115.685	2621.29
2118.87	2633.33
2122.055	2696.95
2125.239	2657.63
2128.424	2631.88
2131.608	2741.1
2134.791	2722.8
2137.974	2784.34
2141.157	2769.97
2144.34	2715.58
2147.523	2738.38
2150.705	2750.03
2153.887	2732.23
2157.068	2675.87
2160.25	2685.83
2163.431	2721.91
2166.611	2666
2169.792	2680.26
2172.972	2570.67
2176.152	2654.97
2179.331	2691.77
2182.511	2667.65
2185.69	2696.34
2188.868	2688.39
2192.047	2746.58
2195.225	2730
2198.403	2684.55
2201.58	2676.03
2204.758	2675.55
2207.935	2760.58
2211.111	2642.67
2214.288	2625.74
2217.464	2665.07
2220.64	2642.34
2223.815	2697.93
2226.991	2616.89
2230.166	2637.36
2233.34	2664.4
2236.515	2693.04
2239.689	2765.54
2242.863	2707.41
2246.036	2763.22
2249.209	2767.37
2252.382	2805.48
2255.555	2787.56
2258.727	2722.86
2261.9	2766.39
2265.071	2758.07
2268.243	2761.3
2271.414	2688.15
2274.585	2645.92
2277.756	2716.63
2280.926	2673.84
2284.096	2716.51
2287.266	2619.55
2290.436	2676.55
2293.605	2708.44
2296.774	2733.17
2299.942	2757.68
2303.111	2774.74
2306.279	2821.15
2309.447	2810.89
2312.614	2784.11
2315.781	2805.34
2318.948	2773.76
2322.115	2813.27
2325.281	2715.42
2328.447	2737.31
2331.613	2715.98
2334.779	2686.79
2337.944	2691.21
2341.109	2688.51
2344.274	2669.64
2347.438	2636.16
2350.602	2661.24
2353.766	2677.27
2356.929	2663.66
2360.092	2707.38
2363.255	2655.71
2366.418	2584.1
2369.58	2701.76
2372.742	2478.3
2375.904	2496.15
2379.066	2468.45
2382.227	2507.57
2385.388	2470.87
2388.548	2393.47
2391.709	2450.53
2394.869	2425.32
2398.029	2531.94
2401.188	2549.67
2404.347	2480.8
2407.506	2628.4
2410.665	2656.85
2413.823	2668.4
2416.981	2620.32
2420.139	2651.58
2423.296	2705.64
2426.453	2676.03
2429.61	2705.38
2432.767	2630.53
2435.923	2666.27
2439.079	2635.25
2442.235	2685.77
2445.391	2610.75
2448.546	2633.06
2451.701	2687.26
2454.855	2657.24
2458.009	2710.69
2461.163	2717.93
2464.317	2670.12
2467.471	2705.39
2470.624	2746.8
2473.777	2710.09
2476.929	2724.22
2480.082	2749.72
2483.234	2715.04
2486.385	2670.76
2489.537	2663.01
2492.688	2621.11
2495.839	2638.34
2498.989	2650.32
2502.14	2632.39
2505.29	2612.56
2508.439	2640.73
2511.589	2560.05
2514.738	2576.92
2517.887	2609.11
2521.035	2668.42
2524.183	2657.23
2527.331	2633.78
2530.479	2603.18
2533.627	2615.12
