Data from C_2_HIR_WI_4N_Splice17_12-33-43-007.txt Node
Date: Sat Mar 14 12:33:43 EDT 2020
User: sa697716
Spectrometer: FLMS03696
Trigger mode: 0
Integration Time (sec): 3.180400E-1
Scans to average: 20
Electric dark correction enabled: true
Nonlinearity correction enabled: true
Boxcar width: 5
XAxis mode: Wavelengths
Number of Pixels in Spectrum: 2048
>>>>>Begin Spectral Data<<<<<
187.83	-328197.67
188.298	2385.06
188.766	1263.74
189.233	1103.4
189.701	1497.39
190.169	2173.76
190.636	804.06
191.104	588.28
191.571	10.27
192.039	-103.43
192.506	-150.23
192.974	408.12
193.441	-598.21
193.908	-192.08
194.375	-91.91
194.842	-106.98
195.31	-36.56
195.777	117.05
196.244	333.64
196.711	378.5
197.177	502.49
197.644	719.53
198.111	1274.72
198.578	1785.98
199.045	1444.93
199.511	2360.37
199.978	2738.95
200.445	2376.15
200.911	2612.75
201.378	2892.24
201.844	2629.04
202.31	4502.24
202.777	4737.99
203.243	2625.04
203.709	2520.78
204.176	3022.49
204.642	2521.81
205.108	2397.24
205.574	1924.98
206.04	1769.96
206.506	1668.59
206.972	1577.53
207.438	1549.03
207.903	1752.93
208.369	1553.78
208.835	1550.98
209.301	1620.89
209.766	1647.15
210.232	1632.59
210.697	2032.51
211.163	2525.54
211.628	3832.64
212.094	3303.08
212.559	4064.88
213.024	2534.44
213.49	3113.44
213.955	3052.26
214.42	2999.17
214.885	2823.66
215.35	2724.37
215.815	2664
216.28	2854.58
216.745	2353.84
217.21	2543.61
217.675	2368.82
218.14	2719.94
218.604	3094.72
219.069	3619.26
219.534	3880.11
219.998	4615.07
220.463	5701.16
220.927	7137.61
221.392	6804.92
221.856	6954.97
222.32	8853.47
222.785	11016.17
223.249	13988.19
223.713	15687.63
224.177	15754.57
224.642	20293.49
225.106	25055.68
225.57	27457.12
226.034	20475.25
226.497	31248.3
226.961	28294.98
227.425	33061.64
227.889	36758.13
228.353	36784.55
228.816	76100.21
229.28	72862.69
229.744	61530.33
230.207	37398.67
230.671	36770.87
231.134	60851.17
231.597	70041.49
232.061	69956.94
232.524	68156.55
232.987	46884.53
233.45	42197.76
233.914	37787.69
234.377	38690.87
234.84	35378.29
235.303	41636.2
235.766	46434.39
236.229	47926.49
236.691	30172.05
237.154	33873.69
237.617	25462.25
238.08	26078.15
238.542	30468.57
239.005	21757.65
239.468	21569.67
239.93	20306.11
240.393	18459.22
240.855	16189.49
241.317	16557.3
241.78	20132.55
242.242	20786.66
242.704	22401.5
243.166	19470.86
243.629	17666.96
244.091	20345.29
244.553	22263.17
245.015	23892
245.477	30852.37
245.939	45188.4
246.4	47910.22
246.862	46487.84
247.324	43784.59
247.786	48939.59
248.247	64145.14
248.709	66191.58
249.17	49474.5
249.632	46562.29
250.093	53929.61
250.555	46496.08
251.016	28304.02
251.477	26822.5
251.939	28939.96
252.4	30327.8
252.861	36041.81
253.322	33449.98
253.783	39787.55
254.244	51559.11
254.705	40655.49
255.166	36130.86
255.627	35562.92
256.088	50127.18
256.549	53198.54
257.009	45764.47
257.47	55491.13
257.931	45163.42
258.391	33840.11
258.852	34803.37
259.312	36459.13
259.773	45016.23
260.233	38019.92
260.694	32069.2
261.154	36349.35
261.614	29147.71
262.074	26078.13
262.534	27077.47
262.994	25497.12
263.455	33940.3
263.915	28593.02
264.374	26913.25
264.834	29358.54
265.294	32535.72
265.754	33664.3
266.214	31876.16
266.673	29869.71
267.133	37661.82
267.593	37367.97
268.052	45720.17
268.512	39773.02
268.971	47963.17
269.431	52572.92
269.89	47096.16
270.349	70580.05
270.809	78668.54
271.268	70624.11
271.727	158179.08
272.186	102384.53
272.645	76751.61
273.104	55362.61
273.563	80092.04
274.022	62954.83
274.481	53502.99
274.94	41115.28
275.399	30518.02
275.857	35507.98
276.316	48052.74
276.775	42787.6
277.233	42088.24
277.692	39364.7
278.15	44484.54
278.609	45701.41
279.067	42268.89
279.525	39230.99
279.984	50695.87
280.442	60871.06
280.9	59957.4
281.358	39371.63
281.816	36678.83
282.274	35894.08
282.732	37073.74
283.19	37231.3
283.648	32128.41
284.106	34177.58
284.564	34749.22
285.021	32153.97
285.479	23934.53
285.937	21763.45
286.394	19081.31
286.852	19581.02
287.309	20560.59
287.767	19820.57
288.224	18818.72
288.682	20633.79
289.139	22596.52
289.596	20626.85
290.053	21438.78
290.511	27020.42
290.968	32679.57
291.425	44292.66
291.882	36846.25
292.339	32033.88
292.796	31782.59
293.252	29932.37
293.709	23750.91
294.166	21302.25
294.623	23523.32
295.079	22535.51
295.536	22623.33
295.992	20533.4
296.449	20282.72
296.905	21043.57
297.362	20160.26
297.818	21163.01
298.274	21936.25
298.731	22307.47
299.187	22040.13
299.643	23655.97
300.099	28597.81
300.555	31311.59
301.011	26131.03
301.467	25179.79
301.923	29451.9
302.379	28710.27
302.835	28170.1
303.291	28171.71
303.746	32025.24
304.202	40420.32
304.658	40538.1
305.113	27209.95
305.569	26660.47
306.024	28431.78
306.479	27025.48
306.935	22759.08
307.39	24854.33
307.845	22931.56
308.301	23026.85
308.756	22405.69
309.211	21526.49
309.666	22018.35
310.121	27330.28
310.576	27700.08
311.031	27414.49
311.486	31350.96
311.94	31274.86
312.395	41736.41
312.85	78321.81
313.305	384006.2
313.759	1986529.7
314.214	143808.78
314.668	113850.06
315.123	95593.89
315.577	34262.51
316.032	30425.87
316.486	38061.49
316.94	29998.98
317.394	20853.89
317.849	16198.09
318.303	15339.78
318.757	14454.64
319.211	15967.43
319.665	13951.86
320.119	14096
320.572	20158.75
321.026	18791.75
321.48	15636.71
321.934	17010.42
322.387	17016.58
322.841	18355.42
323.295	16482.09
323.748	18974.49
324.202	19223.14
324.655	23074.5
325.108	32187.99
325.562	22709.24
326.015	26996.09
326.468	20389.06
326.921	22832.42
327.374	21336.58
327.827	22191.32
328.28	25096.64
328.733	16800.71
329.186	14768.42
329.639	14060.97
330.092	11838.58
330.545	11283.2
330.997	11374.78
331.45	12391.45
331.903	14482.91
332.355	24816.15
332.808	24079.67
333.26	19826.62
333.713	21475.47
334.165	21623.9
334.617	28834.87
335.069	23290.72
335.522	42015.29
335.974	46515.41
336.426	42504.25
336.878	29427.84
337.33	14932.37
337.782	14546.92
338.234	18185.62
338.686	21717.31
339.137	25730.71
339.589	24234.32
340.041	18953.49
340.493	16281.43
340.944	16611.71
341.396	17879.83
341.847	15012.18
342.299	17698.7
342.75	21625.56
343.201	18900.14
343.653	21742.82
344.104	26656.03
344.555	20949.55
345.006	32561.13
345.457	24897.26
345.908	19807.46
346.359	18615.34
346.81	15140.9
347.261	15912.61
347.712	15657.24
348.163	16779.41
348.613	17022.87
349.064	15855.57
349.515	13854.27
349.965	14216.11
350.416	17100.89
350.866	18747.33
351.317	21190.57
351.767	35114.84
352.217	44384.72
352.668	36807.01
353.118	33688.63
353.568	32410.92
354.018	25685.38
354.468	27102.05
354.918	19412.36
355.368	16966.53
355.818	23935.25
356.268	68712.1
356.718	287448.68
357.168	71390.11
357.617	35771.3
358.067	39710.17
358.517	37126.11
358.966	43405.62
359.416	48667.01
359.865	52641.72
360.315	62701.45
360.764	29267.36
361.213	16397.93
361.663	15510.5
362.112	19156.61
362.561	30914.46
363.01	23309.15
363.459	19599.93
363.908	21199.68
364.357	18019.46
364.806	30398.13
365.255	20897.02
365.703	19094.45
366.152	19120.76
366.601	15526.71
367.05	12600.06
367.498	11452.74
367.947	11973.17
368.395	12424.99
368.844	10991.53
369.292	13196.63
369.74	9088.6
370.189	13872.69
370.637	16270.41
371.085	14006.78
371.533	16948.82
371.981	16323.29
372.429	15545.34
372.877	16142.98
373.325	13536.11
373.773	13784.2
374.221	12247.63
374.669	15192.54
375.116	13120.78
375.564	13201.06
376.012	14748.62
376.459	12173.15
376.907	14502.11
377.354	17509.49
377.801	16335.41
378.249	18723.61
378.696	23899.46
379.143	28992.02
379.591	30921.11
380.038	52473.98
380.485	37895.54
380.932	40941.27
381.379	37559.37
381.826	27648.99
382.273	19635.57
382.72	17156.76
383.166	16704.03
383.613	10845.46
384.06	9759.61
384.506	11283.32
384.953	8270.35
385.4	8333.09
385.846	7296.05
386.292	7095.37
386.739	6942.94
387.185	6857.69
387.631	6872.36
388.078	6687.66
388.524	7168.79
388.97	6631.69
389.416	5542.25
389.862	5900.56
390.308	5593.53
390.754	5691.82
391.2	6186.27
391.645	6339.41
392.091	6096.58
392.537	5908.52
392.983	5926.12
393.428	5845.85
393.874	6277.58
394.319	6319.21
394.765	6018.02
395.21	6206.97
395.655	5831.49
396.101	5478.37
396.546	4970.4
396.991	5016.88
397.436	4668.36
397.881	4522.3
398.326	4280.5
398.771	4064.47
399.216	3559.15
399.661	3208.03
400.106	3202.63
400.551	3295.06
400.995	2963.63
401.44	2932.27
401.885	2764.63
402.329	2794.8
402.774	2682.59
403.218	2604.95
403.663	2504.02
404.107	2576.79
404.551	2598.96
404.995	2381.17
405.44	2286.76
405.884	2322.87
406.328	2253.59
406.772	2248.91
407.216	2050.35
407.66	1986.1
408.104	1887.28
408.547	1774.61
408.991	1716.5
409.435	1649.56
409.879	1631.16
410.322	1615.01
410.766	1559.13
411.209	1481.88
411.653	1421
412.096	1391.57
412.54	1389.82
412.983	1381.31
413.426	1385.14
413.869	1386.13
414.312	1366.24
414.756	1315.32
415.199	1252.72
415.642	1219.9
416.085	1221.8
416.527	1212.49
416.97	1231.28
417.413	1170.57
417.856	1156.16
418.298	1142.55
418.741	1133.24
419.184	1127.24
419.626	1173.34
420.069	1174.68
420.511	1178.84
420.953	1154.9
421.396	1147.34
421.838	1118.77
422.28	1142.55
422.722	1149.44
423.164	1164.39
423.606	1145.3
424.048	1141.7
424.49	1085.52
424.932	1076.98
425.374	1059.56
425.816	1074.64
426.258	1091.02
426.699	1102.85
427.141	1087.59
427.582	1103.23
428.024	1096.58
428.465	1090.38
428.907	1063.35
429.348	1048.93
429.789	1050.01
430.231	1028.59
430.672	1039.74
431.113	1015.71
431.554	999.6
431.995	972.72
432.436	937.49
432.877	915.35
433.318	899.18
433.759	897.72
434.2	896.51
434.64	886.44
435.081	888.26
435.522	845.16
435.962	813.67
436.403	797.17
436.843	807.97
437.284	790.81
437.724	769.35
438.164	768.37
438.604	749.52
439.045	723.81
439.485	696.2
439.925	681.47
440.365	663.64
440.805	656.13
441.245	647.94
441.685	625.67
442.125	620.82
442.564	626.22
443.004	615.4
443.444	614.15
443.883	615.36
444.323	609.02
444.762	610.47
445.202	618.81
445.641	630.89
446.081	627.73
446.52	634.12
446.959	629.33
447.398	615.89
447.837	608.24
448.276	598.62
448.716	605
449.154	612.48
449.593	599.67
450.032	599.56
450.471	589.49
450.91	591.15
451.349	590.9
451.787	589.68
452.226	599.71
452.664	602.75
453.103	604.44
453.541	604.78
453.98	605.92
454.418	611.29
454.856	602.69
455.295	600.15
455.733	604.91
456.171	607.98
456.609	609.34
457.047	609.95
457.485	619.69
457.923	621.85
458.361	614.13
458.798	615.6
459.236	613.56
459.674	618.26
460.111	622.95
460.549	617.76
460.987	615.19
461.424	612.9
461.862	608.87
462.299	599.37
462.736	598.96
463.173	599.9
463.611	594.39
464.048	593.53
464.485	597.89
464.922	592.59
465.359	588.13
465.796	582.79
466.233	578.75
466.67	574.16
467.106	571.49
467.543	564.58
467.98	557.91
468.416	543.04
468.853	537.35
469.29	521.11
469.726	515.86
470.162	502.6
470.599	493.94
471.035	487.85
471.471	475.37
471.907	472.34
472.344	469.42
472.78	471.02
473.216	476.01
473.652	471.06
474.088	469.29
474.523	466.5
474.959	471.84
475.395	468.68
475.831	466.69
476.266	469.67
476.702	468.18
477.138	463.55
477.573	461.51
478.008	460.09
478.444	462.71
478.879	467.78
479.314	470.72
479.75	469.86
480.185	471.39
480.62	475.81
481.055	478.38
481.49	482.49
481.925	489.75
482.36	498.95
482.795	513.3
483.229	526.96
483.664	538.17
484.099	540.57
484.534	550.05
484.968	556.28
485.403	558.82
485.837	558.94
486.271	558.1
486.706	559.22
487.14	553.7
487.574	545.72
488.009	542.25
488.443	537.93
488.877	544.53
489.311	546.98
489.745	554.59
490.179	561.01
490.613	573.2
491.046	579.93
491.48	585.92
491.914	589.24
492.348	595.28
492.781	600.24
493.215	604.1
493.648	606.93
494.082	613.83
494.515	616.77
494.948	625.72
495.382	632.31
495.815	639.19
496.248	646.93
496.681	660.05
497.114	673.71
497.547	686.81
497.98	702.97
498.413	712.47
498.846	724.26
499.279	735.3
499.711	743.57
500.144	749.35
500.577	762.21
501.009	776.26
501.442	789.67
501.874	794.14
502.306	799.32
502.739	810.15
503.171	828.55
503.603	835.8
504.036	848.46
504.468	857.48
504.9	873.08
505.332	884.68
505.764	892.83
506.196	903.67
506.627	922.58
507.059	940.2
507.491	952.72
507.923	955.6
508.354	975.06
508.786	989.76
509.217	1012.36
509.649	1030.3
510.08	1053.39
510.512	1074.86
510.943	1095.13
511.374	1110.37
511.805	1134.34
512.237	1157.29
512.668	1193.05
513.099	1224.71
513.53	1257.13
513.961	1281.2
514.391	1317.17
514.822	1354.08
515.253	1393.45
515.684	1421.79
516.114	1454.53
516.545	1477.93
516.975	1507.14
517.406	1526.07
517.836	1529.71
518.267	1536.51
518.697	1556.24
519.127	1561.07
519.558	1568.44
519.988	1572.88
520.418	1583.28
520.848	1602.52
521.278	1612.56
521.708	1631.35
522.138	1644.88
522.567	1677.61
522.997	1704.78
523.427	1720.79
523.857	1738.6
524.286	1748.97
524.716	1763.54
525.145	1783.64
525.575	1793.69
526.004	1807.63
526.433	1799.63
526.863	1799.62
527.292	1786.62
527.721	1792.27
528.15	1797.35
528.579	1797.53
529.008	1808.21
529.437	1832.34
529.866	1845.29
530.295	1863.53
530.724	1876.8
531.152	1904.42
531.581	1918.76
532.01	1938.01
532.438	1945.8
532.867	1960.88
533.295	1980
533.723	1985.98
534.152	1983.48
534.58	1983.66
535.008	1965.31
535.436	1967.56
535.865	1975.96
536.293	1992.25
536.721	2009.28
537.149	2036.65
537.576	2039.67
538.004	2053.05
538.432	2061.03
538.86	2058.68
539.287	2065.26
539.715	2080.46
540.143	2082.68
540.57	2078.53
540.998	2073.7
541.425	2048.5
541.852	2024.49
542.28	2021.01
542.707	2003.23
543.134	1988.57
543.561	1984.09
543.988	1976.3
544.415	1975.67
544.842	1968.14
545.269	1959.03
545.696	1960.52
546.123	1974.43
546.549	1963.26
546.976	1949.72
547.403	1949.03
547.829	1950.85
548.256	1953.72
548.682	1949.02
549.108	1940.37
549.535	1940.13
549.961	1942.45
550.387	1927.46
550.813	1919.99
551.24	1926.47
551.666	1927.58
552.092	1918.27
552.518	1911.77
552.943	1904.77
553.369	1913.08
553.795	1918.99
554.221	1919.32
554.646	1916.02
555.072	1928.51
555.498	1934.16
555.923	1944.42
556.349	1961.39
556.774	1969.6
557.199	1970.92
557.625	1976.74
558.05	1969.77
558.475	1980.57
558.9	1980.33
559.325	1972.13
559.75	1965.26
560.175	1960.05
560.6	1953.1
561.025	1950.11
561.449	1951.64
561.874	1956.48
562.299	1962.2
562.723	1970.27
563.148	1960.11
563.572	1965.46
563.997	1976.91
564.421	1982.52
564.846	1982.89
565.27	1988.65
565.694	1987.29
566.118	2001.3
566.542	2012
566.966	2005.19
567.39	2001.24
567.814	1990.53
568.238	1991.75
568.662	1998.45
569.086	2002.33
569.509	2011.98
569.933	1995.43
570.357	1988.44
570.78	1965.38
571.204	1951.01
571.627	1940.55
572.05	1939.82
572.474	1941.66
572.897	1928.55
573.32	1921.32
573.743	1911.9
574.166	1891.92
574.589	1893.2
575.012	1886.54
575.435	1886.11
575.858	1877.07
576.281	1865.61
576.704	1848.96
577.126	1835.77
577.549	1823.76
577.972	1812.46
578.394	1800.97
578.817	1794.05
579.239	1772.71
579.661	1756.73
580.084	1739.85
580.506	1724.82
580.928	1720.1
581.35	1708.4
581.772	1703.44
582.194	1689.15
582.616	1675.66
583.038	1660.03
583.46	1648.11
583.882	1645.03
584.303	1650.7
584.725	1646.18
585.147	1649.77
585.568	1661.35
585.99	1675.56
586.411	1681.79
586.833	1697.65
587.254	1699.22
587.675	1716.13
588.096	1731.51
588.518	1727.48
588.939	1709.63
589.36	1707.46
589.781	1695.67
590.202	1665.34
590.623	1654.97
591.043	1653.81
591.464	1640.53
591.885	1637.66
592.305	1631.4
592.726	1615.54
593.147	1615.22
593.567	1608.28
593.987	1600.64
594.408	1594.69
594.828	1593.26
595.248	1586.81
595.669	1565.82
596.089	1558.25
596.509	1550.6
596.929	1535.5
597.349	1536.53
597.769	1525.61
598.189	1518.61
598.608	1519.82
599.028	1522.1
599.448	1521.08
599.867	1506.9
600.287	1502.15
600.706	1497.2
601.126	1485.38
601.545	1483.27
601.965	1481.29
602.384	1476.31
602.803	1479.79
603.222	1474.5
603.641	1467.33
604.061	1463.97
604.48	1459.64
604.898	1468.43
605.317	1473.24
605.736	1475.97
606.155	1472.92
606.574	1461.56
606.992	1466.24
607.411	1460.96
607.829	1452.03
608.248	1447.88
608.666	1444.84
609.085	1443.05
609.503	1433.31
609.921	1426.15
610.339	1428.21
610.758	1427.02
611.176	1422.13
611.594	1411.89
612.012	1406.89
612.43	1408.88
612.847	1415.52
613.265	1415.24
613.683	1420.29
614.101	1420.99
614.518	1416.55
614.936	1404.91
615.353	1389.07
615.771	1384.78
616.188	1384.66
616.606	1379.93
617.023	1372.04
617.44	1355.59
617.857	1347.62
618.274	1337.47
618.691	1330.06
619.108	1320.06
619.525	1312.77
619.942	1319.49
620.359	1322.16
620.776	1315.98
621.192	1311.26
621.609	1307.96
622.026	1314.56
622.442	1319.79
622.859	1323.16
623.275	1314.45
623.691	1318.76
624.108	1330.26
624.524	1344.6
624.94	1344.78
625.356	1355.23
625.772	1370.28
626.188	1383.04
626.604	1384.43
627.02	1380.61
627.436	1379.15
627.852	1387.22
628.268	1400.62
628.683	1390.37
629.099	1381.4
629.514	1375.77
629.93	1378.97
630.345	1381.86
630.761	1377.11
631.176	1381.09
631.591	1374.79
632.007	1367.03
632.422	1364.36
632.837	1351.81
633.252	1349.55
633.667	1337.76
634.082	1328.69
634.497	1314.6
634.911	1294.21
635.326	1289.51
635.741	1270.9
636.155	1259.29
636.57	1258.6
636.984	1257.74
637.399	1257.71
637.813	1255.85
638.228	1252.99
638.642	1255.33
639.056	1243.55
639.47	1242.05
639.884	1232.68
640.298	1223.75
640.712	1219.44
641.126	1205.78
641.54	1193.96
641.954	1187.08
642.368	1172.94
642.781	1163.41
643.195	1142.67
643.609	1141.75
644.022	1133.75
644.436	1126.69
644.849	1112.02
645.262	1098.15
645.676	1097.54
646.089	1091.31
646.502	1074.34
646.915	1066.4
647.328	1046.84
647.741	1042.65
648.154	1026.26
648.567	1020.56
648.98	1004.69
649.393	1002.72
649.805	998.03
650.218	987.77
650.631	969.25
651.043	960.9
651.456	952.26
651.868	949.64
652.28	964.21
652.693	975
653.105	978.59
653.517	985.67
653.929	984.38
654.341	987.43
654.753	974.58
655.165	978.93
655.577	972.89
655.989	967.34
656.401	957.55
656.813	920.4
657.224	898.94
657.636	868.84
658.047	847.48
658.459	825.9
658.87	812.79
659.282	797.03
659.693	773.45
660.104	756.67
660.515	739.28
660.926	733.94
661.338	726.27
661.749	715.73
662.159	703.85
662.57	696.05
662.981	686.79
663.392	675.62
663.803	673.88
664.213	667.29
664.624	658.41
665.035	656.84
665.445	640.3
665.855	630.6
666.266	620.85
666.676	614.04
667.086	602.96
667.497	599.34
667.907	591.39
668.317	582.14
668.727	577.5
669.137	575.51
669.547	570.33
669.956	570.45
670.366	569.88
670.776	569.47
671.186	570.72
671.595	573.11
672.005	573.31
672.414	571.92
672.824	569.42
673.233	570.98
673.642	572.11
674.052	574.16
674.461	576.34
674.87	578.86
675.279	576.75
675.688	577.58
676.097	578.14
676.506	576.16
676.915	587.49
677.323	590.01
677.732	589.18
678.141	590.3
678.549	584
678.958	582.88
679.366	583.31
679.775	587.79
680.183	598.91
680.592	605.95
681	613.57
681.408	611.3
681.816	620.5
682.224	631.72
682.632	643.41
683.04	671.41
683.448	696.72
683.856	729.07
684.264	764.17
684.671	798.13
685.079	840.17
685.487	886.17
685.894	949.22
686.302	1004.18
686.709	1051.75
687.116	1108.98
687.524	1157.83
687.931	1201.05
688.338	1241.53
688.745	1278.24
689.152	1317.25
689.559	1366.68
689.966	1418.78
690.373	1446.78
690.78	1494.4
691.187	1563.16
691.593	1614.33
692	1659.8
692.407	1726.49
692.813	1804.11
693.22	1867.6
693.626	1933.74
694.032	1986.56
694.439	2061.48
694.845	2122.45
695.251	2196.99
695.657	2262.93
696.063	2363.33
696.469	2438.32
696.875	2506.73
697.281	2544.94
697.687	2589.38
698.093	2627.04
698.498	2698.96
698.904	2756.55
699.31	2842.48
699.715	2903.21
700.12	2993.11
700.526	3007.87
700.931	3075.11
701.337	3122.04
701.742	3150.49
702.147	3233.44
702.552	3257.51
702.957	3317.28
703.362	3331.79
703.767	3356.41
704.172	3391.91
704.577	3340.89
704.981	3384.45
705.386	3394.08
705.791	3384
706.195	3455.62
706.6	3460.38
707.004	3537.5
707.408	3500.91
707.813	3525.31
708.217	3510.79
708.621	3509.36
709.025	3602.69
709.43	3601.05
709.834	3659.59
710.237	3725.14
710.641	3705.87
711.045	3724.43
711.449	3718.36
711.853	3744.4
712.256	3783.83
712.66	3817.63
713.064	3889.85
713.467	3928.33
713.87	4036.81
714.274	4076.83
714.677	4180.66
715.08	4337.62
715.484	4498.66
715.887	4692.92
716.29	4879.54
716.693	5079.58
717.096	5310.53
717.499	5434.77
717.901	5453.77
718.304	5473.71
718.707	5495.02
719.109	5392.61
719.512	5357.82
719.915	5225.46
720.317	5163.72
720.719	5205.77
721.122	5170.74
721.524	5115.98
721.926	5071.51
722.328	5166.44
722.731	5152.49
723.133	5176.22
723.535	5358.8
723.937	5374.78
724.338	5416.84
724.74	5452.2
725.142	5394.64
725.544	5393.02
725.945	5420.52
726.347	5415.28
726.748	5405.85
727.15	5419.53
727.551	5380.94
727.952	5351.17
728.354	5322.07
728.755	5325.61
729.156	5283.34
729.557	5265.01
729.958	5143.87
730.359	5084.41
730.76	5062.71
731.161	5000.5
731.562	4974.39
731.962	4978.27
732.363	4917.62
732.763	4853.18
733.164	4882.29
733.564	4817.99
733.965	4723.93
734.365	4690.21
734.766	4716.24
735.166	4677.43
735.566	4625.32
735.966	4598.41
736.366	4590.17
736.766	4530.83
737.166	4558.06
737.566	4519
737.966	4492.97
738.365	4529.2
738.765	4522.98
739.165	4452.72
739.564	4429.22
739.964	4471.21
740.363	4427.84
740.763	4424.75
741.162	4412.81
741.561	4384.25
741.96	4340.2
742.36	4360.04
742.759	4364.5
743.158	4400.79
743.557	4411.92
743.955	4450.42
744.354	4407.45
744.753	4458.76
745.152	4417.9
745.55	4468.73
745.949	4462.42
746.348	4461.99
746.746	4477.68
747.144	4440.98
747.543	4417.46
747.941	4464.25
748.339	4395.04
748.737	4387.63
749.136	4380.29
749.534	4442.31
749.932	4415.3
750.33	4439.26
750.727	4492.1
751.125	4467.53
751.523	4450.42
751.921	4491.66
752.318	4457.85
752.716	4512.63
753.113	4522.96
753.511	4545.41
753.908	4546.2
754.305	4528.88
754.703	4585.39
755.1	4639.79
755.497	4695.97
755.894	4875.27
756.291	5043.01
756.688	5355.19
757.085	5769.18
757.482	6353.06
757.878	6986.2
758.275	7559.21
758.672	8348.47
759.068	8991.73
759.465	9913.18
759.861	11096.93
760.258	12467.83
760.654	13178.27
761.05	13075.25
761.447	12474.81
761.843	11612.63
762.239	10722.46
762.635	10317.37
763.031	9932.15
763.427	9375.31
763.822	8788.91
764.218	8211.4
764.614	7463.32
765.01	6959.65
765.405	6633.97
765.801	6389.45
766.196	6073.95
766.592	5902.23
766.987	5605.42
767.382	5402.92
767.778	5317.96
768.173	5195.81
768.568	5125.02
768.963	5008.5
769.358	5026.74
769.753	4980.37
770.148	4899.42
770.542	4898.84
770.937	4864.71
771.332	4951.43
771.726	4973.62
772.121	4915.48
772.515	4967.38
772.91	4955.87
773.304	5022.45
773.699	4959.76
774.093	5011.41
774.487	5062.85
774.881	5104.44
775.275	5102.68
775.669	5063.74
776.063	5102.56
776.457	5133.41
776.851	5061.8
777.245	5054.57
777.638	5081.69
778.032	5190.22
778.425	5158.11
778.819	5200.18
779.212	5159.21
779.606	5121.34
779.999	5136.83
780.392	5122.92
780.786	5200.73
781.179	5221.18
781.572	5264.32
781.965	5280.06
782.358	5224.66
782.751	5274.59
783.143	5226.93
783.536	5292.79
783.929	5335.45
784.322	5443.86
784.714	5469.63
785.107	5467.25
785.499	5534.35
785.891	5513.61
786.284	5494.54
786.676	5629.25
787.068	5611.27
787.46	5659.4
787.852	5678.47
788.245	5758.55
788.636	5785.25
789.028	5849.23
789.42	5887.57
789.812	5898.05
790.204	5985.48
790.595	6077.95
790.987	5892.37
791.378	5916.99
791.77	6043.41
792.161	6171.13
792.553	6224.67
792.944	6121.85
793.335	6060.76
793.726	6128.5
794.117	6212.86
794.508	6344.02
794.899	6315.55
795.29	6449.33
795.681	6504.69
796.072	6368.59
796.463	6201.28
796.853	6208.02
797.244	6354.72
797.634	6384.45
798.025	6379.2
798.415	6387.71
798.806	6466.49
799.196	6548.82
799.586	6597.33
799.976	6559.31
800.366	6776.21
800.756	6993.46
801.146	6958.41
801.536	6985.1
801.926	7053.23
802.316	7081.5
802.706	7151.67
803.095	7036.61
803.485	7131.07
803.874	7167.69
804.264	7408.02
804.653	7385.57
805.043	7526.16
805.432	7629.29
805.821	7634.99
806.21	7656.39
806.599	7767.8
806.988	7807.6
807.377	7912.83
807.766	8033.59
808.155	8300.55
808.544	8056.15
808.933	8067.53
809.321	8044.33
809.71	8315.2
810.098	8458.46
810.487	8893.48
810.875	9344.24
811.264	9367.2
811.652	9636.1
812.04	9774.64
812.428	9925.11
812.816	10640.06
813.204	11026.05
813.592	11545.56
813.98	11863.97
814.368	11783.87
814.756	12224.49
815.144	12146.78
815.531	12582.24
815.919	12512.87
816.306	12802.9
816.694	12511.92
817.081	12563.44
817.469	12894.46
817.856	12892.55
818.243	13141.99
818.63	13505.13
819.017	13115.08
819.404	13177.81
819.791	13540.89
820.178	14120.43
820.565	14348.09
820.952	15236.86
821.339	14774.13
821.725	14953.25
822.112	14262.29
822.498	14230.9
822.885	14365.01
823.271	14279.34
823.657	14671.17
824.044	14672.63
824.43	14739.37
824.816	14714.75
825.202	14301.33
825.588	15258.59
825.974	15267.86
826.36	15753.26
826.746	15784.39
827.132	16109.11
827.517	16084.22
827.903	15353.91
828.289	15392.15
828.674	14666.69
829.06	14565.07
829.445	14931.04
829.83	15274.8
830.216	15721.05
830.601	16061.01
830.986	15679.36
831.371	15560.39
831.756	16088.29
832.141	15683.85
832.526	15684.96
832.911	15952.89
833.295	15850.77
833.68	16289.59
834.065	15697.86
834.449	14847.54
834.834	14779.86
835.218	14771.06
835.603	15094.4
835.987	14897.89
836.371	15679.28
836.755	15571.97
837.139	15933.95
837.524	16156.2
837.908	15997.66
838.291	16058.09
838.675	16113.14
839.059	16312.58
839.443	16306.9
839.827	16082.74
840.21	16532.15
840.594	16395.33
840.977	16596.1
841.361	16588.18
841.744	16941.52
842.127	16794.57
842.511	17013.17
842.894	17572.83
843.277	17922.24
843.66	18433.03
844.043	18515.8
844.426	17759.44
844.809	17467.09
845.191	17496.81
845.574	17070.36
845.957	16724.39
846.339	16623.87
846.722	16141.98
847.104	16210.19
847.487	16048.23
847.869	16055.89
848.252	16305.66
848.634	16610.59
849.016	16859.81
849.398	16974.49
849.78	17756.67
850.162	17769.05
850.544	18154.78
850.926	18739.61
851.307	18658.37
851.689	18917.57
852.071	19342.49
852.452	19653.33
852.834	19642.07
853.215	20003.88
853.597	20149.52
853.978	20433.44
854.359	20861.29
854.741	19931.72
855.122	19833.91
855.503	19562.06
855.884	19684.99
856.265	19621.68
856.646	19728.22
857.026	19348.83
857.407	19291.42
857.788	19434.7
858.169	19694.13
858.549	18894.09
858.93	19475.92
859.31	19530.42
859.69	19720.14
860.071	19346.08
860.451	19148.52
860.831	18456.36
861.211	19545.95
861.591	20052.95
861.971	20026.46
862.351	20210.23
862.731	20567.45
863.111	20813.36
863.491	21119.19
863.87	21939.62
864.25	22264.28
864.629	21887.31
865.009	22352.96
865.388	23143.52
865.768	24805.88
866.147	24714.54
866.526	23353.93
866.905	23639.65
867.284	24968.05
867.663	23697.11
868.042	22715.51
868.421	22648.29
868.8	23031.62
869.179	23267.8
869.558	21915.43
869.936	20200.95
870.315	20553.48
870.693	21042.45
871.072	22687.06
871.45	21605.12
871.828	21887.2
872.207	23013.29
872.585	22658.33
872.963	23277.36
873.341	22480.11
873.719	22213.44
874.097	21939.85
874.475	22371.7
874.853	22902.67
875.23	21956.44
875.608	22885.39
875.986	24774.92
876.363	23692.31
876.741	24417.28
877.118	23794.21
877.495	24968.03
877.873	25389.84
878.25	26727.36
878.627	25618.61
879.004	25969.94
879.381	25840.18
879.758	25148.47
880.135	23380.74
880.512	24716.1
880.889	24064.48
881.265	23815.56
881.642	23611.93
882.019	24013.58
882.395	23529.86
882.772	24468.01
883.148	23412.91
883.524	23320.65
883.901	23203.79
884.277	23562.81
884.653	23424.29
885.029	24096.16
885.405	26684.01
885.781	26476.01
886.157	25376.75
886.532	25686.88
886.908	25673.33
887.284	28546.08
887.659	29477.37
888.035	30381.69
888.411	31175.31
888.786	31575.15
889.161	32670.59
889.537	32082.58
889.912	33108.42
890.287	33085.53
890.662	33928.25
891.037	33312.58
891.412	31044.81
891.787	30734.24
892.162	29650.34
892.536	30339.72
892.911	29208.07
893.286	28586.1
893.66	27428.53
894.035	28135.46
894.409	30633.45
894.784	29408.57
895.158	29886.74
895.532	31679.49
895.906	32537.12
896.281	33318.92
896.655	32775.9
897.029	37424.96
897.402	38991.54
897.776	43387.91
898.15	43237.1
898.524	42780.64
898.898	43355.44
899.271	48556.87
899.645	42040.52
900.018	40400.17
900.392	41883.18
900.765	42243.09
901.138	39111.92
901.511	38513.08
901.884	35375.09
902.258	32614.79
902.631	33694.15
903.003	38744.85
903.376	34963.5
903.749	39208.21
904.122	41942.42
904.495	46202.41
904.867	46755.78
905.24	40590.17
905.612	37767.61
905.985	38627.61
906.357	40397.97
906.729	38533.8
907.102	32913.94
907.474	31666.91
907.846	31860.11
908.218	31462.1
908.59	27784.3
908.962	26882.39
909.334	28936.89
909.705	30387.01
910.077	29500.53
910.449	30692.82
910.82	31553.57
911.192	34732.17
911.563	36058.97
911.935	38591.74
912.306	38620.72
912.677	39884.05
913.048	39462.88
913.419	42830.44
913.79	43085.76
914.161	46182.36
914.532	44166.23
914.903	40595.07
915.274	38548.22
915.645	38008.24
916.015	33460.73
916.386	31907.67
916.756	33961
917.127	35048.24
917.497	31312.81
917.868	34082.56
918.238	32377.93
918.608	33303.1
918.978	33996.21
919.348	36015.43
919.718	37206.84
920.088	35804.15
920.458	37195.57
920.828	39119.62
921.198	37063.9
921.567	39596.68
921.937	30677.5
922.306	30976.49
922.676	33420.73
923.045	27880.49
923.415	26478.56
923.784	24114.64
924.153	24810.7
924.522	24779.1
924.891	23303.65
925.26	24986.28
925.629	24400.78
925.998	28043.53
926.367	27377.06
926.736	26067.14
927.104	31039.39
927.473	33385.44
927.842	40320.99
928.21	39929.45
928.578	41994.24
928.947	39711.34
929.315	39932.52
929.683	46831.4
930.051	47189.13
930.42	54775.42
930.788	46772.56
931.156	46433.64
931.523	43529.69
931.891	40214.44
932.259	38653.85
932.627	44805.33
932.994	63369.12
933.362	52348.31
933.729	45480.03
934.097	43547.25
934.464	36863.87
934.831	42583.1
935.199	41960.94
935.566	40675.24
935.933	41293.78
936.3	50004.05
936.667	38893.25
937.034	35137.79
937.401	34781.44
937.767	29984.27
938.134	26691.36
938.501	37650.88
938.867	40099.62
939.234	67895.34
939.6	57893.18
939.967	63617.59
940.333	42577.44
940.699	36273.88
941.065	29078.92
941.431	38097.83
941.798	36773.01
942.163	48324.79
942.529	30181.57
942.895	27807.06
943.261	17971.57
943.627	23603.07
943.992	20681.76
944.358	20727.27
944.723	20816.42
945.089	20300.12
945.454	18761.72
945.82	20024.1
946.185	19243.38
946.55	22314.33
946.915	20011.26
947.28	23505.64
947.645	20698.34
948.01	19097.7
948.375	19896.16
948.74	23859.7
949.104	27841.08
949.469	40287.86
949.834	71169.78
950.198	67427.61
950.562	40411.28
950.927	33651.56
951.291	40477.81
951.655	34463.65
952.02	32379.31
952.384	24491.41
952.748	21307.87
953.112	20771.34
953.476	18023.62
953.839	16667.11
954.203	16514.65
954.567	20646.31
954.931	32513.44
955.294	27818.29
955.658	27976.03
956.021	47593.06
956.385	80620.72
956.748	119043.7
957.111	184534.27
957.474	207358.58
957.837	233597.14
958.2	176741.86
958.563	63570.37
958.926	43021.62
959.289	65226.4
959.652	72843.08
960.015	54591.12
960.377	78362.39
960.74	89268.81
961.102	154216.94
961.465	165428.02
961.827	88652.86
962.189	169991.1
962.552	117916.46
962.914	94482.07
963.276	61323.13
963.638	50720.93
964	50198.2
964.362	33933.62
964.724	32837.55
965.085	23420.92
965.447	19221.87
965.809	21903.22
966.17	21937.47
966.532	23721.57
966.893	21775.17
967.255	19801.54
967.616	23350.2
967.977	18709.54
968.338	20428.31
968.699	16785.48
969.061	16778.29
969.421	16880.41
969.782	18932.7
970.143	15977.76
970.504	16561.52
970.865	18803.03
971.225	19221.45
971.586	18797.36
971.946	26792.86
972.307	23245.32
972.667	30401.76
973.027	31274.7
973.388	37902.84
973.748	25779.39
974.108	28115.13
974.468	37972.02
974.828	29289.26
975.188	22548.99
975.548	20734.69
975.907	17412.37
976.267	19535.33
976.627	16412.34
976.986	17005.33
977.346	16216.02
977.705	15603.82
978.064	14188.85
978.424	11818.24
978.783	12219.44
979.142	13950.27
979.501	13337.82
979.86	14107.51
980.219	13599.17
980.578	17533.38
980.937	19645.63
981.296	17527.24
981.654	17998.57
982.013	28050.9
982.371	36402.22
982.73	33996.56
983.088	38470.43
983.447	41135.23
983.805	58814.18
984.163	122936.78
984.521	136243.43
984.879	199844.81
985.237	-324906.62
985.595	313700.74
985.953	77896.99
986.311	44988.87
986.669	26110.58
987.026	22555.25
987.384	30276.23
987.741	31237.06
988.099	22307.91
988.456	17804.39
988.814	16660.1
989.171	14478.32
989.528	14255.84
989.885	15019.48
990.242	11894.15
990.599	14850.68
990.956	12149.89
991.313	8505.25
991.67	6994.88
992.027	7417.52
992.383	6579.82
992.74	5770.66
993.096	6057.56
993.453	6285.67
993.809	6529.06
994.165	8697.9
994.522	7962.44
994.878	8761.76
995.234	10999.54
995.59	10838.11
995.946	10264.07
996.302	11702.76
996.658	13525.93
997.013	14876.48
997.369	17682.07
997.725	22625.31
998.08	14659.81
998.436	22554.72
998.791	31234.01
999.147	31227.71
999.502	34050.51
999.857	24747.42
1000.212	40498.47
1000.567	57662.63
1000.922	33319.26
1001.277	21137.24
1001.632	15696.23
1001.987	20229.78
1002.342	14553.07
1002.696	11615.33
1003.051	9259.47
1003.406	11229.49
1003.76	11181.29
1004.114	11009.57
1004.469	9275.9
1004.823	7668.83
1005.177	8279.74
1005.531	6565.41
1005.885	5823.23
1006.239	6547.66
1006.593	8205.91
1006.947	10973.14
1007.301	8233.76
1007.655	8975.1
1008.008	6580.77
1008.362	7385.87
1008.715	10553.08
1009.069	9573.59
1009.422	14397.86
1009.776	28819.16
1010.129	19165.61
1010.482	16020.82
1010.835	13554.2
1011.188	28246.86
1011.541	26554.25
1011.894	-162545.54
1012.247	478829.81
1012.6	32657.23
1012.952	20649.38
1013.305	10614.57
1013.657	7677.37
1014.01	7275.92
1014.362	5987.93
1014.715	5330.24
1015.067	4628.11
1015.419	4520.43
1015.771	3996.08
1016.123	3562.47
1016.475	3654.69
1016.827	3879.86
1017.179	4194.29
1017.531	4223.75
1017.883	4307.43
1018.234	4167.57
1018.586	5253.75
1018.938	5583.43
1019.289	7708.82
1019.64	8826.26
1019.992	8194.2
1020.343	7496.3
1020.694	5957.52
1021.045	5260.25
1021.396	5972.88
1021.747	6419.69
1022.098	7712.97
1022.449	5589.28
1022.8	5185.96
1023.151	3613.95
1023.501	3218.95
1023.852	3477.46
1024.202	3616.85
1024.553	3960.11
1024.903	3863.43
1025.253	3331.84
1025.604	2990.07
1025.954	3704.11
1026.304	4502.23
1026.654	5240.79
1027.004	7716.69
1027.354	12424.44
1027.703	11747.91
1028.053	15372.32
1028.403	22293.88
1028.753	32163.59
1029.102	43631.79
1029.452	225033.4
1029.801	9728.19
1030.15	6299.54
1030.499	5313.25
897.758	2774.21
901.051	2736.72
904.343	2774.98
907.636	2773.23
910.928	2838.2
914.22	2746.48
917.511	2755.45
920.803	2821.73
924.094	2846.38
927.384	2819.94
930.675	2785.67
933.965	2736.65
937.255	2745.14
940.544	2711.38
943.834	2637.31
947.123	2584.88
950.411	2682.2
953.7	2652.82
956.988	2615.67
960.276	2559.03
963.563	2647.37
966.851	2639.12
970.138	2701.75
973.424	2689.25
976.711	2638.1
979.997	2792.64
983.283	2822.04
986.568	2720.09
989.853	2744.43
993.138	2772.79
996.423	2852.48
999.708	2784.45
1002.992	2861.94
1006.275	2678.34
1009.559	2733.76
1012.842	2851.04
1016.125	2778.54
1019.408	2757.33
1022.69	2851.64
1025.972	2867.33
1029.254	2841.3
1032.536	2765.72
1035.817	2798.05
1039.098	2730.09
1042.379	2897.38
1045.659	2887.19
1048.939	2819.06
1052.219	2840.58
1055.498	2857.56
1058.778	2839.1
1062.057	2825.65
1065.335	2847.09
1068.614	2867.46
1071.892	2843.95
1075.17	2924.95
1078.447	2911.95
1081.724	2901.55
1085.001	2941.7
1088.278	2915.01
1091.554	2929.68
1094.83	2926.21
1098.106	2949.78
1101.382	2995.67
1104.657	2995.9
1107.932	2993.39
1111.206	2954.13
1114.481	2910.44
1117.755	2916.42
1121.029	2889.31
1124.302	2940.78
1127.575	2888.09
1130.848	2874.17
1134.121	2833.75
1137.393	2779.27
1140.665	2852.36
1143.937	2826.09
1147.208	2789.24
1150.48	2824.18
1153.75	2808.72
1157.021	2849.49
1160.291	2818.52
1163.561	2862.38
1166.831	2857.54
1170.101	2889.83
1173.37	2871.24
1176.639	2809.92
1179.907	2874.95
1183.176	2877.6
1186.444	2885.32
1189.711	2914.73
1192.979	2922.3
1196.246	2877.94
1199.513	2898.45
1202.78	2894.68
1206.046	2903.29
1209.312	2928.54
1212.578	2954.64
1215.843	2899.59
1219.108	2880.44
1222.373	2903.84
1225.638	2864.97
1228.902	2846.4
1232.166	2813.98
1235.43	2792.67
1238.693	2817.08
1241.956	2817.53
1245.219	2853.96
1248.482	2848.07
1251.744	2842.7
1255.006	2996.23
1258.268	2951.7
1261.529	2892.63
1264.79	2902.18
1268.051	3011.66
1271.312	3028.65
1274.572	2987.44
1277.832	2975.68
1281.092	2969.94
1284.351	2938.68
1287.61	2916.45
1290.869	2824.61
1294.128	2796.52
1297.386	2897.3
1300.644	2883.92
1303.902	2893.12
1307.159	2751.32
1310.416	2807.86
1313.673	2830.62
1316.93	2814.9
1320.186	2863.63
1323.442	2910.56
1326.697	2897.72
1329.953	2894.58
1333.208	2914.13
1336.463	2899.08
1339.717	2831.26
1342.972	2972.19
1346.226	2953.49
1349.479	2881.99
1352.733	2848.19
1355.986	2877.01
1359.238	2849.76
1362.491	2848.39
1365.743	2856.28
1368.995	2851.02
1372.247	2862.51
1375.498	2890.25
1378.749	2897.47
1382	2853.95
1385.251	2914.09
1388.501	2875.2
1391.751	2856.86
1395	2829.9
1398.25	2866.45
1401.499	2867.34
1404.748	2787
1407.996	2780.44
1411.244	2763.42
1414.492	2744.9
1417.74	2719.67
1420.987	2730.89
1424.234	2788.52
1427.481	2769.73
1430.728	2832.46
1433.974	2803.6
1437.22	2823.38
1440.465	2829.65
1443.711	2784.4
1446.956	2823.04
1450.201	2816.08
1453.445	2860.87
1456.689	2834.58
1459.933	2849.93
1463.177	2883.15
1466.42	2851.36
1469.663	2833.92
1472.906	2821.03
1476.148	2909.15
1479.391	2857.33
1482.633	2830.66
1485.874	2838.99
1489.115	2820.3
1492.356	2832.76
1495.597	2803.98
1498.838	2807.81
1502.078	2772.72
1505.318	2716.2
1508.557	2761.39
1511.797	2724.67
1515.036	2810.9
1518.274	2803.38
1521.513	2774.52
1524.751	2799.36
1527.989	2810.8
1531.227	2823.65
1534.464	2810.84
1537.701	2837.95
1540.938	2858.81
1544.174	2813.49
1547.41	2816.57
1550.646	2855.95
1553.882	2886.25
1557.117	2940.64
1560.352	2958.04
1563.587	2910.45
1566.821	2868.05
1570.055	2909.69
1573.289	2876.82
1576.523	2957.73
1579.756	2962.66
1582.989	2978.47
1586.222	2939.17
1589.454	2981.1
1592.686	2953.49
1595.918	2976.24
1599.15	2964.75
1602.381	3046.42
1605.612	2995.1
1608.843	3096.92
1612.073	3005.32
1615.303	2987.5
1618.533	2976.37
1621.762	2979.33
1624.992	2969.07
1628.221	2950.39
1631.449	2937.2
1634.678	3002.65
1637.906	2953.89
1641.134	2995.71
1644.361	2946.36
1647.588	2935.32
1650.815	2950.78
1654.042	2932.74
1657.269	2964.08
1660.495	2908.22
1663.72	2919.82
1666.946	2880.85
1670.171	2812.39
1673.396	2789.21
1676.621	2781.07
1679.845	2809.85
1683.069	2831.45
1686.293	2878.69
1689.517	2845.84
1692.74	2769.79
1695.963	2802.75
1699.185	2828.78
1702.408	2807.22
1705.63	2852.27
1708.852	2862.74
1712.073	2836.84
1715.294	2813.57
1718.515	2880.6
1721.736	2823.98
1724.956	2819.55
1728.176	2847.68
1731.396	2868.58
1734.616	2859.18
1737.835	2882.44
1741.054	2866.24
1744.272	2860.99
1747.491	2885.66
1750.709	2947.69
1753.927	2841.9
1757.144	2893.69
1760.361	2931.73
1763.578	2929.77
1766.795	2869.67
1770.011	2878.9
1773.227	2926.8
1776.443	2957.37
1779.658	3001.67
1782.874	2947.23
1786.089	2920.81
1789.303	2922.91
1792.518	2930.73
1795.732	2919.73
1798.945	2923.8
1802.159	2978.36
1805.372	2870.01
1808.585	2850.71
1811.797	2853.43
1815.01	2908.79
1818.222	2905.03
1821.434	2863.57
1824.645	2927.13
1827.856	2902.08
1831.067	2938.45
1834.278	2904.83
1837.488	2883.23
1840.698	3043.7
1843.908	2960.69
1847.117	2926.04
1850.326	2798.1
1853.535	2910.55
1856.744	2955.95
1859.952	2867.39
1863.16	2869.59
1866.368	2890.49
1869.575	2993.37
1872.782	2879.96
1875.989	2818.16
1879.196	2913.92
1882.402	2903.91
1885.608	2946.54
1888.814	2842.95
1892.019	2729.13
1895.224	2781.97
1898.429	2767.95
1901.634	2746.67
1904.838	2723.62
1908.042	2772.41
1911.246	2777.95
1914.449	2699.09
1917.652	2702.64
1920.855	2685
1924.058	2740.7
1927.26	2776.9
1930.462	2808.77
1933.664	2831.88
1936.865	2768.01
1940.066	2771.58
1943.267	2720.88
1946.467	2739.08
1949.668	2768.1
1952.868	2833.4
1956.067	2809.55
1959.267	2737.86
1962.466	2767.17
1965.665	2750.82
1968.863	2745.47
1972.061	2765.93
1975.259	2767.86
1978.457	2846.17
1981.654	2803.68
1984.852	2803.41
1988.048	2731.43
1991.245	2736.04
1994.441	2822.61
1997.637	2816.5
2000.833	2800.17
2004.028	2840.44
2007.223	2895.65
2010.418	2868.41
2013.613	2832.24
2016.807	2795.27
2020.001	2807.98
2023.194	2854.43
2026.388	2828.85
2029.581	2773.82
2032.774	2817.19
2035.966	2818.37
2039.158	2747.86
2042.35	2771.91
2045.542	2701.8
2048.733	2809.46
2051.924	2841.55
2055.115	2871.18
2058.306	2809.21
2061.496	2873.98
2064.686	2940.19
2067.875	2856.01
2071.065	2875.47
2074.254	2903.13
2077.442	2855.92
2080.631	2948.06
2083.819	2826.55
2087.007	2806.87
2090.195	2772.78
2093.382	2813.21
2096.569	2790.4
2099.756	2741.58
2102.942	2761.29
2106.128	2762.59
2109.314	2757.17
2112.5	2713.38
2115.685	2691.7
2118.87	2703.08
2122.055	2768.67
2125.239	2732.22
2128.424	2704.46
2131.608	2816.32
2134.791	2800.63
2137.974	2863.36
2141.157	2847.9
2144.34	2792.06
2147.523	2817.36
2150.705	2827.89
2153.887	2811.12
2157.068	2754.56
2160.25	2761.79
2163.431	2804.44
2166.611	2743.4
2169.792	2756.85
2172.972	2645.8
2176.152	2731.47
2179.331	2769.56
2182.511	2743.35
2185.69	2773.74
2188.868	2760.39
2192.047	2826.1
2195.225	2808.88
2198.403	2756.06
2201.58	2752.81
2204.758	2751.7
2207.935	2838.14
2211.111	2716.95
2214.288	2699.04
2217.464	2740.24
2220.64	2716.49
2223.815	2777.89
2226.991	2690.43
2230.166	2712.31
2233.34	2739.93
2236.515	2768.04
2239.689	2842.17
2242.863	2782.89
2246.036	2842.95
2249.209	2848.61
2252.382	2885.75
2255.555	2869.87
2258.727	2803.01
2261.9	2845.32
2265.071	2837.53
2268.243	2841.59
2271.414	2766.47
2274.585	2722.81
2277.756	2793.05
2280.926	2749.13
2284.096	2792.57
2287.266	2693.78
2290.436	2750.69
2293.605	2781.13
2296.774	2810.26
2299.942	2836.01
2303.111	2851.62
2306.279	2899.59
2309.447	2888.24
2312.614	2866.7
2315.781	2884.97
2318.948	2854.95
2322.115	2894.38
2325.281	2795.62
2328.447	2820.36
2331.613	2799.17
2334.779	2766.95
2337.944	2772.12
2341.109	2771.06
2344.274	2749.79
2347.438	2711.88
2350.602	2737.47
2353.766	2754.4
2356.929	2739.36
2360.092	2784.73
2363.255	2729.7
2366.418	2651.25
2369.58	2775.42
2372.742	2539.82
2375.904	2559.01
2379.066	2531.15
2382.227	2571.79
2385.388	2537.11
2388.548	2454.68
2391.709	2515.56
2394.869	2488.69
2398.029	2600.43
2401.188	2618.7
2404.347	2544.56
2407.506	2703.06
2410.665	2729.69
2413.823	2741.54
2416.981	2691.39
2420.139	2726.94
2423.296	2780.85
2426.453	2750.71
2429.61	2779.82
2432.767	2703.39
2435.923	2739.14
2439.079	2697.97
2442.235	2750.56
2445.391	2672.81
2448.546	2696.92
2451.701	2752.6
2454.855	2715.77
2458.009	2774.45
2461.163	2782.03
2464.317	2733.43
2467.471	2769.97
2470.624	2813.08
2473.777	2789.13
2476.929	2801.26
2480.082	2828.53
2483.234	2791.43
2486.385	2744.97
2489.537	2738.93
2492.688	2691.97
2495.839	2710.21
2498.989	2719.29
2502.14	2701.81
2505.29	2682.72
2508.439	2709.04
2511.589	2627.09
2514.738	2642.22
2517.887	2676.61
2521.035	2738.82
2524.183	2728.04
2527.331	2705.68
2530.479	2673.02
2533.627	2687.19
