Data from C_2_HIR_IL_4N_Splice17_12-11-59-982.txt Node
Date: Sat Mar 14 12:11:59 EDT 2020
User: sa697716
Spectrometer: FLMS03696
Trigger mode: 0
Integration Time (sec): 3.180400E-1
Scans to average: 20
Electric dark correction enabled: true
Nonlinearity correction enabled: true
Boxcar width: 5
XAxis mode: Wavelengths
Number of Pixels in Spectrum: 2048
>>>>>Begin Spectral Data<<<<<
187.83	-343485.3
188.298	2523.76
188.766	1308.73
189.233	1190.95
189.701	1743.98
190.169	2309.02
190.636	907.41
191.104	710
191.571	135.46
192.039	-50.57
192.506	-102.84
192.974	307.12
193.441	-302.52
193.908	37.77
194.375	8.95
194.842	76.11
195.31	150.93
195.777	152.59
196.244	352.99
196.711	398.73
197.177	527.99
197.644	724.26
198.111	1221.4
198.578	1683.98
199.045	1344.81
199.511	2191.7
199.978	2581.98
200.445	2211.19
200.911	2474.44
201.378	2739.05
201.844	2513.53
202.31	4234.99
202.777	4469.71
203.243	2491.3
203.709	2399.32
204.176	2883.92
204.642	2402.57
205.108	2227.91
205.574	1806.6
206.04	1653.26
206.506	1548.82
206.972	1458.31
207.438	1419
207.903	1605.52
208.369	1405.82
208.835	1401.78
209.301	1465.84
209.766	1500.01
210.232	1492.11
210.697	1838.87
211.163	2245
211.628	3405.73
212.094	2874.65
212.559	3498.86
213.024	2163.48
213.49	2680.94
213.955	2615.28
214.42	2559.45
214.885	2368.44
215.35	2288.17
215.815	2203.68
216.28	2346.64
216.745	1907.3
217.21	2056.06
217.675	1888.31
218.14	2118.11
218.604	2330.71
219.069	2634.13
219.534	2750.11
219.998	3187.72
220.463	3851.55
220.927	4714.47
221.392	4434.24
221.856	4463.99
222.32	5593.19
222.785	6881.1
223.249	8657.66
223.713	9681.21
224.177	9673.42
224.642	12384.65
225.106	15200.15
225.57	16608.11
226.034	12376.14
226.497	18808.42
226.961	17030.03
227.425	19854.02
227.889	22033.07
228.353	22032.06
228.816	45396.81
229.28	43498.92
229.744	36742.35
230.207	22430.02
230.671	22028.93
231.134	36467.42
231.597	42129.72
232.061	42097.82
232.524	41087.15
232.987	28350.98
233.45	25568.63
233.914	22991.25
234.377	23564.58
234.84	21583.51
235.303	25441.59
235.766	28450.15
236.229	29420.43
236.691	18530.72
237.154	20859.59
237.617	15704.16
238.08	16105.67
238.542	18877.57
239.005	13495.63
239.468	13391.14
239.93	12625.61
240.393	11489.13
240.855	10101.34
241.317	10338
241.78	12587.77
242.242	13021.08
242.704	14075.76
243.166	12266.18
243.629	11144.22
244.091	12861.28
244.553	14130.88
245.015	15219.29
245.477	19693.21
245.939	28861.72
246.4	30697.36
246.862	29806.16
247.324	28083.12
247.786	31447.33
248.247	41212.86
248.709	42529.13
249.17	31825.3
249.632	30040.79
250.093	34833.19
250.555	30140.67
251.016	18395.36
251.477	17435.23
251.939	18854.04
252.4	19794.38
252.861	23535.48
253.322	21895.51
253.783	26087.82
254.244	33845.69
254.705	26674.89
255.166	23717.9
255.627	23325.06
256.088	32950.98
256.549	35041.21
257.009	30202.97
257.47	36676.96
257.931	29866.63
258.391	22389.65
258.852	23063.01
259.312	24144.81
259.773	29809.1
260.233	25190.45
260.694	21234.48
261.154	24055.04
261.614	19293.78
262.074	17243.79
262.534	17923.65
262.994	16874.37
263.455	22464.72
263.915	18912.23
264.374	17810.31
264.834	19402.89
265.294	21472.92
265.754	22229.05
266.214	21018.7
266.673	19691.14
267.133	24825
267.593	24592.65
268.052	30118.2
268.512	26172
268.971	31565.6
269.431	34578.67
269.89	30946.11
270.349	46348.92
270.809	51619.17
271.268	46329.37
271.727	103703.72
272.186	67105.46
272.645	50277.38
273.104	36178.99
273.563	52298.33
274.022	41059.7
274.481	34930.47
274.94	26909.93
275.399	19978.66
275.857	23248.89
276.316	31404.72
276.775	27920.99
277.233	27439.94
277.692	25672.48
278.15	29037.29
278.609	29892.19
279.067	27635.31
279.525	25652.31
279.984	33094.22
280.442	39760.09
280.9	39161.23
281.358	25755.26
281.816	23978.89
282.274	23470.89
282.732	24222.93
283.19	24315.65
283.648	20947.92
284.106	22295.31
284.564	22649.94
285.021	20993.89
285.479	15642.69
285.937	14216.71
286.394	12470.06
286.852	12842.3
287.309	13508.06
287.767	13049.68
288.224	12413.21
288.682	13627.94
289.139	14961.69
289.596	13687.1
290.053	14221.3
290.511	17938.9
290.968	21759.89
291.425	29527.27
291.882	24573.95
292.339	21374.6
292.796	21187.22
293.252	19942.17
293.709	15838.36
294.166	14186.34
294.623	15694.82
295.079	15053.36
295.536	15100.8
295.992	13707.18
296.449	13556.04
296.905	14112.85
297.362	13541.81
297.818	14227.71
298.274	14779.57
298.731	15073.09
299.187	14923.91
299.643	15992.68
300.099	19340.43
300.555	21206.38
301.011	17723.78
301.467	17091.1
301.923	19945.82
302.379	19457.36
302.835	19137.17
303.291	19147.31
303.746	21746.69
304.202	27469.67
304.658	27577.86
305.113	18565.47
305.569	18213.48
306.024	19415.83
306.479	18491.35
306.935	15624.17
307.39	17069.93
307.845	15754.23
308.301	15858.22
308.756	15464.94
309.211	14885.17
309.666	15251.2
310.121	18921.93
310.576	19204.09
311.031	19042.68
311.486	21797.86
311.94	21755.54
312.395	29112.91
312.85	54785.06
313.305	269162.83
313.759	1394274.42
314.214	101167.29
314.668	80294.12
315.123	67624.48
315.577	24275.36
316.032	21607.42
316.486	27069.07
316.94	21360.36
317.394	14873.22
317.849	11553.18
318.303	10941.86
318.757	10328.91
319.211	11420.3
319.665	9994.88
320.119	10101.6
320.572	14472.85
321.026	13521.39
321.48	11260.99
321.934	12275.71
322.387	12292.72
322.841	13281.78
323.295	11944.51
323.748	13732.44
324.202	13921.69
324.655	16711.52
325.108	23360.41
325.562	16526.41
326.015	19651.27
326.468	14859.23
326.921	16610.87
327.374	15501.08
327.827	16165.68
328.28	18294.31
328.733	12270.29
329.186	10796.37
329.639	10295.68
330.092	8697.15
330.545	8291.54
330.997	8376.61
331.45	9157.32
331.903	10745.21
332.355	18483.14
332.808	17950.51
333.26	14812.45
333.713	16105.7
334.165	16243.14
334.617	21698.39
335.069	17522.18
335.522	31580.12
335.974	34941.24
336.426	31988.72
336.878	22163
337.33	11240.33
337.782	10965.15
338.234	13738.87
338.686	16441.48
339.137	19455.02
339.589	18327.13
340.041	14346.98
340.493	12370.69
340.944	12653.66
341.396	13607.81
341.847	11442.33
342.299	13493.49
342.75	16495.96
343.201	14415.49
343.653	16566.18
344.104	20371.33
344.555	16028.01
345.006	24897.45
345.457	19066.28
345.908	15134.5
346.359	14228.82
346.81	11572.22
347.261	12218.86
347.712	12040.17
348.163	12889.83
348.613	13064.62
349.064	12185.24
349.515	10672.15
349.965	10954.59
350.416	13190.14
350.866	14504.42
351.317	16389.79
351.767	27139.86
352.217	34275.83
352.668	28404.71
353.118	26069.88
353.568	25057.12
354.018	19862.98
354.468	20936.04
354.918	15027.65
355.368	13126.22
355.818	18517.73
356.268	53256.55
356.718	223309.22
357.168	55603.94
357.617	27886.06
358.067	30918.93
358.517	28964.84
358.966	33909.54
359.416	37997.56
359.865	40996.37
360.315	48773.75
360.764	22770.74
361.213	12774.28
361.663	12087.66
362.112	14892.78
362.561	24045.01
363.01	18127.12
363.459	15262.87
363.908	16466.1
364.357	14018.05
364.806	23653.13
365.255	16241.99
365.703	14855.81
366.152	14874.45
366.601	12022.1
367.05	9769.03
367.498	8899.58
367.947	9310.51
368.395	9700.63
368.844	8610.42
369.292	10356.78
369.74	7169.03
370.189	10961.92
370.637	12861.17
371.085	11093.72
371.533	13523.62
371.981	12986.4
372.429	12337.4
372.877	12821.51
373.325	10698.82
373.773	10862.36
374.221	9650.82
374.669	11949.52
375.116	10341.39
375.564	10393.36
376.012	11590.41
376.459	9545.37
376.907	11411.67
377.354	13770.75
377.801	12852.08
378.249	14768.05
378.696	18845.73
379.143	22807.43
379.591	24300.93
380.038	41117.71
380.485	29784.46
380.932	32089.41
381.379	29417.56
381.826	21662.59
382.273	15377.96
382.72	13427.74
383.166	13074.37
383.613	8477.43
384.06	7617.32
384.506	8786.45
384.953	6423.51
385.4	6446.72
385.846	5640.92
386.292	5468.19
386.739	5329.27
387.185	5264.75
387.631	5248.74
388.078	5094.81
388.524	5456.51
388.97	5031.67
389.416	4197.01
389.862	4469.75
390.308	4226.58
390.754	4286.47
391.2	4650.94
391.645	4753.13
392.091	4553.89
392.537	4395.06
392.983	4386.85
393.428	4317.4
393.874	4619.57
394.319	4635.48
394.765	4402.41
395.21	4510.62
395.655	4222.11
396.101	3946.43
396.546	3567.94
396.991	3585.67
397.436	3336.98
397.881	3221.69
398.326	3049.92
398.771	2890.11
399.216	2527.92
399.661	2270.74
400.106	2267.49
400.551	2326.03
400.995	2091.9
401.44	2066.96
401.885	1945.6
402.329	1964.81
402.774	1885.17
403.218	1823.19
403.663	1755.43
404.107	1801.83
404.551	1814.22
404.995	1662.91
405.44	1597.88
405.884	1619.24
406.328	1565.4
406.772	1558.84
407.216	1421.42
407.66	1375.17
408.104	1303.78
408.547	1221.6
408.991	1183.12
409.435	1136.82
409.879	1123.24
410.322	1113.75
410.766	1076.73
411.209	1024.1
411.653	983.43
412.096	963.66
412.54	960.2
412.983	956
413.426	961.89
413.869	960.57
414.312	946.95
414.756	914.05
415.199	872.08
415.642	849.74
416.085	852.73
416.527	847.27
416.97	860.63
417.413	821.41
417.856	810.4
418.298	801.21
418.741	794.98
419.184	790.87
419.626	820.24
420.069	818.2
420.511	821.52
420.953	804.67
421.396	796.53
421.838	775.19
422.28	789.98
422.722	797.1
423.164	806.85
423.606	795.37
424.048	794.28
424.49	756.88
424.932	753.85
425.374	742.61
425.816	753.98
426.258	769.12
426.699	780.8
427.141	772.56
427.582	781.96
428.024	777.39
428.465	771.08
428.907	751.9
429.348	741.44
429.789	741.87
430.231	726.42
430.672	736.47
431.113	717.28
431.554	705.2
431.995	685.82
432.436	664.58
432.877	652.19
433.318	642.11
433.759	638.9
434.2	640.56
434.64	633.81
435.081	636.42
435.522	603.77
435.962	585.44
436.403	574.17
436.843	582.48
437.284	566.97
437.724	549.91
438.164	550.78
438.604	539.83
439.045	519.48
439.485	499.59
439.925	487.84
440.365	475.96
440.805	468.35
441.245	462.85
441.685	447.1
442.125	444.62
442.564	448.07
443.004	439.54
443.444	439.84
443.883	441.94
444.323	436.64
444.762	437.15
445.202	444.38
445.641	454.98
446.081	452.7
446.52	456.25
446.959	453.84
447.398	444.48
447.837	438.36
448.276	431.05
448.716	436.9
449.154	442.46
449.593	434.43
450.032	432.81
450.471	423.03
450.91	423.11
451.349	423.01
451.787	420.14
452.226	425.29
452.664	425.18
453.103	426.38
453.541	423.08
453.98	422.84
454.418	424.9
454.856	418.84
455.295	418.64
455.733	422.03
456.171	424.7
456.609	426.55
457.047	427.3
457.485	434.87
457.923	435.46
458.361	430.57
458.798	431.95
459.236	431.79
459.674	434.1
460.111	436.1
460.549	432.68
460.987	430
461.424	428.04
461.862	424.98
462.299	418.85
462.736	417.98
463.173	419.3
463.611	416.03
464.048	415.46
464.485	418.86
464.922	415.82
465.359	414.14
465.796	413.49
466.233	410.61
466.67	408.82
467.106	408.91
467.543	405.12
467.98	400.31
468.416	389.48
468.853	385.32
469.29	373.96
469.726	370.01
470.162	358.43
470.599	349.82
471.035	345.78
471.471	335.99
471.907	332.54
472.344	330.54
472.78	331.07
473.216	334.88
473.652	331.26
474.088	330.06
474.523	328.68
474.959	332.11
475.395	328.39
475.831	326.77
476.266	329.52
476.702	328.32
477.138	324.89
477.573	323.42
478.008	321.43
478.444	323.04
478.879	326.29
479.314	328.05
479.75	327.08
480.185	328.44
480.62	330.42
481.055	331.09
481.49	333.75
481.925	338.27
482.36	345.65
482.795	355.45
483.229	364.43
483.664	371.45
484.099	372.6
484.534	379.16
484.968	383.64
485.403	385.16
485.837	385.24
486.271	385.42
486.706	386.55
487.14	382.02
487.574	377.09
488.009	374.32
488.443	372.19
488.877	377.29
489.311	379.28
489.745	385.64
490.179	391.12
490.613	400.14
491.046	404.11
491.48	407.7
491.914	409.28
492.348	413.4
492.781	418.07
493.215	421.65
493.648	423.89
494.082	429.87
494.515	432.4
494.948	440.36
495.382	445.85
495.815	451.84
496.248	459.23
496.681	470.82
497.114	481.82
497.547	492.54
497.98	505.22
498.413	513.66
498.846	524.26
499.279	534.23
499.711	541.05
500.144	547.09
500.577	558.79
501.009	570.66
501.442	583.24
501.874	589.07
502.306	595.64
502.739	607.18
503.171	622.89
503.603	631.06
504.036	643.31
504.468	653.89
504.9	668.17
505.332	679.86
505.764	689.46
506.196	700.63
506.627	718.5
507.059	734.51
507.491	746.48
507.923	751.44
508.354	768.97
508.786	783.44
509.217	803.61
509.649	821.99
510.08	843.75
510.512	864.78
510.943	883.56
511.374	898.94
511.805	922.3
512.237	944.92
512.668	978.46
513.099	1007.86
513.53	1037.03
513.961	1060.93
514.391	1093.98
514.822	1128.33
515.253	1165.08
515.684	1193.67
516.114	1225.94
516.545	1250.62
516.975	1278.49
517.406	1299.66
517.836	1306.3
518.267	1317.05
518.697	1338.14
519.127	1346.86
519.558	1358.23
519.988	1364.83
520.418	1377.05
520.848	1396.45
521.278	1406.86
521.708	1426.97
522.138	1442.25
522.567	1474.25
522.997	1500.74
523.427	1517.23
523.857	1535.39
524.286	1547.82
524.716	1565.21
525.145	1585.21
525.575	1597.78
526.004	1613.08
526.433	1608.88
526.863	1610.26
527.292	1602.43
527.721	1609.27
528.15	1616.05
528.579	1617.75
529.008	1627.89
529.437	1649.75
529.866	1663.48
530.295	1680.25
530.724	1694
531.152	1719.95
531.581	1734.51
532.01	1752.42
532.438	1761.43
532.867	1775.67
533.295	1795.53
533.723	1801.67
534.152	1800.34
534.58	1801.24
535.008	1786.89
535.436	1788.94
535.865	1798.2
536.293	1813.5
536.721	1829.75
537.149	1854.92
537.576	1859.75
538.004	1872.08
538.432	1881.31
538.86	1880.34
539.287	1887.49
539.715	1901.6
540.143	1904.49
540.57	1901.44
540.998	1897.58
541.425	1874.92
541.852	1854.46
542.28	1852.1
542.707	1835.62
543.134	1821.87
543.561	1817.59
543.988	1809.74
544.415	1808.7
544.842	1803.23
545.269	1795.09
545.696	1796.24
546.123	1808.36
546.549	1798.03
546.976	1784.92
547.403	1785.17
547.829	1787.39
548.256	1789.09
548.682	1785.71
549.108	1777.76
549.535	1777.17
549.961	1779.42
550.387	1766.05
550.813	1760.23
551.24	1766.01
551.666	1766.3
552.092	1756.15
552.518	1748.81
552.943	1742.43
553.369	1749.45
553.795	1755.1
554.221	1755.18
554.646	1751.24
555.072	1761.42
555.498	1766.76
555.923	1775.87
556.349	1790.94
556.774	1798.95
557.199	1799.62
557.625	1804.59
558.05	1799.17
558.475	1809.11
558.9	1809.05
559.325	1800.62
559.75	1794.36
560.175	1787.67
560.6	1779.68
561.025	1776.5
561.449	1777.2
561.874	1782.49
562.299	1787.54
562.723	1794.88
563.148	1784.31
563.572	1786.54
563.997	1796.42
564.421	1800.28
564.846	1799.34
565.27	1803.3
565.694	1799.78
566.118	1810.46
566.542	1816.79
566.966	1808.83
567.39	1801.69
567.814	1790.3
568.238	1790.3
568.662	1794.58
569.086	1796.23
569.509	1803.57
569.933	1787.19
570.357	1779.81
570.78	1759.03
571.204	1746.37
571.627	1735.65
572.05	1732.67
572.474	1731.99
572.897	1718.71
573.32	1711.03
573.743	1701.85
574.166	1683.07
574.589	1683.34
575.012	1675.2
575.435	1671.98
575.858	1662.23
576.281	1650.33
576.704	1634.64
577.126	1621.19
577.549	1608.82
577.972	1597.94
578.394	1587.08
578.817	1579.07
579.239	1559.8
579.661	1546.7
580.084	1531.22
580.506	1517.17
580.928	1512.2
581.35	1500.84
581.772	1495.89
582.194	1483.06
582.616	1469.84
583.038	1454.05
583.46	1442.25
583.882	1438.34
584.303	1440.86
584.725	1435.48
585.147	1436.3
585.568	1446.36
585.99	1457.72
586.411	1463.27
586.833	1477.6
587.254	1477.74
587.675	1492.16
588.096	1503.84
588.518	1497.86
588.939	1481.51
589.36	1478.9
589.781	1468.45
590.202	1439.88
590.623	1430.98
591.043	1427.02
591.464	1412.93
591.885	1408.45
592.305	1401.53
592.726	1388.64
593.147	1388.5
593.567	1383.01
593.987	1374.48
594.408	1368.98
594.828	1366.52
595.248	1359.23
595.669	1342.81
596.089	1335.93
596.509	1329.91
596.929	1317.31
597.349	1316.72
597.769	1307.74
598.189	1301.53
598.608	1303.26
599.028	1304.18
599.448	1303.46
599.867	1292.1
600.287	1287.64
600.706	1281.93
601.126	1272.39
601.545	1270.37
601.965	1268.7
602.384	1262.59
602.803	1264.95
603.222	1259.05
603.641	1252.75
604.061	1249.42
604.48	1244.98
604.898	1251.36
605.317	1255.93
605.736	1257.27
606.155	1253.96
606.574	1245.04
606.992	1248.87
607.411	1242.88
607.829	1235.36
608.248	1231.24
608.666	1228.91
609.085	1227.88
609.503	1219.37
609.921	1213.11
610.339	1214.67
610.758	1212.76
611.176	1206.8
611.594	1197.96
612.012	1192.85
612.43	1194.82
612.847	1198.67
613.265	1197.92
613.683	1200.09
614.101	1199.63
614.518	1194.86
614.936	1183.24
615.353	1168.48
615.771	1164.8
616.188	1163.53
616.606	1159.92
617.023	1151.47
617.44	1138.83
617.857	1131.33
618.274	1121.85
618.691	1116.1
619.108	1106.37
619.525	1099.71
619.942	1105.08
620.359	1106.52
620.776	1101.48
621.192	1097.66
621.609	1095
622.026	1099.53
622.442	1103.56
622.859	1105.74
623.275	1097.29
623.691	1101.64
624.108	1111.73
624.524	1123.23
624.94	1121.8
625.356	1129.62
625.772	1140.09
626.188	1151.01
626.604	1152.17
627.02	1147.72
627.436	1146.9
627.852	1153.42
628.268	1164.09
628.683	1155.94
629.099	1148.71
629.514	1145.4
629.93	1148.88
630.345	1152.11
630.761	1147.84
631.176	1149.12
631.591	1143.99
632.007	1136.63
632.422	1133.99
632.837	1122.24
633.252	1118.3
633.667	1108
634.082	1098.69
634.497	1084.58
634.911	1066.35
635.326	1060.8
635.741	1043.96
636.155	1032.55
636.57	1030.97
636.984	1027.56
637.399	1026.23
637.813	1022.88
638.228	1017.19
638.642	1016.66
639.056	1003.89
639.47	1000.1
639.884	988.92
640.298	980.15
640.712	975.32
641.126	961.1
641.54	949.8
641.954	939.72
642.368	925.15
642.781	915.3
643.195	897.33
643.609	894.29
644.022	884.71
644.436	876.53
644.849	862.9
645.262	848.58
645.676	845.87
646.089	837.25
646.502	823.82
646.915	815.59
647.328	800.06
647.741	794.12
648.154	781.95
648.567	778.05
648.98	765.88
649.393	763.04
649.805	758.31
650.218	750.36
650.631	737.69
651.043	730.93
651.456	725.67
651.868	724
652.28	734.3
652.693	741.07
653.105	741.86
653.517	747.31
653.929	746.45
654.341	749.19
654.753	738.51
655.165	740.05
655.577	735.87
655.989	729.65
656.401	720.03
656.813	692.81
657.224	676.88
657.636	654.65
658.047	638.89
658.459	621.56
658.87	611.16
659.282	599.23
659.693	581.58
660.104	567.83
660.515	554.81
660.926	549.69
661.338	543.33
661.749	534.89
662.159	525.09
662.57	518.24
662.981	510.89
663.392	502.32
663.803	500.83
664.213	496.26
664.624	489.55
665.035	487.43
665.445	476.16
665.855	469.93
666.266	462.86
666.676	458.69
667.086	450.3
667.497	448.35
667.907	442.9
668.317	435.79
668.727	433.3
669.137	432.25
669.547	429.89
669.956	431.13
670.366	430.3
670.776	429.57
671.186	430.61
671.595	432.46
672.005	432.96
672.414	432.44
672.824	431.29
673.233	431.55
673.642	432.43
674.052	434.3
674.461	435.55
674.87	438.18
675.279	438.48
675.688	439.53
676.097	441.68
676.506	441.36
676.915	450.58
677.323	453.46
677.732	454.46
678.141	456.63
678.549	452.27
678.958	452.71
679.366	455.41
679.775	459.96
680.183	470.7
680.592	476.33
681	483.54
681.408	482.83
681.816	492.12
682.224	502.26
682.632	514.14
683.04	537.01
683.448	558.02
683.856	583.27
684.264	613.92
684.671	642.21
685.079	676.09
685.487	715.78
685.894	767.57
686.302	812.86
686.709	852.38
687.116	898.59
687.524	941.87
687.931	982.6
688.338	1019.61
688.745	1052.16
689.152	1089.48
689.559	1138.17
689.966	1184.42
690.373	1214.99
690.78	1261.55
691.187	1326.29
691.593	1379.78
692	1426.31
692.407	1489.69
692.813	1564.84
693.22	1627.74
693.626	1691.21
694.032	1744.82
694.439	1820.38
694.845	1880.96
695.251	1956.48
695.657	2024.09
696.063	2119.61
696.469	2194.04
696.875	2262.02
697.281	2305.19
697.687	2354.17
698.093	2396.36
698.498	2470.53
698.904	2529.24
699.31	2615.97
699.715	2677.19
700.12	2765.76
700.526	2786.42
700.931	2854.61
701.337	2906.13
701.742	2939.94
702.147	3023.45
702.552	3052.8
702.957	3110.29
703.362	3130.28
703.767	3159.16
704.172	3197.68
704.577	3153.46
704.981	3198.1
705.386	3214.63
705.791	3209.1
706.195	3280.21
706.6	3287.21
707.004	3365.92
707.408	3338.11
707.813	3363.93
708.217	3354.13
708.621	3356.03
709.025	3448.92
709.43	3449.83
709.834	3507.4
710.237	3570.84
710.641	3555.33
711.045	3577.29
711.449	3569.99
711.853	3596.77
712.256	3634.85
712.66	3665.67
713.064	3736.88
713.467	3775.72
713.87	3883.37
714.274	3926.27
714.677	4032.12
715.08	4185.39
715.484	4342.48
715.887	4535.23
716.29	4722.52
716.693	4920.5
717.096	5151.69
717.499	5274.24
717.901	5299.13
718.304	5321.88
718.707	5345.39
719.109	5246.86
719.512	5215.56
719.915	5088.91
720.317	5035.59
720.719	5077.81
721.122	5051.32
721.524	5001.64
721.926	4964.31
722.328	5058.11
722.731	5050.58
723.133	5078.14
723.535	5262.28
723.937	5283.33
724.338	5329.96
724.74	5368.46
725.142	5305.9
725.544	5305.08
725.945	5331.29
726.347	5326.41
726.748	5323.32
727.15	5336.83
727.551	5298.88
727.952	5269.63
728.354	5240.66
728.755	5239.1
729.156	5196.49
729.557	5186.26
729.958	5068.81
730.359	5014.54
730.76	4996.3
731.161	4935.8
731.562	4912.72
731.962	4913.65
732.363	4853.29
732.763	4792.02
733.164	4824.23
733.564	4759.27
733.965	4668.55
734.365	4634.77
734.766	4661.31
735.166	4624.5
735.566	4571.6
735.966	4542.23
736.366	4536.36
736.766	4478.76
737.166	4509.06
737.566	4469.74
737.966	4444.51
738.365	4479.71
738.765	4474.73
739.165	4404.31
739.564	4377.63
739.964	4422.01
740.363	4377.61
740.763	4376.63
741.162	4365.75
741.561	4333
741.96	4289.96
742.36	4309.6
742.759	4312.4
743.158	4347.07
743.557	4358.55
743.955	4396.52
744.354	4350.84
744.753	4406.83
745.152	4365.05
745.55	4414.48
745.949	4409.1
746.348	4412.59
746.746	4428.4
747.144	4392.46
747.543	4369.12
747.941	4414.34
748.339	4346.62
748.737	4339.37
749.136	4328.21
749.534	4388.35
749.932	4362.63
750.33	4382.77
750.727	4434.18
751.125	4411.48
751.523	4395.32
751.921	4437.15
752.318	4407.56
752.716	4464.68
753.113	4478.77
753.511	4505.56
753.908	4508.03
754.305	4491.82
754.703	4551.67
755.1	4608.33
755.497	4663.46
755.894	4841.42
756.291	5010.75
756.688	5318.33
757.085	5728.07
757.482	6299.7
757.878	6923.87
758.275	7489.24
758.672	8273.24
759.068	8906.58
759.465	9817.69
759.861	10992.73
760.258	12358.24
760.654	13058.86
761.05	12954.22
761.447	12360.28
761.843	11514.71
762.239	10633.12
762.635	10234.23
763.031	9843.83
763.427	9294.05
763.822	8714.48
764.218	8138.46
764.614	7391.01
765.01	6894.22
765.405	6573.58
765.801	6327.13
766.196	6017.57
766.592	5846.05
766.987	5554.07
767.382	5357.72
767.778	5274.8
768.173	5149.05
768.568	5081.44
768.963	4966.15
769.358	4979.31
769.753	4933.65
770.148	4854.06
770.542	4849.71
770.937	4819.32
771.332	4901.81
771.726	4920.09
772.121	4858.22
772.515	4907.36
772.91	4895.75
773.304	4959.27
773.699	4899.73
774.093	4945.42
774.487	4999.39
774.881	5039.05
775.275	5031.95
775.669	4994.75
776.063	5033.49
776.457	5070.62
776.851	5002.72
777.245	4993.15
777.638	5026.45
778.032	5131.77
778.425	5100.01
778.819	5137.19
779.212	5098.91
779.606	5064.58
779.999	5080.86
780.392	5068.94
780.786	5144.44
781.179	5166.19
781.572	5205.74
781.965	5215.64
782.358	5161.74
782.751	5212.56
783.143	5170.31
783.536	5236.69
783.929	5276.08
784.322	5382.29
784.714	5411.49
785.107	5406.42
785.499	5469.6
785.891	5449.29
786.284	5432.14
786.676	5565.19
787.068	5548.07
787.46	5594.87
787.852	5612.99
788.245	5689.96
788.636	5719.12
789.028	5779.69
789.42	5817.37
789.812	5827.45
790.204	5915.27
790.595	6007.96
790.987	5825.49
791.378	5849.41
791.77	5969.3
792.161	6095.49
792.553	6149.18
792.944	6044.38
793.335	5979.01
793.726	6045.94
794.117	6131.97
794.508	6260.6
794.899	6231.07
795.29	6365.09
795.681	6419.85
796.072	6289.97
796.463	6120.37
796.853	6129.71
797.244	6277.03
797.634	6310.53
798.025	6309.76
798.415	6318.1
798.806	6402.15
799.196	6482.07
799.586	6524.57
799.976	6489.45
800.366	6701.28
800.756	6919.87
801.146	6882.6
801.536	6907.26
801.926	6973.89
802.316	6994.04
802.706	7060.16
803.095	6943.79
803.485	7039.68
803.874	7077.25
804.264	7315.09
804.653	7291.46
805.043	7425.89
805.432	7526.33
805.821	7528.79
806.21	7548.56
806.599	7655.05
806.988	7693.61
807.377	7791.55
807.766	7905.13
808.155	8165.78
808.544	7919.91
808.933	7927.24
809.321	7907.18
809.71	8178.15
810.098	8321.55
810.487	8741.78
810.875	9185.05
811.264	9207.38
811.652	9471.1
812.04	9605.45
812.428	9753.18
812.816	10453.91
813.204	10834.69
813.592	11338.4
813.98	11639.86
814.368	11552.44
814.756	11992.67
815.144	11915.55
815.531	12343.08
815.919	12278.65
816.306	12562.46
816.694	12282.66
817.081	12334.32
817.469	12655.44
817.856	12660.43
818.243	12910.95
818.63	13276.99
819.017	12887.48
819.404	12951.48
819.791	13292.91
820.178	13857.22
820.565	14084.98
820.952	14939.26
821.339	14483.7
821.725	14663.53
822.112	13976.48
822.498	13946.93
822.885	14064.24
823.271	13980.33
823.657	14369.25
824.044	14385
824.43	14447.15
824.816	14421.24
825.202	14024.84
825.588	14963.35
825.974	14973.07
826.36	15453.96
826.746	15483.06
827.132	15807.89
827.517	15786.93
827.903	15065.18
828.289	15101.2
828.674	14393.15
829.06	14294.35
829.445	14657.17
829.83	14993.88
830.216	15438.1
830.601	15771.8
830.986	15407.53
831.371	15289.82
831.756	15807.99
832.141	15415.85
832.526	15419.57
832.911	15682.28
833.295	15581.24
833.68	16017.72
834.065	15441.17
834.449	14599.18
834.834	14536.82
835.218	14528.65
835.603	14845.42
835.987	14653.51
836.371	15422.94
836.755	15326.89
837.139	15691.47
837.524	15912.85
837.908	15753.47
838.291	15808.94
838.675	15878.67
839.059	16065.24
839.443	16060.28
839.827	15846.09
840.21	16286.13
840.594	16141.45
840.977	16336.44
841.361	16328.75
841.744	16670.7
842.127	16518.13
842.511	16743.77
842.894	17284.17
843.277	17636.07
843.66	18121.76
844.043	18197.71
844.426	17455.75
844.809	17175.6
845.191	17202.36
845.574	16774.46
845.957	16443.4
846.339	16349.13
846.722	15866.56
847.104	15927.13
847.487	15766.68
847.869	15783.36
848.252	16039.94
848.634	16348.93
849.016	16591.33
849.398	16699.92
849.78	17479.6
850.162	17485.3
850.544	17863.53
850.926	18446.06
851.307	18370.11
851.689	18627.86
852.071	19045.56
852.452	19338.35
852.834	19316.99
853.215	19680.35
853.597	19813.55
853.978	20080.87
854.359	20495.43
854.741	19581.66
855.122	19483.19
855.503	19213.43
855.884	19334.74
856.265	19278.99
856.646	19394.34
857.026	19033.81
857.407	18983.47
857.788	19138.07
858.169	19393.38
858.549	18612.6
858.93	19178.93
859.31	19236.71
859.69	19431.57
860.071	19075.31
860.451	18869.02
860.831	18182.96
861.211	19250.78
861.591	19740.13
861.971	19708.02
862.351	19901.88
862.731	20251.6
863.111	20505.96
863.491	20799.24
863.87	21606.06
864.25	21920.14
864.629	21556.19
865.009	22017.66
865.388	22793.39
865.768	24432.98
866.147	24346
866.526	22991.52
866.905	23277.2
867.284	24573.37
867.663	23340.06
868.042	22361.86
868.421	22289.38
868.8	22658.65
869.179	22887.8
869.558	21554.78
869.936	19865.12
870.315	20213.5
870.693	20706.58
871.072	22330.95
871.45	21288.59
871.828	21561.72
872.207	22670.82
872.585	22323.96
872.963	22933
873.341	22156.62
873.719	21898.98
874.097	21645.64
874.475	22069.04
874.853	22574.68
875.23	21640.1
875.608	22542.38
875.986	24375.14
876.363	23324.8
876.741	24036.2
877.118	23430.26
877.495	24571.81
877.873	24974.86
878.25	26268.63
878.627	25190.81
879.004	25544.79
879.381	25421.05
879.758	24754.35
880.135	23043.54
880.512	24354.86
880.889	23714.78
881.265	23470.23
881.642	23265.98
882.019	23666.2
882.395	23182.68
882.772	24107.75
883.148	23058.73
883.524	22955.67
883.901	22811.27
884.277	23158.25
884.653	23011.73
885.029	23657.58
885.405	26201.62
885.781	25995.39
886.157	24920.1
886.532	25224.69
886.908	25192.94
887.284	28013.49
887.659	28928.94
888.035	29821.12
888.411	30587.79
888.786	30992.45
889.161	32074.31
889.537	31480.54
889.912	32502.83
890.287	32482.44
890.662	33323.46
891.037	32728.6
891.412	30523.82
891.787	30210.18
892.162	29161.76
892.536	29844.1
892.911	28719.72
893.286	28111.68
893.66	26959.11
894.035	27636.45
894.409	30076.09
894.784	28864.23
895.158	29344.76
895.532	31076.19
895.906	31929.34
896.281	32678.49
896.655	32152.7
897.029	36756.48
897.402	38267.98
897.776	42620.08
898.15	42475.65
898.524	42029.53
898.898	42591.76
899.271	47685.51
899.645	41292.25
900.018	39667.5
900.392	41124.83
900.765	41459.28
901.138	38346.49
901.511	37780.49
901.884	34698.22
902.258	32017.12
902.631	33080.17
903.003	38061.59
903.376	34332.53
903.749	38501.47
904.122	41193.87
904.495	45364.21
904.867	45915.35
905.24	39866.37
905.612	37105.79
905.985	37917.81
906.357	39645.98
906.729	37837.18
907.102	32320.07
907.474	31088.77
907.846	31293.88
908.218	30892.39
908.59	27301.06
908.962	26401.4
909.334	28420.36
909.705	29847.77
910.077	29004.4
910.449	30173.27
910.82	31012.8
911.192	34108.45
911.563	35432.91
911.935	37933.01
912.306	37988.07
912.677	39232.16
913.048	38850.13
913.419	42150.56
913.79	42395.47
914.161	45441.48
914.532	43439.82
914.903	39934.96
915.274	37947.78
915.645	37386.61
916.015	32882.63
916.386	31347.67
916.756	33347.27
917.127	34403.74
917.497	30737.37
917.868	33437.73
918.238	31781.35
918.608	32677.93
918.978	33349.82
919.348	35314.41
919.718	36512.31
920.088	35174.96
920.458	36548.38
920.828	38477.72
921.198	36473.87
921.567	38967.03
921.937	30202.38
922.306	30501.98
922.676	32917.02
923.045	27452.16
923.415	26071.31
923.784	23740.94
924.153	24425.31
924.522	24396.39
924.891	22945.01
925.26	24583.01
925.629	24009.44
925.998	27596.54
926.367	26924.94
926.736	25630.37
927.104	30533.96
927.473	32844.12
927.842	39655.74
928.21	39252.85
928.578	41273.85
928.947	39020.92
929.315	39246.03
929.683	46016.04
930.051	46377.21
930.42	53822.17
930.788	46023.23
931.156	45654.36
931.523	42759.85
931.891	39491.16
932.259	37907
932.627	43916.76
932.994	62112.93
933.362	51337.19
933.729	44571.53
934.097	42656.78
934.464	36118.07
934.831	41649.51
935.199	41069.65
935.566	39853.74
935.933	40372.16
936.3	48912.06
936.667	38070.14
937.034	34355.77
937.401	33963.24
937.767	29316.68
938.134	26110.29
938.501	36806.45
938.867	39229.16
939.234	66316.38
939.6	56576.33
939.967	62399.15
940.333	41778.19
940.699	35600.83
941.065	28520.11
941.431	37409.9
941.798	36074.35
942.163	47357.76
942.529	29563.55
942.895	27246.06
943.261	17620.59
943.627	23123.64
943.992	20249.39
944.358	20254.97
944.723	20329.81
945.089	19847.42
945.454	18329.75
945.82	19550.64
946.185	18776.98
946.55	21805.4
946.915	19555.24
947.28	22931.83
947.645	20180.86
948.01	18610.45
948.375	19436.24
948.74	23302.67
949.104	27150.94
949.469	39250.24
949.834	69373.44
950.198	65844.48
950.562	39422.72
950.927	32823.88
951.291	39534.9
951.655	33690.4
952.02	31677.09
952.384	23973.52
952.748	20861.59
953.112	20346.81
953.476	17694.5
953.839	16370.08
954.203	16191.04
954.567	20244.25
954.931	31891.11
955.294	27301.51
955.658	27472.26
956.021	46648.35
956.385	79019.78
956.748	116537.57
957.111	180757.28
957.474	202938.3
957.837	228607.64
958.2	173069.1
958.563	62260.31
958.926	42089.03
959.289	63810.27
959.652	71204.41
960.015	53484.32
960.377	76845.9
960.74	87694.06
961.102	151356.61
961.465	162551.8
961.827	86975.52
962.189	166747.35
962.552	115616.55
962.914	92780.24
963.276	60232.89
963.638	49808.09
964	49346.85
964.362	33345.18
964.724	32249.61
965.085	22994.23
965.447	18850.8
965.809	21500.35
966.17	21529.79
966.532	23284.61
966.893	21346.57
967.255	19435.49
967.616	22944.89
967.977	18377.83
968.338	20050.68
968.699	16462.09
969.061	16465.72
969.421	16573.98
969.782	18616.06
970.143	15715.68
970.504	16277.2
970.865	18499.26
971.225	18886.04
971.586	18469.89
971.946	26310.63
972.307	22854.61
972.667	29899.51
973.027	30839.77
973.388	37397.73
973.748	25425.56
974.108	27733.79
974.468	37532.53
974.828	28984.56
975.188	22325.38
975.548	20517.68
975.907	17209.17
976.267	19279.6
976.627	16181.19
976.986	16751.24
977.346	15948.77
977.705	15321.33
978.064	13947.46
978.424	11626.08
978.783	12000.56
979.142	13686.53
979.501	13078.66
979.86	13832.41
980.219	13333.07
980.578	17214.28
980.937	19293.72
981.296	17222.98
981.654	17749.32
982.013	27592.27
982.371	35761.23
982.73	33427.01
983.088	37851.08
983.447	40472.18
983.805	57897.99
984.163	121106.64
984.521	134376.66
984.879	197198.69
985.237	-320152.18
985.595	308858.27
985.953	76776.04
986.311	44329.2
986.669	25694.63
987.026	22188.16
987.384	29830.13
987.741	30801.74
988.099	21957.14
988.456	17511.74
988.814	16353.95
989.171	14231.89
989.528	14012.71
989.885	14808.52
990.242	11716.18
990.599	14609.45
990.956	11953.42
991.313	8362.35
991.67	6857.24
992.027	7285.25
992.383	6474.33
992.74	5673.42
993.096	5953.77
993.453	6176.18
993.809	6399.55
994.165	8543.4
994.522	7819.11
994.878	8611.03
995.234	10807.93
995.59	10683.38
995.946	10108.59
996.302	11528.68
996.658	13335.83
997.013	14682.66
997.369	17412.66
997.725	22259.22
998.08	14412.81
998.436	22292.83
998.791	30795.3
999.147	30862.6
999.502	33648.45
999.857	24491.94
1000.212	39947.81
1000.567	56934.32
1000.922	32880.81
1001.277	20906.09
1001.632	15545.16
1001.987	20012.3
1002.342	14329.88
1002.696	11440.23
1003.051	9081.7
1003.406	10991.37
1003.76	10937.87
1004.114	10782.04
1004.469	9072.86
1004.823	7505.2
1005.177	8094.79
1005.531	6401.96
1005.885	5673.91
1006.239	6393.91
1006.593	8016.44
1006.947	10736.25
1007.301	8066.58
1007.655	8778.17
1008.008	6437.86
1008.362	7230.49
1008.715	10335.65
1009.069	9399.34
1009.422	14150.07
1009.776	28386.1
1010.129	18891.44
1010.482	15795.25
1010.835	13343.85
1011.188	27777.05
1011.541	26202.67
1011.894	-160177.48
1012.247	471545.28
1012.6	32010.72
1012.952	20127.12
1013.305	10385.05
1013.657	7493.54
1014.01	7071.54
1014.362	5845.16
1014.715	5204.47
1015.067	4534.36
1015.419	4428.58
1015.771	3928.76
1016.123	3495.03
1016.475	3598.69
1016.827	3851.35
1017.179	4142.78
1017.531	4181.15
1017.883	4287.41
1018.234	4143.61
1018.586	5231.64
1018.938	5548.59
1019.289	7629.99
1019.64	8735.28
1019.992	8111.24
1020.343	7413.86
1020.694	5852.88
1021.045	5178.64
1021.396	5919.32
1021.747	6341.3
1022.098	7610.84
1022.449	5529.64
1022.8	5121.61
1023.151	3581.7
1023.501	3171.44
1023.852	3467.83
1024.202	3601.25
1024.553	3951.82
1024.903	3868.63
1025.253	3302.42
1025.604	2970.14
1025.954	3673.12
1026.304	4448.51
1026.654	5170.24
1027.004	7584.85
1027.354	12309.55
1027.703	11559.93
1028.053	15185.51
1028.403	22272.09
1028.753	32337.73
1029.102	43855.11
1029.452	225028.45
1029.801	9690.64
1030.15	6287.19
1030.499	5356.3
897.758	2357.22
901.051	2299.17
904.343	2334.44
907.636	2341.11
910.928	2402.42
914.22	2318.29
917.511	2324.9
920.803	2378.03
924.094	2385.37
927.384	2377.61
930.675	2341.94
933.965	2303.42
937.255	2324.56
940.544	2286.33
943.834	2270.34
947.123	2206.36
950.411	2298.12
953.7	2275.61
956.988	2252.39
960.276	2194.04
963.563	2255.08
966.851	2260.3
970.138	2305.57
973.424	2303.05
976.711	2263.47
979.997	2334.74
983.283	2381.35
986.568	2302.31
989.853	2304.13
993.138	2331.55
996.423	2413.2
999.708	2362.46
1002.992	2399.9
1006.275	2292.12
1009.559	2309.45
1012.842	2409.66
1016.125	2355.69
1019.408	2333.53
1022.69	2403.11
1025.972	2429.63
1029.254	2403.79
1032.536	2353.52
1035.817	2371.91
1039.098	2334.84
1042.379	2417.29
1045.659	2439.43
1048.939	2381.5
1052.219	2392.13
1055.498	2398
1058.778	2387.39
1062.057	2366.54
1065.335	2391.34
1068.614	2403.41
1071.892	2394.39
1075.17	2457.5
1078.447	2454.03
1081.724	2448.14
1085.001	2478.69
1088.278	2456.58
1091.554	2462.65
1094.83	2457.64
1098.106	2489.94
1101.382	2524.66
1104.657	2527.85
1107.932	2523.81
1111.206	2495.9
1114.481	2452.05
1117.755	2451.08
1121.029	2439.11
1124.302	2494.83
1127.575	2456.27
1130.848	2451.63
1134.121	2416.58
1137.393	2374.54
1140.665	2436.32
1143.937	2413.81
1147.208	2369.7
1150.48	2418.85
1153.75	2407.3
1157.021	2423.08
1160.291	2398.91
1163.561	2448.4
1166.831	2425.68
1170.101	2455.08
1173.37	2423.05
1176.639	2372.56
1179.907	2422.99
1183.176	2437.95
1186.444	2441.66
1189.711	2468.1
1192.979	2485.63
1196.246	2439.21
1199.513	2454.42
1202.78	2455.25
1206.046	2466.67
1209.312	2487.93
1212.578	2510.12
1215.843	2470.33
1219.108	2441.58
1222.373	2465.17
1225.638	2434.75
1228.902	2423.39
1232.166	2387.37
1235.43	2372.35
1238.693	2392.81
1241.956	2386.39
1245.219	2434.39
1248.482	2419.74
1251.744	2417.28
1255.006	2548.48
1258.268	2499.9
1261.529	2450.32
1264.79	2454.01
1268.051	2551.04
1271.312	2561.85
1274.572	2534.32
1277.832	2520.16
1281.092	2508.07
1284.351	2490.93
1287.61	2474.15
1290.869	2403.29
1294.128	2392.18
1297.386	2457.64
1300.644	2444.63
1303.902	2459.7
1307.159	2326.28
1310.416	2377.74
1313.673	2407.3
1316.93	2397.16
1320.186	2432.21
1323.442	2468.43
1326.697	2463.38
1329.953	2444.68
1333.208	2471.74
1336.463	2454.67
1339.717	2402.89
1342.972	2519.55
1346.226	2492.75
1349.479	2435.81
1352.733	2409.84
1355.986	2425.2
1359.238	2405.64
1362.491	2409.83
1365.743	2411.41
1368.995	2404.11
1372.247	2418.69
1375.498	2439.62
1378.749	2466.87
1382	2424.74
1385.251	2468.35
1388.501	2425.41
1391.751	2419.29
1395	2385.95
1398.25	2415.22
1401.499	2429.59
1404.748	2374.47
1407.996	2354.08
1411.244	2343.26
1414.492	2327.72
1417.74	2306.78
1420.987	2312.89
1424.234	2369.78
1427.481	2343.45
1430.728	2399.71
1433.974	2372.99
1437.22	2378.77
1440.465	2375.38
1443.711	2358
1446.956	2385.54
1450.201	2366.89
1453.445	2410.72
1456.689	2393.81
1459.933	2406.1
1463.177	2439.62
1466.42	2413.56
1469.663	2395.11
1472.906	2399.83
1476.148	2454.94
1479.391	2449.24
1482.633	2420.54
1485.874	2437.61
1489.115	2434.66
1492.356	2428.73
1495.597	2408.33
1498.838	2403.97
1502.078	2384.03
1505.318	2349.42
1508.557	2385.39
1511.797	2380.18
1515.036	2406.09
1518.274	2389.85
1521.513	2353.73
1524.751	2369.07
1527.989	2387.56
1531.227	2401.54
1534.464	2407.43
1537.701	2410.69
1540.938	2425.44
1544.174	2380.12
1547.41	2371.93
1550.646	2411.46
1553.882	2453.89
1557.117	2506.26
1560.352	2517.7
1563.587	2479.22
1566.821	2444.54
1570.055	2467.72
1573.289	2447.48
1576.523	2511.36
1579.756	2519.71
1582.989	2540.01
1586.222	2500.87
1589.454	2533.8
1592.686	2513.8
1595.918	2541.01
1599.15	2532.42
1602.381	2590.98
1605.612	2561.21
1608.843	2653.26
1612.073	2573.57
1615.303	2559.29
1618.533	2554.49
1621.762	2556.67
1624.992	2536.3
1628.221	2532.88
1631.449	2518.58
1634.678	2557.77
1637.906	2519.6
1641.134	2550.92
1644.361	2514.29
1647.588	2500.89
1650.815	2521.74
1654.042	2493.06
1657.269	2519.66
1660.495	2487.59
1663.72	2492.05
1666.946	2458.46
1670.171	2420.61
1673.396	2394.57
1676.621	2378.63
1679.845	2385.47
1683.069	2400.02
1686.293	2434.05
1689.517	2417.35
1692.74	2360.97
1695.963	2387.08
1699.185	2414.15
1702.408	2390.68
1705.63	2424.41
1708.852	2437.63
1712.073	2414.21
1715.294	2413.7
1718.515	2464.02
1721.736	2418.58
1724.956	2402.79
1728.176	2426.61
1731.396	2448.37
1734.616	2433.48
1737.835	2464.83
1741.054	2440.69
1744.272	2433.86
1747.491	2466.34
1750.709	2502.37
1753.927	2433.61
1757.144	2468.82
1760.361	2518.54
1763.578	2501.65
1766.795	2445.81
1770.011	2446.26
1773.227	2474.98
1776.443	2514.39
1779.658	2557.1
1782.874	2498.82
1786.089	2486.01
1789.303	2488.02
1792.518	2484.86
1795.732	2473.26
1798.945	2485.9
1802.159	2532.11
1805.372	2454.42
1808.585	2447.79
1811.797	2445.45
1815.01	2479.95
1818.222	2494.66
1821.434	2463.06
1824.645	2509.55
1827.856	2513
1831.067	2546.38
1834.278	2490.23
1837.488	2473.83
1840.698	2607.73
1843.908	2543.42
1847.117	2512.27
1850.326	2421.22
1853.535	2495.7
1856.744	2522.85
1859.952	2443.81
1863.16	2443.41
1866.368	2459.49
1869.575	2566.52
1872.782	2456.02
1875.989	2392.02
1879.196	2452.72
1882.402	2442.62
1885.608	2480.52
1888.814	2406.81
1892.019	2310.55
1895.224	2362.25
1898.429	2334.28
1901.634	2315.37
1904.838	2293.5
1908.042	2341.97
1911.246	2353.65
1914.449	2306.05
1917.652	2293.59
1920.855	2275.39
1924.058	2311.74
1927.26	2352.72
1930.462	2377.82
1933.664	2412.63
1936.865	2352.88
1940.066	2367.09
1943.267	2313.7
1946.467	2323.06
1949.668	2343.17
1952.868	2413.55
1956.067	2397.57
1959.267	2336.56
1962.466	2360.52
1965.665	2342.54
1968.863	2336.45
1972.061	2346.63
1975.259	2339.21
1978.457	2413.9
1981.654	2376.23
1984.852	2379.84
1988.048	2323.42
1991.245	2317.9
1994.441	2400.72
1997.637	2369.9
2000.833	2355.01
2004.028	2391.78
2007.223	2448.22
2010.418	2432.3
2013.613	2391.48
2016.807	2374.39
2020.001	2374.41
2023.194	2406.86
2026.388	2389.26
2029.581	2334.63
2032.774	2394.33
2035.966	2401.71
2039.158	2339.92
2042.35	2364.15
2045.542	2292.48
2048.733	2380.73
2051.924	2385.65
2055.115	2407.59
2058.306	2362.82
2061.496	2418.7
2064.686	2475.19
2067.875	2383.22
2071.065	2392.19
2074.254	2414.7
2077.442	2366.99
2080.631	2451.51
2083.819	2366.68
2087.007	2356.24
2090.195	2333.77
2093.382	2357.87
2096.569	2339.34
2099.756	2298.08
2102.942	2337.31
2106.128	2345.7
2109.314	2336.1
2112.5	2312.55
2115.685	2285.27
2118.87	2294.01
2122.055	2354.65
2125.239	2329.52
2128.424	2311.43
2131.608	2390.11
2134.791	2372.26
2137.974	2419.71
2141.157	2406.37
2144.34	2370.22
2147.523	2371.38
2150.705	2391.29
2153.887	2365.35
2157.068	2329.21
2160.25	2321.29
2163.431	2349.07
2166.611	2307.53
2169.792	2327.99
2172.972	2231.55
2176.152	2295.41
2179.331	2326.15
2182.511	2319.04
2185.69	2344.2
2188.868	2342.45
2192.047	2385.07
2195.225	2388.07
2198.403	2341.11
2201.58	2330.26
2204.758	2320.2
2207.935	2397.73
2211.111	2301.55
2214.288	2287.95
2217.464	2325.71
2220.64	2288.44
2223.815	2342
2226.991	2271.39
2230.166	2287.72
2233.34	2324.13
2236.515	2341.1
2239.689	2407.66
2242.863	2357.32
2246.036	2410.46
2249.209	2403.25
2252.382	2426.84
2255.555	2426.83
2258.727	2371.13
2261.9	2405.08
2265.071	2397.02
2268.243	2394.35
2271.414	2339.01
2274.585	2314.12
2277.756	2375.29
2280.926	2332.19
2284.096	2364.5
2287.266	2286.76
2290.436	2336.62
2293.605	2362.02
2296.774	2393.17
2299.942	2404.84
2303.111	2421.91
2306.279	2470.81
2309.447	2454.92
2312.614	2427.71
2315.781	2450.2
2318.948	2425.11
2322.115	2461.94
2325.281	2363.37
2328.447	2373.88
2331.613	2347.13
2334.779	2332.83
2337.944	2329.66
2341.109	2329.87
2344.274	2317.87
2347.438	2286.3
2350.602	2307.63
2353.766	2320.98
2356.929	2309.44
2360.092	2350.67
2363.255	2311.97
2366.418	2266.37
2369.58	2349.82
2372.742	2194.67
2375.904	2196.17
2379.066	2177.91
2382.227	2208.08
2385.388	2171.25
2388.548	2109.61
2391.709	2155.83
2394.869	2140.11
2398.029	2212.81
2401.188	2216.89
2404.347	2167.57
2407.506	2268.68
2410.665	2303.47
2413.823	2298.45
2416.981	2266.17
2420.139	2289.26
2423.296	2334.91
2426.453	2306.63
2429.61	2328.62
2432.767	2285.5
2435.923	2323.21
2439.079	2280.3
2442.235	2318.41
2445.391	2256.11
2448.546	2291.95
2451.701	2332.16
2454.855	2318.36
2458.009	2354.82
2461.163	2351.88
2464.317	2318.6
2467.471	2348.46
2470.624	2381.17
2473.777	2360.76
2476.929	2375.65
2480.082	2399.41
2483.234	2368.91
2486.385	2315.66
2489.537	2310.88
2492.688	2289.39
2495.839	2308.08
2498.989	2319.34
2502.14	2302.61
2505.29	2291.84
2508.439	2317.23
2511.589	2252.53
2514.738	2257.09
2517.887	2282.94
2521.035	2353.8
2524.183	2322.62
2527.331	2307.39
2530.479	2290.65
2533.627	2297.38
