Data from C_2_HIR_IL_4N_Splice17_12-12-12-429.txt Node
Date: Sat Mar 14 12:12:12 EDT 2020
User: sa697716
Spectrometer: FLMS03696
Trigger mode: 0
Integration Time (sec): 3.180400E-1
Scans to average: 20
Electric dark correction enabled: true
Nonlinearity correction enabled: true
Boxcar width: 5
XAxis mode: Wavelengths
Number of Pixels in Spectrum: 2048
>>>>>Begin Spectral Data<<<<<
187.83	-372868.56
188.298	2775.82
188.766	1444.52
189.233	1327.33
189.701	1852.64
190.169	2622.23
190.636	984.73
191.104	737.4
191.571	153.55
192.039	-1.72
192.506	19.81
192.974	542.47
193.441	-699.6
193.908	-137.21
194.375	1.85
194.842	74.57
195.31	149.45
195.777	167.77
196.244	320.52
196.711	397.31
197.177	495.99
197.644	716.42
198.111	1266.58
198.578	1771.62
199.045	1426.41
199.511	2302.28
199.978	2664.51
200.445	2287.56
200.911	2513.51
201.378	2810.64
201.844	2537.36
202.31	4325.91
202.777	4493.38
203.243	2477.87
203.709	2362.99
204.176	2822.53
204.642	2320.33
205.108	2171.94
205.574	1758.66
206.04	1611.57
206.506	1518.35
206.972	1437.42
207.438	1393.63
207.903	1589.91
208.369	1395.05
208.835	1390.88
209.301	1425.59
209.766	1480.72
210.232	1475.63
210.697	1835.06
211.163	2261.88
211.628	3385.7
212.094	2856.91
212.559	3546.08
213.024	2201.27
213.49	2666.65
213.955	2584.18
214.42	2548.62
214.885	2346.19
215.35	2251.86
215.815	2182.03
216.28	2303.65
216.745	1869.43
217.21	2011.32
217.675	1816.81
218.14	2032.95
218.604	2272.97
219.069	2590.53
219.534	2715.3
219.998	3151.65
220.463	3794.76
220.927	4621.2
221.392	4336.43
221.856	4393.64
222.32	5519.84
222.785	6838.52
223.249	8590.86
223.713	9575.63
224.177	9573.52
224.642	12245.02
225.106	15067.84
225.57	16468.2
226.034	12298.19
226.497	18767.48
226.961	16952.73
227.425	19769.46
227.889	21913.33
228.353	21976.31
228.816	45368.17
229.28	43417.92
229.744	36641.4
230.207	22268.97
230.671	21883.18
231.134	36180.48
231.597	41776.85
232.061	41827.36
232.524	40885.7
232.987	28206.27
233.45	25374.55
233.914	22785.22
234.377	23346.78
234.84	21427.94
235.303	25287.9
235.766	28304.38
236.229	29254.16
236.691	18408.29
237.154	20694.81
237.617	15582.95
238.08	15956.51
238.542	18694.49
239.005	13390.01
239.468	13324.11
239.93	12550.88
240.393	11422.99
240.855	10027.42
241.317	10274.88
241.78	12515.56
242.242	12962.19
242.704	14008.13
243.166	12216.36
243.629	11100.54
244.091	12784.32
244.553	14020.29
245.015	15084.78
245.477	19512.46
245.939	28628.07
246.4	30466.94
246.862	29634.63
247.324	27944.71
247.786	31238.15
248.247	40965.3
248.709	42325.08
249.17	31690.63
249.632	29909.38
250.093	34716.98
250.555	30014.45
251.016	18322.95
251.477	17367.78
251.939	18764.2
252.4	19676.22
252.861	23425.5
253.322	21812.85
253.783	25968.57
254.244	33668.89
254.705	26517.13
255.166	23563.01
255.627	23215.54
256.088	32764.44
256.549	34780.05
257.009	29938.24
257.47	36346.19
257.931	29601.1
258.391	22169.61
258.852	22872.82
259.312	23980.08
259.773	29618.98
260.233	25031.73
260.694	21099.44
261.154	23918.55
261.614	19204.32
262.074	17157.83
262.534	17817.1
262.994	16790.4
263.455	22376.11
263.915	18808.67
264.374	17714.13
264.834	19332.74
265.294	21419.74
265.754	22178.82
266.214	20971.25
266.673	19643.98
267.133	24775.81
267.593	24568.73
268.052	30035.92
268.512	26062.33
268.971	31457.68
269.431	34470.28
269.89	30833.05
270.349	46206.12
270.809	51460.13
271.268	46209.09
271.727	103459.72
272.186	66935.3
272.645	50194.7
273.104	36150.81
273.563	52330.94
274.022	41051.06
274.481	34896.63
274.94	26852.05
275.399	19917.02
275.857	23153.23
276.316	31281.05
276.775	27846.56
277.233	27402.9
277.692	25605.92
278.15	28933.69
278.609	29764.86
279.067	27532.69
279.525	25562.14
279.984	32989.2
280.442	39659.03
280.9	39138.31
281.358	25733.78
281.816	23937.42
282.274	23419.48
282.732	24204.34
283.19	24328.13
283.648	20950.36
284.106	22310.69
284.564	22663.54
285.021	21010.2
285.479	15625.57
285.937	14207.01
286.394	12465.23
286.852	12833.56
287.309	13491.6
287.767	13024.37
288.224	12385.61
288.682	13597.28
289.139	14935.23
289.596	13673.41
290.053	14203.86
290.511	17918.66
290.968	21709.21
291.425	29457.09
291.882	24497.81
292.339	21304.06
292.796	21138.13
293.252	19922.68
293.709	15851.48
294.166	14187.89
294.623	15668.89
295.079	15022.89
295.536	15103.49
295.992	13701.62
296.449	13552.97
296.905	14096.53
297.362	13535.83
297.818	14210.5
298.274	14740.88
298.731	14993.47
299.187	14843.63
299.643	15907.65
300.099	19264.85
300.555	21127.98
301.011	17645.04
301.467	17005.2
301.923	19881.88
302.379	19397.89
302.835	19079.87
303.291	19092.95
303.746	21709.98
304.202	27411.61
304.658	27556.37
305.113	18506.31
305.569	18148.63
306.024	19361.67
306.479	18442.82
306.935	15534.58
307.39	16952.16
307.845	15630.82
308.301	15744.29
308.756	15353.45
309.211	14800.53
309.666	15152.68
310.121	18845.14
310.576	19108.72
311.031	18983.95
311.486	21736.59
311.94	21721.78
312.395	29063.2
312.85	54687.68
313.305	268377.26
313.759	1389987.29
314.214	100771.32
314.668	79869.38
315.123	67175.46
315.577	24133.37
316.032	21419.73
316.486	26848.46
316.94	21200.01
317.394	14756.08
317.849	11457.17
318.303	10850.29
318.757	10251.83
319.211	11319.91
319.665	9930.71
320.119	10033.09
320.572	14354.43
321.026	13432.31
321.48	11169.39
321.934	12181.2
322.387	12211.23
322.841	13200.87
323.295	11865.41
323.748	13647.94
324.202	13852.31
324.655	16630.1
325.108	23282.18
325.562	16451.78
326.015	19559.02
326.468	14776.99
326.921	16552.34
327.374	15461.01
327.827	16121.65
328.28	18237.52
328.733	12234.45
329.186	10764.93
329.639	10248.35
330.092	8632.09
330.545	8213.93
330.997	8287.06
331.45	9087.8
331.903	10641.14
332.355	18294.37
332.808	17748.41
333.26	14666.34
333.713	15936.02
334.165	16080.87
334.617	21485.95
335.069	17357.1
335.522	31398.18
335.974	34754.57
336.426	31666.31
336.878	21928.01
337.33	11127.32
337.782	10897.08
338.234	13641.47
338.686	16327.31
339.137	19333.84
339.589	18214.39
340.041	14293.16
340.493	12306.46
340.944	12606.1
341.396	13582.25
341.847	11437.15
342.299	13480.74
342.75	16449.55
343.201	14368.8
343.653	16492.88
344.104	20239.75
344.555	15927.72
345.006	24760.07
345.457	18992.38
345.908	15089.13
346.359	14191.89
346.81	11557.4
347.261	12197.56
347.712	11995.68
348.163	12853.87
348.613	13019.39
349.064	12163.32
349.515	10650.25
349.965	10897.47
350.416	13086.4
350.866	14324.49
351.317	16198.61
351.767	26808.91
352.217	33852.74
352.668	28121.12
353.118	25828.47
353.568	24831.65
354.018	19609.02
354.468	20678.18
354.918	14876.68
355.368	13037.77
355.818	18410.81
356.268	52866.52
356.718	221409.46
357.168	55011.27
357.617	27560.84
358.067	30573.56
358.517	28700.33
358.966	33659.09
359.416	37728.08
359.865	40704.78
360.315	48357.92
360.764	22630.52
361.213	12676.32
361.663	11988.51
362.112	14777.17
362.561	23894.72
363.01	18039.88
363.459	15162.58
363.908	16429.91
364.357	13966.68
364.806	23596.13
365.255	16228.84
365.703	14836.8
366.152	14853.65
366.601	12038.11
367.05	9784.35
367.498	8866.2
367.947	9247.62
368.395	9618.02
368.844	8520.2
369.292	10256.12
369.74	7090.62
370.189	10847.19
370.637	12726.78
371.085	10985.21
371.533	13332.47
371.981	12844.45
372.429	12264.76
372.877	12745.66
373.325	10661.17
373.773	10826.18
374.221	9618.95
374.669	11895.19
375.116	10285.1
375.564	10349.43
376.012	11543.31
376.459	9556.62
376.907	11391.41
377.354	13713.07
377.801	12785.33
378.249	14687.01
378.696	18707.77
379.143	22631.87
379.591	24115.88
380.038	40635.1
380.485	29298.47
380.932	31562.1
381.379	28828.27
381.826	21221.3
382.273	15081.12
382.72	13164.32
383.166	12799.4
383.613	8301.15
384.06	7466.06
384.506	8642.39
384.953	6339.12
385.4	6373.61
385.846	5580.78
386.292	5408.84
386.739	5276.46
387.185	5213.11
387.631	5207.96
388.078	5063.95
388.524	5410.41
388.97	4995.43
389.416	4155.85
389.862	4417
390.308	4179.83
390.754	4244.4
391.2	4596.51
391.645	4708.41
392.091	4512.24
392.537	4361.31
392.983	4342.32
393.428	4275.74
393.874	4583.09
394.319	4612.64
394.765	4376.26
395.21	4494.75
395.655	4216.62
396.101	3957.94
396.546	3566.27
396.991	3583.02
397.436	3326.87
397.881	3210.08
398.326	3039.18
398.771	2873.27
399.216	2503.9
399.661	2254.29
400.106	2249.85
400.551	2305.61
400.995	2068.12
401.44	2047.79
401.885	1923.56
402.329	1940.13
402.774	1864.74
403.218	1807.8
403.663	1739.35
404.107	1789
404.551	1803.23
404.995	1652.6
405.44	1587.66
405.884	1608.61
406.328	1553.32
406.772	1550.36
407.216	1414.18
407.66	1367.16
408.104	1293.56
408.547	1210.22
408.991	1168.32
409.435	1123.67
409.879	1111.35
410.322	1100.08
410.766	1066.77
411.209	1016.17
411.653	976.02
412.096	959.66
412.54	960.71
412.983	957.88
413.426	963.74
413.869	965.01
414.312	949.06
414.756	911.59
415.199	868.96
415.642	844.26
416.085	847.44
416.527	841.92
416.97	851.66
417.413	808.96
417.856	799.38
418.298	790.36
418.741	783.3
419.184	778.92
419.626	810.65
420.069	811.01
420.511	815.22
420.953	797.88
421.396	790.36
421.838	769.59
422.28	786.08
422.722	791.93
423.164	802.45
423.606	791.15
424.048	791.4
424.49	754.06
424.932	750.01
425.374	740.62
425.816	751.86
426.258	763.79
426.699	773.65
427.141	766.54
427.582	778.26
428.024	775.25
428.465	768.93
428.907	748.44
429.348	738.62
429.789	740.76
430.231	724.5
430.672	736.36
431.113	720.76
431.554	710.61
431.995	689.67
432.436	665.05
432.877	650.17
433.318	641.76
433.759	639.88
434.2	640.88
434.64	633.18
435.081	633.97
435.522	600.67
435.962	580.03
436.403	568.72
436.843	576.4
437.284	562.84
437.724	547.39
438.164	548.5
438.604	536.53
439.045	516.55
439.485	495.68
439.925	486.02
440.365	474.3
440.805	467.71
441.245	462.14
441.685	446.11
442.125	442.51
442.564	445.17
443.004	434.75
443.444	435.25
443.883	437.16
444.323	433.38
444.762	432.11
445.202	438.65
445.641	448.82
446.081	446.52
446.52	451.09
446.959	449.35
447.398	440.44
447.837	435.44
448.276	427.51
448.716	434.04
449.154	438.23
449.593	431.19
450.032	429.54
450.471	420.18
450.91	420.98
451.349	421.83
451.787	419.9
452.226	425.35
452.664	426.05
453.103	427.08
453.541	423.27
453.98	423.67
454.418	425.67
454.856	419.45
455.295	418.58
455.733	422
456.171	423.5
456.609	425.42
457.047	425.58
457.485	432.35
457.923	434.53
458.361	429.93
458.798	430.65
459.236	429.93
459.674	432.23
460.111	434.99
460.549	431.67
460.987	429.69
461.424	426.95
461.862	425.65
462.299	419.52
462.736	419.91
463.173	421.13
463.611	419.39
464.048	419.46
464.485	424.22
464.922	420.31
465.359	417.17
465.796	416.43
466.233	414.27
466.67	410.88
467.106	409.38
467.543	402.9
467.98	397.17
468.416	385.41
468.853	381.11
469.29	368.6
469.726	365.1
470.162	354.99
470.599	346.58
471.035	342.35
471.471	333.77
471.907	331.51
472.344	330.16
472.78	331.85
473.216	335.36
473.652	331.53
474.088	330.93
474.523	330.09
474.959	333.66
475.395	329.75
475.831	327.61
476.266	329.81
476.702	328.02
477.138	324.73
477.573	322.32
478.008	320.91
478.444	322.39
478.879	326.15
479.314	326.88
479.75	326.12
480.185	327.97
480.62	330.29
481.055	331.24
481.49	334.31
481.925	338.36
482.36	345.15
482.795	354.43
483.229	363.16
483.664	370.02
484.099	371.96
484.534	379.2
484.968	383.86
485.403	385.72
485.837	385.25
486.271	384.76
486.706	386.03
487.14	382.52
487.574	377.29
488.009	375.06
488.443	372.22
488.877	377.58
489.311	379.06
489.745	384.24
490.179	389.33
490.613	399.41
491.046	404.23
491.48	408.34
491.914	411.04
492.348	416.64
492.781	421.43
493.215	424.74
493.648	426.85
494.082	432.49
494.515	435.44
494.948	443
495.382	447.89
495.815	453.83
496.248	461.13
496.681	471.69
497.114	481.33
497.547	490.69
497.98	503.24
498.413	511.68
498.846	522.35
499.279	531.74
499.711	539.08
500.144	545.21
500.577	557.51
501.009	569.8
501.442	581.57
501.874	587.84
502.306	595.76
502.739	607.43
503.171	623.36
503.603	630.9
504.036	643.2
504.468	652.93
504.9	667.09
505.332	677.29
505.764	686.56
506.196	697.95
506.627	715.27
507.059	731.21
507.491	743.45
507.923	748.05
508.354	766.36
508.786	781.62
509.217	802.11
509.649	820.14
510.08	841.77
510.512	861.55
510.943	880.4
511.374	896.45
511.805	919.23
512.237	940.74
512.668	974.89
513.099	1004
513.53	1033.26
513.961	1057.08
514.391	1091.08
514.822	1126.78
515.253	1163.97
515.684	1191.64
516.114	1223.12
516.545	1247.16
516.975	1276.11
517.406	1295.4
517.836	1302.62
518.267	1313.42
518.697	1334.19
519.127	1342.02
519.558	1351.46
519.988	1357.72
520.418	1371.07
520.848	1390.3
521.278	1401.04
521.708	1421.5
522.138	1437.01
522.567	1467.69
522.997	1493.28
523.427	1509.37
523.857	1527.98
524.286	1539.89
524.716	1556.77
525.145	1575.86
525.575	1587.96
526.004	1603.69
526.433	1599.08
526.863	1600.7
527.292	1592.65
527.721	1598.87
528.15	1606.07
528.579	1607.31
529.008	1620.01
529.437	1642.4
529.866	1656.9
530.295	1673.64
530.724	1686.05
531.152	1712.32
531.581	1727.22
532.01	1744.05
532.438	1753.12
532.867	1768.02
533.295	1785.71
533.723	1790.67
534.152	1789.84
534.58	1790.3
535.008	1776.35
535.436	1779.5
535.865	1787.44
536.293	1801.15
536.721	1819.13
537.149	1844.92
537.576	1848.67
538.004	1862.51
538.432	1871.49
538.86	1869.57
539.287	1877.28
539.715	1891.23
540.143	1894.32
540.57	1891.38
540.998	1887.99
541.425	1865.64
541.852	1844.74
542.28	1841.94
542.707	1824.64
543.134	1810.77
543.561	1807.08
543.988	1799.17
544.415	1799.3
544.842	1792.75
545.269	1785.14
545.696	1787.29
546.123	1799.46
546.549	1788.55
546.976	1775.78
547.403	1775.81
547.829	1777.73
548.256	1779.34
548.682	1775.79
549.108	1767.12
549.535	1766.93
549.961	1768.21
550.387	1754.75
550.813	1748.72
551.24	1754.96
551.666	1756.26
552.092	1747.57
552.518	1740.39
552.943	1733.82
553.369	1740.73
553.795	1745.94
554.221	1747.4
554.646	1744.92
555.072	1755
555.498	1758.88
555.923	1768.37
556.349	1782.13
556.774	1789.55
557.199	1790.52
557.625	1796.61
558.05	1789.95
558.475	1799.66
558.9	1797.36
559.325	1788.55
559.75	1782.63
560.175	1776.8
560.6	1769.35
561.025	1767.12
561.449	1767.64
561.874	1773.19
562.299	1777.24
562.723	1782.6
563.148	1771.85
563.572	1776.09
563.997	1785.1
564.421	1788.72
564.846	1787.89
565.27	1790.75
565.694	1787.51
566.118	1798.14
566.542	1803.78
566.966	1796.29
567.39	1792.87
567.814	1782.71
568.238	1780.95
568.662	1785.6
569.086	1787.38
569.509	1794.41
569.933	1778.64
570.357	1771.51
570.78	1750.61
571.204	1737.78
571.627	1726.53
572.05	1723.4
572.474	1722.62
572.897	1709.48
573.32	1700.94
573.743	1691.77
574.166	1671.98
574.589	1671.21
575.012	1662.75
575.435	1661.16
575.858	1651.22
576.281	1639.45
576.704	1622.55
577.126	1608.77
577.549	1596.98
577.972	1586.27
578.394	1574.63
578.817	1568.51
579.239	1549.9
579.661	1536.15
580.084	1519.82
580.506	1506.22
580.928	1502.07
581.35	1491.6
581.772	1486.73
582.194	1473.61
582.616	1460.5
583.038	1445.93
583.46	1434.45
583.882	1430.24
584.303	1432.59
584.725	1426.74
585.147	1428.45
585.568	1437.67
585.99	1448.43
586.411	1453.42
586.833	1468.24
587.254	1470.49
587.675	1482.35
588.096	1493.24
588.518	1487.52
588.939	1471.62
589.36	1469.4
589.781	1458
590.202	1430.04
590.623	1421.31
591.043	1418.54
591.464	1404.4
591.885	1399.96
592.305	1394.9
592.726	1381.48
593.147	1382.41
593.567	1376.72
593.987	1369.72
594.408	1364.07
594.828	1361.85
595.248	1355.9
595.669	1338.68
596.089	1331.39
596.509	1324.55
596.929	1310.65
597.349	1310.19
597.769	1300.27
598.189	1294.15
598.608	1295.17
599.028	1296.68
599.448	1296.08
599.867	1283.27
600.287	1278.03
600.706	1273.79
601.126	1264.3
601.545	1263.86
601.965	1262.59
602.384	1257.53
602.803	1259.83
603.222	1253.84
603.641	1248.09
604.061	1244.08
604.48	1239.51
604.898	1246
605.317	1249.76
605.736	1250.12
606.155	1245.66
606.574	1236.67
606.992	1240.73
607.411	1234.69
607.829	1226.76
608.248	1222.53
608.666	1219.32
609.085	1218.5
609.503	1210.41
609.921	1203.87
610.339	1204.78
610.758	1203.49
611.176	1198.19
611.594	1188.86
612.012	1185.02
612.43	1187.02
612.847	1191.15
613.265	1191.84
613.683	1194.58
614.101	1194.67
614.518	1190.29
614.936	1180.8
615.353	1166.4
615.771	1161.98
616.188	1160.37
616.606	1156.63
617.023	1148.32
617.44	1133.99
617.857	1126.03
618.274	1116.97
618.691	1110.4
619.108	1100.27
619.525	1094.16
619.942	1098.85
620.359	1099.68
620.776	1094.58
621.192	1089.78
621.609	1087.76
622.026	1093.41
622.442	1097.89
622.859	1099.22
623.275	1091.68
623.691	1096.08
624.108	1104.31
624.524	1115.74
624.94	1115.25
625.356	1123.53
625.772	1134.89
626.188	1144.39
626.604	1144.85
627.02	1141.71
627.436	1141.05
627.852	1147.38
628.268	1157.4
628.683	1149.09
629.099	1141.71
629.514	1137.75
629.93	1140.93
630.345	1143.82
630.761	1139.67
631.176	1141.65
631.591	1134.92
632.007	1128.04
632.422	1125.36
632.837	1114.76
633.252	1111.46
633.667	1100.55
634.082	1091.05
634.497	1076.67
634.911	1057.48
635.326	1051.52
635.741	1035.07
636.155	1023.88
636.57	1022.58
636.984	1018.85
637.399	1017.4
637.813	1013.82
638.228	1009.98
638.642	1010.58
639.056	999.8
639.47	997.05
639.884	986.62
640.298	977.02
640.712	971.69
641.126	957.08
641.54	946.1
641.954	936.04
642.368	922.61
642.781	913.26
643.195	895.34
643.609	890.63
644.022	881.34
644.436	874.12
644.849	861.03
645.262	847.67
645.676	844.53
646.089	836.63
646.502	822.94
646.915	815.21
647.328	798.62
647.741	792.87
648.154	781.13
648.567	776.63
648.98	764.71
649.393	762.77
649.805	757.61
650.218	750.24
650.631	737.35
651.043	730.46
651.456	724.52
651.868	722.57
652.28	733.24
652.693	740.57
653.105	742.92
653.517	747.51
653.929	745.32
654.341	748.57
654.753	737.07
655.165	738.69
655.577	734.31
655.989	726.99
656.401	717.38
656.813	689.84
657.224	673.14
657.636	649.55
658.047	634.43
658.459	617.7
658.87	607.86
659.282	596.81
659.693	580.71
660.104	567.99
660.515	555.65
660.926	550.75
661.338	544.88
661.749	535.47
662.159	526.9
662.57	519.56
662.981	513.72
663.392	505.24
663.803	503.86
664.213	497.78
664.624	491.31
665.035	490.1
665.445	479.28
665.855	472.05
666.266	466.75
666.676	461.86
667.086	453.75
667.497	450.96
667.907	444.29
668.317	436.76
668.727	433.47
669.137	431.8
669.547	429.11
669.956	429.02
670.366	429.41
670.776	428.44
671.186	429.92
671.595	431.58
672.005	432.01
672.414	432.02
672.824	431.74
673.233	432.47
673.642	433.35
674.052	435.69
674.461	437.85
674.87	440.37
675.279	439.52
675.688	440.84
676.097	442.88
676.506	442.13
676.915	451.6
677.323	454.22
677.732	455.92
678.141	458.52
678.549	453.29
678.958	454.5
679.366	455.76
679.775	460.56
680.183	470.77
680.592	476.3
681	483.56
681.408	482.97
681.816	491.4
682.224	499.78
682.632	511.03
683.04	535.18
683.448	556.29
683.856	582.31
684.264	612.95
684.671	640.07
685.079	675.83
685.487	714.61
685.894	765.8
686.302	811.99
686.709	854.37
687.116	901.54
687.524	945.18
687.931	985.04
688.338	1021.77
688.745	1053.25
689.152	1091.3
689.559	1138.28
689.966	1185.55
690.373	1216.34
690.78	1262
691.187	1326.67
691.593	1378.41
692	1424.06
692.407	1486.75
692.813	1562.85
693.22	1627.58
693.626	1690.43
694.032	1742.52
694.439	1817.7
694.845	1879.04
695.251	1954.32
695.657	2020.48
696.063	2116.46
696.469	2190.34
696.875	2259.56
697.281	2300.67
697.687	2349.02
698.093	2390.69
698.498	2465.75
698.904	2523.38
699.31	2608.9
699.715	2669.55
700.12	2756.48
700.526	2776.57
700.931	2843.34
701.337	2895.84
701.742	2928.2
702.147	3009.37
702.552	3042.11
702.957	3100.58
703.362	3122.48
703.767	3151.21
704.172	3190.36
704.577	3148.31
704.981	3195.54
705.386	3213.91
705.791	3207.35
706.195	3280.52
706.6	3288.36
707.004	3362.19
707.408	3333.34
707.813	3358.17
708.217	3346.39
708.621	3350.76
709.025	3444.26
709.43	3445.48
709.834	3501.67
710.237	3567.88
710.641	3553.2
711.045	3575.8
711.449	3569.81
711.853	3596.39
712.256	3634.73
712.66	3670.12
713.064	3738.82
713.467	3778.03
713.87	3883
714.274	3926.94
714.677	4028.6
715.08	4179.5
715.484	4338.75
715.887	4533.33
716.29	4721.68
716.693	4923.38
717.096	5149.95
717.499	5272.35
717.901	5295.71
718.304	5319.08
718.707	5342.12
719.109	5245.44
719.512	5216.54
719.915	5086.55
720.317	5030.35
720.719	5070.27
721.122	5037.59
721.524	4989.07
721.926	4952.11
722.328	5046.25
722.731	5038.65
723.133	5064.63
723.535	5248.34
723.937	5268.33
724.338	5317.58
724.74	5358.12
725.142	5296.83
725.544	5298.88
725.945	5324
726.347	5322.24
726.748	5312.95
727.15	5326.12
727.551	5287.57
727.952	5258.79
728.354	5231.36
728.755	5230.67
729.156	5188.42
729.557	5178.3
729.958	5061.49
730.359	5009.78
730.76	4988.77
731.161	4932.5
731.562	4909.18
731.962	4912.57
732.363	4852.53
732.763	4788.6
733.164	4819.71
733.564	4756.49
733.965	4666.33
734.365	4632.78
734.766	4658.09
735.166	4622.2
735.566	4572.61
735.966	4545.54
736.366	4538.73
736.766	4480.37
737.166	4509.81
737.566	4471.21
737.966	4445.44
738.365	4479.57
738.765	4472.08
739.165	4401.68
739.564	4376.05
739.964	4414.16
740.363	4369.38
740.763	4369.02
741.162	4357.24
741.561	4329.35
741.96	4284.65
742.36	4300.75
742.759	4306.2
743.158	4342.68
743.557	4355.85
743.955	4392.16
744.354	4349.22
744.753	4401.06
745.152	4358.21
745.55	4406.32
745.949	4397.08
746.348	4401.96
746.746	4416.6
747.144	4379.98
747.543	4357.96
747.941	4403.82
748.339	4336.36
748.737	4330.5
749.136	4323.28
749.534	4387.74
749.932	4363.24
750.33	4387
750.727	4437.8
751.125	4417.74
751.523	4402.3
751.921	4442.16
752.318	4409.7
752.716	4465.61
753.113	4478.15
753.511	4502.28
753.908	4500.41
754.305	4486.71
754.703	4544.12
755.1	4600.14
755.497	4657.02
755.894	4834.59
756.291	5003.14
756.688	5308.23
757.085	5716.63
757.482	6292.41
757.878	6920.94
758.275	7492.64
758.672	8271.21
759.068	8906.61
759.465	9813.7
759.861	10986.31
760.258	12340.54
760.654	13043.13
761.05	12941.34
761.447	12348.49
761.843	11492.75
762.239	10609.91
762.635	10207.18
763.031	9825
763.427	9274.49
763.822	8695.77
764.218	8124.98
764.614	7383.31
765.01	6881.93
765.405	6560.26
765.801	6319.39
766.196	6010.13
766.592	5837.38
766.987	5544.96
767.382	5347.95
767.778	5261.91
768.173	5139.42
768.568	5070.62
768.963	4955.16
769.358	4973.75
769.753	4930.52
770.148	4850.45
770.542	4846.99
770.937	4815.56
771.332	4898.18
771.726	4914.08
772.121	4855.45
772.515	4907.9
772.91	4894.38
773.304	4958.94
773.699	4895.5
774.093	4945.16
774.487	4995.7
774.881	5034.93
775.275	5029.16
775.669	4989.08
776.063	5028.94
776.457	5059.93
776.851	4989.02
777.245	4980.02
777.638	5009.51
778.032	5115.15
778.425	5081.36
778.819	5120.41
779.212	5081.31
779.606	5048.73
779.999	5068.09
780.392	5052.89
780.786	5133.08
781.179	5152.99
781.572	5191.13
781.965	5204.21
782.358	5153.05
782.751	5202.93
783.143	5158.48
783.536	5224.07
783.929	5262.91
784.322	5366.18
784.714	5396.43
785.107	5389.94
785.499	5458.27
785.891	5440.07
786.284	5424.58
786.676	5555.58
787.068	5537.64
787.46	5583.8
787.852	5607.24
788.245	5686.08
788.636	5716.09
789.028	5775.36
789.42	5814.71
789.812	5820.12
790.204	5907.73
790.595	5997.62
790.987	5820.09
791.378	5845.78
791.77	5969.2
792.161	6091.1
792.553	6143.3
792.944	6043.87
793.335	5981.16
793.726	6045.54
794.117	6128.89
794.508	6255.65
794.899	6224.14
795.29	6352.84
795.681	6402.35
796.072	6270.83
796.463	6101.55
796.853	6111.85
797.244	6255.9
797.634	6291.86
798.025	6294.45
798.415	6308.66
798.806	6390.45
799.196	6470.58
799.586	6516.89
799.976	6482.04
800.366	6694.2
800.756	6915.97
801.146	6873.91
801.536	6901
801.926	6966.57
802.316	6988.9
802.706	7053.3
803.095	6943.46
803.485	7040.28
803.874	7075.89
804.264	7316.66
804.653	7291
805.043	7423.54
805.432	7526.42
805.821	7524.62
806.21	7540.66
806.599	7646.84
806.988	7688.33
807.377	7780.98
807.766	7896.09
808.155	8153.06
808.544	7909.14
808.933	7917.81
809.321	7898.34
809.71	8170.92
810.098	8311.51
810.487	8734.61
810.875	9177.84
811.264	9194.08
811.652	9460.25
812.04	9597.27
812.428	9744.73
812.816	10440.06
813.204	10828.42
813.592	11340.97
813.98	11646.49
814.368	11558.51
814.756	11998.32
815.144	11916.45
815.531	12338.59
815.919	12270.77
816.306	12549.03
816.694	12267.48
817.081	12321.16
817.469	12637.6
817.856	12629.38
818.243	12875.64
818.63	13234.91
819.017	12855.14
819.404	12921.81
819.791	13279.65
820.178	13848.34
820.565	14076.98
820.952	14934.82
821.339	14481.59
821.725	14650.5
822.112	13976.82
822.498	13944.83
822.885	14071.74
823.271	13981.76
823.657	14363.06
824.044	14364.09
824.43	14435.94
824.816	14404.4
825.202	14009.08
825.588	14953.92
825.974	14970.3
826.36	15442.68
826.746	15474.61
827.132	15802.99
827.517	15783.16
827.903	15066.01
828.289	15113.53
828.674	14391.4
829.06	14304.09
829.445	14671.19
829.83	14996.99
830.216	15442.51
830.601	15775.19
830.986	15398.76
831.371	15281.45
831.756	15799.83
832.141	15412.37
832.526	15404.17
832.911	15669.27
833.295	15564.77
833.68	15998.3
834.065	15428.89
834.449	14589.18
834.834	14527.42
835.218	14528.91
835.603	14842.5
835.987	14647.03
836.371	15412.99
836.755	15318.58
837.139	15691.57
837.524	15916.5
837.908	15749.58
838.291	15800.52
838.675	15865.06
839.059	16052.46
839.443	16038.39
839.827	15823.79
840.21	16262.33
840.594	16124.95
840.977	16311.31
841.361	16284.97
841.744	16623.26
842.127	16479.88
842.511	16716
842.894	17258.65
843.277	17605.42
843.66	18104.36
844.043	18185.36
844.426	17442.08
844.809	17152.94
845.191	17178.47
845.574	16760.58
845.957	16430.76
846.339	16333.74
846.722	15837.04
847.104	15895.07
847.487	15739.56
847.869	15750.02
848.252	15997.11
848.634	16309.56
849.016	16557.09
849.398	16670.24
849.78	17448.11
850.162	17448.58
850.544	17828.78
850.926	18407.28
851.307	18330.52
851.689	18581.69
852.071	19002.56
852.452	19305.71
852.834	19286.77
853.215	19641.03
853.597	19786.85
853.978	20052.25
854.359	20465.85
854.741	19549.31
855.122	19462.94
855.503	19190.45
855.884	19318.24
856.265	19255.63
856.646	19359.12
857.026	18987.38
857.407	18933.01
857.788	19082.81
858.169	19345.01
858.549	18576.42
858.93	19154.41
859.31	19195.84
859.69	19393.56
860.071	19029.77
860.451	18824.8
860.831	18146.77
861.211	19219.91
861.591	19727.5
861.971	19701.68
862.351	19883.16
862.731	20237.53
863.111	20472.27
863.491	20780.75
863.87	21595.01
864.25	21907.14
864.629	21544.48
865.009	22013.42
865.388	22792.74
865.768	24413.73
866.147	24316.49
866.526	22983.4
866.905	23254.4
867.284	24570.53
867.663	23332.4
868.042	22363.84
868.421	22296.77
868.8	22666.41
869.179	22892.43
869.558	21559.23
869.936	19880.36
870.315	20233.27
870.693	20720.34
871.072	22345.47
871.45	21287.09
871.828	21559.37
872.207	22664.02
872.585	22330.08
872.963	22944.87
873.341	22146.82
873.719	21882.94
874.097	21614.18
874.475	22026.27
874.853	22534.21
875.23	21591.16
875.608	22494.46
875.986	24336
876.363	23272.09
876.741	23970.02
877.118	23370.06
877.495	24525.98
877.873	24937.12
878.25	26241.87
878.627	25171.91
879.004	25517.86
879.381	25393.76
879.758	24719.14
880.135	23013.52
880.512	24331.34
880.889	23680.17
881.265	23436.66
881.642	23246.61
882.019	23640.55
882.395	23157.46
882.772	24072.97
883.148	23032.3
883.524	22953.03
883.901	22817.15
884.277	23148.06
884.653	22995.46
885.029	23662.01
885.405	26196.05
885.781	25991.57
886.157	24911.1
886.532	25213.93
886.908	25205.11
887.284	28020.87
887.659	28923.81
888.035	29831.76
888.411	30599.61
888.786	31000.51
889.161	32085.26
889.537	31495.52
889.912	32495.98
890.287	32474.68
890.662	33304.63
891.037	32686.54
891.412	30481.32
891.787	30186.07
892.162	29113.46
892.536	29796.95
892.911	28689
893.286	28073.04
893.66	26938.16
894.035	27627.93
894.409	30085.09
894.784	28884.5
895.158	29366.6
895.532	31104.08
895.906	31933.28
896.281	32691.73
896.655	32179.48
897.029	36759.81
897.402	38284.24
897.776	42631.82
898.15	42488.5
898.524	42028.98
898.898	42589.31
899.271	47691.64
899.645	41301.32
900.018	39678.6
900.392	41160.49
900.765	41479.79
901.138	38377.96
901.511	37803.97
901.884	34687.71
902.258	31977.19
902.631	33028.36
903.003	38005.71
903.376	34281.66
903.749	38433.41
904.122	41128.8
904.495	45267.75
904.867	45851.16
905.24	39820.53
905.612	37032.61
905.985	37870.22
906.357	39617.89
906.729	37825.53
907.102	32306.98
907.474	31062.6
907.846	31276.55
908.218	30866.35
908.59	27275.44
908.962	26360.99
909.334	28388.33
909.705	29831.48
910.077	28953.13
910.449	30132.15
910.82	30962.02
911.192	34082.38
911.563	35416.36
911.935	37884.43
912.306	37931.18
912.677	39180.39
913.048	38791.09
913.419	42071.99
913.79	42305.9
914.161	45382.83
914.532	43357.51
914.903	39863.18
915.274	37844.56
915.645	37316.29
916.015	32840.82
916.386	31320.48
916.756	33339.59
917.127	34397.59
917.497	30742.18
917.868	33459.95
918.238	31797.49
918.608	32735.27
918.978	33403.49
919.348	35377.3
919.718	36555.5
920.088	35224.74
920.458	36616.88
920.828	38532.35
921.198	36552.23
921.567	39038.87
921.937	30241.58
922.306	30527.61
922.676	32913.67
923.045	27456.71
923.415	26094.96
923.784	23738.17
924.153	24414.83
924.522	24366.97
924.891	22909.64
925.26	24526.66
925.629	23929.89
925.998	27503.84
926.367	26864.13
926.736	25569.15
927.104	30456.61
927.473	32728.57
927.842	39552.26
928.21	39131.91
928.578	41165.49
928.947	38918.07
929.315	39156.76
929.683	45964.08
930.051	46352.08
930.42	53757.27
930.788	45957.73
931.156	45620.04
931.523	42739.67
931.891	39505.14
932.259	37936.47
932.627	43971.78
932.994	62185.3
933.362	51398.87
933.729	44629.36
934.097	42724.01
934.464	36178.17
934.831	41742.62
935.199	41136.1
935.566	39867.59
935.933	40365.56
936.3	48920.18
936.667	38054.93
937.034	34309.05
937.401	33906.17
937.767	29267.05
938.134	26047.73
938.501	36732.95
938.867	39157.72
939.234	66221.3
939.6	56534.52
939.967	62292.06
940.333	41714.2
940.699	35532.38
941.065	28559.02
941.431	37443.05
941.798	36070.33
942.163	47328.25
942.529	29546.11
942.895	27179.68
943.261	17578.43
943.627	23064.2
943.992	20209.78
944.358	20231.13
944.723	20293.97
945.089	19758.24
945.454	18279.57
945.82	19530.69
946.185	18769.57
946.55	21799.16
946.915	19568.68
947.28	22967.99
947.645	20231.71
948.01	18670.05
948.375	19448.44
948.74	23307
949.104	27233.22
949.469	39322.58
949.834	69495.28
950.198	65945.26
950.562	39465.21
950.927	32862.98
951.291	39549.59
951.655	33703.64
952.02	31644.31
952.384	23942.67
952.748	20840.06
953.112	20303.49
953.476	17651.79
953.839	16317.81
954.203	16142.2
954.567	20184.69
954.931	31808.84
955.294	27192.24
955.658	27325.33
956.021	46466.8
956.385	78855.66
956.748	116460.73
957.111	180585.87
957.474	202520.02
957.837	228196.32
958.2	172736.66
958.563	62195.18
958.926	42043.66
959.289	63769.14
959.652	71247.68
960.015	53492.86
960.377	76717.32
960.74	87519.51
961.102	151154.79
961.465	162482.01
961.827	87081.93
962.189	167167.72
962.552	115827
962.914	92838.21
963.276	60311.67
963.638	49858.84
964	49363.39
964.362	33389.52
964.724	32263.57
965.085	23005.23
965.447	18879.36
965.809	21501.96
966.17	21504.22
966.532	23294.32
966.893	21371.67
967.255	19449.94
967.616	22999.93
967.977	18413.51
968.338	20094.77
968.699	16513.21
969.061	16495.03
969.421	16570.66
969.782	18586.93
970.143	15696.57
970.504	16235.28
970.865	18455.72
971.225	18839.88
971.586	18407.35
971.946	26236.82
972.307	22778.55
972.667	29783.98
973.027	30706.54
973.388	37282.21
973.748	25365.08
974.108	27640.01
974.468	37420.83
974.828	28867.9
975.188	22232.82
975.548	20407.69
975.907	17136.83
976.267	19232.01
976.627	16179.88
976.986	16760.27
977.346	15964.85
977.705	15349.49
978.064	13976.62
978.424	11623.7
978.783	12013.58
979.142	13703.51
979.501	13115.42
979.86	13864.25
980.219	13346.5
980.578	17171.66
980.937	19265.8
981.296	17164.33
981.654	17664.92
982.013	27485.71
982.371	35647.2
982.73	33260.16
983.088	37681.38
983.447	40258.92
983.805	57584
984.163	120494.99
984.521	133879.56
984.879	196159.01
985.237	-319430.36
985.595	307501.51
985.953	76408.41
986.311	44150.36
986.669	25651.69
987.026	22133.09
987.384	29794.25
987.741	30779.1
988.099	21985
988.456	17515.54
988.814	16389.19
989.171	14241.14
989.528	14076.77
989.885	14861.61
990.242	11744.86
990.599	14621.99
990.956	11976.72
991.313	8375.08
991.67	6869.42
992.027	7274.75
992.383	6466.99
992.74	5672.05
993.096	5946.58
993.453	6159.98
993.809	6394.39
994.165	8545.12
994.522	7839.79
994.878	8627.18
995.234	10809.12
995.59	10672.16
995.946	10102.18
996.302	11536.63
996.658	13331.86
997.013	14692.95
997.369	17418.07
997.725	22275.14
998.08	14413.04
998.436	22203.58
998.791	30718.94
999.147	30671.54
999.502	33500.09
999.857	24323.65
1000.212	39608.41
1000.567	56355.71
1000.922	32526.39
1001.277	20701.86
1001.632	15357.4
1001.987	19800.5
1002.342	14205.56
1002.696	11324.36
1003.051	9034.8
1003.406	10925.98
1003.76	10893.07
1004.114	10722.64
1004.469	9016.81
1004.823	7460.56
1005.177	8037.38
1005.531	6387.59
1005.885	5655.98
1006.239	6383.02
1006.593	8000.67
1006.947	10714.08
1007.301	8027.81
1007.655	8753.62
1008.008	6436.01
1008.362	7228.82
1008.715	10332.74
1009.069	9396.93
1009.422	14105.11
1009.776	28321.06
1010.129	18747.01
1010.482	15674.82
1010.835	13220.99
1011.188	27530.38
1011.541	25887.6
1011.894	-157853.83
1012.247	465402.38
1012.6	31588.46
1012.952	19894
1013.305	10249.39
1013.657	7393.02
1014.01	7003.31
1014.362	5766.07
1014.715	5137.39
1015.067	4489.47
1015.419	4390.87
1015.771	3886.19
1016.123	3448.61
1016.475	3545.71
1016.827	3782.52
1017.179	4069.77
1017.531	4097.21
1017.883	4191.82
1018.234	4060.86
1018.586	5121.11
1018.938	5400.67
1019.289	7450.42
1019.64	8575.35
1019.992	7994.66
1020.343	7330.88
1020.694	5800.73
1021.045	5136.79
1021.396	5854.51
1021.747	6277.83
1022.098	7523.11
1022.449	5453.46
1022.8	5056.25
1023.151	3534.95
1023.501	3131.59
1023.852	3398.46
1024.202	3518.87
1024.553	3849.04
1024.903	3736.7
1025.253	3196.98
1025.604	2870.71
1025.954	3575.13
1026.304	4338.58
1026.654	5079.68
1027.004	7394.96
1027.354	11903.73
1027.703	11256.86
1028.053	14749.62
1028.403	21655.17
1028.753	31542.19
1029.102	42591.7
1029.452	217963.59
1029.801	9266.5
1030.15	6008.36
1030.499	5062.78
897.758	2368.35
901.051	2309.97
904.343	2345.49
907.636	2351.41
910.928	2412.3
914.22	2327.23
917.511	2333.65
920.803	2387.34
924.094	2396.38
927.384	2387.47
930.675	2352.07
933.965	2312.44
937.255	2334.04
940.544	2295.33
943.834	2278.43
947.123	2215.19
950.411	2306.7
953.7	2284.37
956.988	2259.94
960.276	2199.98
963.563	2262.4
966.851	2268.02
970.138	2313.53
973.424	2309.11
976.711	2271.01
979.997	2344.35
983.283	2389.55
986.568	2310.49
989.853	2312.62
993.138	2342.24
996.423	2421.57
999.708	2370.42
1002.992	2407.63
1006.275	2298.76
1009.559	2318.99
1012.842	2419
1016.125	2362.81
1019.408	2342.61
1022.69	2413.36
1025.972	2438.13
1029.254	2412.02
1032.536	2363.47
1035.817	2381.51
1039.098	2345.97
1042.379	2428.71
1045.659	2448.66
1048.939	2389.68
1052.219	2401.1
1055.498	2406.57
1058.778	2395.26
1062.057	2376.02
1065.335	2399.15
1068.614	2410.76
1071.892	2399.43
1075.17	2462.01
1078.447	2458.65
1081.724	2452.07
1085.001	2483.85
1088.278	2461.78
1091.554	2466.77
1094.83	2464.23
1098.106	2495.94
1101.382	2530.25
1104.657	2534.42
1107.932	2531.94
1111.206	2503.31
1114.481	2461.68
1117.755	2461.36
1121.029	2448.89
1124.302	2503.8
1127.575	2466.34
1130.848	2458.99
1134.121	2423.51
1137.393	2381.72
1140.665	2444.95
1143.937	2421.94
1147.208	2378.81
1150.48	2425.49
1153.75	2413.32
1157.021	2428.45
1160.291	2404.73
1163.561	2454.49
1166.831	2432.03
1170.101	2460.54
1173.37	2430.33
1176.639	2378.64
1179.907	2430.51
1183.176	2444.38
1186.444	2447.86
1189.711	2474.65
1192.979	2493.49
1196.246	2447.38
1199.513	2460.27
1202.78	2462.41
1206.046	2473.79
1209.312	2496.11
1212.578	2517.4
1215.843	2477.81
1219.108	2449.19
1222.373	2474.32
1225.638	2443.99
1228.902	2431.47
1232.166	2397.39
1235.43	2383.07
1238.693	2403.34
1241.956	2397.54
1245.219	2442.19
1248.482	2429.18
1251.744	2426.23
1255.006	2557.77
1258.268	2509.34
1261.529	2459.58
1264.79	2463.54
1268.051	2559.48
1271.312	2572.01
1274.572	2542.51
1277.832	2529.37
1281.092	2517.83
1284.351	2500.74
1287.61	2482.28
1290.869	2411.47
1294.128	2399.86
1297.386	2465.87
1300.644	2452.47
1303.902	2467.11
1307.159	2333.48
1310.416	2386.09
1313.673	2413.66
1316.93	2403.35
1320.186	2440.81
1323.442	2477.28
1326.697	2471.45
1329.953	2453.73
1333.208	2480.94
1336.463	2461.37
1339.717	2410.67
1342.972	2528.6
1346.226	2502.06
1349.479	2445.99
1352.733	2421.26
1355.986	2434.24
1359.238	2415.15
1362.491	2418.8
1365.743	2418.3
1368.995	2412.44
1372.247	2430.52
1375.498	2450.98
1378.749	2477.28
1382	2433.26
1385.251	2476.76
1388.501	2433.7
1391.751	2427.55
1395	2396.01
1398.25	2423.79
1401.499	2441.97
1404.748	2383.75
1407.996	2360.34
1411.244	2349.83
1414.492	2333.97
1417.74	2315.2
1420.987	2322.24
1424.234	2379.02
1427.481	2350.32
1430.728	2408.1
1433.974	2382.58
1437.22	2385.45
1440.465	2384.65
1443.711	2369.47
1446.956	2396.06
1450.201	2377.4
1453.445	2420.55
1456.689	2402.14
1459.933	2415.43
1463.177	2451.08
1466.42	2422.12
1469.663	2404.9
1472.906	2409.44
1476.148	2462.89
1479.391	2457.92
1482.633	2428.74
1485.874	2446.11
1489.115	2443.37
1492.356	2436.76
1495.597	2415.21
1498.838	2411.76
1502.078	2391.17
1505.318	2354.97
1508.557	2392.02
1511.797	2386.25
1515.036	2412.6
1518.274	2396.64
1521.513	2359.73
1524.751	2374.95
1527.989	2394.25
1531.227	2408.59
1534.464	2412.2
1537.701	2417.05
1540.938	2432.47
1544.174	2386.24
1547.41	2378.21
1550.646	2416.6
1553.882	2458.84
1557.117	2511.99
1560.352	2520.87
1563.587	2484.98
1566.821	2449.46
1570.055	2474.12
1573.289	2451.33
1576.523	2516.53
1579.756	2524.74
1582.989	2547.6
1586.222	2508.77
1589.454	2542.26
1592.686	2523.11
1595.918	2552.31
1599.15	2541.65
1602.381	2600.62
1605.612	2570.38
1608.843	2665.08
1612.073	2583.09
1615.303	2569.34
1618.533	2561.98
1621.762	2563.22
1624.992	2544
1628.221	2538.76
1631.449	2525.28
1634.678	2565.58
1637.906	2528.58
1641.134	2560.93
1644.361	2522.95
1647.588	2510.29
1650.815	2530.68
1654.042	2503.08
1657.269	2530.53
1660.495	2497.66
1663.72	2500.9
1666.946	2466.95
1670.171	2428.35
1673.396	2401.62
1676.621	2385.37
1679.845	2392.22
1683.069	2408.21
1686.293	2441.16
1689.517	2424.38
1692.74	2367.5
1695.963	2391.59
1699.185	2420.13
1702.408	2395.72
1705.63	2429.29
1708.852	2442.49
1712.073	2418.75
1715.294	2418.5
1718.515	2468.97
1721.736	2424.65
1724.956	2409.18
1728.176	2433.24
1731.396	2456.57
1734.616	2440.43
1737.835	2473.24
1741.054	2449.23
1744.272	2442.14
1747.491	2474.67
1750.709	2511.29
1753.927	2440.49
1757.144	2475.17
1760.361	2524.09
1763.578	2507.01
1766.795	2452.7
1770.011	2452.01
1773.227	2482.98
1776.443	2520.55
1779.658	2563.82
1782.874	2506.74
1786.089	2491.23
1789.303	2494.45
1792.518	2495.29
1795.732	2483.96
1798.945	2496.21
1802.159	2541.74
1805.372	2465.68
1808.585	2455.9
1811.797	2459.03
1815.01	2490.75
1818.222	2503.79
1821.434	2476
1824.645	2521.28
1827.856	2521.55
1831.067	2554.62
1834.278	2501.05
1837.488	2484.93
1840.698	2617.06
1843.908	2552.88
1847.117	2518.45
1850.326	2430.13
1853.535	2505.71
1856.744	2530.22
1859.952	2453.41
1863.16	2452.34
1866.368	2467.02
1869.575	2573.66
1872.782	2463.22
1875.989	2399.73
1879.196	2462.73
1882.402	2452.09
1885.608	2488.74
1888.814	2415.03
1892.019	2318.31
1895.224	2368.84
1898.429	2341.54
1901.634	2323.37
1904.838	2301.45
1908.042	2351.13
1911.246	2362.85
1914.449	2312.73
1917.652	2302.26
1920.855	2284.41
1924.058	2320.26
1927.26	2362.25
1930.462	2387.94
1933.664	2420.16
1936.865	2363.42
1940.066	2376.55
1943.267	2320.4
1946.467	2329.35
1949.668	2352.35
1952.868	2420.18
1956.067	2404.2
1959.267	2343.15
1962.466	2367.97
1965.665	2348.59
1968.863	2346.84
1972.061	2352.32
1975.259	2346.27
1978.457	2422.21
1981.654	2386.46
1984.852	2387.67
1988.048	2332.34
1991.245	2327.45
1994.441	2409.72
1997.637	2380.69
2000.833	2364.51
2004.028	2400.14
2007.223	2460.14
2010.418	2442.07
2013.613	2401.34
2016.807	2382.87
2020.001	2382.71
2023.194	2417.12
2026.388	2398.07
2029.581	2342.26
2032.774	2398.02
2035.966	2408.01
2039.158	2347.08
2042.35	2369.23
2045.542	2297.14
2048.733	2386.72
2051.924	2392.3
2055.115	2414.8
2058.306	2368.02
2061.496	2424.05
2064.686	2480.6
2067.875	2391.32
2071.065	2398.51
2074.254	2420.82
2077.442	2373.91
2080.631	2460.08
2083.819	2372
2087.007	2362.23
2090.195	2340.61
2093.382	2363.06
2096.569	2345.43
2099.756	2304.86
2102.942	2343.75
2106.128	2352.92
2109.314	2344.02
2112.5	2320.01
2115.685	2293.79
2118.87	2302.88
2122.055	2363.97
2125.239	2336.45
2128.424	2323.81
2131.608	2400.88
2134.791	2385.23
2137.974	2430.76
2141.157	2417.28
2144.34	2379.73
2147.523	2381.58
2150.705	2399.92
2153.887	2375.58
2157.068	2338.49
2160.25	2332.12
2163.431	2357.6
2166.611	2317.52
2169.792	2337.46
2172.972	2240.69
2176.152	2304.3
2179.331	2335.4
2182.511	2327.94
2185.69	2351.96
2188.868	2349.54
2192.047	2392.47
2195.225	2395.02
2198.403	2347.22
2201.58	2335.18
2204.758	2326.33
2207.935	2405.75
2211.111	2310.27
2214.288	2294.91
2217.464	2332.91
2220.64	2298.76
2223.815	2351.18
2226.991	2279.43
2230.166	2295.86
2233.34	2332.43
2236.515	2347.44
2239.689	2413.39
2242.863	2361.87
2246.036	2413.55
2249.209	2410.29
2252.382	2433.02
2255.555	2431.17
2258.727	2376.33
2261.9	2410.18
2265.071	2401.68
2268.243	2399.53
2271.414	2344.84
2274.585	2318.11
2277.756	2381.11
2280.926	2337.81
2284.096	2368.68
2287.266	2290.06
2290.436	2340.08
2293.605	2364.65
2296.774	2397.48
2299.942	2410.6
2303.111	2427.4
2306.279	2477.97
2309.447	2463.18
2312.614	2434.77
2315.781	2457.97
2318.948	2432.36
2322.115	2471.09
2325.281	2372.69
2328.447	2384.37
2331.613	2359.33
2334.779	2341.96
2337.944	2339.45
2341.109	2338.98
2344.274	2327.38
2347.438	2294.17
2350.602	2316.77
2353.766	2328.8
2356.929	2317.16
2360.092	2356.02
2363.255	2318.8
2366.418	2270.48
2369.58	2356.51
2372.742	2199.42
2375.904	2203.21
2379.066	2184.18
2382.227	2214.9
2385.388	2176.45
2388.548	2116.12
2391.709	2162.49
2394.869	2146.65
2398.029	2220.16
2401.188	2223.42
2404.347	2173.45
2407.506	2276.52
2410.665	2308.47
2413.823	2305.29
2416.981	2273.77
2420.139	2298.97
2423.296	2343.5
2426.453	2315.56
2429.61	2339.84
2432.767	2294.23
2435.923	2333.03
2439.079	2289.56
2442.235	2325.82
2445.391	2265.32
2448.546	2299.1
2451.701	2340.14
2454.855	2324.41
2458.009	2361.67
2461.163	2357.88
2464.317	2323.75
2467.471	2352.79
2470.624	2387.39
2473.777	2367.98
2476.929	2386.27
2480.082	2406.82
2483.234	2376.85
2486.385	2325.28
2489.537	2320.59
2492.688	2298.84
2495.839	2317.49
2498.989	2329.32
2502.14	2314.42
2505.29	2299.74
2508.439	2325
2511.589	2258.98
2514.738	2264.18
2517.887	2290.07
2521.035	2358.31
2524.183	2329.51
2527.331	2313.89
2530.479	2297.01
2533.627	2303.24
