Data from C_2_DEC_CT_2N_Splice17_12-29-33-679.txt Node
Date: Sat Mar 14 12:29:33 EDT 2020
User: sa697716
Spectrometer: FLMS03696
Trigger mode: 0
Integration Time (sec): 3.180400E-1
Scans to average: 20
Electric dark correction enabled: true
Nonlinearity correction enabled: true
Boxcar width: 5
XAxis mode: Wavelengths
Number of Pixels in Spectrum: 2048
>>>>>Begin Spectral Data<<<<<
187.83	-380496.53
188.298	2656.62
188.766	1474.61
189.233	1307.38
189.701	1900.46
190.169	2611.38
190.636	1041.56
191.104	906.28
191.571	228.5
192.039	34.19
192.506	11.29
192.974	595.08
193.441	-1138.22
193.908	-214.11
194.375	-58.2
194.842	53.05
195.31	132.45
195.777	174.23
196.244	373.98
196.711	419.87
197.177	520.75
197.644	737.6
198.111	1254.74
198.578	1755.05
199.045	1401.44
199.511	2289.69
199.978	2668.51
200.445	2277.53
200.911	2492.64
201.378	2774.99
201.844	2513.29
202.31	4254.7
202.777	4393.21
203.243	2420.54
203.709	2323.43
204.176	2737.79
204.642	2243.22
205.108	2075.1
205.574	1688.82
206.04	1532.24
206.506	1442.37
206.972	1371.21
207.438	1339.54
207.903	1542.37
208.369	1367.92
208.835	1372.77
209.301	1447.61
209.766	1477.19
210.232	1473.55
210.697	1831.93
211.163	2290.83
211.628	3422.68
212.094	2884.12
212.559	3548.7
213.024	2200.55
213.49	2709.74
213.955	2631.08
214.42	2573.01
214.885	2405.03
215.35	2336.39
215.815	2254.35
216.28	2406.48
216.745	1997.58
217.21	2171.01
217.675	2027.13
218.14	2317.45
218.604	2616.42
219.069	3033.56
219.534	3228.82
219.998	3824.37
220.463	4693.9
220.927	5861.6
221.392	5584.02
221.856	5707.9
222.32	7268.13
222.785	9049.2
223.249	11485.04
223.713	12936.28
224.177	13015.79
224.642	16803.57
225.106	20769.47
225.57	22794.15
226.034	17050.53
226.497	26007.15
226.961	23576.82
227.425	27570.59
227.889	30692.65
228.353	30777.21
228.816	63620.21
229.28	61023.89
229.744	51630.76
230.207	31447.85
230.671	31005.44
231.134	51399.21
231.597	59569.55
232.061	59657.65
232.524	58270.69
232.987	40184.21
233.45	36218.37
233.914	32586.39
234.377	33457.95
234.84	30669.43
235.303	36235.79
235.766	40517.29
236.229	41883.35
236.691	26374.78
237.154	29695.27
237.617	22377.86
238.08	22949.03
238.542	26891.06
239.005	19235.94
239.468	19108.76
239.93	18013.85
240.393	16375
240.855	14377.65
241.317	14744.42
241.78	17951.75
242.242	18562.44
242.704	20036.66
243.166	17460.56
243.629	15875.77
244.091	18293.43
244.553	20061.54
245.015	21596.3
245.477	27974.37
245.939	41084.96
246.4	43651.16
246.862	42472.06
247.324	40086.76
247.786	44939.29
248.247	58982.49
248.709	60938.88
249.17	45653.63
249.632	43080.25
250.093	49992.06
250.555	43215.01
251.016	26362.23
251.477	25055.09
251.939	27073.39
252.4	28438.73
252.861	33858.87
253.322	31514.75
253.783	37609.27
254.244	48818.19
254.705	38557.45
255.166	34342.33
255.627	33863.03
256.088	47815.92
256.549	50759.36
257.009	43765.33
257.47	53150.27
257.931	43326.74
258.391	32532.86
258.852	33545.32
259.312	35267.37
259.773	43601.9
260.233	36886.77
260.694	31171.55
261.154	35431.54
261.614	28509.77
262.074	25577.18
262.534	26610.11
262.994	25125.49
263.455	33549.96
263.915	28316.83
264.374	26690.9
264.834	29193.75
265.294	32432.8
265.754	33663.23
266.214	31919.38
266.673	29975.87
267.133	37891.47
267.593	37698.62
268.052	46270.67
268.512	40302.43
268.971	48693.05
269.431	53516.27
269.89	48043.93
270.349	72214.5
270.809	80699.12
271.268	72714.82
271.727	163393.1
272.186	106015.18
272.645	79717.07
273.104	57583.23
273.563	83597.6
274.022	65878.05
274.481	56193.9
274.94	43374.99
275.399	32308.67
275.857	37656.95
276.316	51010.83
276.775	45476.8
277.233	44803.34
277.692	41937
278.15	47489.17
278.609	48879.13
279.067	45264.95
279.525	42043.94
279.984	54344.98
280.442	65257.33
280.9	64422.73
281.358	42387.49
281.816	39530.81
282.274	38760.96
282.732	40108.06
283.19	40311.17
283.648	34813.34
284.106	37156.53
284.564	37818.04
285.021	35100.18
285.479	26204.23
285.937	23830.87
286.394	20938.91
286.852	21574.16
287.309	22721.94
287.767	21971.35
288.224	20941.1
288.682	23004.41
289.139	25259.23
289.596	23162.44
290.053	24100.57
290.511	30444.11
290.968	37011.09
291.425	50339.43
291.882	41955.67
292.339	36549.64
292.796	36346.95
293.252	34297.06
293.709	27249.18
294.166	24454.84
294.623	27060.69
295.079	26003.06
295.536	26151.82
295.992	23765.77
296.449	23513.02
296.905	24430.98
297.362	23434.1
297.818	24647.52
298.274	25576.54
298.731	26097.81
299.187	25840.61
299.643	27752.24
300.099	33580.07
300.555	36884.85
301.011	30824.75
301.467	29711.95
301.923	34820.71
302.379	34023.41
302.835	33460.18
303.291	33555.06
303.746	38257.82
304.202	48393.62
304.658	48641.23
305.113	32716.33
305.569	32052.29
306.024	34206.98
306.479	32627.68
306.935	27522.41
307.39	30080.57
307.845	27792.13
308.301	27943.98
308.756	27239.17
309.211	26233.61
309.666	26864.89
310.121	33353.59
310.576	33895.38
311.031	33644.33
311.486	38531.36
311.94	38514.2
312.395	51577.92
312.85	97033.17
313.305	477517.38
313.759	2470127.08
314.214	179305.65
314.668	142224.39
315.123	119793.92
315.577	42923.94
316.032	38227.64
316.486	48009.51
316.94	37919.93
317.394	26398.22
317.849	20524.69
318.303	19452.44
318.757	18374.6
319.211	20320.07
319.665	17819.86
320.119	18070.92
320.572	25976.74
321.026	24285.58
321.48	20232.92
321.934	22108.4
322.387	22202.52
322.841	24006.68
323.295	21584.52
323.748	24920.75
324.202	25325.07
324.655	30434.33
325.108	42517.32
325.562	30030.76
326.015	35718.18
326.468	26995.03
326.921	30194.69
327.374	28119.47
327.827	29276.86
328.28	33153.87
328.733	22207.12
329.186	19525.66
329.639	18613.19
330.092	15689.72
330.545	14948.79
330.997	15080.04
331.45	16451.31
331.903	19283.13
332.355	33235.06
332.808	32319.28
333.26	26690.61
333.713	28962.91
334.165	29171.29
334.617	38968.63
335.069	31538.75
335.522	57106.05
335.974	63272.56
336.426	57974.8
336.878	40206.28
337.33	20397.97
337.782	19936.13
338.234	24957.61
338.686	29941.11
339.137	35494.04
339.589	33436.93
340.041	26194.49
340.493	22525.88
340.944	23091.93
341.396	24869.51
341.847	20907.86
342.299	24665.85
342.75	30118.42
343.201	26373.8
343.653	30328.85
344.104	37339.26
344.555	29410.38
345.006	45873.45
345.457	35091.91
345.908	27900.32
346.359	26258.57
346.81	21415.35
347.261	22605.03
347.712	22292.9
348.163	23908.56
348.613	24190.59
349.064	22589.05
349.515	19777.39
349.965	20279.58
350.416	24456.81
350.866	26834.44
351.317	30391.72
351.767	50328.57
352.217	63649.8
352.668	52842.8
353.118	48451.64
353.568	46732.73
354.018	36947.27
354.468	38993.41
354.918	27966.24
355.368	24480.99
355.818	34635.44
356.268	99688.15
356.718	417102.06
357.168	103783.51
357.617	52154
358.067	58073.54
358.517	54415.04
358.966	63845.14
359.416	71571.5
359.865	77415.93
360.315	92239.37
360.764	43077.59
361.213	24129.35
361.663	22905.08
362.112	28264.64
362.561	45605.89
363.01	34386.67
363.459	28996.49
363.908	31393.37
364.357	26663.84
364.806	45122.59
365.255	30963.67
365.703	28335.24
366.152	28385.38
366.601	23008.15
367.05	18695.5
367.498	16980.24
367.947	17732.31
368.395	18438.83
368.844	16307.77
369.292	19679.39
369.74	13556.12
370.189	20819.49
370.637	24395.89
371.085	21043.19
371.533	25590.68
371.981	24660.04
372.429	23468
372.877	24440.55
373.325	20446.19
373.773	20853.78
374.221	18559.52
374.669	23050.75
375.116	19886.64
375.564	20036.95
376.012	22408.07
376.459	18479.75
376.907	22038.82
377.354	26661.1
377.801	24862.9
378.249	28554.88
378.696	36419.38
379.143	44049.1
379.591	46924.11
380.038	79401.06
380.485	57352.11
380.932	61718.49
381.379	56348.67
381.826	41437.55
382.273	29420.98
382.72	25667.46
383.166	25004.2
383.613	16213.32
384.06	14614.5
384.506	16891.5
384.953	12388.33
385.4	12465.45
385.846	10925.07
386.292	10654.43
386.739	10429.9
387.185	10318.79
387.631	10324.59
388.078	10014.53
388.524	10715.69
388.97	9886.41
389.416	8244.38
389.862	8761.59
390.308	8289.96
390.754	8410.67
391.2	9113.72
391.645	9330.7
392.091	8916.71
392.537	8598.26
392.983	8599.16
393.428	8442.66
393.874	9053.66
394.319	9067.18
394.765	8597.06
395.21	8844.6
395.655	8292.95
396.101	7772.02
396.546	7005.47
396.991	7067.64
397.436	6571.26
397.881	6362.79
398.326	6041.71
398.771	5714.08
399.216	5003.57
399.661	4511.88
400.106	4497.01
400.551	4610
400.995	4140.11
401.44	4104.2
401.885	3863.13
402.329	3915.5
402.774	3753.04
403.218	3636.28
403.663	3511.71
404.107	3613.12
404.551	3639.16
404.995	3346.76
405.44	3233.24
405.884	3288.55
406.328	3193.93
406.772	3186.43
407.216	2902.59
407.66	2809.89
408.104	2668.84
408.547	2500.89
408.991	2423.59
409.435	2335.45
409.879	2302.71
410.322	2270.15
410.766	2191.97
411.209	2078.3
411.653	1997.43
412.096	1958.22
412.54	1962.72
412.983	1951.45
413.426	1957.13
413.869	1956.37
414.312	1921.97
414.756	1853.48
415.199	1769.74
415.642	1718.74
416.085	1723.93
416.527	1713.9
416.97	1741.96
417.413	1651.95
417.856	1638.71
418.298	1623.29
418.741	1615.63
419.184	1615.67
419.626	1686.91
420.069	1691.97
420.511	1702.07
420.953	1667.98
421.396	1653.27
421.838	1613.19
422.28	1653.16
422.722	1662.61
423.164	1686.66
423.606	1657.95
424.048	1652.01
424.49	1568.74
424.932	1560
425.374	1540.48
425.816	1566.31
426.258	1596.37
426.699	1616.02
427.141	1590.72
427.582	1614.71
428.024	1606.47
428.465	1597.98
428.907	1560.4
429.348	1540.3
429.789	1539.16
430.231	1503.53
430.672	1522.76
431.113	1482.87
431.554	1457.08
431.995	1418.85
432.436	1364.97
432.877	1331.83
433.318	1305.43
433.759	1297.78
434.2	1295.18
434.64	1280.1
435.081	1281.12
435.522	1210.65
435.962	1166.48
436.403	1138.79
436.843	1152.16
437.284	1126.64
437.724	1096.03
438.164	1098.53
438.604	1073.09
439.045	1033.08
439.485	986.32
439.925	965.08
440.365	941.56
440.805	928.33
441.245	916.39
441.685	882.05
442.125	874.86
442.564	878.3
443.004	857.35
443.444	854.17
443.883	851.01
444.323	845.27
444.762	844.94
445.202	854.04
445.641	866.46
446.081	860.08
446.52	867.15
446.959	855.51
447.398	834.1
447.837	822.7
448.276	805.72
448.716	813.33
449.154	819.81
449.593	801.68
450.032	798.1
450.471	783.54
450.91	783.91
451.349	780.53
451.787	777.04
452.226	788.47
452.664	788.33
453.103	790.33
453.541	790.45
453.98	788.41
454.418	793.69
454.856	780.95
455.295	779.89
455.733	785.3
456.171	789.4
456.609	791.99
457.047	791.18
457.485	801.8
457.923	802.86
458.361	791.75
458.798	794.77
459.236	791.74
459.674	797.8
460.111	801.7
460.549	794.64
460.987	791.42
461.424	787.77
461.862	784.37
462.299	772.8
462.736	771.74
463.173	773.61
463.611	764.58
464.048	762.62
464.485	768.68
464.922	761.67
465.359	755.86
465.796	746.44
466.233	740.08
466.67	732.73
467.106	730.86
467.543	723.51
467.98	714.39
468.416	695.41
468.853	689.81
469.29	669.05
469.726	661.12
470.162	644.28
470.599	634.73
471.035	629.22
471.471	614.81
471.907	610.64
472.344	607.18
472.78	608.07
473.216	616.18
473.652	609.4
474.088	607.35
474.523	604.77
474.959	611.05
475.395	605.91
475.831	601.95
476.266	604.4
476.702	602.74
477.138	595.59
477.573	594.15
478.008	591
478.444	593.87
478.879	599.88
479.314	602.79
479.75	602.33
480.185	606.26
480.62	611.17
481.055	614.59
481.49	618.86
481.925	628.27
482.36	639.61
482.795	657.96
483.229	675.72
483.664	690.69
484.099	693.67
484.534	704.46
484.968	710.67
485.403	713.76
485.837	713.57
486.271	713.26
486.706	714.28
487.14	705.66
487.574	695.07
488.009	688
488.443	680.93
488.877	688.17
489.311	690.41
489.745	698.07
490.179	704.61
490.613	717.11
491.046	722.18
491.48	726.4
491.914	726.74
492.348	731.64
492.781	736.61
493.215	737.79
493.648	738.08
494.082	742.81
494.515	742.48
494.948	749.78
495.382	753.85
495.815	757.86
496.248	763.97
496.681	777.65
497.114	788.93
497.547	798.24
497.98	812.08
498.413	818.98
498.846	828.47
499.279	837.11
499.711	840.96
500.144	843.38
500.577	854.07
501.009	864.36
501.442	874.28
501.874	874.46
502.306	875.98
502.739	883.11
503.171	896.92
503.603	899.43
504.036	908.24
504.468	913.21
504.9	923.75
505.332	930.01
505.764	933.59
506.196	939.15
506.627	953.08
507.059	964.93
507.491	971.75
507.923	968.4
508.354	981.56
508.786	991.11
509.217	1006.32
509.649	1019.05
510.08	1035.39
510.512	1049.6
510.943	1061.95
511.374	1070.76
511.805	1089.77
512.237	1106.81
512.668	1135.88
513.099	1161.65
513.53	1186.99
513.961	1205.61
514.391	1234.44
514.822	1264.91
515.253	1297.6
515.684	1320.43
516.114	1346.87
516.545	1363.93
516.975	1386.22
517.406	1400.67
517.836	1398.05
518.267	1399.88
518.697	1414.22
519.127	1415.38
519.558	1418.8
519.988	1417.99
520.418	1423.5
520.848	1435.48
521.278	1440.11
521.708	1457.68
522.138	1467.32
522.567	1494.46
522.997	1515.24
523.427	1526.59
523.857	1538.92
524.286	1545.7
524.716	1558.35
525.145	1573.48
525.575	1583.49
526.004	1594.76
526.433	1581.6
526.863	1579.01
527.292	1568.43
527.721	1572.69
528.15	1576.83
528.579	1576.54
529.008	1585.23
529.437	1604.36
529.866	1615.69
530.295	1628.85
530.724	1639.49
531.152	1663.52
531.581	1675.6
532.01	1690.04
532.438	1696.12
532.867	1708.72
533.295	1725.59
533.723	1730.4
534.152	1727.85
534.58	1727.61
535.008	1712.96
535.436	1714.19
535.865	1720.77
536.293	1733.94
536.721	1748.68
537.149	1772.59
537.576	1774.51
538.004	1784.94
538.432	1791.82
538.86	1791.07
539.287	1797.55
539.715	1809.69
540.143	1811.68
540.57	1807.02
540.998	1803.13
541.425	1781.13
541.852	1760.81
542.28	1758.35
542.707	1742.71
543.134	1729.84
543.561	1725.12
543.988	1717.99
544.415	1717.77
544.842	1711.9
545.269	1705.82
545.696	1706.52
546.123	1719.35
546.549	1708.4
546.976	1696.39
547.403	1696.23
547.829	1697.22
548.256	1697.43
548.682	1692.84
549.108	1684.74
549.535	1684.94
549.961	1686.87
550.387	1675.21
550.813	1668.12
551.24	1674.44
551.666	1675.31
552.092	1665.98
552.518	1659.86
552.943	1655.22
553.369	1662.63
553.795	1668.07
554.221	1668.56
554.646	1665.2
555.072	1674.88
555.498	1680.48
555.923	1689.22
556.349	1703.8
556.774	1712.12
557.199	1713.42
557.625	1720.87
558.05	1715.8
558.475	1726.28
558.9	1725.42
559.325	1718.87
559.75	1713.43
560.175	1708.29
560.6	1703.26
561.025	1701.88
561.449	1703.64
561.874	1710.53
562.299	1714.19
562.723	1721.29
563.148	1713.54
563.572	1718.65
563.997	1729.55
564.421	1737.38
564.846	1738.79
565.27	1743.79
565.694	1742.65
566.118	1755.81
566.542	1765.38
566.966	1761.42
567.39	1759.09
567.814	1749.85
568.238	1751.88
568.662	1757.84
569.086	1761.06
569.509	1769.8
569.933	1756.77
570.357	1751.87
570.78	1733.52
571.204	1721.56
571.627	1712.52
572.05	1713.1
572.474	1714.96
572.897	1703.84
573.32	1699.17
573.743	1692.26
574.166	1677.15
574.589	1678.61
575.012	1673.74
575.435	1673.99
575.858	1666.36
576.281	1657.02
576.704	1643.08
577.126	1632.38
577.549	1623.75
577.972	1614.91
578.394	1605.34
578.817	1599.78
579.239	1583.06
579.661	1570.38
580.084	1556
580.506	1543.74
580.928	1541.15
581.35	1531.24
581.772	1528.16
582.194	1515.27
582.616	1503.73
583.038	1491.27
583.46	1481.14
583.882	1479.13
584.303	1485.39
584.725	1482.1
585.147	1486.52
585.568	1497.92
585.99	1512.04
586.411	1519.49
586.833	1536.03
587.254	1538.16
587.675	1553.27
588.096	1566.05
588.518	1561.34
588.939	1544.49
589.36	1542.66
589.781	1532.72
590.202	1504.64
590.623	1495.64
591.043	1494.23
591.464	1482.22
591.885	1479.57
592.305	1474.28
592.726	1461.37
593.147	1462.94
593.567	1456.87
593.987	1450.35
594.408	1445.36
594.828	1444.23
595.248	1438.31
595.669	1419.33
596.089	1413.58
596.509	1406.58
596.929	1391.94
597.349	1393.65
597.769	1384.45
598.189	1379.66
598.608	1381.01
599.028	1382.64
599.448	1383.24
599.867	1371.32
600.287	1367.57
600.706	1362.7
601.126	1354.77
601.545	1355.16
601.965	1353.8
602.384	1349
602.803	1352.81
603.222	1349.09
603.641	1343.65
604.061	1340.71
604.48	1337.56
604.898	1346.6
605.317	1352.47
605.736	1354.14
606.155	1352.29
606.574	1343.67
606.992	1350.14
607.411	1345.72
607.829	1337.75
608.248	1334.69
608.666	1333.51
609.085	1334.18
609.503	1326.93
609.921	1321.8
610.339	1324.62
610.758	1323.39
611.176	1320.14
611.594	1311.14
612.012	1308.29
612.43	1313.42
612.847	1320.86
613.265	1322.47
613.683	1327.78
614.101	1329.38
614.518	1325.45
614.936	1316.93
615.353	1304.48
615.771	1302.26
616.188	1303.55
616.606	1301.15
617.023	1294.28
617.44	1281.5
617.857	1274.44
618.274	1265.62
618.691	1260.25
619.108	1252.32
619.525	1247.31
619.942	1254.2
620.359	1257.78
620.776	1252.24
621.192	1248.14
621.609	1246.83
622.026	1253.1
622.442	1260.21
622.859	1263.78
623.275	1256.15
623.691	1261.87
624.108	1272.8
624.524	1287.45
624.94	1287.33
625.356	1298.67
625.772	1311.65
626.188	1322.84
626.604	1324.69
627.02	1319.3
627.436	1317.02
627.852	1325.85
628.268	1338.44
628.683	1330.03
629.099	1320.87
629.514	1315.44
629.93	1320.44
630.345	1326.03
630.761	1322.83
631.176	1327.05
631.591	1323.06
632.007	1317.46
632.422	1315.25
632.837	1303.37
633.252	1300.8
633.667	1291.26
634.082	1282.66
634.497	1269.21
634.911	1250.09
635.326	1246.78
635.741	1230.64
636.155	1221.25
636.57	1224.11
636.984	1224.51
637.399	1227.82
637.813	1228.89
638.228	1229.84
638.642	1236.47
639.056	1226.83
639.47	1228.96
639.884	1222.02
640.298	1216.83
640.712	1218.03
641.126	1206.62
641.54	1198.69
641.954	1193.87
642.368	1182.55
642.781	1176.01
643.195	1158.82
643.609	1161.28
644.022	1156.36
644.436	1153.81
644.849	1143.16
645.262	1131.31
645.676	1134.16
646.089	1130.06
646.502	1116.27
646.915	1111.27
647.328	1093.66
647.741	1092.59
648.154	1079.51
648.567	1077.03
648.98	1062.93
649.393	1063.59
649.805	1059.93
650.218	1052.77
650.631	1036.75
651.043	1031.25
651.456	1025.24
651.868	1026.69
652.28	1044.79
652.693	1058.97
653.105	1065.08
653.517	1076.52
653.929	1076.86
654.341	1083.69
654.753	1071.55
655.165	1078.89
655.577	1076.01
655.989	1072.65
656.401	1065.44
656.813	1028.5
657.224	1009.2
657.636	981.48
658.047	963.59
658.459	944.45
658.87	935.34
659.282	923.37
659.693	902.69
660.104	889.07
660.515	875.56
660.926	874.57
661.338	872
661.749	865.11
662.159	854.67
662.57	850.18
662.981	844.8
663.392	836.61
663.803	841.08
664.213	838.3
664.624	832.95
665.035	836.98
665.445	821.32
665.855	813.77
666.266	805.81
666.676	802.81
667.086	793.9
667.497	793.73
667.907	788.08
668.317	778.83
668.727	776.54
669.137	777.24
669.547	773.35
669.956	777.02
670.366	778.41
670.776	780.21
671.186	785.78
671.595	788.37
672.005	791.1
672.414	789.84
672.824	787.51
673.233	789.9
673.642	791.96
674.052	795.22
674.461	797.02
674.87	801.18
675.279	798.03
675.688	798.2
676.097	799.27
676.506	795.08
676.915	809.29
677.323	811.28
677.732	809.05
678.141	807.81
678.549	795.38
678.958	793.47
679.366	791.91
679.775	794.99
680.183	804.67
680.592	809.47
681	816.45
681.408	808.5
681.816	816.46
682.224	825.29
682.632	834.63
683.04	864.5
683.448	888.64
683.856	919.6
684.264	955.85
684.671	987.32
685.079	1024.98
685.487	1065.99
685.894	1126.19
686.302	1174.54
686.709	1214.37
687.116	1261.21
687.524	1297.55
687.931	1327.65
688.338	1353.38
688.745	1372.38
689.152	1396.53
689.559	1433.27
689.966	1468.04
690.373	1480.3
690.78	1510.27
691.187	1561.34
691.593	1596.66
692	1626.64
692.407	1676.46
692.813	1738.49
693.22	1785.36
693.626	1834.49
694.032	1870.51
694.439	1931.57
694.845	1976.7
695.251	2037.07
695.657	2090.86
696.063	2174.11
696.469	2234.08
696.875	2286.42
697.281	2310.77
697.687	2347.63
698.093	2376.49
698.498	2439.02
698.904	2484.59
699.31	2559.95
699.715	2611.42
700.12	2688.49
700.526	2698.53
700.931	2755.69
701.337	2798.46
701.742	2825.64
702.147	2895.53
702.552	2918.27
702.957	2965.6
703.362	2979.73
703.767	3000.25
704.172	3030.96
704.577	2983.58
704.981	3021.8
705.386	3032.43
705.791	3021.14
706.195	3083.9
706.6	3088.95
707.004	3155.88
707.408	3125.38
707.813	3145.22
708.217	3131.09
708.621	3130.21
709.025	3213.24
709.43	3211.99
709.834	3262.83
710.237	3321.98
710.641	3303.46
711.045	3319.48
711.449	3312.32
711.853	3335.39
712.256	3369.9
712.66	3400.12
713.064	3462.36
713.467	3494.98
713.87	3589.7
714.274	3625.14
714.677	3717.42
715.08	3857.1
715.484	4002.76
715.887	4175.76
716.29	4347.54
716.693	4525.16
717.096	4731.07
717.499	4842.88
717.901	4865.33
718.304	4887.05
718.707	4907.61
719.109	4817.08
719.512	4786.09
719.915	4666.52
720.317	4614.88
720.719	4649.31
721.122	4621.63
721.524	4575.49
721.926	4539.4
722.328	4623.71
722.731	4614.13
723.133	4637.24
723.535	4802.11
723.937	4820.16
724.338	4861.6
724.74	4897.08
725.142	4852.41
725.544	4853.45
725.945	4879.96
726.347	4874.96
726.748	4868.72
727.15	4876.35
727.551	4843.11
727.952	4818.46
728.354	4790.99
728.755	4789.61
729.156	4751.27
729.557	4728.03
729.958	4619.19
730.359	4566.51
730.76	4547.32
731.161	4492.38
731.562	4470.81
731.962	4472.26
732.363	4413.63
732.763	4359.87
733.164	4390.29
733.564	4331.5
733.965	4249.8
734.365	4218.29
734.766	4242.95
735.166	4210.85
735.566	4164.14
735.966	4140.88
736.366	4133.38
736.766	4084.25
737.166	4109.47
737.566	4074.72
737.966	4052.52
738.365	4085.06
738.765	4082.87
739.165	4018
739.564	3993.74
739.964	4030.6
740.363	3991.91
740.763	3992.5
741.162	3981.64
741.561	3953.97
741.96	3912.66
742.36	3929.03
742.759	3933.74
743.158	3964.14
743.557	3975.36
743.955	4009.66
744.354	3972.24
744.753	4020.47
745.152	3982.91
745.55	4028.23
745.949	4022.99
746.348	4026.01
746.746	4040.91
747.144	4007.43
747.543	3986.97
747.941	4030.56
748.339	3970.02
748.737	3961.68
749.136	3955.63
749.534	4012.8
749.932	3989.26
750.33	4009.63
750.727	4055.56
751.125	4034.66
751.523	4020
751.921	4059.21
752.318	4029.51
752.716	4078.41
753.113	4090.06
753.511	4112.25
753.908	4109.87
754.305	4098.49
754.703	4150.66
755.1	4201.61
755.497	4251.36
755.894	4412.17
756.291	4561.17
756.688	4839.71
757.085	5212.58
757.482	5739.49
757.878	6311.27
758.275	6829.63
758.672	7538.36
759.068	8117.53
759.465	8947.37
759.861	10016.76
760.258	11257.98
760.654	11900.36
761.05	11803.89
761.447	11264.76
761.843	10479.48
762.239	9675.88
762.635	9317.72
763.031	8969.79
763.427	8471.32
763.822	7943.17
764.218	7415.43
764.614	6738.79
765.01	6286.39
765.405	5995.07
765.801	5772.87
766.196	5492.86
766.592	5333.81
766.987	5067.73
767.382	4882.42
767.778	4806.46
768.173	4695.52
768.568	4637.41
768.963	4530.29
769.358	4546.09
769.753	4506.45
770.148	4436.42
770.542	4435.18
770.937	4406.95
771.332	4482.5
771.726	4502.75
772.121	4450.75
772.515	4498.6
772.91	4487.26
773.304	4548.1
773.699	4490.86
774.093	4535.54
774.487	4582.61
774.881	4619.25
775.275	4618.05
775.669	4581.15
776.063	4617.77
776.457	4645.75
776.851	4583.24
777.245	4576.77
777.638	4607.44
778.032	4706.79
778.425	4678.08
778.819	4715.72
779.212	4678.56
779.606	4642.85
779.999	4660.57
780.392	4648.39
780.786	4715.84
781.179	4732.11
781.572	4769.2
781.965	4779.55
782.358	4730.87
782.751	4777.49
783.143	4736.15
783.536	4802.69
783.929	4841.87
784.322	4939.95
784.714	4963.65
785.107	4962.42
785.499	5022.19
785.891	5003.11
786.284	4986.47
786.676	5108.29
787.068	5094.16
787.46	5139.01
787.852	5149.08
788.245	5220.17
788.636	5245.1
789.028	5303.18
789.42	5334.27
789.812	5343.58
790.204	5421.45
790.595	5502.66
790.987	5333.47
791.378	5349.03
791.77	5454.36
792.161	5573.23
792.553	5621.51
792.944	5526.15
793.335	5469.19
793.726	5532.56
794.117	5607.36
794.508	5722.83
794.899	5699.66
795.29	5817.09
795.681	5866.47
796.072	5749.24
796.463	5596.8
796.853	5604.78
797.244	5739.37
797.634	5762.75
798.025	5762.17
798.415	5771.62
798.806	5849.29
799.196	5919.17
799.586	5965.65
799.976	5935.88
800.366	6130.67
800.756	6327.82
801.146	6291.15
801.536	6314.65
801.926	6379.95
802.316	6404.62
802.706	6465.54
803.095	6364.21
803.485	6451
803.874	6484.23
804.264	6701.26
804.653	6678.91
805.043	6797.65
805.432	6893.11
805.821	6893.99
806.21	6914.79
806.599	7010.81
806.988	7050.69
807.377	7138.85
807.766	7248.38
808.155	7490.76
808.544	7265.95
808.933	7278.19
809.321	7267.34
809.71	7516.49
810.098	7645.93
810.487	8037.37
810.875	8444.76
811.264	8469.38
811.652	8716.14
812.04	8840.74
812.428	8976.71
812.816	9624.45
813.204	9974.8
813.592	10438.17
813.98	10717.26
814.368	10644.97
814.756	11044.59
815.144	10981.3
815.531	11367.34
815.919	11304.24
816.306	11563.24
816.694	11300.7
817.081	11347.05
817.469	11640.99
817.856	11637.68
818.243	11867.11
818.63	12198.69
819.017	11839.35
819.404	11884.73
819.791	12209.74
820.178	12724.81
820.565	12934.14
820.952	13719.76
821.339	13302.04
821.725	13460.33
822.112	12831.87
822.498	12797.56
822.885	12902.39
823.271	12825.74
823.657	13179.01
824.044	13170.86
824.43	13233.68
824.816	13211.8
825.202	12842.64
825.588	13694.35
825.974	13703.97
826.36	14140.97
826.746	14163.02
827.132	14466.89
827.517	14454.85
827.903	13797.07
828.289	13843.71
828.674	13187.46
829.06	13091.85
829.445	13429.59
829.83	13734.55
830.216	14144.2
830.601	14451.57
830.986	14118.7
831.371	14011.7
831.756	14479.47
832.141	14118.89
832.526	14100.92
832.911	14339
833.295	14238.05
833.68	14634.48
834.065	14108.14
834.449	13337.57
834.834	13270.34
835.218	13261.59
835.603	13535.22
835.987	13350.85
836.371	14050.95
836.755	13969.82
837.139	14309.44
837.524	14516.44
837.908	14366.95
838.291	14425.57
838.675	14473.77
839.059	14663.4
839.443	14658.5
839.827	14471.36
840.21	14876.8
840.594	14750.95
840.977	14919.34
841.361	14897.47
841.744	15218.03
842.127	15083.95
842.511	15289.31
842.894	15796.11
843.277	16108.95
843.66	16566.11
844.043	16635.24
844.426	15964.88
844.809	15696.06
845.191	15730.5
845.574	15348.58
845.957	15043.95
846.339	14956.32
846.722	14519.52
847.104	14582.62
847.487	14439.57
847.869	14450.58
848.252	14685.18
848.634	14959.8
849.016	15194.05
849.398	15300.78
849.78	16014.53
850.162	16022.56
850.544	16376.02
850.926	16907.74
851.307	16827.7
851.689	17062.54
852.071	17447.28
852.452	17723.38
852.834	17699.41
853.215	18028.04
853.597	18158.58
853.978	18417.76
854.359	18799.14
854.741	17958.02
855.122	17869.07
855.503	17634.39
855.884	17746.46
856.265	17690.2
856.646	17786.73
857.026	17462.1
857.407	17407.1
857.788	17538.56
858.169	17774.78
858.549	17060.14
858.93	17581.49
859.31	17619.11
859.69	17791.54
860.071	17455.89
860.451	17273.31
860.831	16646.87
861.211	17627.32
861.591	18089.72
861.971	18069.27
862.351	18227.21
862.731	18550.68
863.111	18770.81
863.491	19057.6
863.87	19786.13
864.25	20079.67
864.629	19741.48
865.009	20176.54
865.388	20900.28
865.768	22393.97
866.147	22310.28
866.526	21070.39
866.905	21317.23
867.284	22512.8
867.663	21367.44
868.042	20489.95
868.421	20413.77
868.8	20757.33
869.179	20957.93
869.558	19722.81
869.936	18181.39
870.315	18497.82
870.693	18961.46
871.072	20449.31
871.45	19488.71
871.828	19734.11
872.207	20735.44
872.585	20426.93
872.963	20977.26
873.341	20252.69
873.719	20018.01
874.097	19776.71
874.475	20153.96
874.853	20607.14
875.23	19748.99
875.608	20558.7
875.986	22236.2
876.363	21265.32
876.741	21922.32
877.118	21369.36
877.495	22425.28
877.873	22798.55
878.25	23990.6
878.627	23003.95
879.004	23333.18
879.381	23224.82
879.758	22630.27
880.135	21070.43
880.512	22280.34
880.889	21681.93
881.265	21462.74
881.642	21287.2
882.019	21653.79
882.395	21219.63
882.772	22077.44
883.148	21133.18
883.524	21055.96
883.901	20935.22
884.277	21254.99
884.653	21134.1
885.029	21753.28
885.405	24097.68
885.781	23914.65
886.157	22932.65
886.532	23217.18
886.908	23208.52
887.284	25796.2
887.659	26636.87
888.035	27482.31
888.411	28199.93
888.786	28568.91
889.161	29550.47
889.537	29008.2
889.912	29941.89
890.287	29915.16
890.662	30673.75
891.037	30121.62
891.412	28087.67
891.787	27812.18
892.162	26831.67
892.536	27455.56
892.911	26432.73
893.286	25882.92
893.66	24837.2
894.035	25464.21
894.409	27739.33
894.784	26633.01
895.158	27080.14
895.532	28694.34
895.906	29482.92
896.281	30164.83
896.655	29683.62
897.029	33910.33
897.402	35311.92
897.776	39327.21
898.15	39188.28
898.524	38735.16
898.898	39251.49
899.271	43932.77
899.645	38041.25
900.018	36519.25
900.392	37877.21
900.765	38179.61
901.138	35325.15
901.511	34778.79
901.884	31904.39
902.258	29438.29
902.631	30427.42
903.003	35022.63
903.376	31590.91
903.749	35415.3
904.122	37917.57
904.495	41760.11
904.867	42280.74
905.24	36738.03
905.612	34203.08
905.985	35002.04
906.357	36594.89
906.729	34930.96
907.102	29826.96
907.474	28686.89
907.846	28888.39
908.218	28519.67
908.59	25219.62
908.962	24398.34
909.334	26266.71
909.705	27589.34
910.077	26773.23
910.449	27866.72
910.82	28663.69
911.192	31548.91
911.563	32785.85
911.935	35062.44
912.306	35084.92
912.677	36186.66
913.048	35823.51
913.419	38864.1
913.79	39075.26
914.161	41890.59
914.532	40035.62
914.903	36781.4
915.274	34929.07
915.645	34426.39
916.015	30324.41
916.386	28926.42
916.756	30830.32
917.127	31823.79
917.497	28434.66
917.868	30965.49
918.238	29439.78
918.608	30282.94
918.978	30899.67
919.348	32744.49
919.718	33825.87
920.088	32547.73
920.458	33811.9
920.828	35574.52
921.198	33720.56
921.567	36018.49
921.937	27898.06
922.306	28162.43
922.676	30401.01
923.045	25361.83
923.415	24090.76
923.784	21952.97
924.153	22599.83
924.522	22594.57
924.891	21238.53
925.26	22766.15
925.629	22238.45
925.998	25567.01
926.367	24982.97
926.736	23780.8
927.104	28333.96
927.473	30456.42
927.842	36769.53
928.21	36387.75
928.578	38228.47
928.947	36174.72
929.315	36406.35
929.683	42712.26
930.051	43059.95
930.42	49944.28
930.788	42712.18
931.156	42407.44
931.523	39763.15
931.891	36788.46
932.259	35357.83
932.627	40986.04
932.994	57954.01
933.362	47861.6
933.729	41564.89
934.097	39790.14
934.464	33717.54
934.831	38929.39
935.199	38371.42
935.566	37224.12
935.933	37675.46
936.3	45688.7
936.667	35587.49
937.034	32141.37
937.401	31815.31
937.767	27472.96
938.134	24488.82
938.501	34540.4
938.867	36796.76
939.234	62294.32
939.6	53206.59
939.967	58630.15
940.333	39201.27
940.699	33376.29
941.065	26766.52
941.431	35046.77
941.798	33790.34
942.163	44327.17
942.529	27678.85
942.895	25483.05
943.261	16463.59
943.627	21590.8
943.992	18919.26
944.358	18953.57
944.723	19006.13
945.089	18499.94
945.454	17086.42
945.82	18215.94
946.185	17486.51
946.55	20260.98
946.915	18167.76
947.28	21322.22
947.645	18777.06
948.01	17334.47
948.375	18066.07
948.74	21657.5
949.104	25279.87
949.469	36558.91
949.834	64627.8
950.198	61370.38
950.562	36806.92
950.927	30671.54
951.291	36868.96
951.655	31366.03
952.02	29475.7
952.384	22319.57
952.748	19449.89
953.112	18974.98
953.476	16492.42
953.839	15245.59
954.203	15093.81
954.567	18875.25
954.931	29724.04
955.294	25475.99
955.658	25621.83
956.021	43572.23
956.385	73824.41
956.748	108926.99
957.111	168933.25
957.474	189699.56
957.837	213774.91
958.2	161810.23
958.563	58244.05
958.926	39386.36
959.289	59700.62
959.652	66694.2
960.015	50060.17
960.377	71953.38
960.74	82151.66
961.102	142091.27
961.465	152535.4
961.827	81760.95
962.189	156840.39
962.552	108639.76
962.914	87111.84
963.276	56630.47
963.638	46833.85
964	46374
964.362	31343.3
964.724	30269.67
965.085	21553.18
965.447	17683.24
965.809	20164.41
966.17	20193.29
966.532	21877.22
966.893	20094.07
967.255	18284.9
967.616	21609.39
967.977	17306.97
968.338	18900.55
968.699	15556.19
969.061	15559.1
969.421	15686.4
969.782	17614.84
970.143	14880.75
970.504	15410.72
970.865	17510.47
971.225	17908.71
971.586	17515.04
971.946	24979.74
972.307	21672.18
972.667	28337.93
973.027	29206.65
973.388	35390.36
973.748	24032.32
974.108	26221.63
974.468	35427.19
974.828	27350.27
975.188	21034.03
975.548	19320.15
975.907	16237.03
976.267	18233.57
976.627	15336.46
976.986	15892.9
977.346	15156.53
977.705	14598.13
978.064	13250.06
978.424	11058.56
978.783	11430.03
979.142	13042.13
979.501	12474.6
979.86	13167.47
980.219	12673.37
980.578	16317
980.937	18297.72
981.296	16312
981.654	16804.42
982.013	26211.3
982.371	34009.29
982.73	31780.05
983.088	36017.03
983.447	38519.72
983.805	55129.39
984.163	115387.56
984.521	128142.98
984.879	187653.61
985.237	-305398.46
985.595	294327.13
985.953	73111.53
986.311	42208.77
986.669	24484.27
987.026	21142.98
987.384	28409.88
987.741	29336.66
988.099	20987.45
988.456	16736.8
988.814	15709.02
989.171	13662.04
989.528	13470.97
989.885	14248.79
990.242	11289.69
990.599	14073.71
990.956	11512.35
991.313	8055.6
991.67	6620.16
992.027	7022.99
992.383	6236.27
992.74	5454.2
993.096	5720.3
993.453	5931.26
993.809	6144.33
994.165	8186.34
994.522	7507.72
994.878	8273.02
995.234	10385.03
995.59	10242.79
995.946	9668.65
996.302	11033.07
996.658	12785
997.013	14075.12
997.369	16682.71
997.725	21352.14
998.08	13829.03
998.436	21255.48
998.791	29344.81
999.147	29308.92
999.502	32026.75
999.857	23306.55
1000.212	38047.41
1000.567	54114.54
1000.922	31212.44
1001.277	19835.46
1001.632	14689.43
1001.987	18912.59
1002.342	13607.38
1002.696	10892.97
1003.051	8693.92
1003.406	10509.46
1003.76	10443.59
1004.114	10298.03
1004.469	8657.97
1004.823	7169.69
1005.177	7757.29
1005.531	6174.83
1005.885	5482.3
1006.239	6196.18
1006.593	7758.02
1006.947	10376.2
1007.301	7799.07
1007.655	8498.73
1008.008	6236.37
1008.362	7022.71
1008.715	10033.67
1009.069	9088.16
1009.422	13674.29
1009.776	27418.49
1010.129	18223.46
1010.482	15203.64
1010.835	12845.89
1011.188	26722.78
1011.541	25146.63
1011.894	-153214.08
1012.247	449769.64
1012.6	30623.69
1012.952	19308.84
1013.305	9920.36
1013.657	7142.09
1014.01	6761.35
1014.362	5594.55
1014.715	4988.22
1015.067	4347.91
1015.419	4260.02
1015.771	3802.12
1016.123	3382.89
1016.475	3476.81
1016.827	3694.63
1017.179	3975.48
1017.531	4003.55
1017.883	4081.28
1018.234	3942.82
1018.586	4972.03
1018.938	5285.78
1019.289	7329.1
1019.64	8323.27
1019.992	7748.63
1020.343	7074.48
1020.694	5633.81
1021.045	4983.35
1021.396	5694.82
1021.747	6096.77
1022.098	7287.84
1022.449	5281.78
1022.8	4873.73
1023.151	3373.36
1023.501	2994.91
1023.852	3246.38
1024.202	3382.93
1024.553	3714.14
1024.903	3634.89
1025.253	3112.7
1025.604	2800.86
1025.954	3475.45
1026.304	4251.96
1026.654	4944.48
1027.004	7260.5
1027.354	11770.44
1027.703	11140.21
1028.053	14592.91
1028.403	21143.71
1028.753	30448.97
1029.102	41286.25
1029.452	211522.43
1029.801	9111.88
1030.15	5840.51
1030.499	4942.51
897.758	2704.68
901.051	2673.36
904.343	2709.55
907.636	2708.37
910.928	2773.66
914.22	2683.69
917.511	2692.09
920.803	2757.66
924.094	2779.8
927.384	2757.01
930.675	2721.29
933.965	2676.3
937.255	2680.7
940.544	2648.21
943.834	2583.3
947.123	2527.47
950.411	2622.5
953.7	2596.35
956.988	2558.3
960.276	2502.31
963.563	2588.3
966.851	2583.76
970.138	2642.51
973.424	2631.71
976.711	2581.91
979.997	2726.3
983.283	2757.91
986.568	2660.62
989.853	2682.65
993.138	2710.68
996.423	2791.04
999.708	2723.37
1002.992	2792.2
1006.275	2621.14
1009.559	2673.39
1012.842	2786.88
1016.125	2713.79
1019.408	2693.91
1022.69	2785.83
1025.972	2799.01
1029.254	2774.29
1032.536	2699.89
1035.817	2732.48
1039.098	2671.33
1042.379	2824.85
1045.659	2817.39
1048.939	2750.9
1052.219	2773.29
1055.498	2789.01
1058.778	2770.2
1062.057	2758.74
1065.335	2780.49
1068.614	2798.76
1071.892	2776.51
1075.17	2855.96
1078.447	2844.6
1081.724	2833
1085.001	2870.82
1088.278	2844.34
1091.554	2859.03
1094.83	2856.65
1098.106	2880.25
1101.382	2926.73
1104.657	2929.02
1107.932	2922.95
1111.206	2883.46
1114.481	2842.38
1117.755	2849.42
1121.029	2825.48
1124.302	2874.45
1127.575	2822.79
1130.848	2807.99
1134.121	2767.98
1137.393	2714.77
1140.665	2784.62
1143.937	2759.02
1147.208	2724.98
1150.48	2758.35
1153.75	2742.86
1157.021	2782.35
1160.291	2751.74
1163.561	2795.55
1166.831	2789.6
1170.101	2821.64
1173.37	2802.47
1176.639	2741.97
1179.907	2804.66
1183.176	2805.62
1186.444	2815.06
1189.711	2843.21
1192.979	2853.34
1196.246	2810.76
1199.513	2829.02
1202.78	2823.55
1206.046	2832.42
1209.312	2855.11
1212.578	2881.45
1215.843	2830.5
1219.108	2807.72
1222.373	2830.07
1225.638	2792.14
1228.902	2771.39
1232.166	2741.17
1235.43	2721.8
1238.693	2747.02
1241.956	2746
1245.219	2782.02
1248.482	2776.31
1251.744	2771.53
1255.006	2923.17
1258.268	2879.22
1261.529	2822.14
1264.79	2830.79
1268.051	2935.25
1271.312	2951.46
1274.572	2913.24
1277.832	2904.25
1281.092	2898.1
1284.351	2868.63
1287.61	2843.91
1290.869	2756.44
1294.128	2728.79
1297.386	2827.84
1300.644	2813.63
1303.902	2823.17
1307.159	2687.53
1310.416	2740.56
1313.673	2762.63
1316.93	2746.55
1320.186	2793.53
1323.442	2842.39
1326.697	2826.75
1329.953	2823.04
1333.208	2840.17
1336.463	2825.79
1339.717	2761.25
1342.972	2897.59
1346.226	2879.87
1349.479	2809.65
1352.733	2776.63
1355.986	2806.2
1359.238	2781.37
1362.491	2783.34
1365.743	2789.25
1368.995	2784.84
1372.247	2799.58
1375.498	2824.35
1378.749	2830.03
1382	2786.43
1385.251	2843.22
1388.501	2808.82
1391.751	2789.78
1395	2758.33
1398.25	2796.03
1401.499	2800.86
1404.748	2724.05
1407.996	2715.04
1411.244	2701.7
1414.492	2682.55
1417.74	2660.08
1420.987	2671.76
1424.234	2726.51
1427.481	2708.04
1430.728	2771.76
1433.974	2745.22
1437.22	2759.17
1440.465	2763.68
1443.711	2720.85
1446.956	2756.45
1450.201	2750.47
1453.445	2793.03
1456.689	2767.85
1459.933	2781.95
1463.177	2811.58
1466.42	2782.26
1469.663	2759.84
1472.906	2752.14
1476.148	2834.67
1479.391	2792.56
1482.633	2765.8
1485.874	2770.11
1489.115	2753.3
1492.356	2765.79
1495.597	2736.47
1498.838	2744.17
1502.078	2708.96
1505.318	2656.2
1508.557	2697.88
1511.797	2665.66
1515.036	2741.32
1518.274	2731.13
1521.513	2707.69
1524.751	2732.06
1527.989	2740.47
1531.227	2753.99
1534.464	2741.2
1537.701	2769.16
1540.938	2789.38
1544.174	2743.3
1547.41	2743.75
1550.646	2782.58
1553.882	2817.89
1557.117	2869.43
1560.352	2886.47
1563.587	2841.51
1566.821	2799.73
1570.055	2838.38
1573.289	2806.76
1576.523	2884.77
1579.756	2891.22
1582.989	2908.21
1586.222	2869.79
1589.454	2905.11
1592.686	2877.08
1595.918	2899.42
1599.15	2887.35
1602.381	2970.22
1605.612	2918.53
1608.843	3014.26
1612.073	2924.65
1615.303	2908.31
1618.533	2899.27
1621.762	2899.5
1624.992	2892.62
1628.221	2873.57
1631.449	2858.2
1634.678	2922.95
1637.906	2873.59
1641.134	2916.89
1644.361	2869.22
1647.588	2861.53
1650.815	2876.44
1654.042	2857.45
1657.269	2889.83
1660.495	2836.73
1663.72	2859.97
1666.946	2822.03
1670.171	2757.11
1673.396	2732.13
1676.621	2722.42
1679.845	2748.43
1683.069	2768.85
1686.293	2813.37
1689.517	2782.49
1692.74	2708.57
1695.963	2739.79
1699.185	2756.59
1702.408	2734.65
1705.63	2778.23
1708.852	2788.55
1712.073	2761.34
1715.294	2740.48
1718.515	2807.27
1721.736	2751.6
1724.956	2747.64
1728.176	2775.07
1731.396	2796.51
1734.616	2785.71
1737.835	2810.03
1741.054	2794.65
1744.272	2788.33
1747.491	2815.67
1750.709	2876.86
1753.927	2770.61
1757.144	2820.49
1760.361	2859.18
1763.578	2855.25
1766.795	2796.74
1770.011	2805.3
1773.227	2849.7
1776.443	2880.16
1779.658	2924.54
1782.874	2871.84
1786.089	2846.58
1789.303	2848.63
1792.518	2857.19
1795.732	2842.24
1798.945	2851.06
1802.159	2902.95
1805.372	2797.72
1808.585	2780.01
1811.797	2782.74
1815.01	2837.14
1818.222	2832.99
1821.434	2801.48
1824.645	2864.05
1827.856	2842.01
1831.067	2877.79
1834.278	2842.88
1837.488	2822.25
1840.698	2978.06
1843.908	2900.73
1847.117	2865.45
1850.326	2740.94
1853.535	2852.34
1856.744	2882.35
1859.952	2796.37
1863.16	2798.73
1866.368	2822.65
1869.575	2921.47
1872.782	2815.11
1875.989	2755.29
1879.196	2847.03
1882.402	2839.79
1885.608	2884.19
1888.814	2782.93
1892.019	2675.7
1895.224	2728.69
1898.429	2712.5
1901.634	2691.35
1904.838	2672.1
1908.042	2717.8
1911.246	2725.14
1914.449	2650.21
1917.652	2648.57
1920.855	2632.02
1924.058	2684.36
1927.26	2719.85
1930.462	2750.25
1933.664	2774.98
1936.865	2713.56
1940.066	2714.32
1943.267	2664.23
1946.467	2678.62
1949.668	2706.85
1952.868	2772.87
1956.067	2746.96
1959.267	2675.78
1962.466	2704.27
1965.665	2689.11
1968.863	2683.56
1972.061	2703.3
1975.259	2703.43
1978.457	2783.84
1981.654	2739.29
1984.852	2739.95
1988.048	2669.29
1991.245	2676.71
1994.441	2762.09
1997.637	2752.44
2000.833	2735.74
2004.028	2776.72
2007.223	2827.99
2010.418	2801.72
2013.613	2759.77
2016.807	2729.21
2020.001	2741.19
2023.194	2788.54
2026.388	2760.15
2029.581	2708.59
2032.774	2754.22
2035.966	2753.67
2039.158	2681.75
2042.35	2710.76
2045.542	2640.42
2048.733	2745.74
2051.924	2776.99
2055.115	2803.44
2058.306	2742.77
2061.496	2805.82
2064.686	2867.96
2067.875	2785.87
2071.065	2805.87
2074.254	2835.58
2077.442	2783.52
2080.631	2876.25
2083.819	2760.17
2087.007	2739.42
2090.195	2710.87
2093.382	2749.32
2096.569	2727.08
2099.756	2680.63
2102.942	2700.8
2106.128	2701.99
2109.314	2696.69
2112.5	2656.91
2115.685	2632.89
2118.87	2644.64
2122.055	2711.91
2125.239	2671.6
2128.424	2643.88
2131.608	2756.16
2134.791	2738.63
2137.974	2800.06
2141.157	2785.05
2144.34	2728.8
2147.523	2752.25
2150.705	2764.9
2153.887	2746.58
2157.068	2690.16
2160.25	2698.58
2163.431	2737.65
2166.611	2679.67
2169.792	2692.47
2172.972	2583.89
2176.152	2668.63
2179.331	2705.55
2182.511	2682.03
2185.69	2709.1
2188.868	2701.78
2192.047	2761.46
2195.225	2745.16
2198.403	2697.32
2201.58	2689.23
2204.758	2689.21
2207.935	2772.72
2211.111	2654.56
2214.288	2639.11
2217.464	2676.78
2220.64	2656.45
2223.815	2710.41
2226.991	2631.11
2230.166	2651.74
2233.34	2677.84
2236.515	2707.04
2239.689	2780.7
2242.863	2722.34
2246.036	2780.6
2249.209	2786.12
2252.382	2823.69
2255.555	2801.95
2258.727	2738.64
2261.9	2782.28
2265.071	2772.72
2268.243	2774.69
2271.414	2701.4
2274.585	2660.39
2277.756	2731.09
2280.926	2686.38
2284.096	2728.51
2287.266	2629.48
2290.436	2689.28
2293.605	2721.25
2296.774	2742.41
2299.942	2770.42
2303.111	2789.28
2306.279	2835.59
2309.447	2823.51
2312.614	2797.87
2315.781	2819.27
2318.948	2786.83
2322.115	2828.07
2325.281	2731.6
2328.447	2752.71
2331.613	2731.63
2334.779	2700.68
2337.944	2705.5
2341.109	2701.73
2344.274	2682.4
2347.438	2650.24
2350.602	2673.9
2353.766	2691.07
2356.929	2677.69
2360.092	2722.21
2363.255	2669.93
2366.418	2597.23
2369.58	2716.84
2372.742	2491.3
2375.904	2511.64
2379.066	2484.43
2382.227	2519.72
2385.388	2484.95
2388.548	2406.22
2391.709	2464.04
2394.869	2436.57
2398.029	2543.76
2401.188	2562.06
2404.347	2492.22
2407.506	2641.52
2410.665	2669.74
2413.823	2680.42
2416.981	2633.86
2420.139	2667.94
2423.296	2719.91
2426.453	2693.38
2429.61	2717.09
2432.767	2645.21
2435.923	2679.73
2439.079	2646.09
2442.235	2696.73
2445.391	2620.63
2448.546	2643.57
2451.701	2698.24
2454.855	2661.86
2458.009	2720.09
2461.163	2722.44
2464.317	2682.85
2467.471	2717.45
2470.624	2758.1
2473.777	2723.56
2476.929	2739.72
2480.082	2763.1
2483.234	2728.35
2486.385	2684.75
2489.537	2678.77
2492.688	2634.03
2495.839	2653.29
2498.989	2662.36
2502.14	2643.51
2505.29	2626.71
2508.439	2654.13
2511.589	2571.09
2514.738	2588.58
2517.887	2621.84
2521.035	2678.61
2524.183	2669.24
2527.331	2645.91
2530.479	2614.72
2533.627	2627.76
