Data from C_2_DIV_IL_4N_Splice17_12-37-01-862.txt Node
Date: Sat Mar 14 12:37:01 EDT 2020
User: sa697716
Spectrometer: FLMS03696
Trigger mode: 0
Integration Time (sec): 3.180400E-1
Scans to average: 20
Electric dark correction enabled: true
Nonlinearity correction enabled: true
Boxcar width: 5
XAxis mode: Wavelengths
Number of Pixels in Spectrum: 2048
>>>>>Begin Spectral Data<<<<<
187.83	-397435.44
188.298	2759.98
188.766	1513.09
189.233	1379.37
189.701	1916.65
190.169	2676.96
190.636	1008.51
191.104	849.66
191.571	139.62
192.039	-63.01
192.506	-29.36
192.974	462.8
193.441	-781.92
193.908	-56.03
194.375	-26.25
194.842	38.18
195.31	201.71
195.777	198.82
196.244	451.13
196.711	542.08
197.177	683.33
197.644	1007.91
198.111	1711.1
198.578	2395.72
199.045	1921.44
199.511	3153.07
199.978	3701.02
200.445	3119.65
200.911	3491.49
201.378	3907.32
201.844	3534.67
202.31	6044.42
202.777	6245.14
203.243	3469.98
203.709	3300.65
204.176	3915.82
204.642	3259.8
205.108	3037.38
205.574	2497.59
206.04	2263.4
206.506	2138.77
206.972	2038.33
207.438	1983.75
207.903	2265.94
208.369	2009.83
208.835	2012.32
209.301	2121.53
209.766	2182.83
210.232	2173.17
210.697	2710.86
211.163	3394.46
211.628	5192.42
212.094	4369.06
212.559	5407.76
213.024	3413.01
213.49	4176.83
213.955	4125.26
214.42	4082.46
214.885	3836.22
215.35	3728.38
215.815	3606.33
216.28	3866.27
216.745	3205.93
217.21	3543.69
217.675	3364.47
218.14	3885.38
218.604	4511.19
219.069	5340.33
219.534	5774.88
219.998	6933.67
220.463	8647.86
220.927	10981.73
221.392	10582.45
221.856	10881.05
222.32	13990.91
222.785	17452.57
223.249	22199.14
223.713	24972.17
224.177	25117.19
224.642	32433.4
225.106	40106.41
225.57	44055.09
226.034	32760.39
226.497	49981.06
226.961	45154.57
227.425	52569.38
227.889	58483.89
228.353	58622.44
228.816	121266.56
229.28	116094.3
229.744	97989.76
230.207	59445.1
230.671	58413.8
231.134	96767.56
231.597	111360.85
232.061	111478.37
232.524	108779.97
232.987	74947.64
233.45	67381.17
233.914	60386.73
234.377	61937.28
234.84	56690.52
235.303	66943.54
235.766	74645.51
236.229	77168.27
236.691	48632.83
237.154	54608.34
237.617	41036.15
238.08	41968.7
238.542	49091.37
239.005	35055.84
239.468	34725.55
239.93	32690.8
240.393	29651
240.855	26011.32
241.317	26615.54
241.78	32376.53
242.242	33409.66
242.704	36007.81
243.166	31317.57
243.629	28385.92
244.091	32687.32
244.553	35791.26
245.015	38397.3
245.477	49663.21
245.939	72761.3
246.4	77152.58
246.862	74893.19
247.324	70573.93
247.786	78955.34
248.247	103422.88
248.709	106791.99
249.17	79735.07
249.632	74932.45
250.093	86769.88
250.555	74807.79
251.016	45511.47
251.477	43077.52
251.939	46414.62
252.4	48648.22
252.861	57793.2
253.322	53637.2
253.783	63764.1
254.244	82566.94
254.705	65058.78
255.166	57817.44
255.627	56877.21
256.088	80045.49
256.549	84904.69
257.009	73049.05
257.47	88501.06
257.931	71993.71
258.391	53915.98
258.852	55499.24
259.312	58201.17
259.773	71896.5
260.233	60618.06
260.694	51048.8
261.154	57925.86
261.614	46384.27
262.074	41433.84
262.534	42983.12
262.994	40474.24
263.455	53880.05
263.915	45358.5
264.374	42706.58
264.834	46590.39
265.294	51633.69
265.754	53452.59
266.214	50595.18
266.673	47411.97
267.133	59833.03
267.593	59374.82
268.052	72546.9
268.512	63073.76
268.971	75959.84
269.431	83169.32
269.89	74402.12
270.349	111552.95
270.809	124283.34
271.268	111602
271.727	250304.14
272.186	161921.84
272.645	121387.27
273.104	87630.96
273.563	126783.67
274.022	99733.97
274.481	84773.76
274.94	65231.22
275.399	48416.91
275.857	56359.14
276.316	76208.44
276.775	67754.11
277.233	66663.25
277.692	62285.86
278.15	70347.4
278.609	72259.76
279.067	66809.3
279.525	61980.64
279.984	80024.57
280.442	96053.09
280.9	94492.81
281.358	62070.27
281.816	57793.7
282.274	56575.68
282.732	58468
283.19	58729.87
283.648	50672.47
284.106	53945.05
284.564	54837.16
285.021	50771.67
285.479	37810.82
285.937	34414.11
286.394	30148.41
286.852	31015.4
287.309	32539.74
287.767	31333.7
288.224	29735.02
288.682	32588.53
289.139	35722.05
289.596	32634.57
290.053	33904.34
290.511	42763.12
290.968	51762.65
291.425	70298.37
291.882	58365.41
292.339	50760.71
292.796	50410.72
293.252	47509.22
293.709	37693.7
294.166	33735.49
294.623	37271.28
295.079	35756.23
295.536	35912.52
295.992	32585.56
296.449	32164.11
296.905	33417.92
297.362	32031.44
297.818	33673.36
298.274	34886.98
298.731	35537.4
299.187	35175.08
299.643	37732.8
300.099	45567.31
300.555	49898.48
301.011	41641.64
301.467	40067.97
301.923	46901.99
302.379	45749.08
302.835	44890.32
303.291	44874.56
303.746	51053.72
304.202	64361.18
304.658	64612.06
305.113	43412.3
305.569	42502.05
306.024	45322.22
306.479	43138.41
306.935	36287.77
307.39	39584.04
307.845	36511.84
308.301	36705.61
308.756	35725.07
309.211	34407.62
309.666	35218.21
310.121	43650.45
310.576	44272.25
311.031	43889.94
311.486	50271.73
311.94	50247.52
312.395	67225.86
312.85	126389.9
313.305	621268.29
313.759	3208224.14
314.214	232296.7
314.668	183846.41
315.123	154588.15
315.577	55378
316.032	49157.59
316.486	61583.69
316.94	48490.28
317.394	33673.94
317.849	26122.42
318.303	24705.15
318.757	23294.2
319.211	25727.34
319.665	22510.42
320.119	22758.04
320.572	32647.02
321.026	30487.84
321.48	25364.35
321.934	27696.77
322.387	27787.98
322.841	29993.34
323.295	26927.35
323.748	31050.49
324.202	31498.5
324.655	37761.13
325.108	52706.56
325.562	37167.58
326.015	44172.45
326.468	33326.55
326.921	37222.76
327.374	34622.95
327.827	36009.68
328.28	40782.88
328.733	27303.75
329.186	23984.76
329.639	22855.85
330.092	19263.07
330.545	18339.4
330.997	18461.79
331.45	20163.73
331.903	23611.13
332.355	40646.5
332.808	39462.25
333.26	32477.07
333.713	35232.21
334.165	35465.17
334.617	47385.59
335.069	38321.84
335.522	69312.83
335.974	76757.32
336.426	70138.19
336.878	48532.73
337.33	24575.29
337.782	24018.96
338.234	30052.75
338.686	35906.05
339.137	42511.49
339.589	39954.39
340.041	31253.47
340.493	26815.09
340.944	27446.67
341.396	29522.17
341.847	24813.56
342.299	29243.66
342.75	35660.7
343.201	31202.08
343.653	35898.55
344.104	44087.68
344.555	34682.92
345.006	54017.84
345.457	41312.51
345.908	32827.41
346.359	30831.98
346.81	25106.44
347.261	26475.84
347.712	26054.77
348.163	27898.44
348.613	28198.54
349.064	26322.3
349.515	23049.78
349.965	23618.62
350.416	28458.36
350.866	31200.08
351.317	35262.54
351.767	58330
352.217	73547.45
352.668	60998.01
353.118	55965.05
353.568	53977.46
354.018	42603.83
354.468	44871.13
354.918	32096.02
355.368	28016.35
355.818	39573.2
356.268	113998.86
356.718	476614.32
357.168	118626.94
357.617	59482.55
358.067	66064.01
358.517	61840.86
358.966	72475.67
359.416	81147.37
359.865	87831.56
360.315	104661.59
360.764	48817.64
361.213	27276.18
361.663	25844.55
362.112	31888.12
362.561	51466.84
363.01	38742.89
363.459	32578.01
363.908	35242.41
364.357	29888.98
364.806	50409.41
365.255	34642.59
365.703	31695.12
366.152	31722.61
366.601	25681.01
367.05	20818.75
367.498	18901.44
367.947	19734.81
368.395	20510.18
368.844	18138.36
369.292	21888.83
369.74	15111.25
370.189	23124.92
370.637	27096.25
371.085	23389.53
371.533	28451.77
371.981	27427.45
372.429	26133.82
372.877	27210.96
373.325	22774.3
373.773	23184.84
374.221	20662.94
374.669	25618.58
375.116	22124.32
375.564	22262.04
376.012	24852.31
376.459	20482.25
376.907	24456.37
377.354	29556.69
377.801	27504.36
378.249	31535.92
378.696	40301.98
379.143	48670.24
379.591	51821.43
380.038	87542.27
380.485	63232.13
380.932	68245.17
381.379	62257.22
381.826	45732.54
382.273	32462.24
382.72	28380.45
383.166	27616.84
383.613	17895.48
384.06	16120.77
384.506	18628.97
384.953	13668.08
385.4	13728.56
385.846	12014.51
386.292	11717.08
386.739	11458.57
387.185	11332.76
387.631	11321.49
388.078	10968.92
388.524	11729.22
388.97	10809.71
389.416	8999.55
389.862	9565.92
390.308	9067.24
390.754	9185.18
391.2	9954.81
391.645	10183.16
392.091	9704.1
392.537	9361.84
392.983	9373.56
393.428	9193.93
393.874	9852.62
394.319	9886.03
394.765	9341.6
395.21	9594.18
395.655	8991.95
396.101	8411.57
396.546	7574.92
396.991	7632.4
397.436	7084.58
397.881	6842.35
398.326	6477.35
398.771	6122.04
399.216	5341.1
399.661	4811.67
400.106	4778.98
400.551	4890.28
400.995	4379.78
401.44	4325.62
401.885	4063.57
402.329	4102.72
402.774	3932.2
403.218	3799.92
403.663	3650.46
404.107	3753.33
404.551	3774.4
404.995	3463.11
405.44	3331.3
405.884	3382.74
406.328	3279.99
406.772	3272.83
407.216	2977.84
407.66	2875.71
408.104	2729.96
408.547	2558.94
408.991	2473.47
409.435	2380.87
409.879	2346.9
410.322	2313.95
410.766	2234.46
411.209	2118.98
411.653	2034.58
412.096	1994.63
412.54	1994.65
412.983	1982.75
413.426	1986.33
413.869	1983.42
414.312	1944.33
414.756	1874.51
415.199	1790.75
415.642	1734.26
416.085	1736.59
416.527	1719.78
416.97	1744.84
417.413	1652.03
417.856	1634.24
418.298	1616.05
418.741	1602.33
419.184	1596.02
419.626	1661.21
420.069	1656.91
420.511	1663.7
420.953	1624.97
421.396	1610.81
421.838	1570.18
422.28	1608.01
422.722	1613.07
423.164	1637.19
423.606	1612.9
424.048	1611.26
424.49	1530.12
424.932	1524.84
425.374	1509.04
425.816	1537.95
426.258	1566.55
426.699	1583.29
427.141	1558.85
427.582	1585.33
428.024	1576.43
428.465	1567.65
428.907	1532.19
429.348	1513.67
429.789	1513.31
430.231	1477.7
430.672	1498.28
431.113	1460.26
431.554	1437.66
431.995	1402.38
432.436	1352.9
432.877	1321.18
433.318	1298.75
433.759	1292.39
434.2	1292.33
434.64	1276.17
435.081	1281.66
435.522	1215.6
435.962	1172.8
436.403	1146.9
436.843	1162.68
437.284	1134.74
437.724	1105.54
438.164	1106.66
438.604	1081.55
439.045	1040.57
439.485	998.09
439.925	975.74
440.365	950.12
440.805	938.2
441.245	925.09
441.685	887.91
442.125	882.95
442.564	888.93
443.004	868.76
443.444	865.88
443.883	865.51
444.323	858.18
444.762	860.11
445.202	870.04
445.641	883.99
446.081	879.69
446.52	888.98
446.959	878.41
447.398	855.54
447.837	845.42
448.276	829.55
448.716	836.9
449.154	844.49
449.593	823.59
450.032	822.59
450.471	807.02
450.91	807.15
451.349	805.98
451.787	802.81
452.226	813.94
452.664	813.3
453.103	814.91
453.541	813.89
453.98	812.5
454.418	818.66
454.856	803.17
455.295	801.67
455.733	807.68
456.171	810.76
456.609	811.76
457.047	812.08
457.485	824.18
457.923	825.43
458.361	813.1
458.798	815.06
459.236	812.42
459.674	818.46
460.111	822.6
460.549	813.57
460.987	811.46
461.424	808.55
461.862	803.92
462.299	790.82
462.736	790.72
463.173	794.39
463.611	787.13
464.048	784.07
464.485	790.22
464.922	781.66
465.359	778.8
465.796	767.31
466.233	759.96
466.67	752.54
467.106	750.89
467.543	741.8
467.98	732.92
468.416	712.16
468.853	706.49
469.29	684.68
469.726	677.33
470.162	658.36
470.599	648.48
471.035	642.89
471.471	627.19
471.907	622.76
472.344	619.43
472.78	619.84
473.216	627.54
473.652	620.01
474.088	617.9
474.523	616.5
474.959	622.81
475.395	617.3
475.831	613.52
476.266	616.34
476.702	614.6
477.138	607.31
477.573	604.37
478.008	601.94
478.444	604.33
478.879	610.47
479.314	612.68
479.75	611.4
480.185	613.92
480.62	618.91
481.055	622.19
481.49	626.55
481.925	634.99
482.36	646.28
482.795	664.07
483.229	681.42
483.664	694.27
484.099	696.36
484.534	706.98
484.968	713.94
485.403	716.88
485.837	714.89
486.271	713.03
486.706	712.85
487.14	703.93
487.574	691.76
488.009	684.99
488.443	678.61
488.877	684.42
489.311	685.9
489.745	693.22
490.179	697.8
490.613	710.55
491.046	715.55
491.48	720.23
491.914	721.21
492.348	726.69
492.781	729.62
493.215	731.64
493.648	732.13
494.082	736.68
494.515	735.87
494.948	743.48
495.382	747.3
495.815	751.02
496.248	756.05
496.681	767.67
497.114	777.9
497.547	788.54
497.98	800.84
498.413	806.76
498.846	816.24
499.279	824.75
499.711	827.9
500.144	829.74
500.577	840.08
501.009	850.51
501.442	860.14
501.874	860.15
502.306	860.72
502.739	868.42
503.171	882.26
503.603	884.7
504.036	893.34
504.468	898.68
504.9	909.46
505.332	915.38
505.764	920.61
506.196	927.25
506.627	941.6
507.059	955.28
507.491	962.61
507.923	960.72
508.354	975.65
508.786	986.86
509.217	1005.17
509.649	1021.13
510.08	1041.25
510.512	1057.79
510.943	1073.54
511.374	1086.55
511.805	1107.8
512.237	1128.11
512.668	1162.66
513.099	1192.66
513.53	1222.42
513.961	1245.21
514.391	1278.63
514.822	1314.29
515.253	1352.22
515.684	1379.61
516.114	1411.5
516.545	1435.42
516.975	1464.51
517.406	1483.92
517.836	1488.09
518.267	1496
518.697	1516.57
519.127	1523.52
519.558	1532.79
519.988	1538.11
520.418	1551.06
520.848	1571.14
521.278	1582.6
521.708	1592.78
522.138	1608.65
522.567	1643.57
522.997	1673.71
523.427	1692.09
523.857	1712.36
524.286	1724.82
524.716	1743.55
525.145	1766.64
525.575	1780.45
526.004	1797.5
526.433	1804.16
526.863	1807.38
527.292	1798.85
527.721	1805.34
528.15	1813.04
528.579	1814.78
529.008	1828.58
529.437	1854.98
529.866	1870.68
530.295	1891.07
530.724	1906.89
531.152	1936.33
531.581	1952.23
532.01	1971.41
532.438	1981.89
532.867	2000.26
533.295	2021.4
533.723	2028.43
534.152	2027.14
534.58	2028.47
535.008	2011.42
535.436	2014.12
535.865	2024.44
536.293	2041.44
536.721	2060.3
537.149	2088.79
537.576	2091.53
538.004	2105.63
538.432	2115.45
538.86	2113.48
539.287	2121.69
539.715	2138.57
540.143	2141.76
540.57	2137.39
540.998	2132.28
541.425	2107.17
541.852	2084.44
542.28	2082.16
542.707	2065.4
543.134	2049.33
543.561	2045.65
543.988	2037.69
544.415	2036.94
544.842	2030.97
545.269	2023.54
545.696	2026.87
546.123	2041.63
546.549	2030.33
546.976	2015.83
547.403	2016.06
547.829	2018.69
548.256	2021.33
548.682	2017.09
549.108	2009.26
549.535	2010.4
549.961	2013.52
550.387	1999.6
550.813	1992.8
551.24	1999.61
551.666	2002.15
552.092	1991.31
552.518	1984.91
552.943	1977.72
553.369	1985.97
553.795	1992.13
554.221	1991.71
554.646	1987.42
555.072	1998.35
555.498	2004.72
555.923	2014.62
556.349	2030.45
556.774	2038.67
557.199	2039.42
557.625	2046.22
558.05	2038.87
558.475	2049.1
558.9	2046.23
559.325	2036.6
559.75	2028.82
560.175	2020.07
560.6	2012.79
561.025	2010.11
561.449	2012.31
561.874	2018.57
562.299	2022.91
562.723	2030.18
563.148	2019.42
563.572	2024.5
563.997	2034.63
564.421	2040.38
564.846	2040
565.27	2044.17
565.694	2041.15
566.118	2052.2
566.542	2059.35
566.966	2050.42
567.39	2044.87
567.814	2030.91
568.238	2029.49
568.662	2035.48
569.086	2037.52
569.509	2045.05
569.933	2026.59
570.357	2018.66
570.78	1994.78
571.204	1979.57
571.627	1968.89
572.05	1967.29
572.474	1967.78
572.897	1953.46
573.32	1944.95
573.743	1933.35
574.166	1913.3
574.589	1912.55
575.012	1902.9
575.435	1901.2
575.858	1890.71
576.281	1876.81
576.704	1858.21
577.126	1843.89
577.549	1830.78
577.972	1817.67
578.394	1806.3
578.817	1798.02
579.239	1776.52
579.661	1761.02
580.084	1743.14
580.506	1728.17
580.928	1722.91
581.35	1709.19
581.772	1703.24
582.194	1688.03
582.616	1673.79
583.038	1656.71
583.46	1644.52
583.882	1642.21
584.303	1646.09
584.725	1641.72
585.147	1643.81
585.568	1656.1
585.99	1669.52
586.411	1677.42
586.833	1694.93
587.254	1696.46
587.675	1714.06
588.096	1727.51
588.518	1721.32
588.939	1702.79
589.36	1699.28
589.781	1687.16
590.202	1655.83
590.623	1646.49
591.043	1642.3
591.464	1627.87
591.885	1624.57
592.305	1616.5
592.726	1601.67
593.147	1601.89
593.567	1596.85
593.987	1589.88
594.408	1584.41
594.828	1581.51
595.248	1574.98
595.669	1555.15
596.089	1547.39
596.509	1539.78
596.929	1525.04
597.349	1525.83
597.769	1515.59
598.189	1508.93
598.608	1509.43
599.028	1511.66
599.448	1511.6
599.867	1497.77
600.287	1492.72
600.706	1488.1
601.126	1477.85
601.545	1475.79
601.965	1473.81
602.384	1467.46
602.803	1469.74
603.222	1463.83
603.641	1456.38
604.061	1452.84
604.48	1448.26
604.898	1456.85
605.317	1461.71
605.736	1462.82
606.155	1459.71
606.574	1448.97
606.992	1454.95
607.411	1449.24
607.829	1440.51
608.248	1436.18
608.666	1432.37
609.085	1430.97
609.503	1421.4
609.921	1413.66
610.339	1415.09
610.758	1414.12
611.176	1408.29
611.594	1397.55
612.012	1393.81
612.43	1397.43
612.847	1403.96
613.265	1404.56
613.683	1409.07
614.101	1409.75
614.518	1405.58
614.936	1395.26
615.353	1380.38
615.771	1377.29
616.188	1377.72
616.606	1372.52
617.023	1363.88
617.44	1347.85
617.857	1340.49
618.274	1330.9
618.691	1324.3
619.108	1314.21
619.525	1306.18
619.942	1311.78
620.359	1314.53
620.776	1307.94
621.192	1303.81
621.609	1300.93
622.026	1307.97
622.442	1313.52
622.859	1316.2
623.275	1307.6
623.691	1312.69
624.108	1324.97
624.524	1339.58
624.94	1339.65
625.356	1350.47
625.772	1364.97
626.188	1377.39
626.604	1379.65
627.02	1375.26
627.436	1374.15
627.852	1382.29
628.268	1394.1
628.683	1384.23
629.099	1375.1
629.514	1369.15
629.93	1371.61
630.345	1375.15
630.761	1370.68
631.176	1373.58
631.591	1367.37
632.007	1360.55
632.422	1357.96
632.837	1346.05
633.252	1344.59
633.667	1333.99
634.082	1324.81
634.497	1312.14
634.911	1292.3
635.326	1287.9
635.741	1269.3
636.155	1258.54
636.57	1260.27
636.984	1260.46
637.399	1262.48
637.813	1262.14
638.228	1261.07
638.642	1266.24
639.056	1257.15
639.47	1257.38
639.884	1249.95
640.298	1243.69
640.712	1242.54
641.126	1229.17
641.54	1220.78
641.954	1216.56
642.368	1202.65
642.781	1195.84
643.195	1177.19
643.609	1176.8
644.022	1169.76
644.436	1164.29
644.849	1152.91
645.262	1141.31
645.676	1142.86
646.089	1136.94
646.502	1121.06
646.915	1117.03
647.328	1097.91
647.741	1095.36
648.154	1080.78
648.567	1078.34
648.98	1064.67
649.393	1063.91
649.805	1059.71
650.218	1051.1
650.631	1035.38
651.043	1027.87
651.456	1019.97
651.868	1019.51
652.28	1036.27
652.693	1049.79
653.105	1055.08
653.517	1065.39
653.929	1064.87
654.341	1069.29
654.753	1055.89
655.165	1060.13
655.577	1056.48
655.989	1052.11
656.401	1043.5
656.813	1006.27
657.224	985.22
657.636	955
658.047	935.62
658.459	916.2
658.87	905.22
659.282	893.4
659.693	872.37
660.104	858.1
660.515	843.86
660.926	843.85
661.338	840.15
661.749	832.95
662.159	824.7
662.57	820.02
662.981	814.55
663.392	809.33
663.803	814.32
664.213	812.66
664.624	808.72
665.035	811.19
665.445	795.31
665.855	788.58
666.266	782.33
666.676	780.1
667.086	771.21
667.497	771.83
667.907	766.06
668.317	756.29
668.727	752.94
669.137	753.24
669.547	752.87
669.956	755.77
670.366	757.75
670.776	759.05
671.186	762.58
671.595	766.27
672.005	768.96
672.414	768.06
672.824	766
673.233	769.5
673.642	771.98
674.052	773.4
674.461	775.24
674.87	780.55
675.279	778.38
675.688	780.33
676.097	781.38
676.506	778.18
676.915	792.44
677.323	795.66
677.732	794.41
678.141	793.19
678.549	782.58
678.958	782.81
679.366	781
679.775	783.94
680.183	793.99
680.592	799.59
681	805.73
681.408	798.97
681.816	806.01
682.224	813.98
682.632	824.13
683.04	853.28
683.448	877.04
683.856	907.38
684.264	942.87
684.671	973.6
685.079	1013.24
685.487	1054.25
685.894	1113.65
686.302	1162.45
686.709	1202.63
687.116	1249.57
687.524	1287.59
687.931	1319.93
688.338	1349.52
688.745	1372.43
689.152	1400.98
689.559	1438.7
689.966	1478.44
690.373	1496.89
690.78	1534.5
691.187	1594.24
691.593	1640.2
692	1679.8
692.407	1739.29
692.813	1811.48
693.22	1872.4
693.626	1935.63
694.032	1986.44
694.439	2064.34
694.845	2124.96
695.251	2201.23
695.657	2270.01
696.063	2372.16
696.469	2451.66
696.875	2524.35
697.281	2568.28
697.687	2619.37
698.093	2662.22
698.498	2744.35
698.904	2809.59
699.31	2906.44
699.715	2978.09
700.12	3081.15
700.526	3105.12
700.931	3184.16
701.337	3245.44
701.742	3287.52
702.147	3382.78
702.552	3421.56
702.957	3493.66
703.362	3520.02
703.767	3556.23
704.172	3604.47
704.577	3558.52
704.981	3616.99
705.386	3638.76
705.791	3636.62
706.195	3722.5
706.6	3737.96
707.004	3833
707.408	3803.81
707.813	3840.57
708.217	3835.09
708.621	3845.25
709.025	3957.91
709.43	3964.58
709.834	4037.2
710.237	4118.39
710.641	4107.38
711.045	4137.35
711.449	4135.99
711.853	4172.76
712.256	4222.69
712.66	4267.33
713.064	4355.22
713.467	4404.93
713.87	4535.49
714.274	4590.95
714.677	4719.36
715.08	4902.98
715.484	5096.78
715.887	5327.69
716.29	5556.54
716.693	5798.22
717.096	6073.55
717.499	6224.55
717.901	6260.96
718.304	6292.7
718.707	6324.25
719.109	6211.18
719.512	6183
719.915	6035.33
720.317	5976.69
720.719	6029.51
721.122	5999.24
721.524	5946.71
721.926	5903.63
722.328	6017.16
722.731	6011.24
723.133	6049.71
723.535	6272.75
723.937	6299.87
724.338	6364.46
724.74	6411.59
725.142	6341.05
725.544	6340.62
725.945	6374.16
726.347	6372.13
726.748	6370.86
727.15	6387.87
727.551	6344.13
727.952	6313.31
728.354	6281.27
728.755	6281.92
729.156	6234.98
729.557	6224.81
729.958	6085.13
730.359	6020.26
730.76	6002.62
731.161	5935.82
731.562	5909.49
731.962	5915.81
732.363	5845.78
732.763	5774.59
733.164	5815.93
733.564	5740.68
733.965	5631.29
734.365	5594.48
734.766	5627.43
735.166	5582.06
735.566	5518.76
735.966	5492.92
736.366	5488.49
736.766	5419.08
737.166	5456.96
737.566	5411.1
737.966	5385.53
738.365	5434.34
738.765	5431.78
739.165	5350.6
739.564	5323.7
739.964	5377.62
740.363	5325.15
740.763	5321.46
741.162	5311.26
741.561	5273.54
741.96	5223.91
742.36	5246.82
742.759	5250.93
743.158	5292.45
743.557	5311.26
743.955	5356.07
744.354	5302.89
744.753	5366.94
745.152	5321.55
745.55	5384.95
745.949	5379.09
746.348	5377.38
746.746	5394.82
747.144	5351.35
747.543	5327.52
747.941	5381.26
748.339	5300.06
748.737	5290.99
749.136	5280.32
749.534	5353.48
749.932	5320.64
750.33	5347.36
750.727	5414.76
751.125	5388.44
751.523	5370.79
751.921	5420.67
752.318	5381.83
752.716	5449.83
753.113	5465.68
753.511	5493.56
753.908	5492.45
754.305	5473.32
754.703	5542.12
755.1	5609.43
755.497	5678.69
755.894	5896.69
756.291	6100.41
756.688	6473.18
757.085	6973.08
757.482	7678.46
757.878	8450.68
758.275	9147.03
758.672	10103.17
759.068	10885.65
759.465	11996.37
759.861	13429.66
760.258	15088.29
760.654	15942.85
761.05	15822.19
761.447	15100.75
761.843	14056.1
762.239	12977.64
762.635	12501.11
763.031	12032.5
763.427	11358.65
763.822	10654.52
764.218	9958.41
764.614	9051.61
765.01	8445.73
765.405	8054.38
765.801	7758.47
766.196	7377.98
766.592	7167.6
766.987	6802.69
767.382	6561.68
767.778	6460.76
768.173	6310.78
768.568	6224.84
768.963	6080.16
769.358	6101.23
769.753	6047.88
770.148	5949.59
770.542	5949.21
770.937	5913.48
771.332	6020.1
771.726	6044.69
772.121	5972.09
772.515	6034.63
772.91	6018.7
773.304	6101.54
773.699	6026.57
774.093	6087.33
774.487	6153.02
774.881	6201.8
775.275	6194.33
775.669	6144.82
776.063	6191.28
776.457	6231.99
776.851	6145.71
777.245	6137.02
777.638	6172.42
778.032	6303.39
778.425	6260.21
778.819	6306.42
779.212	6260
779.606	6212.7
779.999	6236.53
780.392	6216.24
780.786	6308.93
781.179	6332.83
781.572	6381.42
781.965	6397.46
782.358	6329.82
782.751	6397.18
783.143	6342.33
783.536	6423.44
783.929	6476.71
784.322	6607.18
784.714	6647.65
785.107	6642.03
785.499	6723.33
785.891	6698.62
786.284	6678.09
786.676	6840.61
787.068	6816.98
787.46	6876.04
787.852	6900.55
788.245	6997.27
788.636	7031.08
789.028	7104.47
789.42	7154.31
789.812	7166.52
790.204	7277.26
790.595	7389.31
790.987	7167.26
791.378	7192.59
791.77	7340.56
792.161	7491.68
792.553	7552.7
792.944	7426.57
793.335	7347.81
793.726	7426.54
794.117	7532.39
794.508	7683.62
794.899	7646.34
795.29	7807.21
795.681	7871.36
796.072	7711.58
796.463	7502.34
796.853	7516.27
797.244	7691.59
797.634	7732.11
798.025	7736.78
798.415	7745.05
798.806	7850.32
799.196	7948.05
799.586	8005.22
799.976	7963.53
800.366	8223.56
800.756	8499.74
801.146	8454.87
801.536	8490.23
801.926	8571.65
802.316	8599.73
802.706	8680.6
803.095	8543.44
803.485	8661.36
803.874	8711.43
804.264	9006.96
804.653	8979.68
805.043	9142.48
805.432	9266.8
805.821	9270.27
806.21	9298.14
806.599	9427.31
806.988	9479.29
807.377	9602.84
807.766	9752.86
808.155	10071.75
808.544	9776.14
808.933	9790.46
809.321	9773.82
809.71	10108.53
810.098	10286.95
810.487	10812.81
810.875	11363.32
811.264	11389.94
811.652	11717.65
812.04	11883.34
812.428	12065.3
812.816	12931.56
813.204	13412.41
813.592	14032.78
813.98	14419.34
814.368	14315.2
814.756	14859.21
815.144	14772.42
815.531	15303.71
815.919	15216.53
816.306	15561.6
816.694	15210.17
817.081	15272.22
817.469	15665.74
817.856	15674.86
818.243	15985.57
818.63	16430.54
819.017	15956.95
819.404	16022.91
819.791	16458.53
820.178	17155.81
820.565	17443.45
820.952	18509.77
821.339	17949.94
821.725	18160.9
822.112	17304.72
822.498	17253.01
822.885	17405.37
823.271	17290.32
823.657	17775.61
824.044	17782.87
824.43	17872.42
824.816	17831.05
825.202	17337.2
825.588	18486.94
825.974	18498.91
826.36	19079.78
826.746	19122.59
827.132	19519.82
827.517	19491.31
827.903	18585.02
828.289	18628.59
828.674	17738.53
829.06	17622.99
829.445	18068.71
829.83	18479.48
830.216	19023.37
830.601	19453.8
830.986	18985.51
831.371	18842.22
831.756	19474.72
832.141	18997.4
832.526	18997.42
832.911	19323.74
833.295	19196.63
833.68	19724.65
834.065	19018.4
834.449	17983.13
834.834	17889.86
835.218	17887.11
835.603	18269.72
835.987	18029.98
836.371	18971.3
836.755	18849.53
837.139	19302.15
837.524	19573.6
837.908	19366.52
838.291	19437.32
838.675	19514.04
839.059	19758.07
839.443	19744.97
839.827	19485.19
840.21	20025.88
840.594	19862.35
840.977	20091
841.361	20070
841.744	20497.92
842.127	20325.66
842.511	20598.94
842.894	21276.06
843.277	21698.76
843.66	22314.69
844.043	22408.3
844.426	21503.14
844.809	21147.6
845.191	21186.18
845.574	20662.54
845.957	20246.09
846.339	20130.76
846.722	19533.22
847.104	19608.18
847.487	19410.61
847.869	19420.51
848.252	19736.75
848.634	20114.02
849.016	20412.78
849.398	20552.2
849.78	21511.77
850.162	21519.36
850.544	21991.21
850.926	22706.9
851.307	22607.54
851.689	22925.01
852.071	23440.23
852.452	23808.83
852.834	23774.04
853.215	24213.6
853.597	24390.62
853.978	24730.72
854.359	25252.14
854.741	24128.1
855.122	24018.54
855.503	23684.02
855.884	23842.52
856.265	23779.11
856.646	23908.73
857.026	23466.42
857.407	23402.94
857.788	23582.03
858.169	23904.33
858.549	22930.92
858.93	23636.02
859.31	23685.35
859.69	23924.22
860.071	23463.99
860.451	23210.46
860.831	22370.13
861.211	23687.77
861.591	24306.58
861.971	24268.13
862.351	24489.56
862.731	24937.14
863.111	25236.99
863.491	25609.1
863.87	26601.09
864.25	26993.23
864.629	26540.33
865.009	27123.74
865.388	28094.78
865.768	30111.95
866.147	29999.44
866.526	28338.87
866.905	28675.71
867.284	30273.21
867.663	28746.19
868.042	27561.22
868.421	27473.13
868.8	27932.26
869.179	28208.16
869.558	26557.02
869.936	24469.64
870.315	24909.7
870.693	25513.33
871.072	27524.16
871.45	26239.09
871.828	26584.83
872.207	27948.1
872.585	27523.94
872.963	28264.97
873.341	27293.79
873.719	26970.07
874.097	26651.93
874.475	27159.5
874.853	27787.97
875.23	26618.57
875.608	27724.15
875.986	29976.26
876.363	28660.53
876.741	29540.54
877.118	28796.69
877.495	30209.91
877.873	30715.87
878.25	32329.96
878.627	31000.32
879.004	31425.14
879.381	31276.32
879.758	30440.08
880.135	28345.64
880.512	29963.84
880.889	29172.18
881.265	28883.54
881.642	28636.61
882.019	29113.47
882.395	28536.22
882.772	29685.9
883.148	28402.31
883.524	28292.82
883.901	28136.63
884.277	28556.04
884.653	28374.49
885.029	29179.51
885.405	32312.91
885.781	32059.29
886.157	30745.6
886.532	31113.19
886.908	31084.3
887.284	34568.6
887.659	35689.17
888.035	36792.24
888.411	37755.49
888.786	38278.85
889.161	39623.41
889.537	38899.77
889.912	40142.12
890.287	40112.01
890.662	41130.99
891.037	40398.87
891.412	37664.57
891.787	37291.7
892.162	35998.3
892.536	36839.83
892.911	35450.57
893.286	34702.09
893.66	33296.77
894.035	34153.46
894.409	37194.6
894.784	35699.16
895.158	36282.33
895.532	38439.73
895.906	39493.36
896.281	40432.24
896.655	39781.46
897.029	45456.92
897.402	47337.41
897.776	52702.17
898.15	52530.76
898.524	51957.94
898.898	52668.76
899.271	58988.56
899.645	51103.75
900.018	49095.58
900.392	50890.37
900.765	51308.96
901.138	47479.87
901.511	46764.21
901.884	42933.91
902.258	39586.43
902.631	40912.3
903.003	47060.57
903.376	42468.53
903.749	47585.75
904.122	50913.95
904.495	56083.93
904.867	56798.09
905.24	49310.58
905.612	45899.1
905.985	46943.34
906.357	49101.98
906.729	46844.21
907.102	40024.16
907.474	38477.19
907.846	38735.99
908.218	38241.19
908.59	33791.26
908.962	32682.35
909.334	35201.82
909.705	36963.96
910.077	35894.86
910.449	37342.63
910.82	38396.02
911.192	42252.57
911.563	43893.57
911.935	46971.16
912.306	47004.67
912.677	48518.59
913.048	48009.26
913.419	52079.64
913.79	52372.96
914.161	56122.35
914.532	53651.06
914.903	49279.48
915.274	46801.49
915.645	46106.9
916.015	40572.87
916.386	38692.09
916.756	41183.37
917.127	42467.79
917.497	37927.8
917.868	41284.18
918.238	39240.86
918.608	40377.82
918.978	41211.11
919.348	43634.28
919.718	45110.64
920.088	43463.05
920.458	45153.88
920.828	47528.91
921.198	45093.23
921.567	48205.07
921.937	37350.78
922.306	37714.17
922.676	40661.69
923.045	33946.69
923.415	32249.81
923.784	29368.94
924.153	30193.38
924.522	30160.95
924.891	28347.85
925.26	30356.97
925.629	29636.1
925.998	34062.23
926.367	33245.68
926.736	31667.18
927.104	37705.75
927.473	40538.62
927.842	48946.7
928.21	48478.85
928.578	50950.03
928.947	48200.43
929.315	48510.02
929.683	56902.62
930.051	57364.29
930.42	66630.18
930.788	56969.85
931.156	56536.24
931.523	53026.23
931.891	49004.86
932.259	47097.02
932.627	54628.54
932.994	77342.91
933.362	63920.79
933.729	55515.83
934.097	53168.05
934.464	45010.22
934.831	51944.63
935.199	51227.97
935.566	49654.9
935.933	50406.76
936.3	61078.05
936.667	47581.3
937.034	42911.67
937.401	42447.59
937.767	36630.84
938.134	32593.16
938.501	45960.34
938.867	49005.23
939.234	82904.05
939.6	70754.22
939.967	77813.06
940.333	52090.73
940.699	44321.46
941.065	35546.35
941.431	46605.59
941.798	44931.53
942.163	59036.53
942.529	36862
942.895	33924.09
943.261	21926.69
943.627	28765.72
943.992	25211.85
944.358	25221.82
944.723	25285.06
945.089	24649.43
945.454	22784.55
945.82	24319.56
946.185	23348.73
946.55	27063.61
946.915	24276.94
947.28	28493.58
947.645	25076.02
948.01	23105.24
948.375	24111.8
948.74	28909.7
949.104	33701.7
949.469	48676.55
949.834	86045.54
950.198	81702.31
950.562	48943.42
950.927	40778.31
951.291	49094.84
951.655	41862.52
952.02	39370.04
952.384	29769.88
952.748	25942.57
953.112	25290.61
953.476	21989.25
953.839	20339.45
954.203	20102.01
954.567	25164.12
954.931	39662
955.294	33915.4
955.658	34095.66
956.021	57980.86
956.385	98331.96
956.748	145074.91
957.111	225115.61
957.474	252862.45
957.837	284607.34
958.2	215410.56
958.563	77505.7
958.926	52373.93
959.289	79508.43
959.652	88813.19
960.015	66648.01
960.377	95618.44
960.74	109071.26
961.102	188217.3
961.465	201999.97
961.827	108256.75
962.189	208006.24
962.552	144143.93
962.914	115588.41
963.276	74994.2
963.638	62013.3
964	61420.01
964.362	41513.21
964.724	40130.95
965.085	28636.21
965.447	23465.1
965.809	26739.39
966.17	26747.63
966.532	28936.67
966.893	26534.78
967.255	24131.98
967.616	28479.12
967.977	22786.61
968.338	24866.98
968.699	20440.01
969.061	20453.61
969.421	20583.3
969.782	23090.42
970.143	19490.41
970.504	20201.01
970.865	22971.25
971.225	23494.87
971.586	22987.75
971.946	32739.02
972.307	28456.31
972.667	37208.86
973.027	38343.01
973.388	46561
973.748	31682.72
974.108	34528.87
974.468	46653.08
974.828	35952.36
975.188	27675.84
975.548	25403.29
975.907	21331.93
976.267	23908.52
976.627	20107.66
976.986	20822.59
977.346	19817.83
977.705	19070.44
978.064	17364.31
978.424	14478.01
978.783	14962.84
979.142	17085.84
979.501	16354.42
979.86	17324.55
980.219	16685.65
980.578	21505.7
980.937	24100.85
981.296	21529.39
981.654	22162.31
982.013	34512.11
982.371	44754.78
982.73	41861.79
983.088	47397.18
983.447	50699.76
983.805	72462.24
984.163	151594.66
984.521	168078.78
984.879	246314.37
985.237	-400426.57
985.595	386277.29
985.953	95974.18
986.311	55418.37
986.669	32168.05
987.026	27766.96
987.384	37364.93
987.741	38619.04
988.099	27603.04
988.456	22031.24
988.814	20605.33
989.171	17885.98
989.528	17612.31
989.885	18598.09
990.242	14730.77
990.599	18365.93
990.956	15017.04
991.313	10494.1
991.67	8616.89
992.027	9133.12
992.383	8110.49
992.74	7119.35
993.096	7481.25
993.453	7764.02
993.809	8061.04
994.165	10738.54
994.522	9832.96
994.878	10838.41
995.234	13604.77
995.59	13414.64
995.946	12722.48
996.302	14510.24
996.658	16801.04
997.013	18511.33
997.369	21907.28
997.725	28020.77
998.08	18160.85
998.436	28004.75
998.791	38703.08
999.147	38608.03
999.502	42117.88
999.857	30589.27
1000.212	49959.58
1000.567	71089.72
1000.922	40994.61
1001.277	26102.1
1001.632	19335.02
1001.987	24945.93
1002.342	17889.05
1002.696	14271.53
1003.051	11383.14
1003.406	13799.47
1003.76	13716.53
1004.114	13505.79
1004.469	11344.86
1004.823	9385.72
1005.177	10129.3
1005.531	8050.11
1005.885	7130.1
1006.239	8046.81
1006.593	10083.41
1006.947	13507.91
1007.301	10127.97
1007.655	11076.31
1008.008	8151.24
1008.362	9160.95
1008.715	13092.11
1009.069	11926.32
1009.422	17927.75
1009.776	35945.45
1010.129	23879.69
1010.482	19997.75
1010.835	16920.78
1011.188	35250.21
1011.541	33142.25
1011.894	-202188.85
1012.247	595586.43
1012.6	40477.4
1012.952	25511.91
1013.305	13145
1013.657	9486.04
1014.01	8967.83
1014.362	7409.62
1014.715	6580.03
1015.067	5714.05
1015.419	5579.73
1015.771	4943.43
1016.123	4390.57
1016.475	4509.71
1016.827	4799.26
1017.179	5158.38
1017.531	5188.61
1017.883	5313.53
1018.234	5113.58
1018.586	6444.66
1018.938	6825.76
1019.289	9406.85
1019.64	10792.83
1019.992	10082.36
1020.343	9264.84
1020.694	7304.23
1021.045	6435.54
1021.396	7343.76
1021.747	7869.28
1022.098	9448.2
1022.449	6860.68
1022.8	6389.17
1023.151	4443.5
1023.501	3920.38
1023.852	4250.33
1024.202	4407.73
1024.553	4859.7
1024.903	4757.53
1025.253	4065.12
1025.604	3659.92
1025.954	4550.68
1026.304	5537.39
1026.654	6448.39
1027.004	9500.27
1027.354	15368.29
1027.703	14439.69
1028.053	18921.76
1028.403	27493.26
1028.753	39999.89
1029.102	54563.27
1029.452	279978.63
1029.801	12060.5
1030.15	7809.46
1030.499	6618.64
897.758	2920.62
901.051	2897.09
904.343	2935.72
907.636	2930.98
910.928	2994.65
914.22	2899.73
917.511	2908.41
920.803	2985.01
924.094	3016.87
927.384	2982.55
930.675	2951.05
933.965	2900.83
937.255	2896.26
940.544	2863.41
943.834	2768.34
947.123	2721.54
950.411	2823.69
953.7	2792.23
956.988	2748.22
960.276	2693.15
963.563	2795.66
966.851	2780.48
970.138	2848.74
973.424	2836
976.711	2782.47
979.997	2968.71
983.283	2993.86
986.568	2882.9
989.853	2915.72
993.138	2941.85
996.423	3020.53
999.708	2944.89
1002.992	3037.1
1006.275	2825.45
1009.559	2900.09
1012.842	3025.64
1016.125	2946.1
1019.408	2921.83
1022.69	3027.62
1025.972	3035.18
1029.254	3012.32
1032.536	2927.27
1035.817	2964.37
1039.098	2885.39
1042.379	3085.86
1045.659	3064.01
1048.939	2988.11
1052.219	3015.37
1055.498	3043.3
1058.778	3019.03
1062.057	3010.66
1065.335	3029.58
1068.614	3052.87
1071.892	3026.57
1075.17	3116.44
1078.447	3098.57
1081.724	3085.29
1085.001	3128.14
1088.278	3101.73
1091.554	3117.39
1094.83	3117.16
1098.106	3141.33
1101.382	3195.1
1104.657	3196.73
1107.932	3190.71
1111.206	3148.29
1114.481	3109.35
1117.755	3115.97
1121.029	3087.62
1124.302	3136.98
1127.575	3077.95
1130.848	3059.72
1134.121	3014.75
1137.393	2956.54
1140.665	3033.68
1143.937	3006.12
1147.208	2969.8
1150.48	2998.13
1153.75	2982.11
1157.021	3033.21
1160.291	2996.96
1163.561	3038.95
1166.831	3043.05
1170.101	3078.42
1173.37	3061.94
1176.639	2995.42
1179.907	3062.93
1183.176	3063.2
1186.444	3076.07
1189.711	3104.2
1192.979	3108.64
1196.246	3065.37
1199.513	3087.21
1202.78	3080.64
1206.046	3088.56
1209.312	3115.38
1212.578	3144.86
1215.843	3088.35
1219.108	3068.14
1222.373	3088.23
1225.638	3046.27
1228.902	3024.13
1232.166	2995.95
1235.43	2974.09
1238.693	2993.92
1241.956	2996.64
1245.219	3027.11
1248.482	3026.97
1251.744	3020.05
1255.006	3185.68
1258.268	3144.26
1261.529	3081.71
1264.79	3095.26
1268.051	3204.94
1271.312	3226.49
1274.572	3185.07
1277.832	3173.83
1281.092	3174.27
1284.351	3133.56
1287.61	3107.39
1290.869	3009.11
1294.128	2973.42
1297.386	3092.57
1300.644	3073.73
1303.902	3084.14
1307.159	2937.36
1310.416	2995.7
1313.673	3016.18
1316.93	2993.05
1320.186	3049.43
1323.442	3100.99
1326.697	3080.46
1329.953	3084.03
1333.208	3092.48
1336.463	3083.56
1339.717	3009.93
1342.972	3147.7
1346.226	3131.17
1349.479	3052.67
1352.733	3013.02
1355.986	3048.73
1359.238	3020.74
1362.491	3020.27
1365.743	3024.9
1368.995	3025.75
1372.247	3036.7
1375.498	3062.78
1378.749	3068.35
1382	3024.14
1385.251	3090.93
1388.501	3057.49
1391.751	3029.7
1395	3003.26
1398.25	3040.96
1401.499	3039.72
1404.748	2950.38
1407.996	2928.84
1411.244	2912.26
1414.492	2892.49
1417.74	2866.07
1420.987	2880.28
1424.234	2933.6
1427.481	2924.73
1430.728	2984.09
1433.974	2957.18
1437.22	2978.28
1440.465	2987.4
1443.711	2944.02
1446.956	2989.43
1450.201	2988.21
1453.445	3034.29
1456.689	3004
1459.933	3023.36
1463.177	3051.43
1466.42	3021.33
1469.663	3003.66
1472.906	2985.31
1476.148	3094.07
1479.391	3020.49
1482.633	2998.03
1485.874	3002.49
1489.115	2977.27
1492.356	2997.33
1495.597	2966.68
1498.838	2975.69
1502.078	2935.32
1505.318	2869.09
1508.557	2917.47
1511.797	2863.14
1515.036	2980.65
1518.274	2966.98
1521.513	2948.64
1524.751	2977.25
1527.989	2985.01
1531.227	2995.6
1534.464	2976.17
1537.701	3015.62
1540.938	3040.09
1544.174	2998.91
1547.41	3003.09
1550.646	3043.73
1553.882	3073.06
1557.117	3128.69
1560.352	3148.43
1563.587	3101.85
1566.821	3056.02
1570.055	3104.63
1573.289	3069.11
1576.523	3157.95
1579.756	3160.68
1582.989	3179.79
1586.222	3137.77
1589.454	3180.48
1592.686	3149.05
1595.918	3171.25
1599.15	3156.22
1602.381	3248.41
1605.612	3188.69
1608.843	3289.16
1612.073	3194.34
1615.303	3173.29
1618.533	3159.67
1621.762	3168.11
1624.992	3164.9
1628.221	3136.57
1631.449	3121.3
1634.678	3199.21
1637.906	3149.86
1641.134	3196.11
1644.361	3144.45
1647.588	3129.75
1650.815	3145.88
1654.042	3131.98
1657.269	3167.11
1660.495	3111.53
1663.72	3097.59
1666.946	3070.35
1670.171	2988.05
1673.396	2961.92
1676.621	2958.32
1679.845	2994.43
1683.069	3026.64
1686.293	3075.79
1689.517	3037.33
1692.74	2946.8
1695.963	2977.22
1699.185	3031.38
1702.408	2997.25
1705.63	3047.6
1708.852	3055.16
1712.073	3026.16
1715.294	2996.35
1718.515	3063.26
1721.736	3004.23
1724.956	3004.51
1728.176	3034.21
1731.396	3054.72
1734.616	3045.51
1737.835	3065.95
1741.054	3051.56
1744.272	3048.44
1747.491	3069.32
1750.709	3141.46
1753.927	3020.18
1757.144	3077.49
1760.361	3109.63
1763.578	3116.19
1766.795	3050.94
1770.011	3063.35
1773.227	3119.44
1776.443	3147.2
1779.658	3191.07
1782.874	3139.05
1786.089	3105.86
1789.303	3108.59
1792.518	3118.92
1795.732	3106.11
1798.945	3108.7
1802.159	3168.05
1805.372	3045.86
1808.585	3018.33
1811.797	3021.5
1815.01	3087.98
1818.222	3085.43
1821.434	3014.41
1824.645	3097.23
1827.856	3061.01
1831.067	3099.94
1834.278	3073.09
1837.488	3050.43
1840.698	3219.26
1843.908	3131.1
1847.117	3093.5
1850.326	2946.17
1853.535	3069.04
1856.744	3141.66
1859.952	3033.78
1863.16	3038.4
1866.368	3063.23
1869.575	3158.01
1872.782	3048.83
1875.989	2986.26
1879.196	3096.46
1882.402	3087.28
1885.608	3132.01
1888.814	3010.78
1892.019	2895.63
1895.224	2948.2
1898.429	2938.83
1901.634	2912.23
1904.838	2892.99
1908.042	2931.73
1911.246	2938.66
1914.449	2846.57
1917.652	2852.03
1920.855	2837.51
1924.058	2900.8
1927.26	2930.64
1930.462	2967.9
1933.664	2982.72
1936.865	2918.94
1940.066	2914.95
1943.267	2868.4
1946.467	2888.56
1949.668	2920.61
1952.868	2988.27
1956.067	2957.19
1959.267	2884.19
1962.466	2915.54
1965.665	2896.42
1968.863	2899.32
1972.061	2919.47
1975.259	2926.2
1978.457	3008.11
1981.654	2961.54
1984.852	2959.85
1988.048	2880.32
1991.245	2891.5
1994.441	2975.6
1997.637	2979.3
2000.833	2964.42
2004.028	3000.81
2007.223	3052.43
2010.418	3018.73
2013.613	2986.02
2016.807	2943.27
2020.001	2960.78
2023.194	3018.49
2026.388	2988.29
2029.581	2936.13
2032.774	2972.97
2035.966	2971.22
2039.158	2895.17
2042.35	2925.82
2045.542	2855.74
2048.733	2968.85
2051.924	3014.28
2055.115	3050.47
2058.306	2977.32
2061.496	3041.5
2064.686	3113.89
2067.875	3033.52
2071.065	3059.27
2074.254	3090.99
2077.442	3040.97
2080.631	3137.71
2083.819	3001.52
2087.007	2974.55
2090.195	2935.36
2093.382	2984.12
2096.569	2961.93
2099.756	2908.16
2102.942	2919.45
2106.128	2914.34
2109.314	2911.54
2112.5	2861.11
2115.685	2843.78
2118.87	2856.06
2122.055	2922.17
2125.239	2876.93
2128.424	2841.56
2131.608	2973.58
2134.791	2957.05
2137.974	3029.2
2141.157	3012.23
2144.34	2948.09
2147.523	2983.13
2150.705	2986.37
2153.887	2973.85
2157.068	2910.02
2160.25	2927.38
2163.431	2977.84
2166.611	2903.9
2169.792	2914.84
2172.972	2796.06
2176.152	2897.11
2179.331	2937.85
2182.511	2901.53
2185.69	2933.64
2188.868	2919.63
2192.047	2989.81
2195.225	2962.07
2198.403	2908.63
2201.58	2908.21
2204.758	2910.36
2207.935	2998.86
2211.111	2865.78
2214.288	2847
2217.464	2891.1
2220.64	2875.78
2223.815	2937.39
2226.991	2849.79
2230.166	2872.46
2233.34	2893.57
2236.515	2927.15
2239.689	3002.07
2242.863	2941.94
2246.036	3004.41
2249.209	3011.95
2252.382	3059.4
2255.555	3031.07
2258.727	2958.09
2261.9	3007.33
2265.071	2998.15
2268.243	3001.75
2271.414	2923.04
2274.585	2872.23
2277.756	2944.06
2280.926	2900.21
2284.096	2950.82
2287.266	2841.16
2290.436	2903.1
2293.605	2939.3
2296.774	2962.76
2299.942	2992.52
2303.111	3011.12
2306.279	3057.15
2309.447	3048.47
2312.614	3026.09
2315.781	3037.38
2318.948	3006.41
2322.115	3043.81
2325.281	2949.78
2328.447	2976.37
2331.613	2952.44
2334.779	2916.82
2337.944	2925.69
2341.109	2918.56
2344.274	2894.54
2347.438	2858.32
2350.602	2889.16
2353.766	2904.36
2356.929	2890.41
2360.092	2931.04
2363.255	2870.28
2366.418	2782.7
2369.58	2925.41
2372.742	2660.84
2375.904	2686.39
2379.066	2654.58
2382.227	2702.58
2385.388	2664.21
2388.548	2576.61
2391.709	2639.26
2394.869	2612.45
2398.029	2741.78
2401.188	2766.89
2404.347	2680.9
2407.506	2858.68
2410.665	2887.09
2413.823	2906.31
2416.981	2843.45
2420.139	2886.85
2423.296	2941.78
2426.453	2915.32
2429.61	2945.98
2432.767	2852.45
2435.923	2891.35
2439.079	2825.42
2442.235	2887.72
2445.391	2801.83
2448.546	2817.87
2451.701	2881.6
2454.855	2833.31
2458.009	2904.17
2461.163	2915.33
2464.317	2863.53
2467.471	2904.33
2470.624	2950.13
2473.777	2948.97
2476.929	2956.95
2480.082	2984.33
2483.234	2944.58
2486.385	2874.94
2489.537	2867.45
2492.688	2810.59
2495.839	2828.3
2498.989	2833.55
2502.14	2813.69
2505.29	2787.46
2508.439	2817.56
2511.589	2728.8
2514.738	2750.57
2517.887	2785.71
2521.035	2874.65
2524.183	2873.66
2527.331	2844.61
2530.479	2806.01
2533.627	2821.64
