Data from C_2_HIR_IL_4N_Splice17_12-12-18-789.txt Node
Date: Sat Mar 14 12:12:18 EDT 2020
User: sa697716
Spectrometer: FLMS03696
Trigger mode: 0
Integration Time (sec): 3.180400E-1
Scans to average: 20
Electric dark correction enabled: true
Nonlinearity correction enabled: true
Boxcar width: 5
XAxis mode: Wavelengths
Number of Pixels in Spectrum: 2048
>>>>>Begin Spectral Data<<<<<
187.83	-260249.36
188.298	1903.22
188.766	1066.51
189.233	948.51
189.701	1326.37
190.169	1915.11
190.636	728.82
191.104	516.92
191.571	59.53
192.039	-76.14
192.506	-118.88
192.974	250.45
193.441	-503.16
193.908	-6.09
194.375	22.73
194.842	42.57
195.31	217.91
195.777	194.65
196.244	353.97
196.711	411.81
197.177	517.77
197.644	731.02
198.111	1281.22
198.578	1807.45
199.045	1460.15
199.511	2396.66
199.978	2808.38
200.445	2375.24
200.911	2647.12
201.378	2941.45
201.844	2693.61
202.31	4611.38
202.777	4777.2
203.243	2638.29
203.709	2507.2
204.176	2984.39
204.642	2447.44
205.108	2292.69
205.574	1864.52
206.04	1674.8
206.506	1563.57
206.972	1455.54
207.438	1405.52
207.903	1609.11
208.369	1410.15
208.835	1427.01
209.301	1502.44
209.766	1536.15
210.232	1511.26
210.697	1863.77
211.163	2316.42
211.628	3500.23
212.094	2969.41
212.559	3673.22
213.024	2264.42
213.49	2768.45
213.955	2686.77
214.42	2595.5
214.885	2421.61
215.35	2328.39
215.815	2246.6
216.28	2388.87
216.745	1947.71
217.21	2096.08
217.675	1896.86
218.14	2137.7
218.604	2367.18
219.069	2678.82
219.534	2795.89
219.998	3208.45
220.463	3855.37
220.927	4702.96
221.392	4400.4
221.856	4457.24
222.32	5585.34
222.785	6892.78
223.249	8637.91
223.713	9621.06
224.177	9591.84
224.642	12259.77
225.106	15128.62
225.57	16546.28
226.034	12288.06
226.497	18686.63
226.961	16860.26
227.425	19652.6
227.889	21775.39
228.353	21804.28
228.816	44999.96
229.28	43101.21
229.744	36370.38
230.207	22085.15
230.671	21723.74
231.134	35981.81
231.597	41597.75
232.061	41582.95
232.524	40486.91
232.987	27938.47
233.45	25124.97
233.914	22560.17
234.377	23113.77
234.84	21208.72
235.303	25041.73
235.766	27959.81
236.229	28957.58
236.691	18222.21
237.154	20475.31
237.617	15459.6
238.08	15847.47
238.542	18599.24
239.005	13323.91
239.468	13243.66
239.93	12479
240.393	11369.01
240.855	9992.57
241.317	10215.05
241.78	12442.19
242.242	12888.72
242.704	13911.66
243.166	12113.17
243.629	11002.17
244.091	12675.15
244.553	13899.28
245.015	14951.16
245.477	19310.38
245.939	28282.85
246.4	30085.76
246.862	29223.86
247.324	27557.56
247.786	30846.32
248.247	40445.65
248.709	41764.88
249.17	31230.79
249.632	29442
250.093	34200.5
250.555	29545.47
251.016	18049.22
251.477	17115.02
251.939	18477.03
252.4	19364.88
252.861	23008.17
253.322	21409.6
253.783	25448.12
254.244	33012.99
254.705	25997.26
255.166	23070.9
255.627	22724.07
256.088	32008.26
256.549	33989.53
257.009	29257.11
257.47	35523.99
257.931	28954.4
258.391	21680.76
258.852	22355.64
259.312	23454.84
259.773	28974.76
260.233	24458.67
260.694	20610.01
261.154	23382.4
261.614	18759.55
262.074	16793.61
262.534	17413.12
262.994	16379.71
263.455	21786.44
263.915	18315.56
264.374	17198.89
264.834	18737.76
265.294	20745.37
265.754	21469.21
266.214	20259.5
266.673	18954.28
267.133	23851.51
267.593	23618.91
268.052	28870.53
268.512	25068.32
268.971	30214.69
269.431	33085.63
269.89	29617.45
270.349	44388.57
270.809	49404.05
271.268	44416.11
271.727	99411.66
272.186	64309.37
272.645	48225.95
273.104	34708.03
273.563	50158.76
274.022	39373.44
274.481	33486.21
274.94	25795.67
275.399	19127.31
275.857	22233.15
276.316	30019.64
276.775	26687.76
277.233	26252.7
277.692	24578.46
278.15	27809.92
278.609	28644.38
279.067	26485.73
279.525	24579.8
279.984	31662.8
280.442	38004.62
280.9	37482.91
281.358	24651.93
281.816	22970.51
282.274	22485.89
282.732	23199.25
283.19	23306.96
283.648	20087.81
284.106	21389.39
284.564	21741.17
285.021	20157.72
285.479	15016.84
285.937	13644.94
286.394	11980.43
286.852	12322.4
287.309	12945.91
287.767	12499.11
288.224	11877.8
288.682	13029.92
289.139	14310.18
289.596	13098.84
290.053	13594.66
290.511	17144.02
290.968	20809.51
291.425	28209.64
291.882	23470.54
292.339	20418.45
292.796	20246.69
293.252	19068.24
293.709	15149.04
294.166	13558.78
294.623	14959.63
295.079	14356.07
295.536	14429.75
295.992	13068
296.449	12913.86
296.905	13409.77
297.362	12861.88
297.818	13514.28
298.274	14012.89
298.731	14280.24
299.187	14132.52
299.643	15168.69
300.099	18344.62
300.555	20119.73
301.011	16819.06
301.467	16238.27
301.923	18995.52
302.379	18551.5
302.835	18220.6
303.291	18220.46
303.746	20711.92
304.202	26169.31
304.658	26278.45
305.113	17677.51
305.569	17327.13
306.024	18478.29
306.479	17577.44
306.935	14837.47
307.39	16184.22
307.845	14979.16
308.301	15143.26
308.756	14757.41
309.211	14217.04
309.666	14565.53
310.121	18128.65
310.576	18417.16
311.031	18296.98
311.486	20972.66
311.94	20980.9
312.395	28121.83
312.85	52788
313.305	258292.57
313.759	1341602.9
314.214	97410.43
314.668	77462.57
315.123	65054.43
315.577	23308.88
316.032	20709.24
316.486	25910.4
316.94	20474.22
317.394	14242.15
317.849	11074.93
318.303	10490.74
318.757	9902.52
319.211	10934.15
319.665	9552.8
320.119	9661.36
320.572	13864.24
321.026	12953.34
321.48	10774.79
321.934	11727.93
322.387	11745.55
322.841	12698.63
323.295	11440.72
323.748	13137.55
324.202	13330.73
324.655	16041.08
325.108	22474.3
325.562	15888.19
326.015	18902.63
326.468	14333.95
326.921	16023.69
327.374	14961.85
327.827	15612.61
328.28	17677.05
328.733	11847.96
329.186	10441.76
329.639	9928.52
330.092	8363.47
330.545	7960.91
330.997	8040.83
331.45	8803.88
331.903	10333.29
332.355	17790.55
332.808	17227.37
333.26	14208.85
333.713	15460.03
334.165	15556.96
334.617	20811.52
335.069	16770.89
335.522	30326.99
335.974	33516.36
336.426	30536.34
336.878	21142.87
337.33	10732.02
337.782	10518.13
338.234	13192.41
338.686	15729.57
339.137	18663.6
339.589	17546.26
340.041	13795.16
340.493	11868.57
340.944	12192.81
341.396	13127.55
341.847	11063.19
342.299	13072.75
342.75	15891.26
343.201	13862.45
343.653	15966.26
344.104	19581.61
344.555	15424.37
345.006	23988.43
345.457	18346.86
345.908	14510.32
346.359	13646.81
346.81	11088.74
347.261	11646.89
347.712	11463.69
348.163	12285.85
348.613	12494.67
349.064	11679.28
349.515	10220.94
349.965	10488.22
350.416	12646.34
350.866	13906.14
351.317	15731.45
351.767	26044.31
352.217	32854.81
352.668	27312.77
353.118	25083.52
353.568	24068.55
354.018	18997.2
354.468	20052.11
354.918	14340.37
355.368	12549.05
355.818	17719.81
356.268	50981.47
356.718	213601.24
357.168	53279.56
357.617	26765.41
358.067	29706.19
358.517	27882.94
358.966	32735.44
359.416	36703.34
359.865	39721.15
360.315	47155.86
360.764	22006.25
361.213	12321.2
361.663	11618.1
362.112	14301.17
362.561	23028.7
363.01	17353.25
363.459	14574.01
363.908	15781.74
364.357	13384.35
364.806	22581.69
365.255	15530.57
365.703	14238.39
366.152	14269.74
366.601	11610.08
367.05	9449.22
367.498	8606.72
367.947	8987.38
368.395	9342.93
368.844	8259.51
369.292	9948.33
369.74	6869.24
370.189	10517.28
370.637	12310.2
371.085	10608.29
371.533	12910.2
371.981	12395.93
372.429	11802.08
372.877	12279.93
373.325	10288.69
373.773	10485.21
374.221	9329.75
374.669	11580.5
375.116	10003.28
375.564	10086.64
376.012	11243.28
376.459	9275.86
376.907	11073.78
377.354	13348.42
377.801	12481.6
378.249	14325.06
378.696	18221.05
379.143	22022.73
379.591	23410.92
380.038	39523.94
380.485	28522.17
380.932	30725.31
381.379	27999.69
381.826	20662.98
382.273	14722.84
382.72	12816.76
383.166	12452.24
383.613	8096.47
384.06	7295.02
384.506	8426.53
384.953	6179.05
385.4	6210.54
385.846	5444.38
386.292	5301.78
386.739	5170.22
387.185	5088.67
387.631	5071.75
388.078	4923.72
388.524	5249.69
388.97	4849.25
389.416	4041.88
389.862	4296.13
390.308	4071.37
390.754	4122.1
391.2	4458.85
391.645	4561.17
392.091	4375.71
392.537	4235.41
392.983	4225.04
393.428	4162.79
393.874	4452.71
394.319	4466.41
394.765	4237.14
395.21	4344.01
395.655	4084.03
396.101	3824.72
396.546	3446.51
396.991	3464.84
397.436	3212.72
397.881	3113.53
398.326	2940.5
398.771	2788.66
399.216	2442.91
399.661	2201.41
400.106	2194.72
400.551	2245.13
400.995	2015.43
401.44	1993.12
401.885	1872.52
402.329	1893.24
402.774	1813.52
403.218	1762.18
403.663	1693.19
404.107	1739.62
404.551	1752.07
404.995	1605.55
405.44	1542.94
405.884	1565.5
406.328	1515.32
406.772	1512.7
407.216	1381.36
407.66	1335.85
408.104	1262.73
408.547	1184.17
408.991	1145.87
409.435	1103.32
409.879	1090.32
410.322	1077.76
410.766	1043.95
411.209	994.25
411.653	953.94
412.096	934.16
412.54	934.91
412.983	932.73
413.426	937.25
413.869	938.09
414.312	923.05
414.756	888.13
415.199	849.17
415.642	827.56
416.085	831.6
416.527	825.15
416.97	838.23
417.413	796.68
417.856	786.06
418.298	778.6
418.741	771.38
419.184	767.14
419.626	799.61
420.069	798.54
420.511	803.86
420.953	785.41
421.396	781.27
421.838	761.24
422.28	779.55
422.722	786.93
423.164	795.91
423.606	783.58
424.048	781.74
424.49	742.26
424.932	738.09
425.374	724.05
425.816	735.78
426.258	748.09
426.699	755.2
427.141	743.02
427.582	751.81
428.024	747.11
428.465	740.58
428.907	723.33
429.348	714.45
429.789	716.97
430.231	704.3
430.672	713.91
431.113	697.13
431.554	688.94
431.995	671.3
432.436	649.8
432.877	636.97
433.318	629.95
433.759	627.12
434.2	628.15
434.64	620.09
435.081	623.28
435.522	590.86
435.962	570.46
436.403	558.89
436.843	566.8
437.284	553.12
437.724	539.13
438.164	540.53
438.604	529.46
439.045	512.24
439.485	494.77
439.925	482.69
440.365	471.56
440.805	465.64
441.245	461.83
441.685	445.12
442.125	442.83
442.564	444.19
443.004	433.49
443.444	432.75
443.883	433.98
444.323	428.16
444.762	428.49
445.202	434.48
445.641	444.44
446.081	438.95
446.52	443.59
446.959	440.16
447.398	432.79
447.837	429.31
448.276	421.91
448.716	426.21
449.154	430.97
449.593	422.88
450.032	422.66
450.471	414.11
450.91	416.87
451.349	417.82
451.787	415.79
452.226	421.69
452.664	422.18
453.103	424.24
453.541	422.45
453.98	423.5
454.418	425.69
454.856	419.46
455.295	419.26
455.733	421.99
456.171	422.84
456.609	425.38
457.047	425.27
457.485	431.38
457.923	433.1
458.361	427.66
458.798	429.04
459.236	428.8
459.674	431.23
460.111	434.12
460.549	430
460.987	428.99
461.424	427.07
461.862	425
462.299	418.69
462.736	418.65
463.173	420.5
463.611	417.47
464.048	415.86
464.485	420.24
464.922	414.99
465.359	412.98
465.796	411.47
466.233	409.21
466.67	405.52
467.106	405.97
467.543	400.8
467.98	395.27
468.416	383.27
468.853	380.87
469.29	367.98
469.726	363.82
470.162	355.14
470.599	347.13
471.035	342.51
471.471	334.86
471.907	331.03
472.344	328.95
472.78	329.76
473.216	333.78
473.652	329.45
474.088	328.68
474.523	328.45
474.959	330.75
475.395	327.02
475.831	324.9
476.266	325.2
476.702	323.92
477.138	319.76
477.573	319.09
478.008	317.43
478.444	319.46
478.879	323.62
479.314	324.9
479.75	324.35
480.185	326.25
480.62	328.97
481.055	331.2
481.49	334.34
481.925	339.73
482.36	346.73
482.795	356.6
483.229	365.4
483.664	372.21
484.099	373.34
484.534	379.12
484.968	383.95
485.403	385.33
485.837	385.02
486.271	384.12
486.706	384.75
487.14	380.22
487.574	375.09
488.009	371.98
488.443	369.94
488.877	375.06
489.311	377.34
489.745	382.11
490.179	386.9
490.613	396.56
491.046	401.02
491.48	406.12
491.914	408.04
492.348	412.58
492.781	418.03
493.215	421.19
493.648	424.11
494.082	430.19
494.515	433.11
494.948	441.27
495.382	445.9
495.815	452.48
496.248	459.01
496.681	469.9
497.114	480.87
497.547	490.71
497.98	503.89
498.413	512.01
498.846	522.27
499.279	532.8
499.711	539.55
500.144	545.82
500.577	557.85
501.009	569.53
501.442	582.49
501.874	588.45
502.306	594.9
502.739	605.48
503.171	621.49
503.603	630.14
504.036	641.55
504.468	651.97
504.9	666.38
505.332	676.68
505.764	685.98
506.196	696.68
506.627	713.51
507.059	730.34
507.491	742.97
507.923	747.95
508.354	766.1
508.786	781.33
509.217	801.96
509.649	820.11
510.08	842.33
510.512	862.86
510.943	881.64
511.374	898.36
511.805	921.08
512.237	943.91
512.668	977.37
513.099	1005.83
513.53	1035.54
513.961	1058.79
514.391	1092.63
514.822	1127.77
515.253	1165.32
515.684	1193.78
516.114	1224.03
516.545	1248.37
516.975	1277.06
517.406	1297.39
517.836	1304.29
518.267	1314.78
518.697	1335.27
519.127	1343.41
519.558	1354.25
519.988	1361.04
520.418	1374.13
520.848	1394.03
521.278	1404.86
521.708	1423.75
522.138	1438.17
522.567	1470.79
522.997	1497.62
523.427	1515.85
523.857	1532.86
524.286	1544.53
524.716	1561.09
525.145	1580.81
525.575	1593.36
526.004	1609.7
526.433	1605.43
526.863	1607.57
527.292	1599.57
527.721	1605.46
528.15	1611.83
528.579	1614.46
529.008	1625.34
529.437	1647.89
529.866	1661.81
530.295	1678.86
530.724	1690.96
531.152	1718.14
531.581	1733.62
532.01	1751.1
532.438	1760.19
532.867	1773.95
533.295	1791.59
533.723	1798.19
534.152	1796.72
534.58	1796.96
535.008	1782.13
535.436	1784.45
535.865	1791.84
536.293	1806.03
536.721	1822.48
537.149	1847.11
537.576	1850.02
538.004	1863.57
538.432	1872.33
538.86	1870.63
539.287	1878.29
539.715	1893.01
540.143	1896.6
540.57	1894.28
540.998	1891.05
541.425	1867.94
541.852	1847.48
542.28	1846.7
542.707	1831.9
543.134	1817.91
543.561	1814.21
543.988	1806.4
544.415	1805.49
544.842	1799.56
545.269	1791.08
545.696	1792
546.123	1803.5
546.549	1794.13
546.976	1782.08
547.403	1780.28
547.829	1781.3
548.256	1782.63
548.682	1779.11
549.108	1771.58
549.535	1771.23
549.961	1772.94
550.387	1760.2
550.813	1755.52
551.24	1760.93
551.666	1760.61
552.092	1751.79
552.518	1745.03
552.943	1739.04
553.369	1746.23
553.795	1751.38
554.221	1751.84
554.646	1748.36
555.072	1758.35
555.498	1762.52
555.923	1771.31
556.349	1786.04
556.774	1793.47
557.199	1794.35
557.625	1799.56
558.05	1792.24
558.475	1802.43
558.9	1801.53
559.325	1794.04
559.75	1787.85
560.175	1780.95
560.6	1773.63
561.025	1771.17
561.449	1770.69
561.874	1775.73
562.299	1780.26
562.723	1787.95
563.148	1776.6
563.572	1779.9
563.997	1789.73
564.421	1794
564.846	1793.42
565.27	1796.62
565.694	1793.75
566.118	1805.73
566.542	1813.82
566.966	1806.88
567.39	1800.19
567.814	1789.59
568.238	1786.95
568.662	1791.44
569.086	1792.87
569.509	1800.32
569.933	1784.37
570.357	1776.47
570.78	1753.95
571.204	1739.47
571.627	1727.97
572.05	1726.53
572.474	1724.8
572.897	1712.89
573.32	1703.34
573.743	1692.43
574.166	1673.65
574.589	1672.9
575.012	1665.03
575.435	1664.01
575.858	1653.98
576.281	1642.76
576.704	1626.29
577.126	1613.63
577.549	1602.94
577.972	1591.99
578.394	1581.53
578.817	1572.42
579.239	1553.8
579.661	1539.53
580.084	1523.03
580.506	1509.76
580.928	1504.61
581.35	1493.16
581.772	1487.81
582.194	1473.43
582.616	1460.29
583.038	1445.7
583.46	1435.41
583.882	1430.91
584.303	1433.66
584.725	1429.51
585.147	1430.43
585.568	1440.03
585.99	1450.91
586.411	1456.78
586.833	1469.25
587.254	1470.5
587.675	1483.83
588.096	1495.76
588.518	1491.21
588.939	1475.67
589.36	1473.23
589.781	1462.5
590.202	1435
590.623	1425.1
591.043	1422.63
591.464	1411.11
591.885	1407.57
592.305	1400.4
592.726	1386.67
593.147	1387.23
593.567	1380.66
593.987	1373.75
594.408	1367.72
594.828	1364.27
595.248	1359.69
595.669	1342.03
596.089	1334.38
596.509	1327.45
596.929	1314.02
597.349	1314.08
597.769	1303.62
598.189	1297.4
598.608	1296.76
599.028	1299.38
599.448	1299.58
599.867	1285.88
600.287	1280.29
600.706	1276.6
601.126	1267.61
601.545	1267.29
601.965	1264.57
602.384	1259.91
602.803	1261.99
603.222	1256.97
603.641	1250.24
604.061	1247.03
604.48	1243.59
604.898	1250.3
605.317	1252.7
605.736	1253.17
606.155	1249.14
606.574	1241.29
606.992	1244.32
607.411	1239.25
607.829	1231.12
608.248	1226.52
608.666	1222.59
609.085	1221.53
609.503	1212.43
609.921	1206.26
610.339	1206.71
610.758	1204.89
611.176	1198.49
611.594	1188.65
612.012	1184.29
612.43	1186.64
612.847	1191.47
613.265	1191.61
613.683	1193.66
614.101	1194.95
614.518	1191.03
614.936	1180.71
615.353	1166.64
615.771	1162.99
616.188	1162.82
616.606	1157.91
617.023	1149.45
617.44	1134.84
617.857	1126.51
618.274	1117.79
618.691	1111.25
619.108	1101.81
619.525	1095.66
619.942	1100.3
620.359	1102.09
620.776	1096.75
621.192	1092.06
621.609	1089.09
622.026	1094.53
622.442	1099.15
622.859	1101.33
623.275	1094.51
623.691	1097.73
624.108	1108.11
624.524	1120.23
624.94	1119.12
625.356	1127.36
625.772	1139.74
626.188	1149.86
626.604	1150.84
627.02	1147.31
627.436	1145.91
627.852	1151.38
628.268	1161.97
628.683	1152.67
629.099	1144.4
629.514	1139.34
629.93	1141.01
630.345	1143
630.761	1139.28
631.176	1140.99
631.591	1134.96
632.007	1127.59
632.422	1124.53
632.837	1113.77
633.252	1110.47
633.667	1100.72
634.082	1092.17
634.497	1079.72
634.911	1061.59
635.326	1056.69
635.741	1040.67
636.155	1029.27
636.57	1027.93
636.984	1025.59
637.399	1024.48
637.813	1020.65
638.228	1016.32
638.642	1016.51
639.056	1005.41
639.47	1001.83
639.884	991.17
640.298	981.74
640.712	976.14
641.126	961.65
641.54	948.85
641.954	938.63
642.368	925.09
642.781	913.62
643.195	895.17
643.609	891.04
644.022	881.6
644.436	872.78
644.849	858.54
645.262	846.25
645.676	843.47
646.089	835.76
646.502	821.23
646.915	812.94
647.328	797.47
647.741	791.81
648.154	778.06
648.567	774.31
648.98	762.11
649.393	758.89
649.805	752.84
650.218	744.58
650.631	731.71
651.043	725.74
651.456	720.23
651.868	718.16
652.28	729.07
652.693	736.95
653.105	738.71
653.517	743.41
653.929	742.79
654.341	745.87
654.753	735.94
655.165	737.39
655.577	733.1
655.989	727.19
656.401	719.04
656.813	690.59
657.224	674.35
657.636	651.04
658.047	636.61
658.459	620.06
658.87	609.77
659.282	598.31
659.693	581.41
660.104	567.31
660.515	554.56
660.926	548.79
661.338	543.3
661.749	534.37
662.159	524.91
662.57	516.74
662.981	510.45
663.392	501.55
663.803	499.05
664.213	493.45
664.624	487.52
665.035	484.96
665.445	474.9
665.855	467.68
666.266	461.53
666.676	457.38
667.086	449.41
667.497	445.75
667.907	440.33
668.317	433.17
668.727	430.55
669.137	429.03
669.547	426.9
669.956	425.83
670.366	425.62
670.776	424.64
671.186	426.24
671.595	428.78
672.005	430.86
672.414	430.4
672.824	430.43
673.233	431.39
673.642	432.94
674.052	435.07
674.461	437.73
674.87	440.38
675.279	440.2
675.688	440.54
676.097	442.23
676.506	441.28
676.915	450.54
677.323	453.83
677.732	454.6
678.141	456.54
678.549	451.13
678.958	451.32
679.366	452.86
679.775	456.49
680.183	467.17
680.592	473.3
681	480.05
681.408	479.55
681.816	487.6
682.224	496.15
682.632	507.14
683.04	531.52
683.448	552.96
683.856	579.94
684.264	610.32
684.671	638.39
685.079	672.98
685.487	710.8
685.894	763.67
686.302	809.71
686.709	851.69
687.116	898.84
687.524	942.5
687.931	982.46
688.338	1018.71
688.745	1052.79
689.152	1090.22
689.559	1136.33
689.966	1184.52
690.373	1214.3
690.78	1258.93
691.187	1322.95
691.593	1375.16
692	1421.6
692.407	1486.36
692.813	1562.86
693.22	1624.65
693.626	1689.41
694.032	1742.66
694.439	1817.84
694.845	1877.81
695.251	1952.1
695.657	2019.13
696.063	2115.87
696.469	2188.06
696.875	2256.1
697.281	2294.99
697.687	2345.79
698.093	2386.97
698.498	2462.1
698.904	2520.54
699.31	2607.18
699.715	2669.69
700.12	2760.6
700.526	2781.73
700.931	2852.34
701.337	2903.85
701.742	2939.7
702.147	3022.09
702.552	3052.66
702.957	3111.66
703.362	3132.09
703.767	3161.63
704.172	3201.48
704.577	3156.78
704.981	3202.09
705.386	3217.57
705.791	3212.21
706.195	3282.9
706.6	3290.31
707.004	3365.46
707.408	3336.17
707.813	3363.68
708.217	3352.39
708.621	3353.66
709.025	3447.35
709.43	3446.91
709.834	3502.69
710.237	3567.09
710.641	3553.4
711.045	3574.17
711.449	3570.6
711.853	3598.79
712.256	3636.4
712.66	3671.12
713.064	3743.21
713.467	3780.3
713.87	3888.7
714.274	3934.45
714.677	4038.89
715.08	4191.07
715.484	4349.64
715.887	4541.9
716.29	4729.33
716.693	4928.25
717.096	5158.49
717.499	5283.96
717.901	5309.18
718.304	5329.87
718.707	5349.95
719.109	5250.12
719.512	5222.83
719.915	5098.19
720.317	5041.37
720.719	5082.17
721.122	5052.51
721.524	5001.32
721.926	4959.3
722.328	5053.4
722.731	5047.77
723.133	5075.45
723.535	5257.85
723.937	5275.45
724.338	5321.94
724.74	5362.08
725.142	5299.69
725.544	5298.12
725.945	5323.61
726.347	5321.61
726.748	5313.89
727.15	5324.32
727.551	5287.34
727.952	5262.84
728.354	5235.42
728.755	5234.01
729.156	5193.84
729.557	5183.15
729.958	5067.44
730.359	5014.68
730.76	4995.3
731.161	4940.17
731.562	4918.16
731.962	4921.54
732.363	4857.49
732.763	4795.31
733.164	4827.68
733.564	4763.43
733.965	4673.42
734.365	4640.95
734.766	4666.18
735.166	4629.25
735.566	4574.68
735.966	4546.68
736.366	4539.85
736.766	4484.22
737.166	4512.53
737.566	4473.9
737.966	4450.33
738.365	4484.95
738.765	4479.39
739.165	4408.88
739.564	4384.7
739.964	4427.45
740.363	4384.45
740.763	4380.01
741.162	4367.95
741.561	4338.69
741.96	4295.37
742.36	4310.22
742.759	4315.45
743.158	4349.92
743.557	4364.25
743.955	4399.31
744.354	4355.25
744.753	4410.67
745.152	4373.64
745.55	4423.52
745.949	4416.43
746.348	4418.14
746.746	4434.64
747.144	4396.99
747.543	4375.65
747.941	4418.31
748.339	4354.26
748.737	4349.45
749.136	4339.74
749.534	4400.25
749.932	4374.52
750.33	4394.52
750.727	4445.39
751.125	4423.8
751.523	4409.73
751.921	4451.01
752.318	4422.12
752.716	4475.95
753.113	4488.77
753.511	4510.66
753.908	4509.91
754.305	4495.34
754.703	4555.22
755.1	4612.54
755.497	4667.55
755.894	4844.57
756.291	5012.21
756.688	5318.25
757.085	5727.6
757.482	6301.06
757.878	6932.54
758.275	7505.82
758.672	8290.17
759.068	8925.16
759.465	9834.39
759.861	11010.72
760.258	12373.48
760.654	13073.47
761.05	12969.74
761.447	12378.6
761.843	11529.71
762.239	10646.04
762.635	10244.92
763.031	9860.09
763.427	9311.11
763.822	8732.02
764.218	8157.03
764.614	7411.25
765.01	6913.4
765.405	6591.02
765.801	6344.4
766.196	6027.81
766.592	5851.55
766.987	5556.64
767.382	5356.03
767.778	5272.14
768.173	5149.09
768.568	5081.94
768.963	4964.18
769.358	4978.84
769.753	4935.73
770.148	4857.76
770.542	4856.58
770.937	4827.75
771.332	4910.49
771.726	4926.91
772.121	4866.35
772.515	4915.9
772.91	4899.28
773.304	4966.99
773.699	4905.28
774.093	4951.61
774.487	5002.59
774.881	5039.86
775.275	5035.89
775.669	4998.03
776.063	5039.5
776.457	5076.22
776.851	5007.17
777.245	5002.46
777.638	5030.13
778.032	5138.54
778.425	5105.44
778.819	5144.44
779.212	5107.23
779.606	5069.64
779.999	5088.77
780.392	5075.89
780.786	5150.16
781.179	5169.65
781.572	5207.33
781.965	5220.94
782.358	5165.49
782.751	5218.31
783.143	5173.36
783.536	5242.96
783.929	5282.77
784.322	5388.01
784.714	5415.35
785.107	5412.69
785.499	5479.21
785.891	5458.59
786.284	5440.7
786.676	5574.1
787.068	5554.43
787.46	5603.84
787.852	5621.44
788.245	5701.36
788.636	5728.53
789.028	5791.4
789.42	5827.4
789.812	5838.52
790.204	5930.15
790.595	6025.19
790.987	5843.03
791.378	5867.3
791.77	5986.72
792.161	6112.73
792.553	6164.31
792.944	6061.85
793.335	5994.56
793.726	6061.71
794.117	6143.16
794.508	6269.17
794.899	6237.36
795.29	6368.25
795.681	6423.72
796.072	6295.42
796.463	6122.54
796.853	6133.34
797.244	6279.53
797.634	6317.27
798.025	6312.85
798.415	6325.93
798.806	6407.57
799.196	6485.09
799.586	6527.83
799.976	6490.57
800.366	6698.65
800.756	6920.04
801.146	6877.99
801.536	6905.35
801.926	6969.82
802.316	6999.48
802.706	7064.65
803.095	6950.09
803.485	7046.12
803.874	7085.3
804.264	7321.93
804.653	7295.76
805.043	7434.65
805.432	7537.23
805.821	7538.94
806.21	7555.67
806.599	7662.37
806.988	7701.15
807.377	7800.86
807.766	7917.16
808.155	8176.9
808.544	7934.06
808.933	7948.53
809.321	7924.55
809.71	8193.74
810.098	8331.24
810.487	8760.19
810.875	9204.55
811.264	9220.6
811.652	9484.98
812.04	9623.38
812.428	9772.55
812.816	10475.4
813.204	10859.06
813.592	11367.03
813.98	11672.37
814.368	11589.13
814.756	12026.07
815.144	11948.12
815.531	12384.8
815.919	12309.93
816.306	12587.65
816.694	12299.48
817.081	12348.93
817.469	12667.18
817.856	12665.87
818.243	12920.88
818.63	13282.2
819.017	12892.81
819.404	12948.39
819.791	13287.7
820.178	13870.96
820.565	14103.08
820.952	14969.56
821.339	14513.35
821.725	14687.47
822.112	14002.18
822.498	13967.17
822.885	14086.47
823.271	14008.41
823.657	14397.1
824.044	14412.59
824.43	14470.77
824.816	14448.22
825.202	14050.74
825.588	15000.11
825.974	15011.68
826.36	15493.21
826.746	15525.78
827.132	15863.63
827.517	15840.31
827.903	15119.68
828.289	15156.39
828.674	14440.78
829.06	14340.32
829.445	14709
829.83	15032.3
830.216	15481.78
830.601	15822.49
830.986	15448.06
831.371	15317.53
831.756	15829.72
832.141	15435.69
832.526	15432.86
832.911	15697.38
833.295	15587.47
833.68	16018.55
834.065	15451.65
834.449	14605.92
834.834	14544.34
835.218	14543.87
835.603	14861.68
835.987	14673.14
836.371	15446.08
836.755	15346.47
837.139	15720.44
837.524	15956.51
837.908	15792.17
838.291	15847.29
838.675	15911.43
839.059	16090.33
839.443	16079.6
839.827	15869.23
840.21	16307.38
840.594	16164.76
840.977	16360.66
841.361	16337.78
841.744	16674.74
842.127	16534.1
842.511	16755.32
842.894	17302.31
843.277	17655.35
843.66	18151.8
844.043	18218.62
844.426	17473.34
844.809	17177.4
845.191	17197.57
845.574	16768.02
845.957	16441.46
846.339	16334.37
846.722	15849.78
847.104	15910.85
847.487	15753.37
847.869	15763.06
848.252	16023.95
848.634	16332.15
849.016	16584.8
849.398	16709.29
849.78	17495.12
850.162	17492.71
850.544	17878.37
850.926	18454.04
851.307	18370.45
851.689	18626.4
852.071	19046.72
852.452	19340.47
852.834	19322.79
853.215	19681.58
853.597	19810.85
853.978	20082.03
854.359	20498.9
854.741	19584.29
855.122	19495.02
855.503	19233.13
855.884	19358.11
856.265	19300.61
856.646	19417.45
857.026	19048.81
857.407	18994.67
857.788	19147.92
858.169	19411.54
858.549	18629.55
858.93	19207.45
859.31	19264.17
859.69	19458.72
860.071	19080.75
860.451	18874.38
860.831	18186.05
861.211	19262.06
861.591	19761.91
861.971	19735.02
862.351	19908.05
862.731	20264.29
863.111	20498.88
863.491	20792.17
863.87	21598.2
864.25	21934.08
864.629	21576.57
865.009	22051.98
865.388	22826.05
865.768	24470.83
866.147	24372.11
866.526	23023.09
866.905	23306.43
867.284	24625.13
867.663	23397.92
868.042	22430.08
868.421	22343.64
868.8	22706.33
869.179	22924.16
869.558	21586.93
869.936	19898.24
870.315	20266.23
870.693	20768.42
871.072	22391.64
871.45	21324.3
871.828	21596.59
872.207	22697.27
872.585	22360.6
872.963	22976.91
873.341	22188.27
873.719	21929.96
874.097	21651.27
874.475	22055.58
874.853	22561.53
875.23	21616.19
875.608	22521.16
875.986	24347.2
876.363	23287.77
876.741	24006.54
877.118	23394.35
877.495	24544.88
877.873	24952.39
878.25	26269.34
878.627	25189.86
879.004	25537.22
879.381	25417.92
879.758	24756.31
880.135	23049.56
880.512	24370.02
880.889	23714.18
881.265	23476.54
881.642	23284.38
882.019	23682.81
882.395	23198.78
882.772	24125.55
883.148	23069.16
883.524	22983.58
883.901	22853.61
884.277	23200.32
884.653	23049.77
885.029	23710.25
885.405	26254.75
885.781	26044.49
886.157	24967.63
886.532	25275.07
886.908	25260.93
887.284	28087.36
887.659	28997.2
888.035	29901.1
888.411	30661.6
888.786	31064.55
889.161	32137.61
889.537	31553.07
889.912	32555.19
890.287	32524.57
890.662	33361.6
891.037	32759.33
891.412	30565.09
891.787	30245.84
892.162	29183.93
892.536	29874.15
892.911	28754.26
893.286	28145.27
893.66	27003.44
894.035	27699.74
894.409	30155.63
894.784	28933.51
895.158	29402.75
895.532	31132.23
895.906	31994.74
896.281	32738.55
896.655	32191.32
897.029	36780.98
897.402	38297.48
897.776	42620.29
898.15	42452.15
898.524	41991.47
898.898	42548.87
899.271	47636.65
899.645	41261.51
900.018	39628.81
900.392	41096.97
900.765	41448.36
901.138	38353.26
901.511	37794.07
901.884	34704.63
902.258	32023.03
902.631	33092.71
903.003	38076.97
903.376	34346.37
903.749	38501.52
904.122	41200.28
904.495	45347.79
904.867	45884.57
905.24	39833.98
905.612	37063.52
905.985	37907.7
906.357	39648.22
906.729	37856.57
907.102	32332.65
907.474	31099.48
907.846	31301.41
908.218	30892.52
908.59	27296.89
908.962	26416.89
909.334	28452.19
909.705	29884.95
910.077	29005.7
910.449	30174.78
910.82	31018.53
911.192	34152.87
911.563	35506
911.935	38002.03
912.306	38043.62
912.677	39285.22
913.048	38911.93
913.419	42218.56
913.79	42485.2
914.161	45559.29
914.532	43574.92
914.903	40023.8
915.274	38020.22
915.645	37452.47
916.015	32958.27
916.386	31433.37
916.756	33463.09
917.127	34497.64
917.497	30827.85
917.868	33541.5
918.238	31881.26
918.608	32791.37
918.978	33479.26
919.348	35466.88
919.718	36635.01
920.088	35307.1
920.458	36684.78
920.828	38610.15
921.198	36600.65
921.567	39096.41
921.937	30277.26
922.306	30558
922.676	32937.82
923.045	27479.19
923.415	26086.64
923.784	23765.43
924.153	24423.29
924.522	24391.27
924.891	22940.96
925.26	24586.35
925.629	23993.72
925.998	27578.89
926.367	26911.95
926.736	25635.49
927.104	30519.02
927.473	32808.62
927.842	39611.6
928.21	39239.3
928.578	41245.79
928.947	38970.59
929.315	39183.11
929.683	45975.61
930.051	46350.14
930.42	53855.38
930.788	46012.91
931.156	45674.73
931.523	42811.7
931.891	39548.43
932.259	37977.28
932.627	44000.11
932.994	62288.86
933.362	51486.35
933.729	44697.2
934.097	42775.83
934.464	36202.63
934.831	41749.78
935.199	41154.82
935.566	39862.73
935.933	40403.3
936.3	48955.32
936.667	38121.08
937.034	34376.1
937.401	34015.94
937.767	29367.26
938.134	26122.54
938.501	36828.49
938.867	39294.57
939.234	66469.87
939.6	56739.87
939.967	62514.97
940.333	41858.06
940.699	35665.02
941.065	28591.2
941.431	37508.99
941.798	36168.77
942.163	47574.36
942.529	29700.9
942.895	27336.37
943.261	17670.47
943.627	23205.92
943.992	20335.78
944.358	20355.78
944.723	20406.64
945.089	19917.94
945.454	18385.85
945.82	19600.18
946.185	18838.84
946.55	21822.3
946.915	19562.6
947.28	22936.59
947.645	20197.76
948.01	18633.31
948.375	19407.22
948.74	23276.99
949.104	27156.98
949.469	39235.91
949.834	69402
950.198	65747.36
950.562	39412.33
950.927	32844.12
951.291	39544.71
951.655	33683.34
952.02	31626.96
952.384	23938.92
952.748	20829.76
953.112	20297.03
953.476	17653.7
953.839	16321.88
954.203	16158.89
954.567	20209.02
954.931	31839.63
955.294	27255.56
955.658	27406.1
956.021	46660.98
956.385	79043.6
956.748	116740.94
957.111	181027.39
957.474	203164.31
957.837	228871.67
958.2	173270.46
958.563	62330.17
958.926	42133.01
959.289	63965.49
959.652	71492.35
960.015	53619.72
960.377	77027.88
960.74	87848.26
961.102	151875.74
961.465	163018.64
961.827	87292.24
962.189	167397.65
962.552	116195.98
962.914	93259.27
963.276	60492.71
963.638	50033.73
964	49552.23
964.362	33500.55
964.724	32421.27
965.085	23122.48
965.447	18960.08
965.809	21642.27
966.17	21679.06
966.532	23460
966.893	21520.17
967.255	19581.09
967.616	23101.38
967.977	18507.2
968.338	20219.3
968.699	16620.68
969.061	16613.77
969.421	16722.13
969.782	18746.06
970.143	15827.35
970.504	16383.03
970.865	18622.3
971.225	19025.91
971.586	18616.11
971.946	26523.08
972.307	22992.96
972.667	30046.77
973.027	30959.44
973.388	37586.98
973.748	25584.49
974.108	27875.79
974.468	37664.03
974.828	29059.55
975.188	22356.57
975.548	20541.28
975.907	17226.66
976.267	19329.48
976.627	16245.57
976.986	16824.01
977.346	16012.55
977.705	15380.51
978.064	14008.74
978.424	11689.44
978.783	12070.95
979.142	13796.25
979.501	13204.36
979.86	13971.42
980.219	13478.29
980.578	17362.53
980.937	19467.3
981.296	17355.7
981.654	17876.95
982.013	27807.43
982.371	36063.81
982.73	33713.57
983.088	38137.61
983.447	40739.36
983.805	58197.54
984.163	121675.22
984.521	135161.66
984.879	197991.3
985.237	-322060.27
985.595	310442.87
985.953	77161.28
986.311	44615.04
986.669	25868.97
987.026	22362.96
987.384	30043.63
987.741	31108.87
988.099	22188.07
988.456	17667.38
988.814	16546.53
989.171	14387.35
989.528	14196.56
989.885	15004.38
990.242	11856.65
990.599	14778.19
990.956	12063.66
991.313	8440.11
991.67	6919.36
992.027	7337.61
992.383	6522.51
992.74	5710.83
993.096	6000.65
993.453	6217.4
993.809	6444.46
994.165	8574.67
994.522	7863.49
994.878	8667.07
995.234	10866.96
995.59	10721.76
995.946	10145.11
996.302	11577.81
996.658	13402.46
997.013	14745.47
997.369	17491.14
997.725	22380.82
998.08	14518.13
998.436	22402.34
998.791	30891.27
999.147	30868.38
999.502	33720.19
999.857	24565.25
1000.212	40014.56
1000.567	57022.95
1000.922	32937.18
1001.277	20927.06
1001.632	15518.52
1001.987	19998.91
1002.342	14326.98
1002.696	11485.69
1003.051	9162.58
1003.406	11092.78
1003.76	11065.16
1004.114	10926.04
1004.469	9177.14
1004.823	7585.37
1005.177	8207.63
1005.531	6519.28
1005.885	5791.83
1006.239	6532.75
1006.593	8201.27
1006.947	10959.06
1007.301	8231.88
1007.655	8947.85
1008.008	6565.66
1008.362	7383.89
1008.715	10545.73
1009.069	9577.3
1009.422	14407.48
1009.776	28826.11
1010.129	19139.98
1010.482	15981.33
1010.835	13546.62
1011.188	28130.74
1011.541	26508.58
1011.894	-162489.39
1012.247	478351.71
1012.6	32489.04
1012.952	20445.96
1013.305	10534.52
1013.657	7598.28
1014.01	7194.65
1014.362	5929.33
1014.715	5275.55
1015.067	4610.37
1015.419	4506.39
1015.771	3986.76
1016.123	3536.61
1016.475	3637.79
1016.827	3880.54
1017.179	4161.85
1017.531	4188.18
1017.883	4285.2
1018.234	4145.09
1018.586	5214.97
1018.938	5515.34
1019.289	7577.38
1019.64	8643.85
1019.992	8057.7
1020.343	7392.57
1020.694	5820.38
1021.045	5158.69
1021.396	5896.17
1021.747	6325.63
1022.098	7568.2
1022.449	5501.54
1022.8	5107.96
1023.151	3554.85
1023.501	3163.5
1023.852	3436.08
1024.202	3577.74
1024.553	3954.53
1024.903	3849.68
1025.253	3292.77
1025.604	2966.49
1025.954	3700.28
1026.304	4504.42
1026.654	5234.44
1027.004	7693.24
1027.354	12430.39
1027.703	11734.85
1028.053	15363.67
1028.403	22406.97
1028.753	32459.97
1029.102	44067.04
1029.452	224819.76
1029.801	9615.1
1030.15	6206.05
1030.499	5260.02
897.758	2368.45
901.051	2313.84
904.343	2349.65
907.636	2354.96
910.928	2414.49
914.22	2330.8
917.511	2338.39
920.803	2390.94
924.094	2398.32
927.384	2389.55
930.675	2355.87
933.965	2316.8
937.255	2335.39
940.544	2296.2
943.834	2279.42
947.123	2217.96
950.411	2307.97
953.7	2285.36
956.988	2261.15
960.276	2202.49
963.563	2265.64
966.851	2270.06
970.138	2316.48
973.424	2314.17
976.711	2275.24
979.997	2349.71
983.283	2393.35
986.568	2314.28
989.853	2317.31
993.138	2346.06
996.423	2426.39
999.708	2373.41
1002.992	2411.01
1006.275	2300.84
1009.559	2320.4
1012.842	2420.79
1016.125	2364.67
1019.408	2346.09
1022.69	2416.14
1025.972	2440.39
1029.254	2416.04
1032.536	2366.63
1035.817	2385.09
1039.098	2349.7
1042.379	2434.31
1045.659	2453.15
1048.939	2395.2
1052.219	2406.95
1055.498	2412.23
1058.778	2401.42
1062.057	2380.37
1065.335	2402.48
1068.614	2416.07
1071.892	2404.74
1075.17	2467.73
1078.447	2463.48
1081.724	2457.06
1085.001	2488.78
1088.278	2465.78
1091.554	2470.17
1094.83	2468.24
1098.106	2501.12
1101.382	2536.34
1104.657	2538.24
1107.932	2535.75
1111.206	2507.54
1114.481	2464.56
1117.755	2466.06
1121.029	2452.6
1124.302	2508.93
1127.575	2470.86
1130.848	2463.44
1134.121	2427.7
1137.393	2385.68
1140.665	2449.89
1143.937	2426.85
1147.208	2383.32
1150.48	2431.21
1153.75	2419.2
1157.021	2434.2
1160.291	2407.55
1163.561	2457.69
1166.831	2436.23
1170.101	2466.37
1173.37	2434.42
1176.639	2382.49
1179.907	2434.07
1183.176	2448.43
1186.444	2452.13
1189.711	2478.39
1192.979	2495.94
1196.246	2452.71
1199.513	2464.18
1202.78	2465.56
1206.046	2475.25
1209.312	2498.74
1212.578	2519.77
1215.843	2480.8
1219.108	2451.71
1222.373	2475.59
1225.638	2445.26
1228.902	2434.25
1232.166	2397.7
1235.43	2385.24
1238.693	2406.85
1241.956	2400.49
1245.219	2446.58
1248.482	2433.58
1251.744	2431.6
1255.006	2562.17
1258.268	2514.25
1261.529	2464.01
1264.79	2467.72
1268.051	2564.05
1271.312	2574.22
1274.572	2545.1
1277.832	2533.72
1281.092	2521.04
1284.351	2503.36
1287.61	2484.53
1290.869	2414.21
1294.128	2403.02
1297.386	2469.14
1300.644	2456.21
1303.902	2471.28
1307.159	2340.03
1310.416	2390.48
1313.673	2418.06
1316.93	2407.1
1320.186	2446.2
1323.442	2482.13
1326.697	2476.22
1329.953	2458.29
1333.208	2486.59
1336.463	2466.71
1339.717	2415.86
1342.972	2533.45
1346.226	2507.63
1349.479	2450.79
1352.733	2425.91
1355.986	2439.89
1359.238	2421.02
1362.491	2425.06
1365.743	2425.18
1368.995	2416.88
1372.247	2433.47
1375.498	2454.79
1378.749	2479.76
1382	2436.71
1385.251	2480.78
1388.501	2439.21
1391.751	2430.26
1395	2397.94
1398.25	2426.23
1401.499	2442.63
1404.748	2385.15
1407.996	2365.46
1411.244	2354.29
1414.492	2340.38
1417.74	2319.16
1420.987	2325.14
1424.234	2381.61
1427.481	2355.04
1430.728	2411.45
1433.974	2386.34
1437.22	2390.68
1440.465	2389.37
1443.711	2372.59
1446.956	2397.43
1450.201	2379.61
1453.445	2421.97
1456.689	2404.97
1459.933	2416.47
1463.177	2449.77
1466.42	2425.55
1469.663	2406.16
1472.906	2410.31
1476.148	2464.5
1479.391	2459.4
1482.633	2432.79
1485.874	2448.58
1489.115	2447.63
1492.356	2440.17
1495.597	2418.64
1498.838	2417.39
1502.078	2394.17
1505.318	2359.01
1508.557	2397.14
1511.797	2390.38
1515.036	2418.24
1518.274	2400.92
1521.513	2363.8
1524.751	2379.41
1527.989	2399.56
1531.227	2415.14
1534.464	2416.21
1537.701	2421.98
1540.938	2437.48
1544.174	2390.01
1547.41	2384.19
1550.646	2419.6
1553.882	2464.84
1557.117	2517.53
1560.352	2527.39
1563.587	2488.77
1566.821	2453.74
1570.055	2479.89
1573.289	2455.3
1576.523	2521.38
1579.756	2529.57
1582.989	2549.7
1586.222	2513.05
1589.454	2542.63
1592.686	2522.02
1595.918	2551.8
1599.15	2542.18
1602.381	2601.55
1605.612	2570.07
1608.843	2664.56
1612.073	2583.43
1615.303	2569.03
1618.533	2564.06
1621.762	2565.67
1624.992	2549.39
1628.221	2544.87
1631.449	2530.05
1634.678	2570
1637.906	2532.13
1641.134	2563.97
1644.361	2527.08
1647.588	2513.82
1650.815	2534.69
1654.042	2506.39
1657.269	2532.36
1660.495	2498.29
1663.72	2504.11
1666.946	2468.69
1670.171	2430.54
1673.396	2404.59
1676.621	2388.51
1679.845	2396.85
1683.069	2411.14
1686.293	2443.85
1689.517	2427.03
1692.74	2370.57
1695.963	2395.57
1699.185	2422.12
1702.408	2399.49
1705.63	2432.21
1708.852	2445.54
1712.073	2420.38
1715.294	2418.79
1718.515	2470.27
1721.736	2426.6
1724.956	2409.66
1728.176	2434.1
1731.396	2455.42
1734.616	2440.19
1737.835	2472.02
1741.054	2448.98
1744.272	2440.95
1747.491	2475.35
1750.709	2513.16
1753.927	2441.71
1757.144	2476.08
1760.361	2526.63
1763.578	2508.67
1766.795	2455.86
1770.011	2455.16
1773.227	2485.26
1776.443	2522.39
1779.658	2566.64
1782.874	2508.76
1786.089	2492.08
1789.303	2495.2
1792.518	2495.69
1795.732	2483.08
1798.945	2496.99
1802.159	2541.9
1805.372	2465.79
1808.585	2456.16
1811.797	2459.04
1815.01	2492.32
1818.222	2505.56
1821.434	2477.38
1824.645	2523.9
1827.856	2524.32
1831.067	2558.66
1834.278	2503.83
1837.488	2486.81
1840.698	2618.44
1843.908	2554.95
1847.117	2521.98
1850.326	2431.9
1853.535	2507.67
1856.744	2531.66
1859.952	2452.18
1863.16	2452.55
1866.368	2466.73
1869.575	2574.52
1872.782	2465.17
1875.989	2402.31
1879.196	2462.81
1882.402	2452.21
1885.608	2489.07
1888.814	2414.4
1892.019	2318.94
1895.224	2371.43
1898.429	2344.63
1901.634	2325.78
1904.838	2302.06
1908.042	2350.41
1911.246	2362.84
1914.449	2315.04
1917.652	2304.59
1920.855	2285.66
1924.058	2323.14
1927.26	2364.95
1930.462	2388.04
1933.664	2421.69
1936.865	2366.09
1940.066	2377.63
1943.267	2324.25
1946.467	2333.72
1949.668	2354.92
1952.868	2423.98
1956.067	2408.33
1959.267	2345.07
1962.466	2370.43
1965.665	2353.34
1968.863	2347.17
1972.061	2355.12
1975.259	2350.78
1978.457	2426.18
1981.654	2387.53
1984.852	2390.17
1988.048	2333.12
1991.245	2328.94
1994.441	2413.15
1997.637	2382.23
2000.833	2367.22
2004.028	2402.8
2007.223	2459.73
2010.418	2443.48
2013.613	2400.98
2016.807	2384.69
2020.001	2385.09
2023.194	2417.1
2026.388	2399.23
2029.581	2342.16
2032.774	2400.77
2035.966	2408.97
2039.158	2349.91
2042.35	2371.9
2045.542	2299.46
2048.733	2389.27
2051.924	2394.68
2055.115	2417.4
2058.306	2372.26
2061.496	2426.68
2064.686	2484.54
2067.875	2392.87
2071.065	2401.64
2074.254	2423.58
2077.442	2377.45
2080.631	2462.91
2083.819	2375.84
2087.007	2365.9
2090.195	2344.95
2093.382	2367.43
2096.569	2349.59
2099.756	2310.81
2102.942	2349.78
2106.128	2357.93
2109.314	2348.47
2112.5	2325.12
2115.685	2296.59
2118.87	2306.17
2122.055	2366.11
2125.239	2338.43
2128.424	2323.41
2131.608	2402.3
2134.791	2383.55
2137.974	2430.36
2141.157	2417.1
2144.34	2379.32
2147.523	2382.3
2150.705	2401.86
2153.887	2375.88
2157.068	2339.56
2160.25	2333.43
2163.431	2359.79
2166.611	2318.21
2169.792	2339.48
2172.972	2242.11
2176.152	2305.19
2179.331	2337.25
2182.511	2328.89
2185.69	2353.15
2188.868	2353.81
2192.047	2396.71
2195.225	2398.42
2198.403	2352.84
2201.58	2339.85
2204.758	2331.08
2207.935	2409.16
2211.111	2314.64
2214.288	2299.83
2217.464	2338.08
2220.64	2302.4
2223.815	2351.68
2226.991	2280.96
2230.166	2297.27
2233.34	2332.69
2236.515	2349.88
2239.689	2415.73
2242.863	2365.94
2246.036	2417.96
2249.209	2410.44
2252.382	2434.65
2255.555	2433.24
2258.727	2379.2
2261.9	2413.35
2265.071	2404.2
2268.243	2401.57
2271.414	2347.47
2274.585	2319.63
2277.756	2380.65
2280.926	2339.8
2284.096	2375.01
2287.266	2294.25
2290.436	2344.73
2293.605	2369.22
2296.774	2401.38
2299.942	2414.71
2303.111	2433.11
2306.279	2480.9
2309.447	2466.96
2312.614	2441.76
2315.781	2461.68
2318.948	2433.74
2322.115	2472.74
2325.281	2374.65
2328.447	2387.45
2331.613	2359.47
2334.779	2342.55
2337.944	2342.33
2341.109	2342
2344.274	2328.93
2347.438	2295.09
2350.602	2318.85
2353.766	2333.11
2356.929	2319.74
2360.092	2359.18
2363.255	2321.04
2366.418	2275.43
2369.58	2361.39
2372.742	2200.85
2375.904	2205.4
2379.066	2186.34
2382.227	2218.25
2385.388	2178.79
2388.548	2117.83
2391.709	2164.96
2394.869	2149.76
2398.029	2224.69
2401.188	2226.48
2404.347	2177.32
2407.506	2280.73
2410.665	2313.72
2413.823	2309.96
2416.981	2277.28
2420.139	2302.96
2423.296	2347.07
2426.453	2318.78
2429.61	2343.04
2432.767	2295.93
2435.923	2335.57
2439.079	2291.97
2442.235	2328.86
2445.391	2266.86
2448.546	2301.56
2451.701	2341.8
2454.855	2325.61
2458.009	2364.03
2461.163	2361.62
2464.317	2326.55
2467.471	2355.59
2470.624	2390.07
2473.777	2369.31
2476.929	2386.7
2480.082	2408.7
2483.234	2378.35
2486.385	2326.46
2489.537	2322.33
2492.688	2298.85
2495.839	2316.17
2498.989	2328.79
2502.14	2314.55
2505.29	2300.78
2508.439	2325.96
2511.589	2259.67
2514.738	2266.8
2517.887	2291.77
2521.035	2361.11
2524.183	2332.96
2527.331	2318.34
2530.479	2302.86
2533.627	2308.69
