Data from C_2_DEC_ON_6N_Splice17_12-16-01-410.txt Node
Date: Sat Mar 14 12:16:01 EDT 2020
User: sa697716
Spectrometer: FLMS03696
Trigger mode: 0
Integration Time (sec): 3.180400E-1
Scans to average: 20
Electric dark correction enabled: true
Nonlinearity correction enabled: true
Boxcar width: 5
XAxis mode: Wavelengths
Number of Pixels in Spectrum: 2048
>>>>>Begin Spectral Data<<<<<
187.83	-313808.63
188.298	2299.53
188.766	1294.79
189.233	1208.8
189.701	1783.93
190.169	2302.57
190.636	933.87
191.104	805.69
191.571	144.2
192.039	24.34
192.506	-3.2
192.974	530.49
193.441	-646.07
193.908	41.25
194.375	51.6
194.842	169.93
195.31	195.02
195.777	213.88
196.244	433.49
196.711	454.22
197.177	562.08
197.644	770.77
198.111	1331.7
198.578	1828.73
199.045	1436.11
199.511	2355.09
199.978	2753.21
200.445	2333.31
200.911	2588.01
201.378	2853.61
201.844	2602.79
202.31	4451.22
202.777	4635.4
203.243	2563.13
203.709	2442.91
204.176	2955.01
204.642	2476.51
205.108	2310.7
205.574	1888.6
206.04	1726.3
206.506	1635.99
206.972	1540.25
207.438	1493.16
207.903	1699.64
208.369	1495.29
208.835	1495.64
209.301	1551.01
209.766	1581.08
210.232	1570.98
210.697	1962.75
211.163	2427.29
211.628	3662.84
212.094	3080.84
212.559	3792.56
213.024	2368.91
213.49	2911.7
213.955	2832.1
214.42	2785.63
214.885	2592.46
215.35	2509.59
215.815	2435.72
216.28	2621.08
216.745	2165.61
217.21	2389.7
217.675	2248.25
218.14	2605.4
218.604	2990.61
219.069	3526.96
219.534	3801.86
219.998	4522.3
220.463	5587.11
220.927	7019.7
221.392	6704.27
221.856	6868.4
222.32	8772.5
222.785	10943.67
223.249	13877.06
223.713	15595.6
224.177	15687.17
224.642	20246.66
225.106	25045.14
225.57	27501.72
226.034	20510.62
226.497	31308.2
226.961	28350.27
227.425	33072.12
227.889	36735.21
228.353	36789.97
228.816	76160.76
229.28	72869.09
229.744	61567.71
230.207	37453.55
230.671	36871.04
231.134	61077.63
231.597	70463.76
232.061	70593.26
232.524	68947.58
232.987	47584.52
233.45	42913.33
233.914	38512.22
234.377	39547
234.84	36183.51
235.303	42676.38
235.766	47639.95
236.229	49293.1
236.691	31067.65
237.154	34919.11
237.617	26252.06
238.08	26872.66
238.542	31441.02
239.005	22458.99
239.468	22280.65
239.93	21004.49
240.393	19107.58
240.855	16782.62
241.317	17180.87
241.78	20912.16
242.242	21622.57
242.704	23375.02
243.166	20366.18
243.629	18497.7
244.091	21330.58
244.553	23377.32
245.015	25128.39
245.477	32507
245.939	47713.34
246.4	50708.61
246.862	49316.42
247.324	46536.47
247.786	52025.79
248.247	68253.58
248.709	70516.53
249.17	52805.92
249.632	49751.07
250.093	57720.34
250.555	49889.55
251.016	30410.44
251.477	28845.36
251.939	31123.91
252.4	32651.87
252.861	38912.49
253.322	36195.81
253.783	43101.58
254.244	55886.41
254.705	44076.26
255.166	39184.88
255.627	38577.34
256.088	54383.54
256.549	57715.51
257.009	49725.72
257.47	60294.91
257.931	49008.69
258.391	36720.07
258.852	37847.19
259.312	39668.8
259.773	49035.87
260.233	41432.18
260.694	34909.76
261.154	39596.8
261.614	31756.99
262.074	28391.94
262.534	29492.6
262.994	27815.64
263.455	37076.13
263.915	31233.52
264.374	29425.08
264.834	32135.32
265.294	35662.58
265.754	36972.3
266.214	35049.65
266.673	32887.6
267.133	41535.41
267.593	41264.32
268.052	50479.02
268.512	43905.51
268.971	52917.13
269.431	58010.04
269.89	51956.29
270.349	77784.42
270.809	86705.39
271.268	77857.53
271.727	174521.15
272.186	112928.11
272.645	84664.41
273.104	61100.13
273.563	88443.65
274.022	69583.11
274.481	59198.63
274.94	45572.97
275.399	33904.31
275.857	39463.57
276.316	53393.31
276.775	47464.5
277.233	46739.46
277.692	43708.46
278.15	49426.75
278.609	50808.92
279.067	46986.5
279.525	43634.4
279.984	56316.95
280.442	67581.42
280.9	66624.29
281.358	43800.66
281.816	40821.7
282.274	39959.32
282.732	41303.7
283.19	41503.35
283.648	35845.32
284.106	38180.67
284.564	38804.5
285.021	35978.05
285.479	26814.96
285.937	24369.77
286.394	21355.62
286.852	21994.9
287.309	23111.68
287.767	22297.45
288.224	21201.03
288.682	23248.93
289.139	25543.69
289.596	23382.54
290.053	24340.18
290.511	30745.64
290.968	37352.5
291.425	50825.41
291.882	42335.86
292.339	36904.19
292.796	36708.88
293.252	34663.82
293.709	27540.77
294.166	24713.05
294.623	27364.13
295.079	26312.33
295.536	26480.56
295.992	24055.15
296.449	23822.56
296.905	24783.25
297.362	23768.16
297.818	25026.51
298.274	25951.17
298.731	26486.23
299.187	26232.14
299.643	28193.01
300.099	34100.33
300.555	37411.23
301.011	31279.4
301.467	30116.41
301.923	35309.44
302.379	34552.93
302.835	33952.81
303.291	34067.22
303.746	38822.41
304.202	49092.31
304.658	49327.84
305.113	33187.66
305.569	32520.78
306.024	34706.18
306.479	33116.9
306.935	27895
307.39	30503.82
307.845	28211.41
308.301	28382.67
308.756	27715.9
309.211	26722.02
309.666	27392.17
310.121	34017.19
310.576	34602.15
311.031	34379.19
311.486	39423.8
311.94	39509.5
312.395	52891.13
312.85	99557.57
313.305	489959.34
313.759	2532272.01
314.214	183617.16
314.668	145744.28
315.123	122723.23
315.577	44065.16
316.032	39252.59
316.486	49211.9
316.94	38864.64
317.394	27070.38
317.849	21042.47
318.303	19977.5
318.757	18884.03
319.211	20929.58
319.665	18351.56
320.119	18615.29
320.572	26736.98
321.026	25000.71
321.48	20857.92
321.934	22795
322.387	22906.23
322.841	24764.11
323.295	22230.85
323.748	25671.89
324.202	26044.53
324.655	31277.54
325.108	43694.65
325.562	30874.49
326.015	36740.84
326.468	27759.19
326.921	31047.63
327.374	28901.87
327.827	30132.47
328.28	34148.35
328.733	22891.56
329.186	20134.69
329.639	19193.52
330.092	16191.76
330.545	15431.76
330.997	15583.89
331.45	17034.05
331.903	19948.76
332.355	34415.76
332.808	33467.46
333.26	27635.52
333.713	29984.62
334.165	30241.59
334.617	40446.9
335.069	32738.59
335.522	59231.71
335.974	65551.38
336.426	59950.31
336.878	41612.57
337.33	21093.83
337.782	20586.91
338.234	25787.54
338.686	30864.54
339.137	36587.04
339.589	34445.92
340.041	26969.78
340.493	23211.27
340.944	23763.61
341.396	25632.22
341.847	21529.41
342.299	25391.29
342.75	31031.38
343.201	27146.53
343.653	31313.29
344.104	38501.93
344.555	30360.53
345.006	47402.26
345.457	36272.31
345.908	28886.89
346.359	27179.43
346.81	22153.81
347.261	23383.65
347.712	23045.76
348.163	24751.03
348.613	25046.3
349.064	23451.24
349.515	20554.79
349.965	21060.6
350.416	25413.97
350.866	27935.88
351.317	31654.56
351.767	52452.07
352.217	66347.27
352.668	55064.74
353.118	50428.99
353.568	48618.87
354.018	38368.91
354.468	40490.08
354.918	29070.49
355.368	25432.81
355.818	35915.62
356.268	103395.94
356.718	433279.87
357.168	107900.43
357.617	54270.58
358.067	60529.26
358.517	56767.52
358.966	66662.87
359.416	74753.42
359.865	80939.95
360.315	96442.09
360.764	45034.84
361.213	25225.96
361.663	23922.71
362.112	29555.92
362.561	47756.13
363.01	36019.88
363.459	30359.21
363.908	32880.53
364.357	27905.09
364.806	47166.34
365.255	32502.65
365.703	29773.92
366.152	29793.14
366.601	24137.75
367.05	19591.43
367.498	17794.93
367.947	18615.78
368.395	19365.35
368.844	17159.87
369.292	20699.65
369.74	14304.73
370.189	21905.13
370.637	25684.77
371.085	22189.21
371.533	27072.72
371.981	26096.63
372.429	24874.67
372.877	25920.47
373.325	21708.3
373.773	22135.16
374.221	19756.61
374.669	24498.43
375.116	21164.61
375.564	21339.3
376.012	23890.77
376.459	19691.04
376.907	23561.95
377.354	28543.47
377.801	26573.04
378.249	30515.62
378.696	39015.63
379.143	47226.11
379.591	50397.16
380.038	85309.25
380.485	61640.62
380.932	66581.71
381.379	60850.94
381.826	44759.84
382.273	31811.97
382.72	27871.15
383.166	27195.49
383.613	17633.69
384.06	15888.21
384.506	18387.14
384.953	13507.05
385.4	13613.25
385.846	11916.25
386.292	11640.39
386.739	11387.87
387.185	11266.46
387.631	11259.61
388.078	10910.69
388.524	11664.72
388.97	10774.72
389.416	8984.71
389.862	9553.53
390.308	9061.65
390.754	9195
391.2	9981.16
391.645	10225.44
392.091	9744.5
392.537	9409.11
392.983	9431.51
393.428	9251.72
393.874	9918.52
394.319	9931.76
394.765	9400.37
395.21	9648.31
395.655	9045.56
396.101	8462.11
396.546	7631.83
396.991	7710.77
397.436	7166.05
397.881	6924.6
398.326	6573.55
398.771	6208.72
399.216	5437.26
399.661	4899.58
400.106	4872.58
400.551	4986.79
400.995	4470.32
401.44	4425.45
401.885	4159.05
402.329	4205.75
402.774	4025.06
403.218	3886.92
403.663	3741.61
404.107	3843.46
404.551	3868.25
404.995	3556.85
405.44	3430.54
405.884	3487.02
406.328	3376.81
406.772	3374.07
407.216	3071.87
407.66	2974.24
408.104	2835.3
408.547	2661.22
408.991	2579.84
409.435	2484.88
409.879	2447.88
410.322	2415.19
410.766	2330.23
411.209	2213.83
411.653	2119.41
412.096	2073.87
412.54	2075.31
412.983	2058.05
413.426	2060.58
413.869	2058.26
414.312	2017.44
414.756	1944.4
415.199	1853.98
415.642	1798.82
416.085	1801.63
416.527	1791.35
416.97	1821.36
417.413	1726.21
417.856	1710.66
418.298	1695.43
418.741	1684.08
419.184	1683.74
419.626	1755.78
420.069	1758.09
420.511	1769.19
420.953	1728.73
421.396	1713.81
421.838	1669.75
422.28	1707.86
422.722	1713.29
423.164	1737.51
423.606	1706.01
424.048	1703.02
424.49	1616.68
424.932	1610.16
425.374	1586.24
425.816	1616.09
426.258	1645.7
426.699	1663.78
427.141	1641.25
427.582	1667.18
428.024	1657.06
428.465	1645.08
428.907	1602.09
429.348	1580.31
429.789	1573.35
430.231	1539.75
430.672	1557.42
431.113	1517.81
431.554	1492.8
431.995	1452.24
432.436	1396.39
432.877	1362.1
433.318	1337.34
433.759	1330.68
434.2	1333.3
434.64	1319.69
435.081	1321.38
435.522	1249.75
435.962	1203.05
436.403	1174.82
436.843	1189.52
437.284	1164.19
437.724	1134.22
438.164	1137.43
438.604	1110.42
439.045	1064.32
439.485	1019.68
439.925	998.05
440.365	972.7
440.805	958.48
441.245	946.02
441.685	911.49
442.125	903.41
442.564	907.28
443.004	885.04
443.444	882.59
443.883	882.64
444.323	875.54
444.762	875.68
445.202	886.72
445.641	902.87
446.081	896.94
446.52	903.05
446.959	894.64
447.398	871.91
447.837	862.21
448.276	845.73
448.716	854.43
449.154	861.33
449.593	841.24
450.032	838.37
450.471	822.66
450.91	824.13
451.349	823.31
451.787	820.03
452.226	831.51
452.664	831.59
453.103	833.54
453.541	830.76
453.98	830.77
454.418	837.45
454.856	824.83
455.295	822.8
455.733	827.56
456.171	832.03
456.609	833.21
457.047	834.43
457.485	846.14
457.923	848.33
458.361	837.07
458.798	839.43
459.236	837.36
459.674	843.88
460.111	848.48
460.549	840.51
460.987	837.07
461.424	834.24
461.862	830.33
462.299	817.31
462.736	816.62
463.173	821.9
463.611	812.45
464.048	810.07
464.485	815.73
464.922	809.09
465.359	805.43
465.796	793.85
466.233	788.61
466.67	781.18
467.106	778.68
467.543	771.19
467.98	761.48
468.416	742.76
468.853	736.41
469.29	713.65
469.726	705.12
470.162	687.65
470.599	680.11
471.035	673.48
471.471	656.95
471.907	654.31
472.344	650.56
472.78	651.37
473.216	659.26
473.652	651.59
474.088	651.11
474.523	650.22
474.959	654.77
475.395	648.36
475.831	644.57
476.266	648.21
476.702	646.23
477.138	639.04
477.573	636.4
478.008	633.5
478.444	636.52
478.879	642.24
479.314	644.53
479.75	644.49
480.185	648.37
480.62	654.12
481.055	658.11
481.49	663.19
481.925	672.52
482.36	684.93
482.795	704.96
483.229	724.48
483.664	739.21
484.099	741.51
484.534	753.72
484.968	760.76
485.403	763.7
485.837	763.73
486.271	762.2
486.706	763.42
487.14	755.41
487.574	743.37
488.009	737.9
488.443	732.62
488.877	741.73
489.311	744.21
489.745	753.38
490.179	761.2
490.613	774.37
491.046	781.21
491.48	787.46
491.914	787.46
492.348	793.61
492.781	797.29
493.215	799.82
493.648	800.62
494.082	806.79
494.515	807.14
494.948	815.38
495.382	821.22
495.815	826.74
496.248	833.48
496.681	850.42
497.114	864.75
497.547	877.63
497.98	891.67
498.413	899.45
498.846	911.54
499.279	921.85
499.711	926.39
500.144	929.68
500.577	941.23
501.009	953.41
501.442	962.8
501.874	962.4
502.306	963.98
502.739	972.17
503.171	988.47
503.603	990.3
504.036	999.74
504.468	1006.25
504.9	1018.23
505.332	1026.09
505.764	1029.7
506.196	1036.72
506.627	1052.68
507.059	1066.2
507.491	1074.55
507.923	1070.27
508.354	1086.57
508.786	1097.19
509.217	1115.39
509.649	1130.17
510.08	1147.91
510.512	1164.26
510.943	1178.01
511.374	1187.31
511.805	1206.62
512.237	1224.9
512.668	1257.05
513.099	1283.4
513.53	1309.02
513.961	1327.47
514.391	1357.61
514.822	1389.53
515.253	1423.39
515.684	1447.17
516.114	1473.63
516.545	1492.33
516.975	1515.59
517.406	1530.17
517.836	1527.57
518.267	1530.04
518.697	1543.63
519.127	1543.23
519.558	1545.55
519.988	1545.37
520.418	1551.6
520.848	1566.32
521.278	1569.65
521.708	1581.4
522.138	1589.91
522.567	1617.26
522.997	1639.48
523.427	1651.18
523.857	1663.72
524.286	1670.28
524.716	1681.69
525.145	1696.65
525.575	1704.42
526.004	1716.28
526.433	1707.66
526.863	1705.1
527.292	1691.99
527.721	1693.74
528.15	1696.17
528.579	1694.21
529.008	1702.23
529.437	1722.19
529.866	1734.3
530.295	1748.16
530.724	1758.46
531.152	1783.05
531.581	1794.6
532.01	1811.53
532.438	1818.16
532.867	1831.45
533.295	1849.26
533.723	1854.72
534.152	1851.82
534.58	1850.04
535.008	1833.29
535.436	1832.55
535.865	1838.86
536.293	1852.15
536.721	1866.11
537.149	1891.28
537.576	1893.64
538.004	1905.37
538.432	1912.27
538.86	1910.47
539.287	1916.99
539.715	1929.73
540.143	1933.03
540.57	1929.08
540.998	1925.53
541.425	1901.97
541.852	1880.94
542.28	1878.95
542.707	1861.23
543.134	1846.97
543.561	1841.55
543.988	1832.5
544.415	1832.45
544.842	1826.3
545.269	1818.06
545.696	1818.41
546.123	1829.97
546.549	1818.87
546.976	1804.35
547.403	1803.36
547.829	1804.48
548.256	1805.29
548.682	1800.83
549.108	1792.12
549.535	1790.73
549.961	1792.24
550.387	1779.41
550.813	1774.22
551.24	1779.56
551.666	1780.31
552.092	1771.39
552.518	1764.35
552.943	1759.14
553.369	1766.72
553.795	1771.77
554.221	1773.05
554.646	1769.14
555.072	1779.71
555.498	1784.16
555.923	1793.43
556.349	1808.77
556.774	1817.34
557.199	1820.19
557.625	1825.58
558.05	1820.9
558.475	1832.03
558.9	1833.03
559.325	1827.02
559.75	1820.58
560.175	1814.97
560.6	1808.55
561.025	1806.98
561.449	1808.42
561.874	1813.56
562.299	1818.3
562.723	1826.19
563.148	1816.95
563.572	1820.92
563.997	1830.72
564.421	1838.04
564.846	1840
565.27	1845.69
565.694	1844.85
566.118	1858.3
566.542	1868.02
566.966	1864.55
567.39	1861.1
567.814	1852.78
568.238	1853.96
568.662	1861.9
569.086	1866.21
569.509	1876.12
569.933	1861.88
570.357	1857.81
570.78	1839.16
571.204	1827.94
571.627	1818.2
572.05	1818.11
572.474	1820.55
572.897	1809.39
573.32	1803.87
573.743	1796.69
574.166	1779.85
574.589	1781.87
575.012	1775.39
575.435	1775.71
575.858	1768.1
576.281	1758.55
576.704	1744.61
577.126	1732.02
577.549	1723.41
577.972	1714.94
578.394	1704.86
578.817	1698.46
579.239	1681.04
579.661	1668.42
580.084	1653.34
580.506	1640.35
580.928	1637.8
581.35	1628.35
581.772	1625.39
582.194	1612.35
582.616	1600.09
583.038	1586.32
583.46	1577.11
583.882	1574.86
584.303	1579.61
584.725	1575.86
585.147	1578.41
585.568	1590.34
585.99	1603.42
586.411	1611.17
586.833	1626.62
587.254	1628.11
587.675	1643.1
588.096	1656.16
588.518	1651.23
588.939	1635.26
589.36	1633.53
589.781	1623.85
590.202	1594.93
590.623	1585.32
591.043	1583.17
591.464	1570.57
591.885	1566.91
592.305	1562.55
592.726	1548.37
593.147	1550.01
593.567	1544.14
593.987	1536.13
594.408	1531.8
594.828	1529.51
595.248	1524.28
595.669	1505.51
596.089	1498.21
596.509	1491.99
596.929	1478.62
597.349	1480
597.769	1469.18
598.189	1463.2
598.608	1465.66
599.028	1467.43
599.448	1468.4
599.867	1454.75
600.287	1450.64
600.706	1447.06
601.126	1438.05
601.545	1436.92
601.965	1435.35
602.384	1430.47
602.803	1434.94
603.222	1429.73
603.641	1424
604.061	1419.53
604.48	1416.8
604.898	1425.39
605.317	1431.74
605.736	1434.8
606.155	1432.39
606.574	1424.58
606.992	1432.38
607.411	1427.91
607.829	1420.94
608.248	1418.71
608.666	1418.32
609.085	1419.06
609.503	1413.01
609.921	1407.75
610.339	1411.6
610.758	1412.72
611.176	1409.19
611.594	1400.81
612.012	1399.43
612.43	1405.66
612.847	1414.08
613.265	1417.93
613.683	1423.7
614.101	1426.09
614.518	1423.57
614.936	1414.54
615.353	1401.02
615.771	1399.62
616.188	1401.36
616.606	1398.26
617.023	1391.05
617.44	1377.75
617.857	1370.71
618.274	1363.16
618.691	1358.41
619.108	1349.32
619.525	1344.07
619.942	1351.31
620.359	1354.45
620.776	1349.98
621.192	1346.07
621.609	1344.8
622.026	1351.65
622.442	1358.59
622.859	1362.88
623.275	1354.98
623.691	1361.66
624.108	1373.82
624.524	1390.37
624.94	1390.89
625.356	1401.65
625.772	1415.95
626.188	1428.65
626.604	1430.87
627.02	1426.74
627.436	1425.23
627.852	1433.26
628.268	1445.91
628.683	1437.15
629.099	1428.06
629.514	1422.78
629.93	1426.56
630.345	1431.48
630.761	1427.49
631.176	1431.76
631.591	1424.88
632.007	1417.11
632.422	1414.8
632.837	1402.02
633.252	1397.8
633.667	1385.61
634.082	1376.15
634.497	1362.07
634.911	1340.13
635.326	1335.31
635.741	1316.68
636.155	1306.75
636.57	1309.24
636.984	1307.05
637.399	1308.96
637.813	1308.16
638.228	1307.09
638.642	1310.73
639.056	1300.2
639.47	1301.81
639.884	1292.4
640.298	1285.55
640.712	1284.06
641.126	1270.22
641.54	1263.16
641.954	1258.33
642.368	1246.16
642.781	1238.79
643.195	1220.82
643.609	1222.25
644.022	1216.73
644.436	1214.64
644.849	1201.7
645.262	1189.4
645.676	1191.76
646.089	1186.78
646.502	1172.22
646.915	1166.88
647.328	1148.86
647.741	1148.54
648.154	1134.21
648.567	1130.63
648.98	1116.99
649.393	1118.2
649.805	1117.03
650.218	1110.17
650.631	1094.07
651.043	1087.52
651.456	1082.37
651.868	1084.76
652.28	1103.95
652.693	1120.56
653.105	1129.93
653.517	1142.46
653.929	1144.93
654.341	1151.41
654.753	1139.12
655.165	1148.38
655.577	1148.03
655.989	1145.18
656.401	1138.43
656.813	1101.53
657.224	1082.22
657.636	1052.27
658.047	1034.3
658.459	1014.95
658.87	1007.22
659.282	996.88
659.693	974.82
660.104	959.78
660.515	947.83
660.926	946.53
661.338	944.46
661.749	939.11
662.159	929.73
662.57	925.93
662.981	922.47
663.392	915.31
663.803	921.5
664.213	920.6
664.624	917.42
665.035	922.14
665.445	910.11
665.855	903.05
666.266	895.46
666.676	895.29
667.086	886.65
667.497	886.68
667.907	881
668.317	871.22
668.727	867.09
669.137	869.62
669.547	866.92
669.956	869.72
670.366	873.2
670.776	875.2
671.186	881.14
671.595	886.35
672.005	891.34
672.414	890.71
672.824	889.7
673.233	896.72
673.642	899.17
674.052	903.38
674.461	906.2
674.87	912.48
675.279	910.02
675.688	911.99
676.097	913.45
676.506	910.16
676.915	928.63
677.323	932.86
677.732	932.59
678.141	934.21
678.549	922.44
678.958	922.24
679.366	921.27
679.775	928.47
680.183	940.74
680.592	947.69
681	956.54
681.408	948.53
681.816	957.87
682.224	969.44
682.632	981.31
683.04	1017.14
683.448	1047.2
683.856	1082.84
684.264	1123.26
684.671	1159.88
685.079	1205.52
685.487	1253.33
685.894	1322.2
686.302	1377.1
686.709	1417.89
687.116	1467.17
687.524	1505.49
687.931	1534.51
688.338	1559.49
688.745	1577.91
689.152	1600.71
689.559	1635.39
689.966	1668.05
690.373	1677.22
690.78	1706.04
691.187	1760.48
691.593	1796.67
692	1825.37
692.407	1877.97
692.813	1942.6
693.22	1990.65
693.626	2040.7
694.032	2076.15
694.439	2139.45
694.845	2183.94
695.251	2247.65
695.657	2300.47
696.063	2386.76
696.469	2447.04
696.875	2500.98
697.281	2525.66
697.687	2560.27
698.093	2587.11
698.498	2651.03
698.904	2697.23
699.31	2773.93
699.715	2822.84
700.12	2901.49
700.526	2908.95
700.931	2966.71
701.337	3007.15
701.742	3030.5
702.147	3102.61
702.552	3124.34
702.957	3173.81
703.362	3185.2
703.767	3205.33
704.172	3237.68
704.577	3186.78
704.981	3225.05
705.386	3232.72
705.791	3219.57
706.195	3284.52
706.6	3287.61
707.004	3357.03
707.408	3321.66
707.813	3341.25
708.217	3324.22
708.621	3320.01
709.025	3404.5
709.43	3401.6
709.834	3454.18
710.237	3514.02
710.641	3494.25
711.045	3509.68
711.449	3500.54
711.853	3522.05
712.256	3555.96
712.66	3586.71
713.064	3652.08
713.467	3688.64
713.87	3788.81
714.274	3830.01
714.677	3928.63
715.08	4073.95
715.484	4225.61
715.887	4409.71
716.29	4588.32
716.693	4777.45
717.096	4993.67
717.499	5109.59
717.901	5129.04
718.304	5149.09
718.707	5164.92
719.109	5065.23
719.512	5034.25
719.915	4907.41
720.317	4849.57
720.719	4889.05
721.122	4857.6
721.524	4811.39
721.926	4771.45
722.328	4859.3
722.731	4847.05
723.133	4869.85
723.535	5043.63
723.937	5060.45
724.338	5104.32
724.74	5141.25
725.142	5083.64
725.544	5082.02
725.945	5104.17
726.347	5099.85
726.748	5091.09
727.15	5102.34
727.551	5066.42
727.952	5040.55
728.354	5012.27
728.755	5012.68
729.156	4970.92
729.557	4953.86
729.958	4842.08
730.359	4787.51
730.76	4769.31
731.161	4713.02
731.562	4689.19
731.962	4691.51
732.363	4632.02
732.763	4570.89
733.164	4601.52
733.564	4542.72
733.965	4458.52
734.365	4426.5
734.766	4452.68
735.166	4417.35
735.566	4367.76
735.966	4342.9
736.366	4338.54
736.766	4281.34
737.166	4311.15
737.566	4273.22
737.966	4247.92
738.365	4282.71
738.765	4277.95
739.165	4209.49
739.564	4183.49
739.964	4223
740.363	4182.78
740.763	4177.45
741.162	4167.17
741.561	4138.83
741.96	4096.12
742.36	4113.65
742.759	4117.1
743.158	4148.76
743.557	4159.18
743.955	4195.65
744.354	4154.24
744.753	4200.58
745.152	4162.11
745.55	4209.38
745.949	4201.96
746.348	4201.46
746.746	4215.13
747.144	4178.43
747.543	4157.16
747.941	4202.4
748.339	4139.12
748.737	4132.66
749.136	4128.07
749.534	4186.6
749.932	4162.32
750.33	4181.15
750.727	4229.65
751.125	4208.11
751.523	4193.14
751.921	4233.55
752.318	4202.98
752.716	4254.58
753.113	4266.99
753.511	4288.23
753.908	4289.49
754.305	4275.07
754.703	4331.24
755.1	4387.79
755.497	4440.82
755.894	4612.3
756.291	4767.69
756.688	5059.57
757.085	5449.61
757.482	5994.9
757.878	6593.46
758.275	7133.6
758.672	7876.95
759.068	8482.22
759.465	9341.64
759.861	10452.25
760.258	11736.95
760.654	12413.1
761.05	12314.87
761.447	11755.56
761.843	10943.47
762.239	10098.56
762.635	9721.4
763.031	9357.66
763.427	8831.61
763.822	8285.41
764.218	7742.16
764.614	7038.29
765.01	6562.49
765.405	6255.5
765.801	6020.17
766.196	5726.57
766.592	5564.15
766.987	5284.25
767.382	5094.75
767.778	5017.16
768.173	4901.47
768.568	4836.93
768.963	4723.11
769.358	4738.78
769.753	4697.53
770.148	4623.63
770.542	4620.41
770.937	4593.01
771.332	4671.82
771.726	4688.98
772.121	4633.35
772.515	4680.63
772.91	4668.88
773.304	4733.27
773.699	4678.23
774.093	4726.54
774.487	4774.51
774.881	4812.31
775.275	4806.12
775.669	4769.1
776.063	4806.62
776.457	4840.03
776.851	4774.6
777.245	4768.47
777.638	4798.66
778.032	4896.71
778.425	4866.19
778.819	4903.67
779.212	4867.25
779.606	4833.44
779.999	4852.76
780.392	4838.13
780.786	4908.05
781.179	4924.66
781.572	4960.34
781.965	4969.33
782.358	4919.21
782.751	4966.39
783.143	4925.2
783.536	4989.5
783.929	5027.22
784.322	5127.72
784.714	5156.62
785.107	5151.83
785.499	5216.4
785.891	5196.76
786.284	5180.33
786.676	5303.92
787.068	5286.8
787.46	5330.72
787.852	5346.48
788.245	5420.47
788.636	5443.91
789.028	5501.74
789.42	5536.8
789.812	5544.64
790.204	5629.38
790.595	5716.48
790.987	5544.07
791.378	5562.67
791.77	5677.55
792.161	5800.43
792.553	5850.65
792.944	5757.32
793.335	5698.53
793.726	5762.86
794.117	5845.19
794.508	5970.06
794.899	5943.25
795.29	6069.03
795.681	6117.45
796.072	5991.99
796.463	5824.98
796.853	5835.7
797.244	5973.87
797.634	6002.92
798.025	6004.72
798.415	6010.19
798.806	6084.11
799.196	6161.71
799.586	6204.5
799.976	6176.27
800.366	6377.29
800.756	6588.96
801.146	6551.16
801.536	6572.97
801.926	6638.5
802.316	6656.22
802.706	6721.12
803.095	6611.9
803.485	6699.09
803.874	6737.55
804.264	6963.43
804.653	6942.93
805.043	7070.81
805.432	7167.44
805.821	7168.07
806.21	7185.98
806.599	7293.02
806.988	7334.72
807.377	7429.76
807.766	7541.49
808.155	7786.03
808.544	7554.97
808.933	7563.99
809.321	7547.74
809.71	7807.48
810.098	7944.47
810.487	8348.55
810.875	8766.08
811.264	8780.94
811.652	9031.1
812.04	9159.25
812.428	9301.15
812.816	9968.02
813.204	10332.05
813.592	10812.87
813.98	11104.44
814.368	11029.27
814.756	11445.16
815.144	11374.89
815.531	11782.73
815.919	11725.21
816.306	11992.28
816.694	11727.98
817.081	11774.29
817.469	12074.02
817.856	12067.27
818.243	12295.8
818.63	12636.22
819.017	12268.13
819.404	12319.19
819.791	12651.51
820.178	13176.97
820.565	13394.65
820.952	14203.03
821.339	13774.66
821.725	13939.5
822.112	13287.67
822.498	13251.91
822.885	13362.22
823.271	13277.89
823.657	13648.19
824.044	13654.85
824.43	13720.87
824.816	13693.13
825.202	13315.62
825.588	14203.04
825.974	14219.12
826.36	14675.58
826.746	14703.8
827.132	15005.76
827.517	14991.01
827.903	14307.19
828.289	14338.62
828.674	13659.62
829.06	13567.86
829.445	13913.4
829.83	14225.85
830.216	14639.91
830.601	14962.22
830.986	14614.34
831.371	14510.39
831.756	14997.04
832.141	14621.67
832.526	14621.09
832.911	14881.96
833.295	14785.76
833.68	15197.85
834.065	14651.72
834.449	13857.89
834.834	13803.27
835.218	13801.76
835.603	14101.33
835.987	13919.15
836.371	14653.39
836.755	14563.73
837.139	14903.09
837.524	15121.3
837.908	14971.11
838.291	15029.6
838.675	15090.01
839.059	15273.85
839.443	15264.11
839.827	15061.23
840.21	15482.06
840.594	15352.86
840.977	15535.68
841.361	15525.19
841.744	15849.81
842.127	15711.91
842.511	15928.47
842.894	16456.59
843.277	16785.77
843.66	17267.15
844.043	17338.48
844.426	16635.13
844.809	16365.67
845.191	16397.53
845.574	15989.55
845.957	15669.75
846.339	15572.3
846.722	15113.37
847.104	15166.97
847.487	15015.24
847.869	15025.53
848.252	15269.89
848.634	15562.93
849.016	15792.56
849.398	15893.53
849.78	16650.56
850.162	16657.04
850.544	17017.49
850.926	17564.42
851.307	17486.64
851.689	17731.29
852.071	18121.57
852.452	18403.95
852.834	18371.82
853.215	18713.87
853.597	18854.55
853.978	19101.98
854.359	19498.24
854.741	18629.09
855.122	18548.51
855.503	18301.54
855.884	18418.63
856.265	18364.71
856.646	18462.59
857.026	18123.57
857.407	18073.88
857.788	18209.34
858.169	18455.7
858.549	17718.09
858.93	18269.48
859.31	18299.57
859.69	18484.95
860.071	18129.2
860.451	17939.25
860.831	17291.86
861.211	18301.76
861.591	18777.5
861.971	18750.09
862.351	18920.37
862.731	19257.95
863.111	19487.4
863.491	19787.95
863.87	20544.92
864.25	20844.33
864.629	20492.87
865.009	20943.94
865.388	21686.63
865.768	23233.25
866.147	23152.07
866.526	21876.45
866.905	22121.27
867.284	23353.57
867.663	22166.32
868.042	21249.91
868.421	21183.58
868.8	21536.62
869.179	21745.71
869.558	20488.93
869.936	18886.54
870.315	19218.94
870.693	19682.79
871.072	21236.26
871.45	20236.92
871.828	20491.8
872.207	21546.36
872.585	21219.26
872.963	21792.44
873.341	21043.28
873.719	20795.57
874.097	20552.08
874.475	20940.01
874.853	21418.68
875.23	20519.31
875.608	21372.82
875.986	23122.73
876.363	22106.34
876.741	22795.79
877.118	22240.31
877.495	23337.34
877.873	23720.46
878.25	24958.34
878.627	23952.96
879.004	24291.79
879.381	24191.21
879.758	23565.44
880.135	21949.82
880.512	23213.39
880.889	22591.49
881.265	22345.87
881.642	22158.42
882.019	22533.55
882.395	22080.13
882.772	22958.5
883.148	21972.54
883.524	21873.16
883.901	21742.95
884.277	22068.87
884.653	21937.03
885.029	22570.03
885.405	25005.95
885.781	24814.34
886.157	23798.08
886.532	24087.3
886.908	24066
887.284	26758.81
887.659	27646.25
888.035	28522.6
888.411	29253.42
888.786	29631.15
889.161	30657.77
889.537	30089.59
889.912	31050.26
890.287	31012.43
890.662	31802.66
891.037	31239.77
891.412	29121.61
891.787	28818.73
892.162	27801.38
892.536	28455.17
892.911	27396.26
893.286	26812.82
893.66	25728.08
894.035	26377.3
894.409	28717.48
894.784	27561.91
895.158	28018.13
895.532	29679.1
895.906	30494.23
896.281	31213.55
896.655	30707.63
897.029	35084.69
897.402	36534.36
897.776	40668.11
898.15	40551.43
898.524	40130.64
898.898	40658.91
899.271	45506.5
899.645	39418
900.018	37852.05
900.392	39248.8
900.765	39559.16
901.138	36598.28
901.511	36044.55
901.884	33096.71
902.258	30517.14
902.631	31526.15
903.003	36285.61
903.376	32736.66
903.749	36694.49
904.122	39283.63
904.495	43261.72
904.867	43825.27
905.24	38047.36
905.612	35427.48
905.985	36225.02
906.357	37857.12
906.729	36153.54
907.102	30883.42
907.474	29697.01
907.846	29886.66
908.218	29493.16
908.59	26047.31
908.962	25176.8
909.334	27102.82
909.705	28459.9
910.077	27632.53
910.449	28788.81
910.82	29577.9
911.192	32549.92
911.563	33833.52
911.935	36218.17
912.306	36256.07
912.677	37422.55
913.048	37080.34
913.419	40256.23
913.79	40480.33
914.161	43421.3
914.532	41452.42
914.903	38098.12
915.274	36189.88
915.645	35659.25
916.015	31374.39
916.386	29912.11
916.756	31857.59
917.127	32853.6
917.497	29339.56
917.868	31925.3
918.238	30326.99
918.608	31245.67
918.978	31888.15
919.348	33763.24
919.718	34883.86
920.088	33606.93
920.458	34940.64
920.828	36761.66
921.198	34829.24
921.567	37200.98
921.937	28841.35
922.306	29119.92
922.676	31391.31
923.045	26193.83
923.415	24864.52
923.784	22640.54
924.153	23297.62
924.522	23275.52
924.891	21893.46
925.26	23456.57
925.629	22907.92
925.998	26322.65
926.367	25697.85
926.736	24472.73
927.104	29151.32
927.473	31371.5
927.842	37878.5
928.21	37478.02
928.578	39390.86
928.947	37225.75
929.315	37437.1
929.683	43898.61
930.051	44253.46
930.42	51386.23
930.788	43923.22
931.156	43568.01
931.523	40855.06
931.891	37790.43
932.259	36314.54
932.627	42082.45
932.994	59562.43
933.362	49266.89
933.729	42786.96
934.097	40952.19
934.464	34644.77
934.831	39967.55
935.199	39437.28
935.566	38244.74
935.933	38697.1
936.3	46896.48
936.667	36527.09
937.034	32960.64
937.401	32619.19
937.767	28187.17
938.134	25095.53
938.501	35420.07
938.867	37764.54
939.234	63821.9
939.6	54371.64
939.967	59965.6
940.333	40102.92
940.699	34151.55
941.065	27391.52
941.431	35915
941.798	34602.66
942.163	45505.13
942.529	28411.61
942.895	26152.13
943.261	16922.11
943.627	22237.21
943.992	19478.95
944.358	19522.63
944.723	19576.31
945.089	19078.44
945.454	17605.38
945.82	18795.22
946.185	18055
946.55	20965.02
946.915	18806.51
947.28	22075.35
947.645	19416.34
948.01	17935.36
948.375	18717.25
948.74	22431.65
949.104	26166.27
949.469	37819.06
949.834	66852.06
950.198	63302.78
950.562	37834.26
950.927	31511.43
951.291	37845.6
951.655	32234.37
952.02	30215.45
952.384	22815.22
952.748	19868.12
953.112	19392.2
953.476	16869.02
953.839	15592.11
954.203	15433.79
954.567	19313.46
954.931	30413.98
955.294	26059.94
955.658	26222.77
956.021	44620.67
956.385	75729.61
956.748	111829.96
957.111	173414.98
957.474	194478.53
957.837	219103.53
958.2	165712.91
958.563	59629.59
958.926	40302.74
959.289	61098.82
959.652	68257.77
960.015	51214.55
960.377	73455.63
960.74	83792.79
961.102	144587.14
961.465	155377.46
961.827	83329.97
962.189	159915.1
962.552	110909.37
962.914	88989.54
963.276	57795.89
963.638	47805.35
964	47312.45
964.362	31952.44
964.724	30855.88
965.085	22012.43
965.447	18049.44
965.809	20525.49
966.17	20558.52
966.532	22221.45
966.893	20367.5
967.255	18542.95
967.616	21889.16
967.977	17533.28
968.338	19156.02
968.699	15752.66
969.061	15752.78
969.421	15854.82
969.782	17802.14
970.143	15045.18
970.504	15590.36
970.865	17740.4
971.225	18131.22
971.586	17722.05
971.946	25254.87
972.307	21939.28
972.667	28693.77
973.027	29567.42
973.388	35841.48
973.748	24380.49
974.108	26539.05
974.468	35932.67
974.828	27718.6
975.188	21309.03
975.548	19600.75
975.907	16485.18
976.267	18494.61
976.627	15532.86
976.986	16096.51
977.346	15361.87
977.705	14757.78
978.064	13430.8
978.424	11181.09
978.783	11546.46
979.142	13196.83
979.501	12621.36
979.86	13337.75
980.219	12853.71
980.578	16595.52
980.937	18596.83
981.296	16575.05
981.654	17089.76
982.013	26622.59
982.371	34550.55
982.73	32327.98
983.088	36546.13
983.447	39074.25
983.805	55849.22
984.163	116577.3
984.521	129275.49
984.879	189463.67
985.237	-307797.96
985.595	296401.79
985.953	73734.61
986.311	42538.88
986.669	24686.11
987.026	21311.91
987.384	28633.41
987.741	29591.9
988.099	21163.79
988.456	16883.12
988.814	15800.19
989.171	13734.07
989.528	13548.12
989.885	14299.35
990.242	11317.96
990.599	14095.11
990.956	11536.35
991.313	8079.68
991.67	6636.08
992.027	7046.87
992.383	6264
992.74	5499.77
993.096	5773.69
993.453	5990.21
993.809	6207.09
994.165	8272.44
994.522	7580.63
994.878	8372.87
995.234	10482.82
995.59	10362.75
995.946	9794.53
996.302	11175.43
996.658	12911.83
997.013	14222.13
997.369	16901.82
997.725	21650.02
998.08	14062.17
998.436	21691.26
998.791	29905.36
999.147	29909.64
999.502	32560.68
999.857	23687.2
1000.212	38544.1
1000.567	54890.81
1000.922	31685.78
1001.277	20115.99
1001.632	14914.8
1001.987	19152.34
1002.342	13739.42
1002.696	10988.65
1003.051	8777.14
1003.406	10647.4
1003.76	10590.45
1004.114	10451.61
1004.469	8788.87
1004.823	7279.62
1005.177	7851.4
1005.531	6217.73
1005.885	5516.15
1006.239	6227.94
1006.593	7811.24
1006.947	10439.59
1007.301	7829.79
1007.655	8540.64
1008.008	6263.04
1008.362	7012.3
1008.715	10043.88
1009.069	9102.98
1009.422	13704.92
1009.776	27544.58
1010.129	18262.55
1010.482	15273.17
1010.835	12880.46
1011.188	26730.34
1011.541	25134
1011.894	-153557.72
1012.247	452582.21
1012.6	30603.33
1012.952	19372.08
1013.305	9996.78
1013.657	7213.57
1014.01	6831.18
1014.362	5612.74
1014.715	5001.42
1015.067	4356.01
1015.419	4262.56
1015.771	3799.87
1016.123	3383.72
1016.475	3480.11
1016.827	3711.54
1017.179	4010.58
1017.531	4039.17
1017.883	4116.73
1018.234	3990.27
1018.586	5040.81
1018.938	5345.76
1019.289	7401.11
1019.64	8417.52
1019.992	7853.55
1020.343	7199.39
1020.694	5682.61
1021.045	4983.89
1021.396	5700.4
1021.747	6148.47
1022.098	7371.93
1022.449	5334.15
1022.8	4946.35
1023.151	3446.92
1023.501	3046.45
1023.852	3310.08
1024.202	3442.94
1024.553	3776.8
1024.903	3691.72
1025.253	3159.58
1025.604	2830.86
1025.954	3519.18
1026.304	4297.98
1026.654	5022.41
1027.004	7338.89
1027.354	11974.54
1027.703	11281.38
1028.053	14751.19
1028.403	21399.03
1028.753	30860.5
1029.102	41840.8
1029.452	215831.03
1029.801	9295.87
1030.15	5987.82
1030.499	5061.52
897.758	2437.66
901.051	2388.08
904.343	2420
907.636	2425.71
910.928	2487.56
914.22	2400.86
917.511	2407.99
920.803	2464.35
924.094	2472.71
927.384	2463.64
930.675	2427.94
933.965	2385.14
937.255	2401.93
940.544	2367.5
943.834	2339.83
947.123	2279.04
950.411	2369.71
953.7	2345.95
956.988	2319.72
960.276	2261.34
963.563	2327.71
966.851	2331.61
970.138	2381.98
973.424	2377.03
976.711	2332.24
979.997	2418.82
983.283	2460.53
986.568	2380.96
989.853	2386.47
993.138	2415.52
996.423	2493.62
999.708	2438.92
1002.992	2483.08
1006.275	2360.4
1009.559	2385.08
1012.842	2492.3
1016.125	2433.22
1019.408	2412.75
1022.69	2485.45
1025.972	2510.34
1029.254	2482.58
1032.536	2431.97
1035.817	2452.27
1039.098	2409.75
1042.379	2509.62
1045.659	2522.91
1048.939	2461.8
1052.219	2477.08
1055.498	2482.86
1058.778	2472.23
1062.057	2451.1
1065.335	2474.19
1068.614	2489.18
1071.892	2475.2
1075.17	2544.05
1078.447	2535.62
1081.724	2529.46
1085.001	2562.32
1088.278	2537.94
1091.554	2547.78
1094.83	2543.41
1098.106	2573.07
1101.382	2612.96
1104.657	2611.3
1107.932	2611.73
1111.206	2580.7
1114.481	2538.66
1117.755	2541.84
1121.029	2526.04
1124.302	2581.88
1127.575	2540.47
1130.848	2532.17
1134.121	2498.58
1137.393	2450.97
1140.665	2515.05
1143.937	2491.21
1147.208	2447.79
1150.48	2493.82
1153.75	2478.63
1157.021	2498.73
1160.291	2471.25
1163.561	2517.36
1166.831	2499.3
1170.101	2528.18
1173.37	2500.36
1176.639	2450.2
1179.907	2501.88
1183.176	2511.83
1186.444	2514.76
1189.711	2544.76
1192.979	2559.15
1196.246	2515.1
1199.513	2531.43
1202.78	2531.91
1206.046	2542.5
1209.312	2565.34
1212.578	2587.68
1215.843	2547.15
1219.108	2519.66
1222.373	2545.48
1225.638	2509.21
1228.902	2498.45
1232.166	2463.57
1235.43	2447.08
1238.693	2468.82
1241.956	2464.96
1245.219	2506.95
1248.482	2495.99
1251.744	2491.46
1255.006	2627.3
1258.268	2579.42
1261.529	2530.17
1264.79	2531.71
1268.051	2632.25
1271.312	2645.43
1274.572	2613.66
1277.832	2601.05
1281.092	2588.96
1284.351	2568.63
1287.61	2550.32
1290.869	2477.12
1294.128	2460.92
1297.386	2532.03
1300.644	2524.29
1303.902	2533.71
1307.159	2401.36
1310.416	2454.9
1313.673	2480.42
1316.93	2469.21
1320.186	2509.17
1323.442	2547.82
1326.697	2539.16
1329.953	2525.91
1333.208	2554.45
1336.463	2534.08
1339.717	2482.17
1342.972	2604.31
1346.226	2576.14
1349.479	2516.05
1352.733	2491.67
1355.986	2508.72
1359.238	2486.12
1362.491	2491.1
1365.743	2491.89
1368.995	2485.3
1372.247	2497.08
1375.498	2519.98
1378.749	2543.19
1382	2501.45
1385.251	2547.82
1388.501	2507.39
1391.751	2495.21
1395	2466.98
1398.25	2496.36
1401.499	2509.43
1404.748	2446.66
1407.996	2431.92
1411.244	2419.43
1414.492	2401.18
1417.74	2379.15
1420.987	2390.69
1424.234	2446.1
1427.481	2420.7
1430.728	2476.39
1433.974	2452.28
1437.22	2462.4
1440.465	2460.98
1443.711	2440.14
1446.956	2466.8
1450.201	2451.35
1453.445	2496.15
1456.689	2473.79
1459.933	2490.09
1463.177	2523.97
1466.42	2497
1469.663	2477.06
1472.906	2476.94
1476.148	2536.31
1479.391	2529.81
1482.633	2501.24
1485.874	2514.44
1489.115	2509.32
1492.356	2504.98
1495.597	2478.26
1498.838	2478.85
1502.078	2454.12
1505.318	2415.34
1508.557	2452.83
1511.797	2443.21
1515.036	2471.92
1518.274	2460.22
1521.513	2425.94
1524.751	2442.84
1527.989	2460.59
1531.227	2475.67
1534.464	2473.97
1537.701	2484.19
1540.938	2499.77
1544.174	2453.76
1547.41	2449.6
1550.646	2484.73
1553.882	2525.65
1557.117	2577.95
1560.352	2591.48
1563.587	2552.01
1566.821	2514.67
1570.055	2543.64
1573.289	2515.76
1576.523	2584.05
1579.756	2592.82
1582.989	2608.29
1586.222	2574.12
1589.454	2607.25
1592.686	2585.24
1595.918	2610.01
1599.15	2599.86
1602.381	2664.61
1605.612	2630.03
1608.843	2727.44
1612.073	2643.05
1615.303	2626.64
1618.533	2622.2
1621.762	2623.44
1624.992	2605.84
1628.221	2599.53
1631.449	2587.02
1634.678	2631.81
1637.906	2591.52
1641.134	2623.96
1644.361	2585.21
1647.588	2574.9
1650.815	2594.79
1654.042	2569.69
1657.269	2597.99
1660.495	2560.32
1663.72	2571.07
1666.946	2536.01
1670.171	2492.9
1673.396	2468.35
1676.621	2454.76
1679.845	2465.25
1683.069	2481.36
1686.293	2516.89
1689.517	2497.18
1692.74	2436.41
1695.963	2462.79
1699.185	2484.48
1702.408	2460.1
1705.63	2496.56
1708.852	2509.36
1712.073	2484.33
1715.294	2478.85
1718.515	2533.49
1721.736	2485.34
1724.956	2472.81
1728.176	2496.54
1731.396	2519.64
1734.616	2505.52
1737.835	2536.56
1741.054	2516.59
1744.272	2508.91
1747.491	2541.23
1750.709	2583.3
1753.927	2505.6
1757.144	2542.29
1760.361	2588.52
1763.578	2576.53
1766.795	2521.04
1770.011	2522.84
1773.227	2555.9
1776.443	2589.48
1779.658	2631.82
1782.874	2576.46
1786.089	2557.5
1789.303	2559.49
1792.518	2563.18
1795.732	2552.42
1798.945	2563.66
1802.159	2610.16
1805.372	2528.55
1808.585	2516.32
1811.797	2520.04
1815.01	2558.11
1818.222	2565.87
1821.434	2545.18
1824.645	2594.93
1827.856	2590.75
1831.067	2623.08
1834.278	2571.67
1837.488	2557.92
1840.698	2694.03
1843.908	2629.61
1847.117	2591.91
1850.326	2495.96
1853.535	2582.87
1856.744	2601.57
1859.952	2520.82
1863.16	2521.62
1866.368	2541.5
1869.575	2646.07
1872.782	2534.24
1875.989	2472.37
1879.196	2540.34
1882.402	2532.45
1885.608	2570.73
1888.814	2487.23
1892.019	2391.71
1895.224	2444.37
1898.429	2423.41
1901.634	2402.68
1904.838	2379.96
1908.042	2429.33
1911.246	2438.74
1914.449	2385.06
1917.652	2378.28
1920.855	2359.48
1924.058	2399.27
1927.26	2439.24
1930.462	2465.95
1933.664	2493.92
1936.865	2436.05
1940.066	2448.9
1943.267	2392.5
1946.467	2408.58
1949.668	2431.12
1952.868	2497.86
1956.067	2481.63
1959.267	2419.2
1962.466	2443.32
1965.665	2427.57
1968.863	2422.25
1972.061	2432.6
1975.259	2426.84
1978.457	2506.59
1981.654	2464.09
1984.852	2466.23
1988.048	2407.74
1991.245	2403.79
1994.441	2485.69
1997.637	2461.71
2000.833	2441.44
2004.028	2478.67
2007.223	2535.5
2010.418	2516.5
2013.613	2475.29
2016.807	2455.46
2020.001	2456.33
2023.194	2491.59
2026.388	2468.54
2029.581	2417.85
2032.774	2471.63
2035.966	2480.34
2039.158	2417.67
2042.35	2440.94
2045.542	2368.45
2048.733	2459.48
2051.924	2470.77
2055.115	2494.19
2058.306	2445.95
2061.496	2504.74
2064.686	2559.99
2067.875	2470.8
2071.065	2481.04
2074.254	2505.32
2077.442	2455.46
2080.631	2544.03
2083.819	2451.69
2087.007	2440.11
2090.195	2415.48
2093.382	2442.52
2096.569	2425.5
2099.756	2385.14
2102.942	2420.1
2106.128	2426.69
2109.314	2417.57
2112.5	2392.68
2115.685	2364.9
2118.87	2373.87
2122.055	2432.9
2125.239	2404.66
2128.424	2386.23
2131.608	2469.52
2134.791	2453.2
2137.974	2501.77
2141.157	2490.83
2144.34	2450.6
2147.523	2458.32
2150.705	2476.55
2153.887	2452.71
2157.068	2413.44
2160.25	2407.66
2163.431	2437.1
2166.611	2394.2
2169.792	2409.05
2172.972	2312.74
2176.152	2377.9
2179.331	2409.3
2182.511	2396.81
2185.69	2424.27
2188.868	2419.9
2192.047	2467.1
2195.225	2469.24
2198.403	2422.4
2201.58	2410.99
2204.758	2404.14
2207.935	2484.58
2211.111	2383.8
2214.288	2369.69
2217.464	2405.84
2220.64	2371.33
2223.815	2424.64
2226.991	2351.2
2230.166	2369.03
2233.34	2400.82
2236.515	2422.09
2239.689	2490.08
2242.863	2433.41
2246.036	2492.07
2249.209	2483.95
2252.382	2514.33
2255.555	2509.24
2258.727	2453.81
2261.9	2488.58
2265.071	2480.93
2268.243	2480.07
2271.414	2420.75
2274.585	2390.61
2277.756	2456.61
2280.926	2409.02
2284.096	2448.28
2287.266	2365.03
2290.436	2416.65
2293.605	2442.32
2296.774	2473.93
2299.942	2484.63
2303.111	2503.49
2306.279	2551.32
2309.447	2538.55
2312.614	2511.43
2315.781	2533.9
2318.948	2508.02
2322.115	2543.16
2325.281	2446.3
2328.447	2459.06
2331.613	2434.75
2334.779	2418.66
2337.944	2415.65
2341.109	2414.16
2344.274	2401.58
2347.438	2368.82
2350.602	2392.04
2353.766	2404.14
2356.929	2392.73
2360.092	2433.37
2363.255	2392.82
2366.418	2340.27
2369.58	2431.89
2372.742	2262.04
2375.904	2268.07
2379.066	2245.97
2382.227	2275.93
2385.388	2240.82
2388.548	2178.07
2391.709	2227.28
2394.869	2208.05
2398.029	2289.47
2401.188	2296.26
2404.347	2241.61
2407.506	2353.64
2410.665	2387.8
2413.823	2386.84
2416.981	2353.84
2420.139	2378.78
2423.296	2423.08
2426.453	2394.2
2429.61	2420.1
2432.767	2368.23
2435.923	2403.83
2439.079	2361.34
2442.235	2405.62
2445.391	2336.81
2448.546	2370.01
2451.701	2415.78
2454.855	2395.59
2458.009	2440.33
2461.163	2438.3
2464.317	2400.35
2467.471	2431.55
2470.624	2465.78
2473.777	2444.57
2476.929	2457.4
2480.082	2481.95
2483.234	2450.03
2486.385	2398.73
2489.537	2390.57
2492.688	2362.22
2495.839	2379.71
2498.989	2392.17
2502.14	2378.54
2505.29	2365.07
2508.439	2390.35
2511.589	2322.21
2514.738	2330.82
2517.887	2356.03
2521.035	2424.23
2524.183	2400.08
2527.331	2383
2530.479	2365.39
2533.627	2372.48
