Data from C_2_HIR_WI_4N_Splice17_12-33-28-169.txt Node
Date: Sat Mar 14 12:33:28 EDT 2020
User: sa697716
Spectrometer: FLMS03696
Trigger mode: 0
Integration Time (sec): 3.180400E-1
Scans to average: 20
Electric dark correction enabled: true
Nonlinearity correction enabled: true
Boxcar width: 5
XAxis mode: Wavelengths
Number of Pixels in Spectrum: 2048
>>>>>Begin Spectral Data<<<<<
187.83	-356769.65
188.298	2609.05
188.766	1408.59
189.233	1276.19
189.701	1814.52
190.169	2468.17
190.636	897.65
191.104	711.64
191.571	103.86
192.039	-90.42
192.506	-49.45
192.974	565.79
193.441	-968.71
193.908	-198.74
194.375	-50.23
194.842	54.02
195.31	99.53
195.777	141.74
196.244	387.21
196.711	468.19
197.177	606.6
197.644	862.24
198.111	1521.35
198.578	2111.25
199.045	1664.5
199.511	2717.69
199.978	3119.04
200.445	2645.48
200.911	2940.52
201.378	3273.11
201.844	2978.57
202.31	5032.57
202.777	5267.92
203.243	2871.1
203.709	2736.05
204.176	3270.04
204.642	2674.54
205.108	2514.94
205.574	2048.4
206.04	1860.04
206.506	1751.13
206.972	1647.95
207.438	1581.83
207.903	1778.85
208.369	1582.14
208.835	1589.54
209.301	1662.28
209.766	1716.04
210.232	1710.62
210.697	2132.51
211.163	2637.83
211.628	3963.1
212.094	3338.73
212.559	4150.61
213.024	2599.46
213.49	3178.05
213.955	3121.16
214.42	3068.95
214.885	2890.5
215.35	2758.14
215.815	2675.68
216.28	2851.09
216.745	2343.12
217.21	2555.69
217.675	2374.44
218.14	2725.31
218.604	3092.49
219.069	3583.02
219.534	3831.99
219.998	4509.05
220.463	5548.54
220.927	6905.82
221.392	6571.06
221.856	6716.26
222.32	8550.28
222.785	10603.29
223.249	13407.64
223.713	15029.79
224.177	15076.28
224.642	19405.11
225.106	23974.39
225.57	26252.08
226.034	19585.96
226.497	29899.87
226.961	27054.34
227.425	31528.17
227.889	35033.64
228.353	35057.21
228.816	72490.95
229.28	69350.03
229.744	58442.28
230.207	35513.78
230.671	34944.31
231.134	57818.11
231.597	66602.33
232.061	66469.08
232.524	64817.09
232.987	44664.14
233.45	40169.84
233.914	35959.75
234.377	36861.46
234.84	33729.41
235.303	39725.8
235.766	44285.82
236.229	45742.86
236.691	28813.73
237.154	32377.91
237.617	24330.39
238.08	24892.39
238.542	29142.37
239.005	20831.98
239.468	20670.16
239.93	19446.45
240.393	17674.03
240.855	15531.39
241.317	15888.54
241.78	19314.69
242.242	19963.01
242.704	21535.6
243.166	18741.36
243.629	16983.26
244.091	19543.84
244.553	21394.44
245.015	22996.7
245.477	29724.81
245.939	43541.49
246.4	46196.19
246.862	44879.62
247.324	42261.34
247.786	47255.05
248.247	61975.78
248.709	64074.38
249.17	47957.41
249.632	45170.75
250.093	52338.43
250.555	45133.47
251.016	27472.08
251.477	26031.89
251.939	28078.95
252.4	29429.16
252.861	34998.38
253.322	32507.91
253.783	38636.55
254.244	50046.89
254.705	39435.04
255.166	35038.42
255.627	34479.78
256.088	48597.23
256.549	51548.96
257.009	44310.59
257.47	53725.02
257.931	43694.09
258.391	32706.39
258.852	33671.88
259.312	35242.71
259.773	43513.78
260.233	36762.96
260.694	30988.15
261.154	35145.8
261.614	28204.12
262.074	25216.12
262.534	26198.14
262.994	24674.39
263.455	32872.38
263.915	27675.68
264.374	26096.1
264.834	28459.44
265.294	31531.78
265.754	32645.51
266.214	30897.57
266.673	28933.75
267.133	36501.88
267.593	36187.96
268.052	44273.89
268.512	38467.02
268.971	46385.55
269.431	50839.04
269.89	45477.03
270.349	68153.13
270.809	75949.01
271.268	68230.53
271.727	152919.38
272.186	98960.41
272.645	74233.82
273.104	53522.31
273.563	77465.19
274.022	60871.52
274.481	51746.55
274.94	39867.15
275.399	29616.35
275.857	34454.63
276.316	46533.75
276.775	41364.17
277.233	40720.63
277.692	38087.41
278.15	43060.39
278.609	44262.07
279.067	40960.8
279.525	37998.91
279.984	49016.41
280.442	58789.9
280.9	57897.82
281.358	38114.81
281.816	35524.69
282.274	34780.47
282.732	35886.3
283.19	36036.95
283.648	31093.17
284.106	33062.11
284.564	33596.15
285.021	31157.86
285.479	23207.03
285.937	21126.8
286.394	18509.51
286.852	19037.18
287.309	19976.16
287.767	19269.23
288.224	18306.49
288.682	20046.92
289.139	21996.51
289.596	20107.52
290.053	20868.06
290.511	26296.38
290.968	31829.54
291.425	43142.31
291.882	35880.31
292.339	31207.23
292.796	30994.97
293.252	29184.2
293.709	23175.17
294.166	20763.01
294.623	22940.16
295.079	21994.89
295.536	22093.09
295.992	20037.02
296.449	19794.27
296.905	20561.15
297.362	19722.14
297.818	20724.57
298.274	21473.49
298.731	21877.43
299.187	21602.03
299.643	23184.73
300.099	27999.87
300.555	30704.91
301.011	25626.27
301.467	24681.99
301.923	28860.81
302.379	28116.72
302.835	27546.02
303.291	27535.17
303.746	31277.02
304.202	39512.29
304.658	39640.77
305.113	26656.66
305.569	26040.37
306.024	27742.99
306.479	26399.75
306.935	22208.94
307.39	24249.29
307.845	22409.04
308.301	22548.8
308.756	21976.09
309.211	21139.99
309.666	21618.1
310.121	26817.02
310.576	27222.82
311.031	26995.29
311.486	30879.97
311.94	30860.68
312.395	41221.62
312.85	77381.37
313.305	379962.85
313.759	1964793.06
314.214	142298.69
314.668	112601.15
315.123	94502.79
315.577	33864.37
316.032	30127.2
316.486	37708.29
316.94	29718.41
317.394	20672.61
317.849	16071.52
318.303	15211.21
318.757	14316.06
319.211	15805.27
319.665	13834.01
320.119	13986.7
320.572	20030.94
321.026	18698.6
321.48	15539.77
321.934	16936.95
322.387	16956.38
322.841	18257.61
323.295	16406.44
323.748	18905.28
324.202	19177.64
324.655	23002.12
325.108	32122.56
325.562	22676.22
326.015	26898.69
326.468	20329.46
326.921	22697.64
327.374	21162.42
327.827	22025.67
328.28	24873.09
328.733	16660
329.186	14652.63
329.639	13932.94
330.092	11754.57
330.545	11205.37
330.997	11299.78
331.45	12347.34
331.903	14459.05
332.355	24846.33
332.808	24166.21
333.26	19932.94
333.713	21620.42
334.165	21734.71
334.617	29026.46
335.069	23393.08
335.522	42268.19
335.974	46773.72
336.426	42619.99
336.878	29469.64
337.33	14941.7
337.782	14547.47
338.234	18209.1
338.686	21736.49
339.137	25719.1
339.589	24212.68
340.041	18985.41
340.493	16278.18
340.944	16665.42
341.396	17954.65
341.847	15119.7
342.299	17808.48
342.75	21748.98
343.201	18996.07
343.653	21838.09
344.104	26853.87
344.555	21114.99
345.006	32868.56
345.457	25180.66
345.908	19981.26
346.359	18796.81
346.81	15283.58
347.261	16093.98
347.712	15803.83
348.163	16918.63
348.613	17147.74
349.064	15972.54
349.515	13962.66
349.965	14290.02
350.416	17205.22
350.866	18862.07
351.317	21337.49
351.767	35288.05
352.217	44548.99
352.668	36987.08
353.118	33828.42
353.568	32530.76
354.018	25738.21
354.468	27185.32
354.918	19465.53
355.368	17017.27
355.818	24039.84
356.268	69086.98
356.718	289397.26
357.168	71962.36
357.617	36073.94
358.067	40154.84
358.517	37611.4
358.966	44098.45
359.416	49403.15
359.865	53444.55
360.315	63447.92
360.764	29623.68
361.213	16582.82
361.663	15702.1
362.112	19366.87
362.561	31302.74
363.01	23598.1
363.459	19875.22
363.908	21486.15
364.357	18265.86
364.806	30847.69
365.255	21241.48
365.703	19457.35
366.152	19437.68
366.601	15749.13
367.05	12780.41
367.498	11595.01
367.947	12113.4
368.395	12570.14
368.844	11127.57
369.292	13376.83
369.74	9216.02
370.189	14090.3
370.637	16452.17
371.085	14198.35
371.533	17282.39
371.981	16661.23
372.429	15899.66
372.877	16556.35
373.325	13852.81
373.773	14082.32
374.221	12511.04
374.669	15525.24
375.116	13425.29
375.564	13529.93
376.012	15128.83
376.459	12454.44
376.907	14862.38
377.354	17931.95
377.801	16678.76
378.249	19161.94
378.696	24500.04
379.143	29681.75
379.591	31647.33
380.038	53533.77
380.485	38749.64
380.932	41776.21
381.379	38265.45
381.826	28219.58
382.273	20100.73
382.72	17597.16
383.166	17176.9
383.613	11143.04
384.06	10043.71
384.506	11617.2
384.953	8523.09
385.4	8571.65
385.846	7515.56
386.292	7319.95
386.739	7158.17
387.185	7080.55
387.631	7079.85
388.078	6883.63
388.524	7378.45
388.97	6832.85
389.416	5715.1
389.862	6094.62
390.308	5786.71
390.754	5888.19
391.2	6412.49
391.645	6583.31
392.091	6314.96
392.537	6134.33
392.983	6160.46
393.428	6087.27
393.874	6541.46
394.319	6586.47
394.765	6268.33
395.21	6458.57
395.655	6076.88
396.101	5695.16
396.546	5152.27
396.991	5203.26
397.436	4849.11
397.881	4690.24
398.326	4442.46
398.771	4210.48
399.216	3680.64
399.661	3319.55
400.106	3318.07
400.551	3408
400.995	3063.57
401.44	3036.06
401.885	2860.01
402.329	2892.11
402.774	2779.55
403.218	2698.94
403.663	2603.9
404.107	2687.39
404.551	2709.15
404.995	2482.3
405.44	2391.25
405.884	2429.75
406.328	2356.18
406.772	2347.48
407.216	2136.79
407.66	2067.14
408.104	1956.23
408.547	1828.23
408.991	1765.78
409.435	1699.04
409.879	1678.05
410.322	1655.66
410.766	1599.67
411.209	1518.11
411.653	1458.38
412.096	1430.64
412.54	1430.05
412.983	1422.17
413.426	1431.8
413.869	1431.68
414.312	1405.74
414.756	1355.16
415.199	1291.58
415.642	1255.33
416.085	1257.31
416.527	1248.79
416.97	1265.17
417.413	1200.97
417.856	1188.67
418.298	1172.26
418.741	1164.5
419.184	1162.48
419.626	1211.09
420.069	1214.28
420.511	1220.83
420.953	1196.92
421.396	1186.99
421.838	1159.74
422.28	1185.68
422.722	1194.93
423.164	1214.71
423.606	1195.15
424.048	1191.69
424.49	1131.02
424.932	1123.91
425.374	1107.32
425.816	1122.43
426.258	1142.75
426.699	1152.9
427.141	1134.03
427.582	1149.57
428.024	1143.55
428.465	1132.57
428.907	1101.89
429.348	1085.38
429.789	1085.35
430.231	1059.92
430.672	1074.74
431.113	1046.65
431.554	1030.16
431.995	1003.61
432.436	967.04
432.877	943.1
433.318	927.4
433.759	923.96
434.2	926.44
434.64	914.45
435.081	919.33
435.522	871.76
435.962	841.75
436.403	822.79
436.843	835.41
437.284	816.54
437.724	794.52
438.164	795.9
438.604	778.79
439.045	750.17
439.485	719.71
439.925	704.03
440.365	686.03
440.805	676.35
441.245	669.72
441.685	644.09
442.125	638.69
442.564	643.64
443.004	629.92
443.444	628.98
443.883	630.78
444.323	626.34
444.762	628.13
445.202	636.57
445.641	648.73
446.081	643.93
446.52	650.86
446.959	646.84
447.398	632.12
447.837	625.88
448.276	616.71
448.716	622.74
449.154	629.15
449.593	616.36
450.032	615.29
450.471	604.19
450.91	606.26
451.349	607.05
451.787	606.11
452.226	615.69
452.664	615.88
453.103	618.25
453.541	616.94
453.98	616.18
454.418	620.65
454.856	612.79
455.295	611.93
455.733	617.2
456.171	620.38
456.609	621.99
457.047	622.71
457.485	633.43
457.923	634.34
458.361	627.25
458.798	631.21
459.236	629.32
459.674	633.39
460.111	637.54
460.549	632.31
460.987	629.34
461.424	625.63
461.862	622.07
462.299	611.53
462.736	609.83
463.173	611.29
463.611	604.13
464.048	602.64
464.485	607.91
464.922	601.77
465.359	596.86
465.796	591.68
466.233	588.16
466.67	584.1
467.106	583.71
467.543	577.91
467.98	571.03
468.416	556.39
468.853	552.18
469.29	535.43
469.726	530.16
470.162	516.83
470.599	507.3
471.035	502.18
471.471	489.65
471.907	485.97
472.344	483.56
472.78	484.39
473.216	489.86
473.652	483.95
474.088	480.84
474.523	478.81
474.959	483.1
475.395	479.4
475.831	476.27
476.266	478.2
476.702	476.82
477.138	470.98
477.573	469.51
478.008	467.56
478.444	469.95
478.879	476.3
479.314	478.53
479.75	478.39
480.185	480.94
480.62	485.29
481.055	487.77
481.49	491.81
481.925	499.57
482.36	509.45
482.795	523.71
483.229	537.29
483.664	548.93
484.099	551.57
484.534	560.92
484.968	567.42
485.403	569.59
485.837	569.54
486.271	569.82
486.706	571.12
487.14	564.81
487.574	557.16
488.009	552.53
488.443	547.81
488.877	554.75
489.311	557.28
489.745	563.92
490.179	571.12
490.613	583.93
491.046	589.65
491.48	595.24
491.914	597.3
492.348	603
492.781	609.63
493.215	613.29
493.648	616.62
494.082	623.63
494.515	626.39
494.948	635.15
495.382	641.52
495.815	648.82
496.248	656.9
496.681	671.12
497.114	685.05
497.547	696.89
497.98	712.51
498.413	721.41
498.846	733.35
499.279	744.85
499.711	752.85
500.144	757.97
500.577	771.07
501.009	785.31
501.442	800.01
501.874	806.18
502.306	811.89
502.739	823.32
503.171	841
503.603	848.69
504.036	862.73
504.468	872.52
504.9	889.01
505.332	899.9
505.764	908.73
506.196	919.3
506.627	937.56
507.059	956.48
507.491	970.13
507.923	972.99
508.354	992.84
508.786	1007.94
509.217	1031.32
509.649	1050.84
510.08	1075.82
510.512	1097.82
510.943	1118.28
511.374	1133.82
511.805	1158.18
512.237	1182.56
512.668	1221.43
513.099	1254.37
513.53	1287.66
513.961	1312.42
514.391	1349.46
514.822	1387
515.253	1427.86
515.684	1457.5
516.114	1491.76
516.545	1516.87
516.975	1547.14
517.406	1568.71
517.836	1572.1
518.267	1580.74
518.697	1602.12
519.127	1608.43
519.558	1618.19
519.988	1623.14
520.418	1634.73
520.848	1655.3
521.278	1665.79
521.708	1684.4
522.138	1698.07
522.567	1733.62
522.997	1761.18
523.427	1777.82
523.857	1796.23
524.286	1807.73
524.716	1825.37
525.145	1847.36
525.575	1859.42
526.004	1875.41
526.433	1868.1
526.863	1869.15
527.292	1857.82
527.721	1864.2
528.15	1870.53
528.579	1872.11
529.008	1883.66
529.437	1908.15
529.866	1922.24
530.295	1941.31
530.724	1954.45
531.152	1985.25
531.581	2000.29
532.01	2018.91
532.438	2028.23
532.867	2045.14
533.295	2064.7
533.723	2071.57
534.152	2069.71
534.58	2069.9
535.008	2052.28
535.436	2055.34
535.865	2064.86
536.293	2080.04
536.721	2099.3
537.149	2127.71
537.576	2130.39
538.004	2144.23
538.432	2152.72
538.86	2148.9
539.287	2156.31
539.715	2171.74
540.143	2174.4
540.57	2167.9
540.998	2163.78
541.425	2136.53
541.852	2112.17
542.28	2110.06
542.707	2092.51
543.134	2076.3
543.561	2073.11
543.988	2065.33
544.415	2065.1
544.842	2059.27
545.269	2050.9
545.696	2053.17
546.123	2067.12
546.549	2054.95
546.976	2040.44
547.403	2039.18
547.829	2041.86
548.256	2043.93
548.682	2038.73
549.108	2028.28
549.535	2027.4
549.961	2030.84
550.387	2016.31
550.813	2010.06
551.24	2018.38
551.666	2018.87
552.092	2008.19
552.518	2000.18
552.943	1992.19
553.369	2001.03
553.795	2007.3
554.221	2007.88
554.646	2004.39
555.072	2015.46
555.498	2021.72
555.923	2030.78
556.349	2047.75
556.774	2056.58
557.199	2058.89
557.625	2065.59
558.05	2058.78
558.475	2071.49
558.9	2069.86
559.325	2060.98
559.75	2056.19
560.175	2049.25
560.6	2042.47
561.025	2040.81
561.449	2043.63
561.874	2049.48
562.299	2055.12
562.723	2064.11
563.148	2053.28
563.572	2058.45
563.997	2069.81
564.421	2075.34
564.846	2076.39
565.27	2082
565.694	2080.56
566.118	2093.38
566.542	2102.81
566.966	2096.29
567.39	2091.2
567.814	2078.67
568.238	2079.47
568.662	2086.14
569.086	2089.25
569.509	2098.29
569.933	2080.33
570.357	2072.62
570.78	2049.06
571.204	2034.54
571.627	2023.04
572.05	2020.62
572.474	2021.25
572.897	2006.73
573.32	1997.26
573.743	1985.91
574.166	1964.71
574.589	1965.64
575.012	1956.39
575.435	1955.7
575.858	1944.48
576.281	1932.29
576.704	1915.02
577.126	1900.79
577.549	1888.33
577.972	1877.43
578.394	1866.15
578.817	1857.4
579.239	1835.38
579.661	1819.6
580.084	1801.9
580.506	1786.35
580.928	1780.72
581.35	1768.48
581.772	1762.95
582.194	1747.86
582.616	1733.71
583.038	1717
583.46	1706.52
583.882	1702.98
584.303	1707.99
584.725	1702.55
585.147	1704.83
585.568	1717.52
585.99	1731.31
586.411	1739.01
586.833	1755.6
587.254	1757.29
587.675	1773.99
588.096	1787.83
588.518	1782.03
588.939	1762.32
589.36	1759.7
589.781	1749.35
590.202	1715.9
590.623	1705.57
591.043	1703.36
591.464	1689.53
591.885	1685.85
592.305	1679.03
592.726	1664.56
593.147	1665.9
593.567	1660.47
593.987	1652.55
594.408	1647.56
594.828	1646.84
595.248	1639.85
595.669	1618.83
596.089	1610.36
596.509	1602.65
596.929	1587.69
597.349	1586.72
597.769	1574.47
598.189	1568.06
598.608	1569.59
599.028	1570.52
599.448	1569.61
599.867	1555.63
600.287	1549.7
600.706	1543.96
601.126	1532.66
601.545	1530.82
601.965	1529.31
602.384	1524.09
602.803	1526.78
603.222	1520.39
603.641	1513.31
604.061	1508.66
604.48	1503.27
604.898	1513.34
605.317	1518.86
605.736	1521.29
606.155	1517.27
606.574	1506.74
606.992	1512.32
607.411	1505.53
607.829	1496.54
608.248	1491.77
608.666	1488.25
609.085	1487.25
609.503	1476.72
609.921	1469.17
610.339	1470.11
610.758	1469.45
611.176	1463.71
611.594	1452.64
612.012	1448.36
612.43	1451.1
612.847	1456.91
613.265	1457.59
613.683	1460.16
614.101	1460.51
614.518	1455.92
614.936	1443.16
615.353	1425.85
615.771	1421.67
616.188	1420.27
616.606	1414.83
617.023	1405.93
617.44	1389.75
617.857	1381.75
618.274	1372.73
618.691	1364.96
619.108	1353.92
619.525	1347.22
619.942	1353.83
620.359	1354.69
620.776	1349.02
621.192	1344.63
621.609	1341.64
622.026	1348.89
622.442	1355.06
622.859	1357.91
623.275	1350.78
623.691	1356.26
624.108	1367.83
624.524	1382.14
624.94	1382.77
625.356	1393.41
625.772	1408.13
626.188	1420.19
626.604	1421.32
627.02	1416.34
627.436	1414.82
627.852	1421.37
628.268	1435.49
628.683	1426.62
629.099	1417.73
629.514	1413.01
629.93	1416.23
630.345	1419.84
630.761	1414.93
631.176	1418.66
631.591	1412.35
632.007	1405.25
632.422	1402.58
632.837	1388.9
633.252	1384.99
633.667	1372.83
634.082	1361.71
634.497	1346.79
634.911	1324.54
635.326	1320.33
635.741	1301.12
636.155	1288.94
636.57	1288.88
636.984	1287.3
637.399	1287.29
637.813	1285.74
638.228	1282.82
638.642	1285.41
639.056	1274.03
639.47	1273.84
639.884	1263.28
640.298	1253.93
640.712	1250.31
641.126	1234.89
641.54	1223.44
641.954	1216.02
642.368	1201.48
642.781	1191.6
643.195	1171.68
643.609	1169.46
644.022	1159.89
644.436	1152.81
644.849	1137.57
645.262	1122.68
645.676	1122.79
646.089	1114.91
646.502	1096.96
646.915	1088.7
647.328	1068.22
647.741	1062.39
648.154	1046.29
648.567	1040.51
648.98	1024.4
649.393	1023.16
649.805	1017.74
650.218	1007.36
650.631	989.21
651.043	980.92
651.456	972.23
651.868	970.32
652.28	984.74
652.693	995.94
653.105	1000.55
653.517	1007.77
653.929	1005.46
654.341	1008.48
654.753	993.44
655.165	995.46
655.577	989.45
655.989	983.08
656.401	971.52
656.813	934.66
657.224	912.37
657.636	881.29
658.047	861.19
658.459	838.77
658.87	826.95
659.282	812.31
659.693	790.93
660.104	773.02
660.515	755.37
660.926	751.61
661.338	744.03
661.749	733.44
662.159	721.5
662.57	712.97
662.981	705.14
663.392	692.58
663.803	691.89
664.213	685.43
664.624	678.64
665.035	676.65
665.445	660.19
665.855	650.79
666.266	640.02
666.676	634.52
667.086	623.21
667.497	619.69
667.907	612.79
668.317	602.76
668.727	598.81
669.137	596.63
669.547	592.53
669.956	592.31
670.366	591.97
670.776	593.2
671.186	594.86
671.595	595.71
672.005	595.87
672.414	594.35
672.824	591.18
673.233	591.64
673.642	593
674.052	595.29
674.461	597.56
674.87	600.79
675.279	598.33
675.688	598.6
676.097	600.81
676.506	599.32
676.915	610.66
677.323	613.41
677.732	612.89
678.141	612.51
678.549	605.21
678.958	605.25
679.366	605.36
679.775	609.93
680.183	620.97
680.592	627.88
681	633.7
681.408	631.02
681.816	641.29
682.224	651.67
682.632	665.01
683.04	694.42
683.448	719.54
683.856	750.88
684.264	788.23
684.671	822.16
685.079	864.12
685.487	912.39
685.894	976.33
686.302	1029.89
686.709	1079.58
687.116	1136.03
687.524	1185.85
687.931	1230.14
688.338	1271.86
688.745	1306.92
689.152	1347.32
689.559	1399.6
689.966	1450.96
690.373	1481.09
690.78	1531.01
691.187	1600.47
691.593	1655.8
692	1702.69
692.407	1771.76
692.813	1853.84
693.22	1920.38
693.626	1988.31
694.032	2042.85
694.439	2124.38
694.845	2188.83
695.251	2269.22
695.657	2341.59
696.063	2444.01
696.469	2521.93
696.875	2594.05
697.281	2634.25
697.687	2684.17
698.093	2723.76
698.498	2802.86
698.904	2862.03
699.31	2953.86
699.715	3018.06
700.12	3112.43
700.526	3131.67
700.931	3204.69
701.337	3256.93
701.742	3290.93
702.147	3377.33
702.552	3410.99
702.957	3472.69
703.362	3493.87
703.767	3521.55
704.172	3559.65
704.577	3507.21
704.981	3554.24
705.386	3569.17
705.791	3559.31
706.195	3635.34
706.6	3643.1
707.004	3721.04
707.408	3684.25
707.813	3710.87
708.217	3694.43
708.621	3695.92
709.025	3797.66
709.43	3797.84
709.834	3858.14
710.237	3928.33
710.641	3912.2
711.045	3933.64
711.449	3928.39
711.853	3958.75
712.256	4000.59
712.66	4038.24
713.064	4116.14
713.467	4156.67
713.87	4271.99
714.274	4318.29
714.677	4430.8
715.08	4597.32
715.484	4769.61
715.887	4979.98
716.29	5184.27
716.693	5398.34
717.096	5647.88
717.499	5781.95
717.901	5805.27
718.304	5827.26
718.707	5850.74
719.109	5743.66
719.512	5707.1
719.915	5567.36
720.317	5502.65
720.719	5547.46
721.122	5510.93
721.524	5457.04
721.926	5410.59
722.328	5509.83
722.731	5499.33
723.133	5526.77
723.535	5722.49
723.937	5740.83
724.338	5790.13
724.74	5830.89
725.142	5762.05
725.544	5758.27
725.945	5780.96
726.347	5775.47
726.748	5766.94
727.15	5778.26
727.551	5735.67
727.952	5702.92
728.354	5670.8
728.755	5668.22
729.156	5623.35
729.557	5604.87
729.958	5479.45
730.359	5420.43
730.76	5397.85
731.161	5336.73
731.562	5310.32
731.962	5315.82
732.363	5251.1
732.763	5187.42
733.164	5223.66
733.564	5153.41
733.965	5056.88
734.365	5019.18
734.766	5048.36
735.166	5009.52
735.566	4951.35
735.966	4925.3
736.366	4916.41
736.766	4852.78
737.166	4880.47
737.566	4839.28
737.966	4813.49
738.365	4854.23
738.765	4850.15
739.165	4774.07
739.564	4747.4
739.964	4797.66
740.363	4751.03
740.763	4747.72
741.162	4735.87
741.561	4707.38
741.96	4657.65
742.36	4678.04
742.759	4681.46
743.158	4723
743.557	4737.66
743.955	4775.12
744.354	4725.02
744.753	4782.33
745.152	4742.47
745.55	4796.82
745.949	4785.43
746.348	4786.85
746.746	4804.25
747.144	4764.48
747.543	4737.57
747.941	4785.73
748.339	4716.79
748.737	4708.04
749.136	4697.59
749.534	4759.76
749.932	4732.99
750.33	4756.77
750.727	4815.68
751.125	4789.37
751.523	4771.18
751.921	4814.65
752.318	4780.64
752.716	4839.69
753.113	4851.99
753.511	4877.08
753.908	4877.22
754.305	4857.11
754.703	4918.89
755.1	4977.1
755.497	5037.18
755.894	5229.36
756.291	5408.95
756.688	5742.75
757.085	6183.09
757.482	6803.54
757.878	7483.4
758.275	8101.33
758.672	8953.61
759.068	9646.15
759.465	10632.67
759.861	11902.09
760.258	13378.52
760.654	14143.29
761.05	14021.29
761.447	13375.44
761.843	12454.98
762.239	11504.28
762.635	11069.2
763.031	10654.85
763.427	10053.64
763.822	9422.1
764.218	8802.1
764.614	7998.13
765.01	7459.69
765.405	7113.97
765.801	6853.13
766.196	6517.46
766.592	6327.57
766.987	6012.28
767.382	5794.89
767.778	5706.52
768.173	5576.7
768.568	5503.8
768.963	5378.2
769.358	5395.1
769.753	5346.14
770.148	5262.01
770.542	5258.78
770.937	5226.88
771.332	5314.87
771.726	5333.41
772.121	5271.89
772.515	5324.98
772.91	5310.35
773.304	5381.56
773.699	5318.01
774.093	5372.3
774.487	5427.59
774.881	5470.53
775.275	5467.01
775.669	5426.22
776.063	5467.79
776.457	5500.95
776.851	5425.79
777.245	5418.62
777.638	5451.35
778.032	5564.49
778.425	5526.88
778.819	5568.39
779.212	5530.51
779.606	5487.23
779.999	5504.98
780.392	5490.29
780.786	5569.91
781.179	5593.61
781.572	5634.31
781.965	5643.24
782.358	5585.43
782.751	5642.78
783.143	5596.07
783.536	5666.63
783.929	5710.83
784.322	5826.22
784.714	5857.38
785.107	5855.65
785.499	5926.43
785.891	5906.79
786.284	5889.09
786.676	6029.62
787.068	6010.79
787.46	6062.52
787.852	6084.7
788.245	6171.41
788.636	6200.95
789.028	6270.23
789.42	6311.81
789.812	6322.21
790.204	6418.21
790.595	6517.71
790.987	6322.69
791.378	6346.28
791.77	6476.21
792.161	6609.93
792.553	6667.45
792.944	6556.84
793.335	6488.95
793.726	6561.14
794.117	6649.51
794.508	6784.39
794.899	6754.12
795.29	6894.11
795.681	6952.51
796.072	6808.82
796.463	6624.28
796.853	6633
797.244	6792.98
797.634	6827.41
798.025	6824.93
798.415	6836.32
798.806	6927.52
799.196	7015.86
799.586	7064.07
799.976	7024.91
800.366	7255.04
800.756	7497.76
801.146	7454.05
801.536	7482.94
801.926	7551.93
802.316	7579.8
802.706	7647.57
803.095	7524.06
803.485	7623.87
803.874	7671.24
804.264	7933.33
804.653	7911.01
805.043	8054.97
805.432	8167.51
805.821	8166.23
806.21	8192.13
806.599	8307.62
806.988	8360.14
807.377	8467.22
807.766	8597.33
808.155	8879.4
808.544	8610.75
808.933	8625.09
809.321	8604.3
809.71	8901.3
810.098	9059.38
810.487	9521.42
810.875	10007.67
811.264	10030.33
811.652	10323.87
812.04	10471.07
812.428	10632.67
812.816	11400.69
813.204	11816.08
813.592	12372.38
813.98	12711.33
814.368	12620.4
814.756	13106.12
815.144	13026.04
815.531	13496.31
815.919	13415.65
816.306	13718.96
816.694	13416.76
817.081	13475.59
817.469	13825.19
817.856	13820.04
818.243	14089.37
818.63	14480.7
819.017	14052.61
819.404	14115.83
819.791	14491.5
820.178	15110.58
820.565	15368.12
820.952	16301.67
821.339	15797.67
821.725	15985.74
822.112	15240.51
822.498	15200.49
822.885	15335.36
823.271	15247.02
823.657	15671.9
824.044	15685.45
824.43	15764.9
824.816	15734.28
825.202	15294.52
825.588	16326.58
825.974	16341.51
826.36	16866.07
826.746	16902.29
827.132	17256.9
827.517	17225.6
827.903	16435.69
828.289	16465.92
828.674	15685.53
829.06	15581.82
829.445	15976.59
829.83	16327.09
830.216	16808.96
830.601	17164.14
830.986	16751.03
831.371	16615.14
831.756	17174.86
832.141	16738.56
832.526	16735.93
832.911	17026.39
833.295	16904.26
833.68	17384.47
834.065	16772.63
834.449	15853.83
834.834	15783.42
835.218	15787.41
835.603	16132.76
835.987	15921.74
836.371	16765.9
836.755	16666.21
837.139	17061.14
837.524	17306.38
837.908	17122.02
838.291	17176.99
838.675	17239.8
839.059	17449.02
839.443	17432.14
839.827	17199.85
840.21	17683.68
840.594	17529.04
840.977	17737.52
841.361	17711.94
841.744	18089.61
842.127	17930.89
842.511	18184.16
842.894	18794.38
843.277	19180.14
843.66	19722.83
844.043	19805.98
844.426	18994.13
844.809	18681.38
845.191	18706.75
845.574	18240.94
845.957	17873.41
846.339	17770.5
846.722	17238.5
847.104	17296.05
847.487	17125.28
847.869	17133.2
848.252	17405.78
848.634	17742.69
849.016	18006.16
849.398	18137.9
849.78	18997.4
850.162	18997.6
850.544	19417.76
850.926	20045.12
851.307	19961.26
851.689	20235.98
852.071	20688.4
852.452	21014.62
852.834	20984.04
853.215	21376.16
853.597	21518.95
853.978	21817.17
854.359	22276.21
854.741	21277.33
855.122	21174.63
855.503	20890.26
855.884	21025.06
856.265	20975.68
856.646	21097.16
857.026	20705.26
857.407	20639
857.788	20813.94
858.169	21092.43
858.549	20245.34
858.93	20867.26
859.31	20922.16
859.69	21121.24
860.071	20720.96
860.451	20494.95
860.831	19748.72
861.211	20915.24
861.591	21463.6
861.971	21423.7
862.351	21622.29
862.731	22001.31
863.111	22262.52
863.491	22586.83
863.87	23467.67
864.25	23806.98
864.629	23408.45
865.009	23931.71
865.388	24772.69
865.768	26554.08
866.147	26456.16
866.526	24984.67
866.905	25295
867.284	26715.71
867.663	25367.66
868.042	24317.45
868.421	24246.17
868.8	24655.87
869.179	24883.57
869.558	23437.91
869.936	21600.88
870.315	21981.07
870.693	22523.19
871.072	24283.75
871.45	23133.5
871.828	23432.1
872.207	24628.2
872.585	24254.61
872.963	24903.61
873.341	24059.16
873.719	23777.25
874.097	23498.18
874.475	23949.34
874.853	24501.51
875.23	23492.05
875.608	24480.72
875.986	26478.37
876.363	25325.52
876.741	26119.02
877.118	25475.12
877.495	26732.07
877.873	27167.61
878.25	28595.94
878.627	27434.35
879.004	27819.74
879.381	27678.85
879.758	26939.31
880.135	25085.67
880.512	26534.09
880.889	25803.66
881.265	25526.71
881.642	25301.16
882.019	25739.7
882.395	25221.61
882.772	26208.8
883.148	25071.76
883.524	24974.63
883.901	24839.03
884.277	25207.98
884.653	25037.22
885.029	25760.63
885.405	28536.52
885.781	28321.34
886.157	27152.69
886.532	27469
886.908	27457.29
887.284	30530.76
887.659	31529.59
888.035	32494.14
888.411	33333.93
888.786	33770.19
889.161	34944.03
889.537	34302.07
889.912	35396.95
890.287	35362.4
890.662	36272.67
891.037	35619.93
891.412	33213.08
891.787	32877.65
892.162	31756.6
892.536	32497.7
892.911	31275.56
893.286	30612.4
893.66	29372.93
894.035	30122.4
894.409	32811.3
894.784	31495.26
895.158	32010.29
895.532	33914.1
895.906	34831.12
896.281	35637
896.655	35063.39
897.029	40079.93
897.402	41743.93
897.776	46467.3
898.15	46297.63
898.524	45792.53
898.898	46415.03
899.271	51968.02
899.645	44988.85
900.018	43217.34
900.392	44798.57
900.765	45184.5
901.138	41826.72
901.511	41188.42
901.884	37806.86
902.258	34891.16
902.631	36042.17
903.003	41470.85
903.376	37425.95
903.749	41978.28
904.122	44941.41
904.495	49496.09
904.867	50098.28
905.24	43487.61
905.612	40478.56
905.985	41412.25
906.357	43282.53
906.729	41313.57
907.102	35287.33
907.474	33941.25
907.846	34150.21
908.218	33696.95
908.59	29782.29
908.962	28797.53
909.334	30997.35
909.705	32570.68
910.077	31630.18
910.449	32924.27
910.82	33848.76
911.192	37232.67
911.563	38683.95
911.935	41411.73
912.306	41471.55
912.677	42810.09
913.048	42395.1
913.419	46011.48
913.79	46252.24
914.161	49577.29
914.532	47384.52
914.903	43543.87
915.274	41378.79
915.645	40764.7
916.015	35863.58
916.386	34191.88
916.756	36393.51
917.127	37541.41
917.497	33530.17
917.868	36525.08
918.238	34717.58
918.608	35724.58
918.978	36455.92
919.348	38594.52
919.718	39868.59
920.088	38413.11
920.458	39903.16
920.828	42000.82
921.198	39815
921.567	42525.27
921.937	32930.64
922.306	33219.07
922.676	35819.77
923.045	29891.69
923.415	28400.24
923.784	25864.59
924.153	26589.32
924.522	26567.73
924.891	24972.63
925.26	26751.75
925.629	26127.85
925.998	30020.5
926.367	29326.31
926.736	27923.91
927.104	33256.43
927.473	35723.56
927.842	43154.13
928.21	42746.83
928.578	44940.51
928.947	42497.02
929.315	42751.03
929.683	50153.61
930.051	50562.19
930.42	58719.18
930.788	50189.71
931.156	49810.34
931.523	46744.77
931.891	43204.86
932.259	41510.06
932.627	48114.39
932.994	68093.26
933.362	56282.18
933.729	48869.63
934.097	46772.99
934.464	39582.68
934.831	45697.63
935.199	45071.78
935.566	43716.77
935.933	44382.21
936.3	53750.97
936.667	41836.98
937.034	37733.09
937.401	37340.95
937.767	32239.48
938.134	28698.31
938.501	40484.89
938.867	43133.43
939.234	72885.5
939.6	62160.07
939.967	68303.53
940.333	45689.97
940.699	38867.5
941.065	31189.19
941.431	40862.28
941.798	39439.28
942.163	51781.59
942.529	32337.9
942.895	29797.17
943.261	19274.75
943.627	25297.72
943.992	22176.74
944.358	22224
944.723	22330.85
945.089	21779.64
945.454	20126.67
945.82	21455.15
946.185	20642.83
946.55	23916.11
946.915	21462.44
947.28	25179.71
947.645	22167.46
948.01	20469.44
948.375	21348.19
948.74	25584.43
949.104	29830.11
949.469	43131.78
949.834	76213.82
950.198	72259.07
950.562	43316
950.927	36049.4
951.291	43357.7
951.655	36901.42
952.02	34632.88
952.384	26191.65
952.748	22813.34
953.112	22260.65
953.476	19351.95
953.839	17900.02
954.203	17701.13
954.567	22141.04
954.931	34880.15
955.294	29870.38
955.658	30067.07
956.021	51114.69
956.385	86658.38
956.748	127901.81
957.111	198298.94
957.474	222693.23
957.837	250921.36
958.2	190044.49
958.563	68418.75
958.926	46262.72
959.289	70218.11
959.652	78536.05
960.015	58973.97
960.377	84664.22
960.74	96569.61
961.102	166896.99
961.465	179007.58
961.827	95853.43
962.189	183953.36
962.552	127347.18
962.914	102108.5
963.276	66226.39
963.638	54670.95
964	54120.44
964.362	36587.05
964.724	35337.67
965.085	25196.23
965.447	20660.88
965.809	23553.8
966.17	23587.36
966.532	25535.69
966.893	23446.55
967.255	21320.46
967.616	25181.27
967.977	20168.35
968.338	22027.54
968.699	18126
969.061	18101.41
969.421	18233.09
969.782	20478.31
970.143	17284.31
970.504	17910.47
970.865	20338.6
971.225	20795.33
971.586	20339.82
971.946	28984.02
972.307	25147.93
972.667	32872.21
973.027	33920.73
973.388	41136.52
973.748	27946.11
974.108	30455.87
974.468	41250.8
974.828	31817.72
975.188	24499.47
975.548	22525.87
975.907	18930.3
976.267	21234.58
976.627	17850.77
976.986	18477.18
977.346	17611.38
977.705	16940.78
978.064	15436.21
978.424	12819.22
978.783	13256.21
979.142	15139.78
979.501	14477.33
979.86	15294.31
980.219	14738.94
980.578	19016.77
980.937	21302.61
981.296	18991.47
981.654	19535.21
982.013	30363.61
982.371	39417.67
982.73	36794.41
983.088	41674.24
983.447	44517.52
983.805	63641.7
984.163	132956.15
984.521	147583.19
984.879	216360.14
985.237	-352138.38
985.595	339574.32
985.953	84413.12
986.311	48779.03
986.669	28357.99
987.026	24472.67
987.384	32907.5
987.741	33982.11
988.099	24296.47
988.456	19353.92
988.814	18129.72
989.171	15740.12
989.528	15538.37
989.885	16426.26
990.242	13016.03
990.599	16219.47
990.956	13268.15
991.313	9267.01
991.67	7620.55
992.027	8083.13
992.383	7187.5
992.74	6303.23
993.096	6624.3
993.453	6861.08
993.809	7104.37
994.165	9460.58
994.522	8656.69
994.878	9540.1
995.234	11980.2
995.59	11807.03
995.946	11178.6
996.302	12742.61
996.658	14737.28
997.013	16213.14
997.369	19253.62
997.725	24648.69
998.08	15936.29
998.436	24576.77
998.791	33931.74
999.147	33850.26
999.502	36906.82
999.857	26793.17
1000.212	43688.71
1000.567	62113.47
1000.922	35868.18
1001.277	22792.73
1001.632	16909.83
1001.987	21784.32
1002.342	15616.93
1002.696	12464.65
1003.051	9956.03
1003.406	12079.38
1003.76	12044.65
1004.114	11850.66
1004.469	9973.92
1004.823	8265.01
1005.177	8902.26
1005.531	7050.09
1005.885	6261.65
1006.239	7076.77
1006.593	8894.9
1006.947	11925.23
1007.301	8950.67
1007.655	9764.49
1008.008	7171.88
1008.362	8045.31
1008.715	11453
1009.069	10418.27
1009.422	15721.67
1009.776	31550.55
1010.129	20948.41
1010.482	17487.31
1010.835	14769.37
1011.188	30676.7
1011.541	28784.3
1011.894	-176026.76
1012.247	519423.07
1012.6	35368.55
1012.952	22297.7
1013.305	11492.57
1013.657	8293.73
1014.01	7859.92
1014.362	6487.56
1014.715	5773.14
1015.067	5038.63
1015.419	4937.45
1015.771	4383.98
1016.123	3889.61
1016.475	3991.16
1016.827	4262.77
1017.179	4577.05
1017.531	4599.96
1017.883	4696.63
1018.234	4547.58
1018.586	5727.48
1018.938	6057.73
1019.289	8348.2
1019.64	9546.81
1019.992	8902.74
1020.343	8161.43
1020.694	6423.93
1021.045	5663.11
1021.396	6504.85
1021.747	7004.09
1022.098	8376.82
1022.449	6068.2
1022.8	5635.85
1023.151	3931.18
1023.501	3485.22
1023.852	3794.18
1024.202	3941.38
1024.553	4343.82
1024.903	4275.32
1025.253	3638.01
1025.604	3255.12
1025.954	4041.69
1026.304	4935.08
1026.654	5748.09
1027.004	8421.98
1027.354	13573.28
1027.703	12786.42
1028.053	16825.36
1028.403	24466.29
1028.753	35223.95
1029.102	47964.38
1029.452	246482.51
1029.801	10608.38
1030.15	6852.11
1030.499	5799.2
897.758	2764.71
901.051	2729.82
904.343	2768.64
907.636	2767.99
910.928	2832.18
914.22	2742.32
917.511	2751.92
920.803	2820.4
924.094	2842.74
927.384	2818.97
930.675	2784.76
933.965	2736.62
937.255	2742.57
940.544	2708.67
943.834	2634.4
947.123	2581.95
950.411	2677.83
953.7	2649.75
956.988	2611.34
960.276	2555.69
963.563	2641.03
966.851	2633.3
970.138	2696.46
973.424	2685.17
976.711	2634.42
979.997	2788.17
983.283	2818.63
986.568	2716.77
989.853	2741.17
993.138	2769.03
996.423	2847.58
999.708	2781.88
1002.992	2857.83
1006.275	2673.89
1009.559	2730.01
1012.842	2846.78
1016.125	2775.01
1019.408	2755.7
1022.69	2849.34
1025.972	2863.99
1029.254	2837.09
1032.536	2763.87
1035.817	2796.63
1039.098	2728.73
1042.379	2896.32
1045.659	2887.75
1048.939	2819.18
1052.219	2841
1055.498	2855.72
1058.778	2838.32
1062.057	2825.49
1065.335	2848.4
1068.614	2867.82
1071.892	2844.93
1075.17	2925.4
1078.447	2914.3
1081.724	2901.41
1085.001	2942.52
1088.278	2914.12
1091.554	2930.84
1094.83	2927.78
1098.106	2952.17
1101.382	2998.71
1104.657	3001.47
1107.932	2995.42
1111.206	2961.44
1114.481	2914.43
1117.755	2922
1121.029	2894.57
1124.302	2949.89
1127.575	2893.03
1130.848	2878.92
1134.121	2838.84
1137.393	2785.29
1140.665	2854.97
1143.937	2830.7
1147.208	2790.79
1150.48	2827.43
1153.75	2810.01
1157.021	2851.55
1160.291	2818.45
1163.561	2864.79
1166.831	2859.11
1170.101	2890.84
1173.37	2870.07
1176.639	2809.68
1179.907	2875.44
1183.176	2878.19
1186.444	2883.83
1189.711	2915.68
1192.979	2923.45
1196.246	2880.08
1199.513	2901.04
1202.78	2897.69
1206.046	2906.49
1209.312	2932.67
1212.578	2958.7
1215.843	2904.62
1219.108	2883.65
1222.373	2908.5
1225.638	2868.71
1228.902	2850.68
1232.166	2815.51
1235.43	2796.21
1238.693	2820.75
1241.956	2819.07
1245.219	2855.38
1248.482	2849.61
1251.744	2843.16
1255.006	3000.68
1258.268	2957.42
1261.529	2897.47
1264.79	2907.04
1268.051	3016.71
1271.312	3033.39
1274.572	2989.97
1277.832	2982.03
1281.092	2975.86
1284.351	2945.34
1287.61	2924.07
1290.869	2830.37
1294.128	2801.52
1297.386	2901.27
1300.644	2886.11
1303.902	2898.62
1307.159	2754.21
1310.416	2814.07
1313.673	2835.98
1316.93	2818.04
1320.186	2867.96
1323.442	2913.25
1326.697	2899.26
1329.953	2895.39
1333.208	2915.54
1336.463	2900.56
1339.717	2832.74
1342.972	2975.48
1346.226	2954.36
1349.479	2882.34
1352.733	2850.09
1355.986	2879.09
1359.238	2852.23
1362.491	2851.7
1365.743	2858.05
1368.995	2856.53
1372.247	2868.38
1375.498	2894.79
1378.749	2901.68
1382	2856.46
1385.251	2916.68
1388.501	2877.97
1391.751	2858.3
1395	2831.18
1398.25	2868.25
1401.499	2870.53
1404.748	2786.8
1407.996	2782.94
1411.244	2765.76
1414.492	2746.95
1417.74	2722.31
1420.987	2732.12
1424.234	2791.21
1427.481	2770.48
1430.728	2833.17
1433.974	2805.19
1437.22	2824.73
1440.465	2829.65
1443.711	2781.73
1446.956	2819.86
1450.201	2813.99
1453.445	2858.53
1456.689	2834.61
1459.933	2848.34
1463.177	2884.05
1466.42	2851.55
1469.663	2832.22
1472.906	2820.36
1476.148	2911.12
1479.391	2859.2
1482.633	2833.1
1485.874	2838.94
1489.115	2823.15
1492.356	2833.63
1495.597	2806.82
1498.838	2810.3
1502.078	2776.17
1505.318	2720.07
1508.557	2764.65
1511.797	2728.82
1515.036	2816.54
1518.274	2807.87
1521.513	2780.5
1524.751	2804.57
1527.989	2817.2
1531.227	2829.28
1534.464	2818.05
1537.701	2845.87
1540.938	2865.89
1544.174	2821.01
1547.41	2821.78
1550.646	2861.43
1553.882	2896.25
1557.117	2951.2
1560.352	2968.84
1563.587	2921.72
1566.821	2879.01
1570.055	2918.45
1573.289	2886.56
1576.523	2967.96
1579.756	2972.33
1582.989	2992.24
1586.222	2952.74
1589.454	2989
1592.686	2960.31
1595.918	2985.37
1599.15	2972.33
1602.381	3056.29
1605.612	3004
1608.843	3105.09
1612.073	3015.61
1615.303	2999.31
1618.533	2984.67
1621.762	2985.22
1624.992	2977.39
1628.221	2959.19
1631.449	2944.59
1634.678	3011.91
1637.906	2961.47
1641.134	3004.61
1644.361	2956.3
1647.588	2943.58
1650.815	2959.14
1654.042	2941.45
1657.269	2974.94
1660.495	2920.61
1663.72	2930.96
1666.946	2891.73
1670.171	2822.61
1673.396	2797.55
1676.621	2790.05
1679.845	2816.2
1683.069	2840.31
1686.293	2886.49
1689.517	2852.37
1692.74	2776.75
1695.963	2808.71
1699.185	2836.66
1702.408	2812.98
1705.63	2858.6
1708.852	2869.76
1712.073	2843.05
1715.294	2821.66
1718.515	2885.74
1721.736	2830.32
1724.956	2826.28
1728.176	2853.11
1731.396	2875.54
1734.616	2864.35
1737.835	2889.19
1741.054	2872.51
1744.272	2867.94
1747.491	2893.28
1750.709	2952.86
1753.927	2847.23
1757.144	2897.06
1760.361	2935.38
1763.578	2933.25
1766.795	2871.28
1770.011	2881.13
1773.227	2928.88
1776.443	2960.49
1779.658	3004.26
1782.874	2947.33
1786.089	2925.25
1789.303	2926.71
1792.518	2935.22
1795.732	2924.89
1798.945	2930.28
1802.159	2985.68
1805.372	2877.95
1808.585	2855.91
1811.797	2860.33
1815.01	2914.08
1818.222	2913.31
1821.434	2867.94
1824.645	2931.73
1827.856	2907.68
1831.067	2943.49
1834.278	2910.47
1837.488	2886.97
1840.698	3047.31
1843.908	2967.14
1847.117	2930.2
1850.326	2804.59
1853.535	2914.93
1856.744	2958.94
1859.952	2871.72
1863.16	2874.38
1866.368	2895.86
1869.575	2996.39
1872.782	2884.43
1875.989	2822.9
1879.196	2916.69
1882.402	2906.19
1885.608	2947.41
1888.814	2844.73
1892.019	2733.39
1895.224	2784.21
1898.429	2768.44
1901.634	2746.91
1904.838	2723.12
1908.042	2770.37
1911.246	2775.76
1914.449	2698.27
1917.652	2696.82
1920.855	2679.3
1924.058	2735.12
1927.26	2769.45
1930.462	2802.87
1933.664	2823.5
1936.865	2759.91
1940.066	2764.02
1943.267	2715.28
1946.467	2729.49
1949.668	2759.74
1952.868	2829.13
1956.067	2804.96
1959.267	2733.03
1962.466	2761.9
1965.665	2744.27
1968.863	2744.24
1972.061	2762.14
1975.259	2762.73
1978.457	2840.38
1981.654	2799.12
1984.852	2800.21
1988.048	2727.28
1991.245	2731.74
1994.441	2819.35
1997.637	2812.5
2000.833	2793.88
2004.028	2832.09
2007.223	2887.26
2010.418	2862.18
2013.613	2827.08
2016.807	2792.13
2020.001	2801.43
2023.194	2849.74
2026.388	2825.14
2029.581	2768.01
2032.774	2812.93
2035.966	2816.67
2039.158	2745.39
2042.35	2771
2045.542	2700.19
2048.733	2806.53
2051.924	2838.29
2055.115	2869.48
2058.306	2806.21
2061.496	2869.93
2064.686	2937.86
2067.875	2853.8
2071.065	2874.3
2074.254	2900.78
2077.442	2851.77
2080.631	2945.27
2083.819	2824.6
2087.007	2803.46
2090.195	2769.48
2093.382	2809.86
2096.569	2786.98
2099.756	2738.8
2102.942	2757.53
2106.128	2756.61
2109.314	2752.55
2112.5	2711.04
2115.685	2687.55
2118.87	2698.59
2122.055	2765.9
2125.239	2730.21
2128.424	2700.4
2131.608	2814.13
2134.791	2796.71
2137.974	2862.51
2141.157	2847.43
2144.34	2790.26
2147.523	2815.04
2150.705	2825.66
2153.887	2809.42
2157.068	2752.59
2160.25	2756.76
2163.431	2801.52
2166.611	2741.4
2169.792	2755.5
2172.972	2641.98
2176.152	2727.72
2179.331	2765.98
2182.511	2740.95
2185.69	2772.1
2188.868	2759.35
2192.047	2823.5
2195.225	2808.49
2198.403	2754.24
2201.58	2749.62
2204.758	2748.1
2207.935	2833.38
2211.111	2714.64
2214.288	2699.28
2217.464	2738.98
2220.64	2714.81
2223.815	2774.76
2226.991	2687.5
2230.166	2709.62
2233.34	2737.29
2236.515	2764.56
2239.689	2841.96
2242.863	2782.35
2246.036	2839.89
2249.209	2842.42
2252.382	2881.57
2255.555	2864.09
2258.727	2796.73
2261.9	2841.86
2265.071	2832.22
2268.243	2834.7
2271.414	2762.78
2274.585	2715.87
2277.756	2786.75
2280.926	2744.89
2284.096	2788.28
2287.266	2688.41
2290.436	2744.21
2293.605	2775.88
2296.774	2801.24
2299.942	2828.62
2303.111	2845.22
2306.279	2889.58
2309.447	2880.33
2312.614	2858.01
2315.781	2874.28
2318.948	2843.97
2322.115	2883.49
2325.281	2789.37
2328.447	2812.07
2331.613	2789.85
2334.779	2757.51
2337.944	2765.16
2341.109	2762.89
2344.274	2741.64
2347.438	2704.72
2350.602	2730.16
2353.766	2747.24
2356.929	2731.62
2360.092	2774.27
2363.255	2722.19
2366.418	2645.94
2369.58	2771.19
2372.742	2535.47
2375.904	2555.3
2379.066	2527.19
2382.227	2567.6
2385.388	2532.48
2388.548	2450.84
2391.709	2510.55
2394.869	2481.99
2398.029	2594.77
2401.188	2612.14
2404.347	2537.54
2407.506	2694.69
2410.665	2724.4
2413.823	2733.76
2416.981	2682.85
2420.139	2720.43
2423.296	2774.43
2426.453	2745.4
2429.61	2775.34
2432.767	2695.37
2435.923	2733.66
2439.079	2692.35
2442.235	2745.47
2445.391	2665.11
2448.546	2692.4
2451.701	2746.39
2454.855	2709.4
2458.009	2767.89
2461.163	2775.7
2464.317	2725.76
2467.471	2765.42
2470.624	2807.32
2473.777	2781.35
2476.929	2792.09
2480.082	2819.68
2483.234	2782.04
2486.385	2737.34
2489.537	2729.37
2492.688	2684.78
2495.839	2701.32
2498.989	2713.88
2502.14	2692.32
2505.29	2674.7
2508.439	2701.63
2511.589	2620.29
2514.738	2635.89
2517.887	2670.39
2521.035	2732.02
2524.183	2722.92
2527.331	2698.33
2530.479	2666.87
2533.627	2679.94
