Data from C_2_DEC_ON_6N_Splice17_12-16-00-387.txt Node
Date: Sat Mar 14 12:16:00 EDT 2020
User: sa697716
Spectrometer: FLMS03696
Trigger mode: 0
Integration Time (sec): 3.180400E-1
Scans to average: 20
Electric dark correction enabled: true
Nonlinearity correction enabled: true
Boxcar width: 5
XAxis mode: Wavelengths
Number of Pixels in Spectrum: 2048
>>>>>Begin Spectral Data<<<<<
187.83	-307704.53
188.298	2335.88
188.766	1241.91
189.233	1152.73
189.701	1617.64
190.169	2205.52
190.636	846.8
191.104	729.57
191.571	148.48
192.039	-9.67
192.506	14.07
192.974	638.34
193.441	-662.06
193.908	-90.47
194.375	3.41
194.842	53.93
195.31	119.14
195.777	163.92
196.244	380.66
196.711	395.97
197.177	506.51
197.644	728.07
198.111	1251.67
198.578	1736.05
199.045	1401.18
199.511	2276.25
199.978	2639.83
200.445	2233.44
200.911	2468.62
201.378	2745.41
201.844	2542.82
202.31	4400.05
202.777	4605.02
203.243	2578.43
203.709	2438.94
204.176	2886.3
204.642	2420.52
205.108	2261.43
205.574	1848.12
206.04	1686.56
206.506	1592.26
206.972	1485.68
207.438	1418.81
207.903	1600.85
208.369	1403.31
208.835	1418.74
209.301	1498.75
209.766	1532.55
210.232	1542.49
210.697	1927.15
211.163	2391.07
211.628	3602.93
212.094	3067.48
212.559	3800.92
213.024	2389.81
213.49	2949.66
213.955	2906.49
214.42	2842.11
214.885	2655.29
215.35	2537.45
215.815	2465.37
216.28	2633.16
216.745	2169.76
217.21	2389.79
217.675	2232.38
218.14	2579.22
218.604	2963.13
219.069	3447.77
219.534	3721.61
219.998	4427.1
220.463	5488.16
220.927	6910.62
221.392	6629.13
221.856	6828.18
222.32	8721.67
222.785	10881.44
223.249	13800.51
223.713	15507.63
224.177	15624.53
224.642	20192.67
225.106	24966.73
225.57	27450.33
226.034	20490.74
226.497	31279.8
226.961	28258.66
227.425	32980.4
227.889	36721.57
228.353	36842.34
228.816	76170.58
229.28	72891.94
229.744	61515.28
230.207	37432.23
230.671	36852.98
231.134	61025.35
231.597	70351.67
232.061	70400.18
232.524	68770.59
232.987	47405.9
233.45	42635.45
233.914	38260.27
234.377	39297.34
234.84	35988.58
235.303	42459.3
235.766	47422.34
236.229	49072.71
236.691	30958.4
237.154	34844.36
237.617	26188.21
238.08	26830.26
238.542	31439.64
239.005	22474.27
239.468	22305.54
239.93	21011.74
240.393	19101.42
240.855	16745.24
241.317	17155.66
241.78	20880.12
242.242	21580.56
242.704	23326.83
243.166	20330.83
243.629	18469.16
244.091	21305.57
244.553	23360.08
245.015	25117.42
245.477	32535.86
245.939	47824.39
246.4	50762.65
246.862	49365.99
247.324	46567.09
247.786	52122.48
248.247	68392.63
248.709	70750.69
249.17	52938.04
249.632	49894.8
250.093	57885.42
250.555	50011.73
251.016	30496.3
251.477	28946.91
251.939	31245.58
252.4	32835.15
252.861	39119.01
253.322	36369.16
253.783	43280
254.244	56166.64
254.705	44316.76
255.166	39432.24
255.627	38799.57
256.088	54693.25
256.549	58084.94
257.009	50073.37
257.47	60733.04
257.931	49410.71
258.391	37029.02
258.852	38151.21
259.312	40015.83
259.773	49445.02
260.233	41777.89
260.694	35264.94
261.154	40003.66
261.614	32093.09
262.074	28708.21
262.534	29825.95
262.994	28097.48
263.455	37439.24
263.915	31551.56
264.374	29757.03
264.834	32512.25
265.294	36073.15
265.754	37359.3
266.214	35418.81
266.673	33196.42
267.133	41917.12
267.593	41601.28
268.052	50974.61
268.512	44341.45
268.971	53460.57
269.431	58562.28
269.89	52433.61
270.349	78636.11
270.809	87676.24
271.268	78775.6
271.727	176751.14
272.186	114382.61
272.645	85775.52
273.104	61883.97
273.563	89649.02
274.022	70546.63
274.481	59998.59
274.94	46182.03
275.399	34316.56
275.857	39981.67
276.316	54058.49
276.775	48105.28
277.233	47401.06
277.692	44346.88
278.15	50117.22
278.609	51518.45
279.067	47670.24
279.525	44250.68
279.984	57180.93
280.442	68585.73
280.9	67538.07
281.358	44415.27
281.816	41367
282.274	40460.36
282.732	41809.09
283.19	42000.79
283.648	36233.26
284.106	38558.94
284.564	39238.9
285.021	36313.83
285.479	27070.08
285.937	24610.91
286.394	21586.36
286.852	22221.46
287.309	23341.56
287.767	22536.49
288.224	21426.52
288.682	23523.56
289.139	25854.28
289.596	23677.55
290.053	24666.2
290.511	31200.6
290.968	37923.45
291.425	51563.14
291.882	42978.3
292.339	37513.42
292.796	37329.18
293.252	35246.15
293.709	28007.85
294.166	25135.12
294.623	27800.16
295.079	26710.07
295.536	26844.58
295.992	24382.51
296.449	24125.29
296.905	25078.05
297.362	24065.56
297.818	25340.14
298.274	26291.37
298.731	26844.48
299.187	26571.52
299.643	28566.36
300.099	34593.17
300.555	37978.12
301.011	31769.12
301.467	30625.93
301.923	35909.82
302.379	35076.41
302.835	34451.95
303.291	34536.03
303.746	39353.84
304.202	49771.08
304.658	50005.09
305.113	33656.58
305.569	33006.53
306.024	35235.94
306.479	33639.09
306.935	28376.98
307.39	31038.13
307.845	28702.01
308.301	28908.87
308.756	28186.54
309.211	27175.81
309.666	27870.37
310.121	34623.71
310.576	35195.2
311.031	34973
311.486	40108.15
311.94	40138.31
312.395	53730.51
312.85	101075.14
313.305	497564.95
313.759	2574184.18
314.214	186730.26
314.668	148135.86
315.123	124644.34
315.577	44729.97
316.032	39824.02
316.486	49951.4
316.94	39438.99
317.394	27480.29
317.849	21392.84
318.303	20293.86
318.757	19205.65
319.211	21282.18
319.665	18682.41
320.119	18946.59
320.572	27262.31
321.026	25506.83
321.48	21260.62
321.934	23216.6
322.387	23290.59
322.841	25170.91
323.295	22608.18
323.748	26071.14
324.202	26439.79
324.655	31746.45
325.108	44288.24
325.562	31258.27
326.015	37138.77
326.468	28065.6
326.921	31418.73
327.374	29303.54
327.827	30507.49
328.28	34595.55
328.733	23193.65
329.186	20419.94
329.639	19458.06
330.092	16437.36
330.545	15649.35
330.997	15795.82
331.45	17262.99
331.903	20210.64
332.355	34859.01
332.808	33914.47
333.26	27982.51
333.713	30387.15
334.165	30643.99
334.617	40937.49
335.069	33072.82
335.522	59828.95
335.974	66257.86
336.426	60565.75
336.878	42064.9
337.33	21278.52
337.782	20762.09
338.234	25937.53
338.686	31030.69
339.137	36705.38
339.589	34564.84
340.041	27103.26
340.493	23312.64
340.944	23869.71
341.396	25725.25
341.847	21594.53
342.299	25489.82
342.75	31162.62
343.201	27347.11
343.653	31503.82
344.104	38829.54
344.555	30599.52
345.006	47789.88
345.457	36622.7
345.908	29169.34
346.359	27449.77
346.81	22388.7
347.261	23639.8
347.712	23328.01
348.163	25036.69
348.613	25327.69
349.064	23673.64
349.515	20765.81
349.965	21283.61
350.416	25652.2
350.866	28155.2
351.317	31871.37
351.767	52756.33
352.217	66647.89
352.668	55275.04
353.118	50653.56
353.568	48990.75
354.018	38703.35
354.468	40782.92
354.918	29242.78
355.368	25611.59
355.818	36191.3
356.268	104300.53
356.718	437321.41
357.168	108928.7
357.617	54735.98
358.067	60993.4
358.517	57040.41
358.966	66907.37
359.416	75027.16
359.865	81224.86
360.315	96817.02
360.764	45244.92
361.213	25324.63
361.663	24034.32
362.112	29756.32
362.561	48088.77
363.01	36232.22
363.459	30554.37
363.908	33109.83
364.357	28146.85
364.806	47586.6
365.255	32679.24
365.703	29944.43
366.152	29971.52
366.601	24301.34
367.05	19697.7
367.498	17882.03
367.947	18702.11
368.395	19437.85
368.844	17204.75
369.292	20767.77
369.74	14343.39
370.189	21985.62
370.637	25767.8
371.085	22294.27
371.533	27167.82
371.981	26196.45
372.429	24941.7
372.877	25966.07
373.325	21734.52
373.773	22156.76
374.221	19724.56
374.669	24473.98
375.116	21187.54
375.564	21361.95
376.012	23859.51
376.459	19643.33
376.907	23523.53
377.354	28485.13
377.801	26546.14
378.249	30510.65
378.696	39022.56
379.143	47299.22
379.591	50449.47
380.038	85257.56
380.485	61574.75
380.932	66449.14
381.379	60702.12
381.826	44551.5
382.273	31711.26
382.72	27777.03
383.166	27052.99
383.613	17535.13
384.06	15800.25
384.506	18267.28
384.953	13406.67
385.4	13512.61
385.846	11847.85
386.292	11568.01
386.739	11339.95
387.185	11205.57
387.631	11197.52
388.078	10849.92
388.524	11620.49
388.97	10715.2
389.416	8926.81
389.862	9500.55
390.308	8993.67
390.754	9128.35
391.2	9900.5
391.645	10119.77
392.091	9654.21
392.537	9318.19
392.983	9345.44
393.428	9156.36
393.874	9811.23
394.319	9827.24
394.765	9300.42
395.21	9562.89
395.655	8963.94
396.101	8386.71
396.546	7564.05
396.991	7636.22
397.436	7096.54
397.881	6855.6
398.326	6501.17
398.771	6145.43
399.216	5377.08
399.661	4838.65
400.106	4817.4
400.551	4927.83
400.995	4428.67
401.44	4379.04
401.885	4115.81
402.329	4155.61
402.774	3987.35
403.218	3850.29
403.663	3712.24
404.107	3816.79
404.551	3845.47
404.995	3524.99
405.44	3397.19
405.884	3446.02
406.328	3337.47
406.772	3329.75
407.216	3031.14
407.66	2928.05
408.104	2787.25
408.547	2606.68
408.991	2521.21
409.435	2427.65
409.879	2392.7
410.322	2359.75
410.766	2276.33
411.209	2162.01
411.653	2073.11
412.096	2030.07
412.54	2031.28
412.983	2015.81
413.426	2019.47
413.869	2019.17
414.312	1978.9
414.756	1905.72
415.199	1817.31
415.642	1762.75
416.085	1766.55
416.527	1755.53
416.97	1784.51
417.413	1692.8
417.856	1676.62
418.298	1661.14
418.741	1651.22
419.184	1649.6
419.626	1719.8
420.069	1721.13
420.511	1728.42
420.953	1690.58
421.396	1671.52
421.838	1628.64
422.28	1665.27
422.722	1671.54
423.164	1694.87
423.606	1664.55
424.048	1663.03
424.49	1579
424.932	1571.29
425.374	1550.37
425.816	1577.48
426.258	1608.46
426.699	1625.8
427.141	1600.87
427.582	1624.6
428.024	1616.83
428.465	1603.86
428.907	1559.57
429.348	1540.9
429.789	1538.13
430.231	1503.99
430.672	1520.25
431.113	1483.95
431.554	1459.13
431.995	1419.59
432.436	1364.26
432.877	1329.05
433.318	1307.03
433.759	1301.97
434.2	1298.27
434.64	1282.83
435.081	1282.07
435.522	1213.65
435.962	1166.14
436.403	1139.18
436.843	1154.85
437.284	1130.41
437.724	1100.48
438.164	1100.95
438.604	1074.22
439.045	1033.62
439.485	988.92
439.925	968.88
440.365	942.63
440.805	930.38
441.245	916.49
441.685	881.15
442.125	872.67
442.564	876.98
443.004	857.55
443.444	854.77
443.883	855.53
444.323	847.61
444.762	848.77
445.202	860.67
445.641	874.64
446.081	869.86
446.52	876.31
446.959	866.98
447.398	845.36
447.837	833.28
448.276	816.93
448.716	824.04
449.154	831.63
449.593	812.69
450.032	808.9
450.471	793.64
450.91	794.52
451.349	790.72
451.787	788.89
452.226	800.22
452.664	800.72
453.103	801.67
453.541	799.22
453.98	797.02
454.418	801.46
454.856	788.95
455.295	787.37
455.733	793.4
456.171	798.67
456.609	800.34
457.047	800.58
457.485	811.82
457.923	813.43
458.361	801.71
458.798	804.98
459.236	803.7
459.674	807.83
460.111	811.49
460.549	804.21
460.987	802.19
461.424	797.99
461.862	793.38
462.299	781.16
462.736	781.01
463.173	784.89
463.611	775
464.048	772.43
464.485	780.34
464.922	773.24
465.359	768.35
465.796	756.6
466.233	751.67
466.67	744.27
467.106	741.56
467.543	734.57
467.98	725.7
468.416	708.98
468.853	702.34
469.29	680.65
469.726	673.32
470.162	656.1
470.599	648.74
471.035	642.92
471.471	628.76
471.907	624.95
472.344	619.37
472.78	619.86
473.216	626.98
473.652	620.59
474.088	619.29
474.523	617.54
474.959	621.66
475.395	614.78
475.831	611.31
476.266	614.07
476.702	612
477.138	605.3
477.573	603.75
478.008	601.05
478.444	602.98
478.879	608.15
479.314	610.16
479.75	610.12
480.185	613.29
480.62	618.24
481.055	620.41
481.49	625.23
481.925	635.13
482.36	646.07
482.795	664.22
483.229	683.05
483.664	697.04
484.099	700.59
484.534	711.95
484.968	719.02
485.403	722.1
485.837	721.99
486.271	721.93
486.706	722.25
487.14	714.53
487.574	703.62
488.009	697.24
488.443	692.33
488.877	698.96
489.311	702.26
489.745	711.82
490.179	717.6
490.613	731.12
491.046	737.17
491.48	743.45
491.914	744.4
492.348	749.92
492.781	754.49
493.215	755.32
493.648	757.12
494.082	762.13
494.515	761.41
494.948	770.96
495.382	776.35
495.815	781.98
496.248	788.71
496.681	802.31
497.114	815
497.547	826.2
497.98	841.5
498.413	848.39
498.846	859.21
499.279	869.95
499.711	873.3
500.144	876.49
500.577	887.19
501.009	898.01
501.442	908.47
501.874	909.19
502.306	910.99
502.739	919.05
503.171	933.91
503.603	937.13
504.036	945.56
504.468	951.32
504.9	962.24
505.332	968.52
505.764	972.13
506.196	978.53
506.627	993.21
507.059	1005.91
507.491	1013.67
507.923	1010.56
508.354	1024.7
508.786	1034.35
509.217	1052.13
509.649	1066.38
510.08	1084.89
510.512	1100.94
510.943	1114.4
511.374	1124.47
511.805	1143.47
512.237	1160.89
512.668	1192.46
513.099	1219.01
513.53	1245.22
513.961	1262.77
514.391	1292.31
514.822	1322.67
515.253	1356.57
515.684	1379.93
516.114	1406.76
516.545	1424.02
516.975	1447.46
517.406	1462.14
517.836	1460.1
518.267	1463.08
518.697	1478.2
519.127	1478.77
519.558	1482.24
519.988	1481.18
520.418	1487.03
520.848	1499.83
521.278	1505.66
521.708	1518.85
522.138	1528.24
522.567	1555.28
522.997	1576.2
523.427	1588.37
523.857	1602.24
524.286	1608.4
524.716	1620.32
525.145	1636.54
525.575	1645.14
526.004	1656.42
526.433	1647.08
526.863	1644.62
527.292	1632.75
527.721	1634.89
528.15	1638.07
528.579	1635.5
529.008	1644.7
529.437	1664.23
529.866	1674.83
530.295	1689.74
530.724	1700.91
531.152	1725.08
531.581	1736.31
532.01	1751.94
532.438	1760.25
532.867	1773.26
533.295	1790.08
533.723	1795.39
534.152	1792.84
534.58	1792.91
535.008	1775.78
535.436	1776.04
535.865	1783.4
536.293	1797.22
536.721	1812.21
537.149	1835.77
537.576	1836.75
538.004	1849.73
538.432	1856.75
538.86	1855.4
539.287	1860.68
539.715	1874.71
540.143	1877.78
540.57	1873
540.998	1868.17
541.425	1844.11
541.852	1823.87
542.28	1821.96
542.707	1805.18
543.134	1791.64
543.561	1786.61
543.988	1779.53
544.415	1778.33
544.842	1771.78
545.269	1764.9
545.696	1766.49
546.123	1779.29
546.549	1768.09
546.976	1755.74
547.403	1754.82
547.829	1755.23
548.256	1756.48
548.682	1752.5
549.108	1743.61
549.535	1741.91
549.961	1742.39
550.387	1729.08
550.813	1723.68
551.24	1728.62
551.666	1728.88
552.092	1718.51
552.518	1711.71
552.943	1706.03
553.369	1712.62
553.795	1718.61
554.221	1719.57
554.646	1716.76
555.072	1727.36
555.498	1732.21
555.923	1742.58
556.349	1757.2
556.774	1766.07
557.199	1767.78
557.625	1772.69
558.05	1766.99
558.475	1777.29
558.9	1777.48
559.325	1768.89
559.75	1764.07
560.175	1757.21
560.6	1749.88
561.025	1748.05
561.449	1748.91
561.874	1754
562.299	1759.2
562.723	1768
563.148	1758.97
563.572	1763.39
563.997	1774.78
564.421	1779.83
564.846	1781.84
565.27	1787.36
565.694	1787.28
566.118	1799.91
566.542	1810.14
566.966	1805.29
567.39	1800.72
567.814	1790.21
568.238	1791.33
568.662	1798.41
569.086	1802.19
569.509	1810.98
569.933	1797.17
570.357	1790.39
570.78	1771.88
571.204	1759.59
571.627	1750.23
572.05	1750.13
572.474	1752.25
572.897	1740.42
573.32	1733.71
573.743	1726.43
574.166	1709.36
574.589	1710.63
575.012	1704.3
575.435	1704.02
575.858	1695.53
576.281	1686.63
576.704	1671.31
577.126	1660.56
577.549	1650.98
577.972	1641.89
578.394	1631.39
578.817	1625.1
579.239	1607.45
579.661	1594.98
580.084	1580.52
580.506	1568.22
580.928	1564.48
581.35	1554.96
581.772	1551.3
582.194	1539.49
582.616	1527.14
583.038	1514.49
583.46	1505.88
583.882	1503.42
584.303	1508.09
584.725	1503.32
585.147	1506.49
585.568	1517.5
585.99	1531.08
586.411	1537.67
586.833	1551.8
587.254	1554.17
587.675	1568.41
588.096	1580.16
588.518	1574.86
588.939	1559.31
589.36	1558.81
589.781	1547.64
590.202	1520.13
590.623	1510.54
591.043	1509.35
591.464	1497.4
591.885	1493.88
592.305	1488.07
592.726	1474.74
593.147	1476.6
593.567	1472.03
593.987	1464.2
594.408	1460.53
594.828	1458.35
595.248	1453.11
595.669	1433.98
596.089	1427.96
596.509	1421.05
596.929	1407.05
597.349	1407.9
597.769	1398.44
598.189	1391.45
598.608	1392.9
599.028	1394.6
599.448	1394.28
599.867	1381.51
600.287	1377.59
600.706	1372.71
601.126	1362.93
601.545	1362.92
601.965	1361.44
602.384	1356.43
602.803	1359.56
603.222	1355.37
603.641	1349.6
604.061	1346.2
604.48	1342.77
604.898	1351.49
605.317	1357.15
605.736	1361.5
606.155	1359.6
606.574	1351.83
606.992	1357.62
607.411	1354.47
607.829	1347.42
608.248	1344.9
608.666	1344.16
609.085	1345.43
609.503	1338.7
609.921	1333.7
610.339	1337.18
610.758	1337.01
611.176	1333.2
611.594	1326.69
612.012	1324.11
612.43	1328.04
612.847	1335.9
613.265	1338.24
613.683	1343.25
614.101	1345.5
614.518	1342.42
614.936	1332.16
615.353	1318.53
615.771	1316.28
616.188	1316.82
616.606	1314.39
617.023	1308.49
617.44	1294.82
617.857	1288.09
618.274	1280.57
618.691	1275.48
619.108	1267.21
619.525	1261.92
619.942	1269.61
620.359	1272.65
620.776	1267.58
621.192	1263.21
621.609	1262.69
622.026	1270.59
622.442	1277.7
622.859	1282.05
623.275	1274.72
623.691	1280.68
624.108	1293.21
624.524	1308.06
624.94	1309.11
625.356	1320.48
625.772	1335.4
626.188	1346.85
626.604	1349.01
627.02	1346.68
627.436	1344.68
627.852	1351.83
628.268	1364.88
628.683	1355.44
629.099	1347.4
629.514	1342.68
629.93	1345.17
630.345	1349.5
630.761	1345.41
631.176	1347.1
631.591	1339.76
632.007	1332.93
632.422	1329.83
632.837	1317.69
633.252	1315.16
633.667	1304.22
634.082	1295.58
634.497	1282.28
634.911	1262.25
635.326	1258.49
635.741	1241.17
636.155	1231.09
636.57	1232.01
636.984	1232.08
637.399	1233.57
637.813	1232.38
638.228	1229.95
638.642	1233.68
639.056	1223.07
639.47	1221.86
639.884	1212.69
640.298	1206.85
640.712	1204.99
641.126	1192.27
641.54	1183.46
641.954	1177.82
642.368	1165.77
642.781	1158.89
643.195	1140.54
643.609	1141.44
644.022	1137.17
644.436	1132.7
644.849	1121.83
645.262	1110.29
645.676	1112.81
646.089	1108.54
646.502	1095.02
646.915	1090.92
647.328	1073.76
647.741	1073.42
648.154	1061.7
648.567	1059.5
648.98	1047.71
649.393	1047.74
649.805	1045.1
650.218	1037.96
650.631	1022.92
651.043	1017.34
651.456	1012.08
651.868	1014.66
652.28	1031.75
652.693	1047.16
653.105	1054.22
653.517	1065.09
653.929	1067.56
654.341	1075.19
654.753	1065
655.165	1073.46
655.577	1071.76
655.989	1069.89
656.401	1063.58
656.813	1028.25
657.224	1009.74
657.636	983.04
658.047	965.53
658.459	946.03
658.87	938.47
659.282	927.67
659.693	908.11
660.104	894.85
660.515	882.28
660.926	880.82
661.338	880.37
661.749	874.58
662.159	866.06
662.57	864.46
662.981	862.66
663.392	856.82
663.803	862.82
664.213	861.71
664.624	858.89
665.035	862.88
665.445	851.51
665.855	845.03
666.266	837.98
666.676	837.24
667.086	829.16
667.497	830.13
667.907	824.49
668.317	816.24
668.727	814.31
669.137	816.98
669.547	815.67
669.956	820.1
670.366	823.21
670.776	826.25
671.186	831.95
671.595	836.44
672.005	840.1
672.414	840.46
672.824	839.43
673.233	844.98
673.642	848.08
674.052	852.61
674.461	855.03
674.87	861
675.279	859.29
675.688	862.89
676.097	865.3
676.506	862.67
676.915	879.56
677.323	883.79
677.732	882.35
678.141	882.46
678.549	872.42
678.958	873.87
679.366	873.93
679.775	880.44
680.183	891.16
680.592	897.69
681	904.63
681.408	897.09
681.816	905.68
682.224	915.54
682.632	927.09
683.04	958.85
683.448	983.92
683.856	1017
684.264	1054.02
684.671	1087.34
685.079	1130.08
685.487	1175.46
685.894	1240.65
686.302	1292.35
686.709	1333.51
687.116	1380.14
687.524	1417.25
687.931	1446.13
688.338	1468.1
688.745	1486.36
689.152	1509.33
689.559	1541.71
689.966	1574.01
690.373	1582.38
690.78	1611.61
691.187	1663.53
691.593	1698.44
692	1726.91
692.407	1777.68
692.813	1843.29
693.22	1890.16
693.626	1939.78
694.032	1978.02
694.439	2041.26
694.845	2087.82
695.251	2149.95
695.657	2202.98
696.063	2290.46
696.469	2352.28
696.875	2409.21
697.281	2435.43
697.687	2473.91
698.093	2502.82
698.498	2567.25
698.904	2614.06
699.31	2689.84
699.715	2742.81
700.12	2822.47
700.526	2831.23
700.931	2890.36
701.337	2932.73
701.742	2956.87
702.147	3029.01
702.552	3051.93
702.957	3102.57
703.362	3117.78
703.767	3141.51
704.172	3173.11
704.577	3124.31
704.981	3165.15
705.386	3177.07
705.791	3164.96
706.195	3231.77
706.6	3236.17
707.004	3307.12
707.408	3272.63
707.813	3292.52
708.217	3276.69
708.621	3275.2
709.025	3361.87
709.43	3358.9
709.834	3408.3
710.237	3469.49
710.641	3451.85
711.045	3468.14
711.449	3459.2
711.853	3485.12
712.256	3523
712.66	3554.96
713.064	3621.72
713.467	3658.74
713.87	3760.38
714.274	3802.73
714.677	3902.41
715.08	4048.02
715.484	4201.8
715.887	4385.21
716.29	4564.04
716.693	4751
717.096	4969.14
717.499	5086.58
717.901	5106.41
718.304	5128.82
718.707	5147.18
719.109	5050.33
719.512	5025.44
719.915	4902.1
720.317	4850.93
720.719	4888.86
721.122	4862.75
721.524	4813.48
721.926	4775.53
722.328	4865.96
722.731	4854.77
723.133	4881.39
723.535	5056.21
723.937	5070.55
724.338	5113.45
724.74	5146.74
725.142	5090.09
725.544	5086.25
725.945	5112.69
726.347	5108.67
726.748	5101.54
727.15	5116.31
727.551	5081.96
727.952	5054.47
728.354	5029
728.755	5029.27
729.156	4990.11
729.557	4977.59
729.958	4866.07
730.359	4814.86
730.76	4796.13
731.161	4740.27
731.562	4714.27
731.962	4716.77
732.363	4660.27
732.763	4597.86
733.164	4629.1
733.564	4569.45
733.965	4479.62
734.365	4444.42
734.766	4466.44
735.166	4431.04
735.566	4379.2
735.966	4354.74
736.366	4348.72
736.766	4290.27
737.166	4318.37
737.566	4281.14
737.966	4256.76
738.365	4293.71
738.765	4293.07
739.165	4227.64
739.564	4203.68
739.964	4244.19
740.363	4204.17
740.763	4201.37
741.162	4192.57
741.561	4163.95
741.96	4122.31
742.36	4142.02
742.759	4146.33
743.158	4177.04
743.557	4187.61
743.955	4222.46
744.354	4182.47
744.753	4232.49
745.152	4193.63
745.55	4241.13
745.949	4235.56
746.348	4235.84
746.746	4247.89
747.144	4210.79
747.543	4191.22
747.941	4236.14
748.339	4171.59
748.737	4165.15
749.136	4156.52
749.534	4214.46
749.932	4189.79
750.33	4211.15
750.727	4262.48
751.125	4242.98
751.523	4228.57
751.921	4267.61
752.318	4237.87
752.716	4291
753.113	4302.69
753.511	4328.22
753.908	4328.7
754.305	4313.75
754.703	4366.5
755.1	4417.37
755.497	4468.19
755.894	4639.95
756.291	4798.18
756.688	5090.97
757.085	5482.84
757.482	6034.97
757.878	6634.16
758.275	7180.68
758.672	7928.05
759.068	8544
759.465	9417.22
759.861	10546.27
760.258	11845.94
760.654	12526.87
761.05	12431.18
761.447	11861.06
761.843	11045.05
762.239	10194.61
762.635	9810.59
763.031	9445.21
763.427	8910.97
763.822	8353.46
764.218	7805.82
764.614	7092.7
765.01	6613.03
765.405	6302.47
765.801	6069.63
766.196	5768.04
766.592	5604.85
766.987	5325.02
767.382	5133.05
767.778	5052.94
768.173	4939.46
768.568	4873.61
768.963	4763.4
769.358	4779.99
769.753	4738.58
770.148	4664.82
770.542	4663.72
770.937	4634.13
771.332	4713.23
771.726	4733.37
772.121	4679
772.515	4726.06
772.91	4711.68
773.304	4775.17
773.699	4715.86
774.093	4763.31
774.487	4811.78
774.881	4851.84
775.275	4846.66
775.669	4807.44
776.063	4846.63
776.457	4878.75
776.851	4814.74
777.245	4808.79
777.638	4837.12
778.032	4939.42
778.425	4906.41
778.819	4943.54
779.212	4904.38
779.606	4867.4
779.999	4886.43
780.392	4868.66
780.786	4940.07
781.179	4954.65
781.572	4989.88
781.965	5000.98
782.358	4948.47
782.751	4999.22
783.143	4955.69
783.536	5020.52
783.929	5059.63
784.322	5160.4
784.714	5187.78
785.107	5185.98
785.499	5253.48
785.891	5233.51
786.284	5219.94
786.676	5346.96
787.068	5328.1
787.46	5376.61
787.852	5394.91
788.245	5471.55
788.636	5498.29
789.028	5557.59
789.42	5592.7
789.812	5597.39
790.204	5685.07
790.595	5770.9
790.987	5595.38
791.378	5617.23
791.77	5729.05
792.161	5848.09
792.553	5896.53
792.944	5797.76
793.335	5736.6
793.726	5800.74
794.117	5880.75
794.508	6000.38
794.899	5974
795.29	6098.15
795.681	6148.45
796.072	6022.62
796.463	5863.29
796.853	5873.91
797.244	6014.53
797.634	6045.04
798.025	6042.58
798.415	6055.24
798.806	6135.8
799.196	6211.87
799.586	6259.5
799.976	6224.78
800.366	6426.57
800.756	6635.57
801.146	6596.5
801.536	6621.59
801.926	6689.07
802.316	6710.32
802.706	6773.58
803.095	6665.89
803.485	6752.26
803.874	6788.01
804.264	7014.98
804.653	6992.83
805.043	7119.85
805.432	7221.86
805.821	7223.23
806.21	7240.87
806.599	7346.13
806.988	7387.34
807.377	7478.99
807.766	7596.05
808.155	7845.49
808.544	7615.22
808.933	7627
809.321	7610.68
809.71	7868.71
810.098	8010.58
810.487	8419.54
810.875	8841.21
811.264	8859.81
811.652	9116.5
812.04	9244.08
812.428	9387.34
812.816	10063.15
813.204	10438.43
813.592	10921.43
813.98	11216.37
814.368	11131.21
814.756	11555.67
815.144	11486.98
815.531	11899.24
815.919	11827.96
816.306	12089.7
816.694	11816.11
817.081	11864.09
817.469	12160.63
817.856	12159.12
818.243	12394.76
818.63	12732.04
819.017	12358.16
819.404	12420.51
819.791	12755.92
820.178	13302.72
820.565	13529.23
820.952	14354.46
821.339	13910.05
821.725	14078.35
822.112	13414.78
822.498	13380.16
822.885	13494
823.271	13409.38
823.657	13772.98
824.044	13771.95
824.43	13836.35
824.816	13809.45
825.202	13421.8
825.588	14325.16
825.974	14346.26
826.36	14810.49
826.746	14842.03
827.132	15161.84
827.517	15143.07
827.903	14453.87
828.289	14498.58
828.674	13811.67
829.06	13723.34
829.445	14079.62
829.83	14397.14
830.216	14814.99
830.601	15142.58
830.986	14782.1
831.371	14659.82
831.756	15150.76
832.141	14766.11
832.526	14753.23
832.911	15007.88
833.295	14908.17
833.68	15317.24
834.065	14768.54
834.449	13963.21
834.834	13898.51
835.218	13899.13
835.603	14198.88
835.987	14013.52
836.371	14752.86
836.755	14664.81
837.139	15014.98
837.524	15230.2
837.908	15079.42
838.291	15132.91
838.675	15193.23
839.059	15378.94
839.443	15376.99
839.827	15184.67
840.21	15615.86
840.594	15493.75
840.977	15682.17
841.361	15663.82
841.744	15995.07
842.127	15853.54
842.511	16076.27
842.894	16603
843.277	16939.07
843.66	17409.4
844.043	17485.33
844.426	16777.84
844.809	16496.04
845.191	16525.48
845.574	16120.64
845.957	15792.29
846.339	15696.87
846.722	15238.16
847.104	15298.47
847.487	15150.65
847.869	15164.81
848.252	15410.36
848.634	15703.56
849.016	15941.21
849.398	16049.71
849.78	16803.59
850.162	16811.28
850.544	17184
850.926	17731.92
851.307	17658.61
851.689	17899.18
852.071	18297.81
852.452	18576.36
852.834	18554.03
853.215	18893.32
853.597	19018.64
853.978	19285.13
854.359	19690.03
854.741	18808.27
855.122	18719.81
855.503	18463.26
855.884	18581.37
856.265	18532.1
856.646	18638
857.026	18280.48
857.407	18223.33
857.788	18364.4
858.169	18602.46
858.549	17843.81
858.93	18393.31
859.31	18436.53
859.69	18627.25
860.071	18268.85
860.451	18062.03
860.831	17410.42
861.211	18426.74
861.591	18911.94
861.971	18896.88
862.351	19073.9
862.731	19421.74
863.111	19649.66
863.491	19942.8
863.87	20696.33
864.25	20999.13
864.629	20652.23
865.009	21100.39
865.388	21862.12
865.768	23422.8
866.147	23322.74
866.526	22025.29
866.905	22286.91
867.284	23536.85
867.663	22343.05
868.042	21426.24
868.421	21360.27
868.8	21721.63
869.179	21937.14
869.558	20655.04
869.936	19051.29
870.315	19388.45
870.693	19869.41
871.072	21422.54
871.45	20409.31
871.828	20673.2
872.207	21727.24
872.585	21407.47
872.963	21993.3
873.341	21239.01
873.719	20990.36
874.097	20733.36
874.475	21131.43
874.853	21607.76
875.23	20715.93
875.608	21588.14
875.986	23351.76
876.363	22343.44
876.741	23021.13
877.118	22434.81
877.495	23532.35
877.873	23928.49
878.25	25189.3
878.627	24166.12
879.004	24510.95
879.381	24403.89
879.758	23763.64
880.135	22119.3
880.512	23389.23
880.889	22767.89
881.265	22537.46
881.642	22358.13
882.019	22730.69
882.395	22271.59
882.772	23150.96
883.148	22154.45
883.524	22066.5
883.901	21946.87
884.277	22285.94
884.653	22152.01
885.029	22789.76
885.405	25248.57
885.781	25054.6
886.157	24026.96
886.532	24317.15
886.908	24315.72
887.284	27035.6
887.659	27910.84
888.035	28771.78
888.411	29513.3
888.786	29889.56
889.161	30940.36
889.537	30352.06
889.912	31314.24
890.287	31287.49
890.662	32084.78
891.037	31497.77
891.412	29348.11
891.787	29045.24
892.162	28038.15
892.536	28690.04
892.911	27609.85
893.286	27027.2
893.66	25941.68
894.035	26605.05
894.409	28970.89
894.784	27792.82
895.158	28247.93
895.532	29938.3
895.906	30761.49
896.281	31482.71
896.655	30980.06
897.029	35402.54
897.402	36853.19
897.776	41021.01
898.15	40873.16
898.524	40421.13
898.898	40973.25
899.271	45878.57
899.645	39738.54
900.018	38171.94
900.392	39557.85
900.765	39880.64
901.138	36902.41
901.511	36334.21
901.884	33371.51
902.258	30785.42
902.631	31812.96
903.003	36602.2
903.376	33007.25
903.749	37003.08
904.122	39600.72
904.495	43620.33
904.867	44145.09
905.24	38309.54
905.612	35643.77
905.985	36423.4
906.357	38070.82
906.729	36356.13
907.102	31065.59
907.474	29883.19
907.846	30062.41
908.218	29662.1
908.59	26209.69
908.962	25339.24
909.334	27289.64
909.705	28677.46
910.077	27845.26
910.449	28975.45
910.82	29767.11
911.192	32751.16
911.563	34038
911.935	36445.18
912.306	36492.12
912.677	37674.72
913.048	37306.09
913.419	40484.22
913.79	40719.4
914.161	43675.47
914.532	41757.61
914.903	38353.34
915.274	36426.18
915.645	35895.51
916.015	31588.53
916.386	30116.7
916.756	32055.03
917.127	33073.17
917.497	29543.98
917.868	32155.42
918.238	30549.94
918.608	31426.3
918.978	32085.43
919.348	33977.26
919.718	35076.73
920.088	33779.9
920.458	35092.19
920.828	36925.39
921.198	34995.81
921.567	37403.61
921.937	28955.57
922.306	29251.97
922.676	31540.64
923.045	26317.72
923.415	25000.82
923.784	22787.19
924.153	23430.59
924.522	23414.35
924.891	21998.74
925.26	23571.84
925.629	23007.25
925.998	26455.18
926.367	25811.04
926.736	24578.58
927.104	29275.9
927.473	31456.57
927.842	37974.53
928.21	37617.96
928.578	39534.89
928.947	37409.77
929.315	37657.09
929.683	44198.79
930.051	44519.13
930.42	51672.44
930.788	44173.06
931.156	43843.56
931.523	41130.28
931.891	38012.61
932.259	36498.38
932.627	42280.23
932.994	59804.92
933.362	49413.22
933.729	42867.26
934.097	41060.04
934.464	34744.83
934.831	40121.82
935.199	39540.5
935.566	38316.7
935.933	38785.56
936.3	46962.4
936.667	36573.86
937.034	32993.87
937.401	32650.44
937.767	28206.15
938.134	25119.59
938.501	35423.77
938.867	37718.09
939.234	63766.9
939.6	54429.41
939.967	60065.41
940.333	40228.8
940.699	34242.47
941.065	27469.37
941.431	35940.47
941.798	34640.67
942.163	45488.97
942.529	28445.54
942.895	26223.35
943.261	16971.76
943.627	22263.46
943.992	19481.7
944.358	19523.41
944.723	19599.86
945.089	19117.88
945.454	17688.92
945.82	18860.52
946.185	18122.99
946.55	20987.53
946.915	18794.74
947.28	22043.11
947.645	19416.04
948.01	17924.92
948.375	18674.91
948.74	22395.87
949.104	26122.67
949.469	37750.54
949.834	66800.23
950.198	63294.08
950.562	37955.96
950.927	31593.39
951.291	37998.65
951.655	32399.8
952.02	30438.71
952.384	23028.52
952.748	20041.06
953.112	19550.35
953.476	16985.34
953.839	15689.16
954.203	15533.75
954.567	19420.11
954.931	30599.77
955.294	26171.36
955.658	26292.16
956.021	44698.08
956.385	75748.79
956.748	111846.92
957.111	173327.76
957.474	194537.37
957.837	218994.79
958.2	165726.69
958.563	59598.41
958.926	40305.88
959.289	61149.97
959.652	68272.98
960.015	51268.69
960.377	73577.33
960.74	83899.4
961.102	144963.07
961.465	155794.92
961.827	83567.3
962.189	160413.64
962.552	111208.55
962.914	89127.97
963.276	57892.43
963.638	47863.64
964	47324.18
964.362	31978.24
964.724	30930.37
965.085	22029.82
965.447	18043.8
965.809	20539.23
966.17	20546.85
966.532	22250.73
966.893	20413.2
967.255	18557.61
967.616	21899.38
967.977	17545.57
968.338	19172.59
968.699	15739.8
969.061	15757.96
969.421	15871.78
969.782	17808.6
970.143	15025.63
970.504	15558.29
970.865	17697.02
971.225	18111.69
971.586	17713.32
971.946	25261.11
972.307	21942.39
972.667	28707.97
973.027	29567.48
973.388	35842.52
973.748	24399.42
974.108	26608.06
974.468	35918.4
974.828	27695.8
975.188	21274.95
975.548	19556.76
975.907	16415.13
976.267	18383.37
976.627	15435.17
976.986	15995.13
977.346	15237.11
977.705	14655.25
978.064	13347.1
978.424	11125
978.783	11492.11
979.142	13122.53
979.501	12562.87
979.86	13274.27
980.219	12806.99
980.578	16511.8
980.937	18503.45
981.296	16500.58
981.654	16941.84
982.013	26389.87
982.371	34238.38
982.73	31952.95
983.088	36215.82
983.447	38695.35
983.805	55369.22
984.163	115651.1
984.521	128395.8
984.879	187926.4
985.237	-305402.97
985.595	295268.89
985.953	73272.44
986.311	42365.49
986.669	24642.28
987.026	21264.2
987.384	28522.92
987.741	29479.23
988.099	21090.84
988.456	16822.61
988.814	15779.43
989.171	13733.17
989.528	13530.86
989.885	14294.14
990.242	11328.88
990.599	14117.72
990.956	11538.73
991.313	8091.54
991.67	6648.82
992.027	7040.95
992.383	6265.01
992.74	5490.46
993.096	5768.8
993.453	5988.87
993.809	6206.36
994.165	8262.78
994.522	7568.2
994.878	8363.54
995.234	10496.36
995.59	10345.24
995.946	9798.25
996.302	11167.97
996.658	12896.44
997.013	14182.52
997.369	16784.3
997.725	21500.61
998.08	13923.11
998.436	21473.96
998.791	29564.61
999.147	29448.17
999.502	32120.8
999.857	23328.79
1000.212	37948.7
1000.567	54112.38
1000.922	31243.5
1001.277	19854.25
1001.632	14725.52
1001.987	18969.53
1002.342	13594.54
1002.696	10900.04
1003.051	8709.6
1003.406	10551.1
1003.76	10495.96
1004.114	10357.22
1004.469	8692.87
1004.823	7190.88
1005.177	7772.82
1005.531	6159.98
1005.885	5470.58
1006.239	6174.05
1006.593	7713.37
1006.947	10313.77
1007.301	7725.13
1007.655	8437.33
1008.008	6193.37
1008.362	6967.61
1008.715	9939.52
1009.069	9016.56
1009.422	13611.99
1009.776	27231.38
1010.129	18083.63
1010.482	15128.82
1010.835	12793.78
1011.188	26644
1011.541	25056.14
1011.894	-152989.22
1012.247	449507.74
1012.6	30595.72
1012.952	19365.76
1013.305	9948.93
1013.657	7177.57
1014.01	6782.37
1014.362	5607.71
1014.715	4979.56
1015.067	4348.53
1015.419	4256.91
1015.771	3780.32
1016.123	3367.25
1016.475	3468.18
1016.827	3678.45
1017.179	3947.72
1017.531	3987.24
1017.883	4097.41
1018.234	3947.36
1018.586	4993.09
1018.938	5272.09
1019.289	7262.16
1019.64	8319.53
1019.992	7759.17
1020.343	7084.51
1020.694	5604.56
1021.045	4961.05
1021.396	5656.75
1021.747	6037.06
1022.098	7244.82
1022.449	5254
1022.8	4888.35
1023.151	3399.89
1023.501	3015.33
1023.852	3284.55
1024.202	3407.86
1024.553	3742.72
1024.903	3665.47
1025.253	3145.8
1025.604	2834.85
1025.954	3510.01
1026.304	4284.03
1026.654	4937.81
1027.004	7270.11
1027.354	11746.9
1027.703	10989.92
1028.053	14441.7
1028.403	21099.7
1028.753	30463.65
1029.102	41041.15
1029.452	210390.17
1029.801	9060.04
1030.15	5822.77
1030.499	4988.35
897.758	2437.66
901.051	2388.08
904.343	2420
907.636	2425.71
910.928	2487.56
914.22	2400.86
917.511	2407.99
920.803	2464.35
924.094	2472.71
927.384	2463.64
930.675	2427.94
933.965	2385.14
937.255	2401.93
940.544	2367.5
943.834	2339.83
947.123	2279.04
950.411	2369.71
953.7	2345.95
956.988	2319.72
960.276	2261.34
963.563	2327.71
966.851	2331.61
970.138	2381.98
973.424	2377.03
976.711	2332.24
979.997	2418.82
983.283	2460.53
986.568	2380.96
989.853	2386.47
993.138	2415.52
996.423	2493.62
999.708	2438.92
1002.992	2483.08
1006.275	2360.4
1009.559	2385.08
1012.842	2492.3
1016.125	2433.22
1019.408	2412.75
1022.69	2485.45
1025.972	2510.34
1029.254	2482.58
1032.536	2431.97
1035.817	2452.27
1039.098	2409.75
1042.379	2509.62
1045.659	2522.91
1048.939	2461.8
1052.219	2477.08
1055.498	2482.86
1058.778	2472.23
1062.057	2451.1
1065.335	2474.19
1068.614	2489.18
1071.892	2475.2
1075.17	2544.05
1078.447	2535.62
1081.724	2529.46
1085.001	2562.32
1088.278	2537.94
1091.554	2547.78
1094.83	2543.41
1098.106	2573.07
1101.382	2612.96
1104.657	2611.3
1107.932	2611.73
1111.206	2580.7
1114.481	2538.66
1117.755	2541.84
1121.029	2526.04
1124.302	2581.88
1127.575	2540.47
1130.848	2532.17
1134.121	2498.58
1137.393	2450.97
1140.665	2515.05
1143.937	2491.21
1147.208	2447.79
1150.48	2493.82
1153.75	2478.63
1157.021	2498.73
1160.291	2471.25
1163.561	2517.36
1166.831	2499.3
1170.101	2528.18
1173.37	2500.36
1176.639	2450.2
1179.907	2501.88
1183.176	2511.83
1186.444	2514.76
1189.711	2544.76
1192.979	2559.15
1196.246	2515.1
1199.513	2531.43
1202.78	2531.91
1206.046	2542.5
1209.312	2565.34
1212.578	2587.68
1215.843	2547.15
1219.108	2519.66
1222.373	2545.48
1225.638	2509.21
1228.902	2498.45
1232.166	2463.57
1235.43	2447.08
1238.693	2468.82
1241.956	2464.96
1245.219	2506.95
1248.482	2495.99
1251.744	2491.46
1255.006	2627.3
1258.268	2579.42
1261.529	2530.17
1264.79	2531.71
1268.051	2632.25
1271.312	2645.43
1274.572	2613.66
1277.832	2601.05
1281.092	2588.96
1284.351	2568.63
1287.61	2550.32
1290.869	2477.12
1294.128	2460.92
1297.386	2532.03
1300.644	2524.29
1303.902	2533.71
1307.159	2401.36
1310.416	2454.9
1313.673	2480.42
1316.93	2469.21
1320.186	2509.17
1323.442	2547.82
1326.697	2539.16
1329.953	2525.91
1333.208	2554.45
1336.463	2534.08
1339.717	2482.17
1342.972	2604.31
1346.226	2576.14
1349.479	2516.05
1352.733	2491.67
1355.986	2508.72
1359.238	2486.12
1362.491	2491.1
1365.743	2491.89
1368.995	2485.3
1372.247	2497.08
1375.498	2519.98
1378.749	2543.19
1382	2501.45
1385.251	2547.82
1388.501	2507.39
1391.751	2495.21
1395	2466.98
1398.25	2496.36
1401.499	2509.43
1404.748	2446.66
1407.996	2431.92
1411.244	2419.43
1414.492	2401.18
1417.74	2379.15
1420.987	2390.69
1424.234	2446.1
1427.481	2420.7
1430.728	2476.39
1433.974	2452.28
1437.22	2462.4
1440.465	2460.98
1443.711	2440.14
1446.956	2466.8
1450.201	2451.35
1453.445	2496.15
1456.689	2473.79
1459.933	2490.09
1463.177	2523.97
1466.42	2497
1469.663	2477.06
1472.906	2476.94
1476.148	2536.31
1479.391	2529.81
1482.633	2501.24
1485.874	2514.44
1489.115	2509.32
1492.356	2504.98
1495.597	2478.26
1498.838	2478.85
1502.078	2454.12
1505.318	2415.34
1508.557	2452.83
1511.797	2443.21
1515.036	2471.92
1518.274	2460.22
1521.513	2425.94
1524.751	2442.84
1527.989	2460.59
1531.227	2475.67
1534.464	2473.97
1537.701	2484.19
1540.938	2499.77
1544.174	2453.76
1547.41	2449.6
1550.646	2484.73
1553.882	2525.65
1557.117	2577.95
1560.352	2591.48
1563.587	2552.01
1566.821	2514.67
1570.055	2543.64
1573.289	2515.76
1576.523	2584.05
1579.756	2592.82
1582.989	2608.29
1586.222	2574.12
1589.454	2607.25
1592.686	2585.24
1595.918	2610.01
1599.15	2599.86
1602.381	2664.61
1605.612	2630.03
1608.843	2727.44
1612.073	2643.05
1615.303	2626.64
1618.533	2622.2
1621.762	2623.44
1624.992	2605.84
1628.221	2599.53
1631.449	2587.02
1634.678	2631.81
1637.906	2591.52
1641.134	2623.96
1644.361	2585.21
1647.588	2574.9
1650.815	2594.79
1654.042	2569.69
1657.269	2597.99
1660.495	2560.32
1663.72	2571.07
1666.946	2536.01
1670.171	2492.9
1673.396	2468.35
1676.621	2454.76
1679.845	2465.25
1683.069	2481.36
1686.293	2516.89
1689.517	2497.18
1692.74	2436.41
1695.963	2462.79
1699.185	2484.48
1702.408	2460.1
1705.63	2496.56
1708.852	2509.36
1712.073	2484.33
1715.294	2478.85
1718.515	2533.49
1721.736	2485.34
1724.956	2472.81
1728.176	2496.54
1731.396	2519.64
1734.616	2505.52
1737.835	2536.56
1741.054	2516.59
1744.272	2508.91
1747.491	2541.23
1750.709	2583.3
1753.927	2505.6
1757.144	2542.29
1760.361	2588.52
1763.578	2576.53
1766.795	2521.04
1770.011	2522.84
1773.227	2555.9
1776.443	2589.48
1779.658	2631.82
1782.874	2576.46
1786.089	2557.5
1789.303	2559.49
1792.518	2563.18
1795.732	2552.42
1798.945	2563.66
1802.159	2610.16
1805.372	2528.55
1808.585	2516.32
1811.797	2520.04
1815.01	2558.11
1818.222	2565.87
1821.434	2545.18
1824.645	2594.93
1827.856	2590.75
1831.067	2623.08
1834.278	2571.67
1837.488	2557.92
1840.698	2694.03
1843.908	2629.61
1847.117	2591.91
1850.326	2495.96
1853.535	2582.87
1856.744	2601.57
1859.952	2520.82
1863.16	2521.62
1866.368	2541.5
1869.575	2646.07
1872.782	2534.24
1875.989	2472.37
1879.196	2540.34
1882.402	2532.45
1885.608	2570.73
1888.814	2487.23
1892.019	2391.71
1895.224	2444.37
1898.429	2423.41
1901.634	2402.68
1904.838	2379.96
1908.042	2429.33
1911.246	2438.74
1914.449	2385.06
1917.652	2378.28
1920.855	2359.48
1924.058	2399.27
1927.26	2439.24
1930.462	2465.95
1933.664	2493.92
1936.865	2436.05
1940.066	2448.9
1943.267	2392.5
1946.467	2408.58
1949.668	2431.12
1952.868	2497.86
1956.067	2481.63
1959.267	2419.2
1962.466	2443.32
1965.665	2427.57
1968.863	2422.25
1972.061	2432.6
1975.259	2426.84
1978.457	2506.59
1981.654	2464.09
1984.852	2466.23
1988.048	2407.74
1991.245	2403.79
1994.441	2485.69
1997.637	2461.71
2000.833	2441.44
2004.028	2478.67
2007.223	2535.5
2010.418	2516.5
2013.613	2475.29
2016.807	2455.46
2020.001	2456.33
2023.194	2491.59
2026.388	2468.54
2029.581	2417.85
2032.774	2471.63
2035.966	2480.34
2039.158	2417.67
2042.35	2440.94
2045.542	2368.45
2048.733	2459.48
2051.924	2470.77
2055.115	2494.19
2058.306	2445.95
2061.496	2504.74
2064.686	2559.99
2067.875	2470.8
2071.065	2481.04
2074.254	2505.32
2077.442	2455.46
2080.631	2544.03
2083.819	2451.69
2087.007	2440.11
2090.195	2415.48
2093.382	2442.52
2096.569	2425.5
2099.756	2385.14
2102.942	2420.1
2106.128	2426.69
2109.314	2417.57
2112.5	2392.68
2115.685	2364.9
2118.87	2373.87
2122.055	2432.9
2125.239	2404.66
2128.424	2386.23
2131.608	2469.52
2134.791	2453.2
2137.974	2501.77
2141.157	2490.83
2144.34	2450.6
2147.523	2458.32
2150.705	2476.55
2153.887	2452.71
2157.068	2413.44
2160.25	2407.66
2163.431	2437.1
2166.611	2394.2
2169.792	2409.05
2172.972	2312.74
2176.152	2377.9
2179.331	2409.3
2182.511	2396.81
2185.69	2424.27
2188.868	2419.9
2192.047	2467.1
2195.225	2469.24
2198.403	2422.4
2201.58	2410.99
2204.758	2404.14
2207.935	2484.58
2211.111	2383.8
2214.288	2369.69
2217.464	2405.84
2220.64	2371.33
2223.815	2424.64
2226.991	2351.2
2230.166	2369.03
2233.34	2400.82
2236.515	2422.09
2239.689	2490.08
2242.863	2433.41
2246.036	2492.07
2249.209	2483.95
2252.382	2514.33
2255.555	2509.24
2258.727	2453.81
2261.9	2488.58
2265.071	2480.93
2268.243	2480.07
2271.414	2420.75
2274.585	2390.61
2277.756	2456.61
2280.926	2409.02
2284.096	2448.28
2287.266	2365.03
2290.436	2416.65
2293.605	2442.32
2296.774	2473.93
2299.942	2484.63
2303.111	2503.49
2306.279	2551.32
2309.447	2538.55
2312.614	2511.43
2315.781	2533.9
2318.948	2508.02
2322.115	2543.16
2325.281	2446.3
2328.447	2459.06
2331.613	2434.75
2334.779	2418.66
2337.944	2415.65
2341.109	2414.16
2344.274	2401.58
2347.438	2368.82
2350.602	2392.04
2353.766	2404.14
2356.929	2392.73
2360.092	2433.37
2363.255	2392.82
2366.418	2340.27
2369.58	2431.89
2372.742	2262.04
2375.904	2268.07
2379.066	2245.97
2382.227	2275.93
2385.388	2240.82
2388.548	2178.07
2391.709	2227.28
2394.869	2208.05
2398.029	2289.47
2401.188	2296.26
2404.347	2241.61
2407.506	2353.64
2410.665	2387.8
2413.823	2386.84
2416.981	2353.84
2420.139	2378.78
2423.296	2423.08
2426.453	2394.2
2429.61	2420.1
2432.767	2368.23
2435.923	2403.83
2439.079	2361.34
2442.235	2405.62
2445.391	2336.81
2448.546	2370.01
2451.701	2415.78
2454.855	2395.59
2458.009	2440.33
2461.163	2438.3
2464.317	2400.35
2467.471	2431.55
2470.624	2465.78
2473.777	2444.57
2476.929	2457.4
2480.082	2481.95
2483.234	2450.03
2486.385	2398.73
2489.537	2390.57
2492.688	2362.22
2495.839	2379.71
2498.989	2392.17
2502.14	2378.54
2505.29	2365.07
2508.439	2390.35
2511.589	2322.21
2514.738	2330.82
2517.887	2356.03
2521.035	2424.23
2524.183	2400.08
2527.331	2383
2530.479	2365.39
2533.627	2372.48
