Data from C_2_DEC_VA_2N_Splice17_12-08-05-506.txt Node
Date: Sat Mar 14 12:08:05 EDT 2020
User: sa697716
Spectrometer: FLMS03696
Trigger mode: 0
Integration Time (sec): 3.180400E-1
Scans to average: 20
Electric dark correction enabled: true
Nonlinearity correction enabled: true
Boxcar width: 5
XAxis mode: Wavelengths
Number of Pixels in Spectrum: 2048
>>>>>Begin Spectral Data<<<<<
187.83	-245667.75
188.298	1858.38
188.766	1012.06
189.233	883.15
189.701	1209.41
190.169	1707.02
190.636	672.73
191.104	552.68
191.571	67.54
192.039	-48.3
192.506	-80.84
192.974	430.25
193.441	-739.01
193.908	-106.4
194.375	-86.27
194.842	-4.63
195.31	99.68
195.777	170.42
196.244	410.22
196.711	507.83
197.177	634.71
197.644	872.78
198.111	1510.89
198.578	2152.66
199.045	1694.14
199.511	2731.28
199.978	3173.66
200.445	2670.26
200.911	2955.32
201.378	3298.39
201.844	2951.37
202.31	5045.58
202.777	5289.88
203.243	2919.93
203.709	2761.03
204.176	3287.73
204.642	2754.95
205.108	2562.82
205.574	2092.41
206.04	1916.26
206.506	1783.12
206.972	1700.32
207.438	1644.32
207.903	1888.64
208.369	1673.89
208.835	1662.21
209.301	1744.08
209.766	1786.58
210.232	1761.08
210.697	2172.87
211.163	2668.77
211.628	4014.64
212.094	3327.86
212.559	4051.34
213.024	2486.79
213.49	3001.74
213.955	2917.91
214.42	2848.76
214.885	2629.31
215.35	2530.11
215.815	2438.27
216.28	2584.61
216.745	2088.68
217.21	2251.01
217.675	2036.67
218.14	2268.22
218.604	2500.67
219.069	2829.55
219.534	2922.51
219.998	3360.96
220.463	4029.91
220.927	4905.03
221.392	4571.21
221.856	4608.31
222.32	5759.6
222.785	7074.34
223.249	8845.61
223.713	9863.6
224.177	9821.65
224.642	12545.16
225.106	15422.77
225.57	16760.33
226.034	12447.67
226.497	18973.37
226.961	17126.4
227.425	19920.42
227.889	22076.66
228.353	22039.42
228.816	45419.13
229.28	43351.34
229.744	36563.84
230.207	22238.52
230.671	21893.79
231.134	36165.98
231.597	41630.72
232.061	41557.95
232.524	40466.03
232.987	27837.55
233.45	25066.49
233.914	22467
234.377	23001.1
234.84	21015.88
235.303	24744.15
235.766	27539.84
236.229	28408.84
236.691	17848.84
237.154	20040.92
237.617	15084.96
238.08	15454.52
238.542	18091.2
239.005	12920.08
239.468	12838.62
239.93	12110.54
240.393	10985.88
240.855	9659.61
241.317	9906.62
241.78	12060.4
242.242	12468.58
242.704	13433.51
243.166	11684.9
243.629	10608.92
244.091	12216.65
244.553	13353.2
245.015	14345.1
245.477	18566.19
245.939	27153.19
246.4	28722.57
246.862	27888.94
247.324	26279.53
247.786	29472.97
248.247	38685.99
248.709	39859.69
249.17	29807.03
249.632	28173.45
250.093	32652.16
250.555	28185.37
251.016	17253.12
251.477	16378.6
251.939	17657.05
252.4	18537.6
252.861	22039.63
253.322	20478.25
253.783	24389.85
254.244	31645.26
254.705	24894.22
255.166	22164.82
255.627	21844.44
256.088	30751.27
256.549	32716.34
257.009	28191.94
257.47	34148.41
257.931	27767.55
258.391	20836.57
258.852	21475.2
259.312	22507.35
259.773	27820.39
260.233	23497.56
260.694	19796.79
261.154	22450.55
261.614	18017.42
262.074	16123.56
262.534	16776.38
262.994	15818.79
263.455	21054.37
263.915	17756.58
264.374	16725.64
264.834	18266.9
265.294	20249.12
265.754	20979.22
266.214	19861.92
266.673	18606.31
267.133	23481.41
267.593	23284.41
268.052	28507.23
268.512	24803.15
268.971	29943
269.431	32856.19
269.89	29433.56
270.349	44054.87
270.809	49169.15
271.268	44176.24
271.727	99095.26
272.186	64139.82
272.645	48128.91
273.104	34711.04
273.563	50254.33
274.022	39453.48
274.481	33578.03
274.94	25871.95
275.399	19254.02
275.857	22395.6
276.316	30299.17
276.775	26977.67
277.233	26604.21
277.692	24877.33
278.15	28167.62
278.609	28976.06
279.067	26823.37
279.525	24914.82
279.984	32172.1
280.442	38693.64
280.9	38185.9
281.358	25161.66
281.816	23452.86
282.274	22949.68
282.732	23764.95
283.19	23877.06
283.648	20620.55
284.106	21981.75
284.564	22347.93
285.021	20761.78
285.479	15469.45
285.937	14072.92
286.394	12350.29
286.852	12702.58
287.309	13362.06
287.767	12924.3
288.224	12311.17
288.682	13499.13
289.139	14820.58
289.596	13577.2
290.053	14084.91
290.511	17761.44
290.968	21527.05
291.425	29212.47
291.882	24336.03
292.339	21167.34
292.796	20968.47
293.252	19739.44
293.709	15702.29
294.166	14090.42
294.623	15573.43
295.079	14939.78
295.536	15020.74
295.992	13644.97
296.449	13479.18
296.905	13990.78
297.362	13442.95
297.818	14147.23
298.274	14675.07
298.731	14984.17
299.187	14819.48
299.643	15893.6
300.099	19241.09
300.555	21105.86
301.011	17661.4
301.467	17040.25
301.923	19972.16
302.379	19502.1
302.835	19147.67
303.291	19184.86
303.746	21801.17
304.202	27522.55
304.658	27658.21
305.113	18622.27
305.569	18269.71
306.024	19466.28
306.479	18536.37
306.935	15660.26
307.39	17103.06
307.845	15819.72
308.301	15903.36
308.756	15511.13
309.211	14992.66
309.666	15382.27
310.121	19088.96
310.576	19381.44
311.031	19265.53
311.486	22058.7
311.94	22032.97
312.395	29461.94
312.85	55281.92
313.305	272259.04
313.759	1411948.2
314.214	102156.77
314.668	81007.81
315.123	68158.34
315.577	24431.57
316.032	21719.14
316.486	27270.49
316.94	21515.49
317.394	14976.19
317.849	11655.32
318.303	11017.04
318.757	10381.16
319.211	11488.05
319.665	10047.85
320.119	10173.07
320.572	14598.36
321.026	13642.71
321.48	11346.3
321.934	12363.45
322.387	12394.55
322.841	13406.31
323.295	12064.32
323.748	13884.56
324.202	14057.43
324.655	16898.93
325.108	23606.26
325.562	16676.27
326.015	19800.9
326.468	14993.71
326.921	16746.8
327.374	15635.46
327.827	16264.11
328.28	18424.89
328.733	12362.47
329.186	10884.43
329.639	10374.54
330.092	8738.9
330.545	8323.6
330.997	8398.77
331.45	9179.59
331.903	10770.39
332.355	18501.31
332.808	18008.71
333.26	14829.95
333.713	16091.78
334.165	16197.35
334.617	21625.79
335.069	17454.71
335.522	31573.73
335.974	34985.38
336.426	31983.12
336.878	22218.26
337.33	11284.68
337.782	10985.37
338.234	13813.62
338.686	16526.07
339.137	19593.67
339.589	18443.63
340.041	14512.11
340.493	12443.98
340.944	12740.35
341.396	13704.85
341.847	11500.51
342.299	13588.76
342.75	16608.67
343.201	14493.88
343.653	16684.57
344.104	20496.74
344.555	16126.52
345.006	25029.46
345.457	19241.65
345.908	15284.79
346.359	14402.59
346.81	11732.52
347.261	12328.29
347.712	12125.47
348.163	12983.24
348.613	13131.28
349.064	12256.64
349.515	10715.9
349.965	11012.9
350.416	13239.44
350.866	14524.9
351.317	16361.82
351.767	27082.51
352.217	34279.42
352.668	28516.04
353.118	26137.03
353.568	25208.51
354.018	19947.71
354.468	21116.61
354.918	15116.13
355.368	13202.39
355.818	18647.14
356.268	53851.17
356.718	225366.49
357.168	56083.94
357.617	28163.5
358.067	31373.84
358.517	29404.74
358.966	34621.69
359.416	38778.18
359.865	42040.07
360.315	50225.4
360.764	23471.56
361.213	13157.93
361.663	12466.31
362.112	15373.07
362.561	24784.49
363.01	18651.34
363.459	15701.18
363.908	16926.32
364.357	14403.19
364.806	24281.11
365.255	16667.81
365.703	15274.06
366.152	15298.57
366.601	12412.69
367.05	10088.57
367.498	9169.69
367.947	9594.94
368.395	9964.5
368.844	8835.63
369.292	10652.79
369.74	7374.8
370.189	11314.33
370.637	13261.83
371.085	11407.42
371.533	13924.82
371.981	13435.12
372.429	12847.01
372.877	13384.58
373.325	11229.12
373.773	11484.75
374.221	10208.13
374.669	12671.35
375.116	10938.79
375.564	11027.17
376.012	12354.94
376.459	10178.64
376.907	12189.75
377.354	14734.27
377.801	13759.92
378.249	15823.94
378.696	20133.85
379.143	24395.88
379.591	26006.68
380.038	44156.02
380.485	32053.93
380.932	34591.88
381.379	31796.72
381.826	23450.16
382.273	16686.37
382.72	14617.96
383.166	14323.3
383.613	9351.4
384.06	8450.36
384.506	9803.78
384.953	7219.15
385.4	7291.83
385.846	6415.17
386.292	6272.34
386.739	6160.54
387.185	6119.92
387.631	6165.06
388.078	6006.28
388.524	6451.72
388.97	5998.15
389.416	5032.13
389.862	5377.16
390.308	5123.28
390.754	5244.11
391.2	5725.77
391.645	5900.9
392.091	5698.48
392.537	5543.33
392.983	5591.17
393.428	5551.23
393.874	6001.74
394.319	6099.49
394.765	5847.05
395.21	6064.75
395.655	5746.2
396.101	5436.11
396.546	4951.29
396.991	5036.12
397.436	4722.36
397.881	4603.14
398.326	4397.9
398.771	4203.3
399.216	3701.77
399.661	3366.24
400.106	3386.19
400.551	3497.26
400.995	3162.29
401.44	3162.53
401.885	2999.05
402.329	3058.05
402.774	2962.41
403.218	2892.63
403.663	2804.8
404.107	2908.03
404.551	2953.3
404.995	2730.21
405.44	2649.76
405.884	2711.09
406.328	2642.82
406.772	2656.42
407.216	2433.67
407.66	2371.11
408.104	2269.9
408.547	2143.31
408.991	2086.33
409.435	2021.06
409.879	2005.87
410.322	1991.16
410.766	1933.55
411.209	1848.72
411.653	1782.56
412.096	1758.44
412.54	1765.15
412.983	1761.34
413.426	1772.54
413.869	1779.31
414.312	1750.96
414.756	1691.68
415.199	1622.6
415.642	1581.66
416.085	1586.58
416.527	1581.51
416.97	1608.56
417.413	1533.78
417.856	1522.7
418.298	1513.55
418.741	1510.49
419.184	1515.33
419.626	1586.67
420.069	1592.3
420.511	1606.7
420.953	1577.19
421.396	1566.27
421.838	1531.52
422.28	1566.84
422.722	1577.28
423.164	1601.94
423.606	1573.58
424.048	1570.35
424.49	1491.27
424.932	1482.42
425.374	1465.05
425.816	1489.76
426.258	1517.86
426.699	1530.2
427.141	1504.59
427.582	1525.19
428.024	1515.23
428.465	1506.07
428.907	1467.1
429.348	1448.48
429.789	1443.36
430.231	1406.59
430.672	1425.16
431.113	1388.92
431.554	1368.57
431.995	1335.33
432.436	1285.36
432.877	1253.88
433.318	1232.38
433.759	1227.26
434.2	1227.32
434.64	1217.77
435.081	1221.64
435.522	1155.76
435.962	1114.97
436.403	1091.93
436.843	1107.78
437.284	1087.21
437.724	1061.78
438.164	1065.76
438.604	1045.4
439.045	1008.72
439.485	971.4
439.925	955.82
440.365	935.24
440.805	927.97
441.245	921.23
441.685	893.57
442.125	892.13
442.564	903.9
443.004	890.13
443.444	893.69
443.883	900.42
444.323	901.48
444.762	909.41
445.202	931.02
445.641	954.18
446.081	957.42
446.52	971.41
446.959	969.89
447.398	953.14
447.837	947.68
448.276	938.71
448.716	957.35
449.154	972.9
449.593	958.35
450.032	961.99
450.471	951.27
450.91	957.22
451.349	959.88
451.787	962.16
452.226	982.38
452.664	989.44
453.103	995.07
453.541	998.16
453.98	998.94
454.418	1009.11
454.856	996.11
455.295	998.7
455.733	1010.81
456.171	1019.95
456.609	1024.38
457.047	1027.55
457.485	1042.46
457.923	1046.65
458.361	1033.66
458.798	1038.55
459.236	1037.96
459.674	1048.23
460.111	1054.24
460.549	1043.55
460.987	1042.62
461.424	1040.09
461.862	1035.74
462.299	1021.63
462.736	1020.71
463.173	1024.34
463.611	1010.99
464.048	1007.44
464.485	1014.32
464.922	1004.52
465.359	999.1
465.796	978.62
466.233	970.2
466.67	958.47
467.106	955.17
467.543	946.09
467.98	935.28
468.416	913.88
468.853	906.75
469.29	879.57
469.726	870.27
470.162	848.56
470.599	843.22
471.035	837.67
471.471	819.54
471.907	816.91
472.344	813.16
472.78	816.47
473.216	828.36
473.652	820.21
474.088	820.92
474.523	819.41
474.959	828.68
475.395	822.97
475.831	818.29
476.266	824.15
476.702	823.75
477.138	815.28
477.573	812.58
478.008	810.03
478.444	813.73
478.879	821.25
479.314	825.51
479.75	826.39
480.185	831.07
480.62	839.36
481.055	844.7
481.49	851.5
481.925	865.15
482.36	881.5
482.795	908.44
483.229	936.54
483.664	958.28
484.099	965.73
484.534	982.53
484.968	995.01
485.403	1002
485.837	1005.65
486.271	1006.89
486.706	1012.8
487.14	1006.1
487.574	994.26
488.009	988.33
488.443	984.94
488.877	998.01
489.311	1006.63
489.745	1023.06
490.179	1036.68
490.613	1058.93
491.046	1073.13
491.48	1086.28
491.914	1093.38
492.348	1107.26
492.781	1120.85
493.215	1130.21
493.648	1139.9
494.082	1156.24
494.515	1163.56
494.948	1183.02
495.382	1199.82
495.815	1215.82
496.248	1232.02
496.681	1261.75
497.114	1289.88
497.547	1315.01
497.98	1343.43
498.413	1360.41
498.846	1383.98
499.279	1407.69
499.711	1423.51
500.144	1434.6
500.577	1458.58
501.009	1486.39
501.442	1509.26
501.874	1515.87
502.306	1525.87
502.739	1542.76
503.171	1575.83
503.603	1586.53
504.036	1607.53
504.468	1622.57
504.9	1648.4
505.332	1665.36
505.764	1674.22
506.196	1690.39
506.627	1720.04
507.059	1746.24
507.491	1767.28
507.923	1764.32
508.354	1790.82
508.786	1809.99
509.217	1840.59
509.649	1864.21
510.08	1896.15
510.512	1922.86
510.943	1945.15
511.374	1961.12
511.805	1992.43
512.237	2021.43
512.668	2073.65
513.099	2116.81
513.53	2156.96
513.961	2184.93
514.391	2232.88
514.822	2279.61
515.253	2331.87
515.684	2365.45
516.114	2405.84
516.545	2429.76
516.975	2461.98
517.406	2480.03
517.836	2470.26
518.267	2468.89
518.697	2486.52
519.127	2480.53
519.558	2481.88
519.988	2475.7
520.418	2481.08
520.848	2497.73
521.278	2499.97
521.708	2487.51
522.138	2494.81
522.567	2534.5
522.997	2562.77
523.427	2575.11
523.857	2590.56
524.286	2595.11
524.716	2607.97
525.145	2625.33
525.575	2630.75
526.004	2642.1
526.433	2646.07
526.863	2636.9
527.292	2609.52
527.721	2609.43
528.15	2609.69
528.579	2601.31
529.008	2609.05
529.437	2637.09
529.866	2651.77
530.295	2671.55
530.724	2684.05
531.152	2718.48
531.581	2733.92
532.01	2755.41
532.438	2761.94
532.867	2778.82
533.295	2801.94
533.723	2807.17
534.152	2799.57
534.58	2795.85
535.008	2767.53
535.436	2765.89
535.865	2775.06
536.293	2793.86
536.721	2816.16
537.149	2852.1
537.576	2853.47
538.004	2870.35
538.432	2880.52
538.86	2875.2
539.287	2883.11
539.715	2902.24
540.143	2907.07
540.57	2900.85
540.998	2893.69
541.425	2856.76
541.852	2825.49
542.28	2822.54
542.707	2797.42
543.134	2775.05
543.561	2769.36
543.988	2756.41
544.415	2755.59
544.842	2745.41
545.269	2732.32
545.696	2734.31
546.123	2752.11
546.549	2733.89
546.976	2712.96
547.403	2710.35
547.829	2711.55
548.256	2711.9
548.682	2705.58
549.108	2690.5
549.535	2688.81
549.961	2689.76
550.387	2666.96
550.813	2657.54
551.24	2665.85
551.666	2666.59
552.092	2651.55
552.518	2641.52
552.943	2632.79
553.369	2644.44
553.795	2653.9
554.221	2654.79
554.646	2652.21
555.072	2670.4
555.498	2679.99
555.923	2697.1
556.349	2721.39
556.774	2736.75
557.199	2741.51
557.625	2752.29
558.05	2745.48
558.475	2764.25
558.9	2765.58
559.325	2755.77
559.75	2749.08
560.175	2744.15
560.6	2737.46
561.025	2738.6
561.449	2743.62
561.874	2756.92
562.299	2767.65
562.723	2784.74
563.148	2775.27
563.572	2788.89
563.997	2810.65
564.421	2826.35
564.846	2832.23
565.27	2844.02
565.694	2847.92
566.118	2875.13
566.542	2894.05
566.966	2892.95
567.39	2894.23
567.814	2886.74
568.238	2894.28
568.662	2912.42
569.086	2926.02
569.509	2948.56
569.933	2933.53
570.357	2931.15
570.78	2907.1
571.204	2895.19
571.627	2888.3
572.05	2893.42
572.474	2899.96
572.897	2887.97
573.32	2881.97
573.743	2874.64
574.166	2850.35
574.589	2859.2
575.012	2854.64
575.435	2859.16
575.858	2850.84
576.281	2839.09
576.704	2818.95
577.126	2806.13
577.549	2794.52
577.972	2784.9
578.394	2772.19
578.817	2765.48
579.239	2738.06
579.661	2719.75
580.084	2697.65
580.506	2679.06
580.928	2679.32
581.35	2666.77
581.772	2665.55
582.194	2648.28
582.616	2632.15
583.038	2614.18
583.46	2602.03
583.882	2601.24
584.303	2613.26
584.725	2612.36
585.147	2618.04
585.568	2637.61
585.99	2661.98
586.411	2675.4
586.833	2703.39
587.254	2710.13
587.675	2737.71
588.096	2763.1
588.518	2757.03
588.939	2730.15
589.36	2728.04
589.781	2716.12
590.202	2666.55
590.623	2652.87
591.043	2651.33
591.464	2630.47
591.885	2623.91
592.305	2616.44
592.726	2593.84
593.147	2597.89
593.567	2590.53
593.987	2579.72
594.408	2572.6
594.828	2574.43
595.248	2565.31
595.669	2533.12
596.089	2521.95
596.509	2514.81
596.929	2492
597.349	2494.97
597.769	2480.07
598.189	2471.49
598.608	2474.28
599.028	2480.86
599.448	2482.74
599.867	2463.78
600.287	2459.51
600.706	2453.91
601.126	2436.42
601.545	2434.84
601.965	2435.07
602.384	2428.37
602.803	2436.31
603.222	2431.21
603.641	2421.6
604.061	2415.77
604.48	2412.48
604.898	2430.79
605.317	2442.84
605.736	2450.55
606.155	2449.44
606.574	2437.22
606.992	2450.31
607.411	2444.22
607.829	2433.02
608.248	2431.65
608.666	2432.68
609.085	2433.93
609.503	2422.6
609.921	2415.43
610.339	2422.83
610.758	2427.66
611.176	2423.85
611.594	2410.65
612.012	2410.18
612.43	2420.64
612.847	2436.32
613.265	2443.9
613.683	2457.57
614.101	2463.4
614.518	2461.61
614.936	2448.13
615.353	2425.43
615.771	2423.74
616.188	2429.22
616.606	2426.25
617.023	2417.61
617.44	2395.14
617.857	2385.75
618.274	2374.04
618.691	2365.84
619.108	2352.47
619.525	2344.89
619.942	2358.76
620.359	2366.08
620.776	2357.9
621.192	2352.87
621.609	2351.3
622.026	2364.39
622.442	2376.6
622.859	2384.43
623.275	2372.36
623.691	2384.66
624.108	2407.22
624.524	2435.75
624.94	2436.56
625.356	2457.59
625.772	2484.41
626.188	2507.68
626.604	2512.29
627.02	2505.73
627.436	2502.61
627.852	2516.12
628.268	2540.16
628.683	2523.95
629.099	2508.39
629.514	2501.02
629.93	2508.63
630.345	2516.11
630.761	2510.81
631.176	2519.46
631.591	2507.05
632.007	2494.51
632.422	2493.01
632.837	2472.89
633.252	2468.09
633.667	2450.25
634.082	2433.87
634.497	2411.31
634.911	2375.43
635.326	2369.94
635.741	2337.09
636.155	2321.15
636.57	2325.49
636.984	2326.9
637.399	2328.98
637.813	2330.95
638.228	2330.7
638.642	2340.26
639.056	2321.86
639.47	2324.99
639.884	2309.11
640.298	2298.93
640.712	2297.6
641.126	2275
641.54	2258.86
641.954	2252.65
642.368	2230.72
642.781	2212.41
643.195	2180.02
643.609	2180.86
644.022	2170.16
644.436	2162.96
644.849	2141.83
645.262	2119.25
645.676	2123.79
646.089	2115.41
646.502	2083.73
646.915	2072.04
647.328	2042.01
647.741	2036.39
648.154	2010.33
648.567	2000.18
648.98	1972.09
649.393	1971.16
649.805	1964.93
650.218	1948.66
650.631	1916.14
651.043	1903.28
651.456	1891.68
651.868	1892.63
652.28	1926.78
652.693	1953.51
653.105	1968.14
653.517	1987.95
653.929	1988.77
654.341	1997.89
654.753	1973.68
655.165	1985.67
655.577	1981.72
655.989	1972.71
656.401	1957.44
656.813	1883.94
657.224	1843.53
657.636	1787.2
658.047	1749.62
658.459	1709.09
658.87	1690.14
659.282	1665.29
659.693	1622.2
660.104	1590.24
660.515	1560.37
660.926	1550.34
661.338	1541.65
661.749	1524.23
662.159	1499.35
662.57	1483.93
662.981	1467.96
663.392	1445.64
663.803	1443.5
664.213	1430.38
664.624	1413.3
665.035	1408.91
665.445	1377.72
665.855	1352.19
666.266	1328.48
666.676	1316.19
667.086	1292.3
667.497	1280.06
667.907	1260.02
668.317	1234.9
668.727	1218.64
669.137	1211.93
669.547	1199.63
669.956	1195.07
670.366	1191.19
670.776	1186.81
671.186	1186.43
671.595	1184.08
672.005	1184.28
672.414	1177.55
672.824	1171.56
673.233	1175.4
673.642	1173.75
674.052	1173.08
674.461	1172.01
674.87	1177.13
675.279	1168.44
675.688	1168.26
676.097	1168.68
676.506	1161.69
676.915	1182.95
677.323	1185.96
677.732	1183.53
678.141	1184.42
678.549	1172.35
678.958	1175.39
679.366	1177.48
679.775	1192.19
680.183	1212.67
680.592	1230.61
681	1251.02
681.408	1251.61
681.816	1278.36
682.224	1307.46
682.632	1339.17
683.04	1404.05
683.448	1463.56
683.856	1536.25
684.264	1617.31
684.671	1697.59
685.079	1792.28
685.487	1894.46
685.894	2030.44
686.302	2147
686.709	2244.21
687.116	2353.75
687.524	2444
687.931	2519.68
688.338	2581.07
688.745	2632.8
689.152	2687.44
689.559	2758.02
689.966	2822.3
690.373	2841.1
690.78	2891.04
691.187	2980.57
691.593	3038.37
692	3082.09
692.407	3157.04
692.813	3253.44
693.22	3318.89
693.626	3388.63
694.032	3426.74
694.439	3509.42
694.845	3564.08
695.251	3643.46
695.657	3706.35
696.063	3819.42
696.469	3890.22
696.875	3951.88
697.281	3965.25
697.687	3990.23
698.093	3999.81
698.498	4070.61
698.904	4114.12
699.31	4200.73
699.715	4245.59
700.12	4335.01
700.526	4318.91
700.931	4376.73
701.337	4407.48
701.742	4413.07
702.147	4492.39
702.552	4497.85
702.957	4544.06
703.362	4533.97
703.767	4536.82
704.172	4560.03
704.577	4461.64
704.981	4493.05
705.386	4481.99
705.791	4441.33
706.195	4509.51
706.6	4491.61
707.004	4566.25
707.408	4498.8
707.813	4505.14
708.217	4463.38
708.621	4437.01
709.025	4534.64
709.43	4510.6
709.834	4560.26
710.237	4623.32
710.641	4582.67
711.045	4586.43
711.449	4556.58
711.853	4567.14
712.256	4598.65
712.66	4621.36
713.064	4691.82
713.467	4720.08
713.87	4830.93
714.274	4865.57
714.677	4972.88
715.08	5140.21
715.484	5314.84
715.887	5529.28
716.29	5739.27
716.693	5955.4
717.096	6213.17
717.499	6341.41
717.901	6350.81
718.304	6359.36
718.707	6366.25
719.109	6231.36
719.512	6176.56
719.915	6008.14
720.317	5927.71
720.719	5961.31
721.122	5915.49
721.524	5842.28
721.926	5778.02
722.328	5872.35
722.731	5852.69
723.133	5869.69
723.535	6068.37
723.937	6078.49
724.338	6124.55
724.74	6152.67
725.142	6059.19
725.544	6044.34
725.945	6057.8
726.347	6047.46
726.748	6030.5
727.15	6031.93
727.551	5979.79
727.952	5940.45
728.354	5899.36
728.755	5887.26
729.156	5840.81
729.557	5827.04
729.958	5688.86
730.359	5626.85
730.76	5597.95
731.161	5529.29
731.562	5498.37
731.962	5496.69
732.363	5424.72
732.763	5350.88
733.164	5384.59
733.564	5302.62
733.965	5200.39
734.365	5157.02
734.766	5180.06
735.166	5134.87
735.566	5072.5
735.966	5040.28
736.366	5032.72
736.766	4961.31
737.166	4990.55
737.566	4943.58
737.966	4914.27
738.365	4950.09
738.765	4943.24
739.165	4862.24
739.564	4831.27
739.964	4874.72
740.363	4823.32
740.763	4818.01
741.162	4807.57
741.561	4774.18
741.96	4725.2
742.36	4745.22
742.759	4749.58
743.158	4785.49
743.557	4798.46
743.955	4838.95
744.354	4790.79
744.753	4848.82
745.152	4804.88
745.55	4856.19
745.949	4845.56
746.348	4845.25
746.746	4862.95
747.144	4819.1
747.543	4799.33
747.941	4850.35
748.339	4776.86
748.737	4767.71
749.136	4759.39
749.534	4826.03
749.932	4796.54
750.33	4822.54
750.727	4877.4
751.125	4850.6
751.523	4836.67
751.921	4876.62
752.318	4841.74
752.716	4900.07
753.113	4916.76
753.511	4940.96
753.908	4939.72
754.305	4923.27
754.703	4984.19
755.1	5048.76
755.497	5106.88
755.894	5299.57
756.291	5482.71
756.688	5817.79
757.085	6267.01
757.482	6890.58
757.878	7572.35
758.275	8190.19
758.672	9039.86
759.068	9734.6
759.465	10718.47
759.861	11997.39
760.258	13473.22
760.654	14233.21
761.05	14111.26
761.447	13456.38
761.843	12523.56
762.239	11566.47
762.635	11129.79
763.031	10708.36
763.427	10106.32
763.822	9481.59
764.218	8861.15
764.614	8054.34
765.01	7512.49
765.405	7159.75
765.801	6897.88
766.196	6560.9
766.592	6372.78
766.987	6054.96
767.382	5842.81
767.778	5751.11
768.173	5616.29
768.568	5539.49
768.963	5412.27
769.358	5430.35
769.753	5386.22
770.148	5301.49
770.542	5299.28
770.937	5267.9
771.332	5358.86
771.726	5377.87
772.121	5314.64
772.515	5367.77
772.91	5356.94
773.304	5427.67
773.699	5361.44
774.093	5416.43
774.487	5471.48
774.881	5516.89
775.275	5512.9
775.669	5471.78
776.063	5516.56
776.457	5554.27
776.851	5481.56
777.245	5471.77
777.638	5506.81
778.032	5624.13
778.425	5586.89
778.819	5630.34
779.212	5586.17
779.606	5544.92
779.999	5563.61
780.392	5548.06
780.786	5630.75
781.179	5651.93
781.572	5696.26
781.965	5711.35
782.358	5654.41
782.751	5712.01
783.143	5662.75
783.536	5735.86
783.929	5777.99
784.322	5894.8
784.714	5925.3
785.107	5920.99
785.499	5993.47
785.891	5969.83
786.284	5946.01
786.676	6087.54
787.068	6066.56
787.46	6119.4
787.852	6141.34
788.245	6227.7
788.636	6258.61
789.028	6324.24
789.42	6361.6
789.812	6367.71
790.204	6464.14
790.595	6566.01
790.987	6369.61
791.378	6393.36
791.77	6522.86
792.161	6658.54
792.553	6715.94
792.944	6602.16
793.335	6532.23
793.726	6608.98
794.117	6698.21
794.508	6836.13
794.899	6805.42
795.29	6945.96
795.681	7003.25
796.072	6858.46
796.463	6666.88
796.853	6672.85
797.244	6828.34
797.634	6863.22
798.025	6858.77
798.415	6872.01
798.806	6960.65
799.196	7044.93
799.586	7093.12
799.976	7050.54
800.366	7285.19
800.756	7530.19
801.146	7489.74
801.536	7518.42
801.926	7593.27
802.316	7619.23
802.706	7690.13
803.095	7565.46
803.485	7664.86
803.874	7707.15
804.264	7968.91
804.653	7937.15
805.043	8079.26
805.432	8188.01
805.821	8190.3
806.21	8212.75
806.599	8331.3
806.988	8381.52
807.377	8490.61
807.766	8624.21
808.155	8907.43
808.544	8647.6
808.933	8664.93
809.321	8645.73
809.71	8948.8
810.098	9113.23
810.487	9575.97
810.875	10061.05
811.264	10079.61
811.652	10372.61
812.04	10521.7
812.428	10685.97
812.816	11452.05
813.204	11866.5
813.592	12421.94
813.98	12756.44
814.368	12649.6
814.756	13127.72
815.144	13051.94
815.531	13526.13
815.919	13451.79
816.306	13756.19
816.694	13449.4
817.081	13498.94
817.469	13853.17
817.856	13857.28
818.243	14126.94
818.63	14533.96
819.017	14108.35
819.404	14165.96
819.791	14541.4
820.178	15152.84
820.565	15410.31
820.952	16345.18
821.339	15850.95
821.725	16042.01
822.112	15288.62
822.498	15245.68
822.885	15374.44
823.271	15288.63
823.657	15709.1
824.044	15716.21
824.43	15793.19
824.816	15758.3
825.202	15323.82
825.588	16343.49
825.974	16349.48
826.36	16864.17
826.746	16892.95
827.132	17244.06
827.517	17210.19
827.903	16420
828.289	16460.94
828.674	15675.97
829.06	15568.23
829.445	15958.01
829.83	16321.23
830.216	16806.5
830.601	17174.43
830.986	16769.96
831.371	16631.79
831.756	17191.06
832.141	16758.04
832.526	16744.82
832.911	17022.62
833.295	16905.24
833.68	17373.68
834.065	16746.14
834.449	15830.66
834.834	15763.65
835.218	15760.39
835.603	16103
835.987	15894.53
836.371	16730.19
836.755	16630.69
837.139	17036.12
837.524	17284.53
837.908	17107.1
838.291	17169.86
838.675	17235.28
839.059	17440.37
839.443	17431.54
839.827	17206.89
840.21	17686.96
840.594	17533.6
840.977	17752.28
841.361	17736.41
841.744	18110.49
842.127	17959.1
842.511	18211.18
842.894	18816.49
843.277	19199.06
843.66	19738.19
844.043	19816.39
844.426	19007.83
844.809	18709.16
845.191	18732.58
845.574	18272.69
845.957	17912.29
846.339	17805.5
846.722	17274.83
847.104	17341.54
847.487	17169.34
847.869	17190.48
848.252	17476.26
848.634	17818.97
849.016	18084.96
849.398	18212.2
849.78	19071.72
850.162	19079.69
850.544	19498.51
850.926	20138.81
851.307	20054.03
851.689	20342.2
852.071	20792.08
852.452	21103.84
852.834	21082.81
853.215	21484.41
853.597	21631.38
853.978	21924.25
854.359	22375.86
854.741	21373.34
855.122	21274.26
855.503	20980.56
855.884	21107.48
856.265	21051.67
856.646	21184.01
857.026	20788.01
857.407	20717.8
857.788	20883.14
858.169	21168.21
858.549	20317.83
858.93	20950.15
859.31	20993.3
859.69	21198.54
860.071	20793.21
860.451	20569.65
860.831	19814.04
861.211	20965.18
861.591	21516.66
861.971	21488.69
862.351	21688.56
862.731	22071.89
863.111	22323.98
863.491	22650.04
863.87	23529.28
864.25	23879.66
864.629	23473.49
865.009	23989.52
865.388	24846.28
865.768	26621.27
866.147	26520.74
866.526	25045.8
866.905	25341.06
867.284	26772.14
867.663	25425.28
868.042	24375.08
868.421	24296.71
868.8	24707.12
869.179	24953.28
869.558	23499.87
869.936	21653.95
870.315	22038.19
870.693	22571.41
871.072	24341.22
871.45	23187.35
871.828	23483.15
872.207	24672.5
872.585	24294.16
872.963	24956.83
873.341	24086.13
873.719	23798.84
874.097	23514.81
874.475	23951.52
874.853	24503.45
875.23	23477.46
875.608	24455.21
875.986	26455.02
876.363	25307.1
876.741	26074.44
877.118	25417.66
877.495	26667.98
877.873	27110.27
878.25	28529.64
878.627	27380.86
879.004	27764.09
879.381	27629.4
879.758	26902.05
880.135	25038.93
880.512	26461.7
880.889	25762.32
881.265	25490.26
881.642	25282.55
882.019	25703.72
882.395	25184.76
882.772	26176.52
883.148	25033.46
883.524	24933.93
883.901	24782.8
884.277	25160.01
884.653	25014.39
885.029	25737.34
885.405	28511.36
885.781	28285.67
886.157	27141.09
886.532	27472.04
886.908	27457.96
887.284	30541.97
887.659	31553.8
888.035	32550.74
888.411	33386.53
888.786	33827.7
889.161	35013.18
889.537	34365.27
889.912	35472.14
890.287	35427.76
890.662	36353.4
891.037	35705.09
891.412	33298.48
891.787	32964.18
892.162	31811.46
892.536	32558.05
892.911	31345.13
893.286	30680.32
893.66	29448.38
894.035	30201.62
894.409	32888.44
894.784	31567.09
895.158	32090.69
895.532	33995.59
895.906	34910.92
896.281	35738.1
896.655	35165.38
897.029	40181.08
897.402	41857.15
897.776	46599.82
898.15	46453.96
898.524	45957.43
898.898	46554.21
899.271	52124.73
899.645	45121.37
900.018	43347.63
900.392	44957.79
900.765	45323.33
901.138	41954.25
901.511	41307.25
901.884	37908.52
902.258	34961.84
902.631	36122.92
903.003	41577.95
903.376	37499.98
903.749	42065.83
904.122	45022.5
904.495	49532.12
904.867	50145.6
905.24	43512.13
905.612	40496.23
905.985	41427.07
906.357	43319.89
906.729	41333.8
907.102	35287.92
907.474	33924.83
907.846	34127.77
908.218	33694.76
908.59	29785.28
908.962	28812.14
909.334	31009.17
909.705	32572.73
910.077	31612.18
910.449	32883.01
910.82	33818.48
911.192	37231.63
911.563	38692.59
911.935	41421.61
912.306	41438.77
912.677	42787.46
913.048	42349.11
913.419	45950.19
913.79	46203.68
914.161	49527.74
914.532	47353.95
914.903	43494.4
915.274	41285.09
915.645	40667.11
916.015	35778.1
916.386	34124.99
916.756	36312.9
917.127	37450.44
917.497	33476.47
917.868	36421.42
918.238	34626.49
918.608	35600.23
918.978	36331.58
919.348	38487.94
919.718	39778.7
920.088	38325.06
920.458	39813.39
920.828	41907.51
921.198	39734.04
921.567	42434.78
921.937	32871.83
922.306	33179.55
922.676	35804.58
923.045	29856.98
923.415	28352.06
923.784	25812.06
924.153	26535.18
924.522	26498.07
924.891	24912.62
925.26	26702.86
925.629	26078.21
925.998	29964.37
926.367	29246.22
926.736	27836.09
927.104	33169.19
927.473	35651.48
927.842	43073.96
928.21	42670.56
928.578	44900.54
928.947	42455.62
929.315	42683.28
929.683	50038.16
930.051	50468.54
930.42	58644.49
930.788	50138.04
931.156	49765.7
931.523	46662.11
931.891	43120.32
932.259	41419.88
932.627	47997.44
932.994	67885.61
933.362	56132.83
933.729	48771.6
934.097	46676.51
934.464	39467.8
934.831	45561.83
935.199	44934.35
935.566	43577.66
935.933	44238
936.3	53588.26
936.667	41710.11
937.034	37621.77
937.401	37209.96
937.767	32100.35
938.134	28587.67
938.501	40366.77
938.867	43014.77
939.234	72720.87
939.6	62079.77
939.967	68251.73
940.333	45643.19
940.699	38861.48
941.065	31208.68
941.431	40859.9
941.798	39427.7
942.163	51801.32
942.529	32331.58
942.895	29762.05
943.261	19256.69
943.627	25263.84
943.992	22117.95
944.358	22164.79
944.723	22259.86
945.089	21728.92
945.454	20104.5
945.82	21473.1
946.185	20621.42
946.55	23874.09
946.915	21425.09
947.28	25137.95
947.645	22135.08
948.01	20433.08
948.375	21318.99
948.74	25549.51
949.104	29744.78
949.469	42980.83
949.834	75925.92
950.198	71941.03
950.562	43123.97
950.927	35869.4
951.291	43165.51
951.655	36790.62
952.02	34574.51
952.384	26125.63
952.748	22731.64
953.112	22173.42
953.476	19288.03
953.839	17822.3
954.203	17656.22
954.567	22087.48
954.931	34846.04
955.294	29795.02
955.658	29956.31
956.021	50863.74
956.385	86276.28
956.748	127332.41
957.111	197815.35
957.474	221957.92
957.837	249947.59
958.2	189040.98
958.563	68056.29
958.926	45994.13
959.289	69816.61
959.652	77886.76
960.015	58524.58
960.377	83923.79
960.74	95790.48
961.102	165216.16
961.465	177515.39
961.827	95100.99
962.189	182403.54
962.552	126342.43
962.914	101322.96
963.276	65765.37
963.638	54356.8
964	53845.59
964.362	36433.28
964.724	35201.02
965.085	25109.81
965.447	20572.07
965.809	23446.47
966.17	23487.71
966.532	25430.71
966.893	23334.99
967.255	21220.52
967.616	25082.84
967.977	20059.59
968.338	21917.18
968.699	18028.79
969.061	18030.6
969.421	18156.77
969.782	20361.93
970.143	17208.51
970.504	17818.19
970.865	20257.71
971.225	20704.58
971.586	20262.31
971.946	28908.85
972.307	25092.47
972.667	32793.08
973.027	33747.85
973.388	40917.35
973.748	27843.29
974.108	30327.91
974.468	41061.37
974.828	31600.56
975.188	24336.6
975.548	22343.65
975.907	18759.79
976.267	21045.46
976.627	17664.49
976.986	18310.14
977.346	17428.79
977.705	16779.72
978.064	15279.17
978.424	12714.2
978.783	13165.56
979.142	15036.66
979.501	14397.1
979.86	15205.81
980.219	14651.99
980.578	18903.35
980.937	21184.06
981.296	18924.8
981.654	19445.46
982.013	30221.61
982.371	39219.15
982.73	36617.08
983.088	41459.89
983.447	44234.89
983.805	63249.87
984.163	132119.08
984.521	146596.47
984.879	215064.49
985.237	-349218.94
985.595	337095.77
985.953	83912.45
986.311	48481.96
986.669	28138.56
987.026	24294.59
987.384	32701.11
987.741	33840.92
988.099	24140.61
988.456	19250.63
988.814	18006.56
989.171	15689.21
989.528	15490.79
989.885	16336.89
990.242	12929.6
990.599	16111.35
990.956	13178.48
991.313	9221.76
991.67	7575.34
992.027	8028.9
992.383	7144.54
992.74	6262.78
993.096	6553.72
993.453	6788
993.809	7049.41
994.165	9376.36
994.522	8586.99
994.878	9445.53
995.234	11825.71
995.59	11656.95
995.946	11042.15
996.302	12603.53
996.658	14603.27
997.013	16108.76
997.369	19124.39
997.725	24465.51
998.08	15872.67
998.436	24535.24
998.791	33893.1
999.147	33834.84
999.502	36876.51
999.857	26836.72
1000.212	43739.66
1000.567	62149.37
1000.922	35805.81
1001.277	22680.17
1001.632	16838.46
1001.987	21695.85
1002.342	15538.58
1002.696	12413.62
1003.051	9909.86
1003.406	11999.84
1003.76	11927.09
1004.114	11739.31
1004.469	9892.7
1004.823	8199.14
1005.177	8863.29
1005.531	7012.37
1005.885	6210.66
1006.239	7006.46
1006.593	8782.39
1006.947	11749.49
1007.301	8828.08
1007.655	9654.36
1008.008	7086.59
1008.362	7939.29
1008.715	11357.75
1009.069	10323.48
1009.422	15522.82
1009.776	31121.27
1010.129	20689.89
1010.482	17335.12
1010.835	14699.39
1011.188	30626.03
1011.541	28838.98
1011.894	-176085.66
1012.247	517727.21
1012.6	35093.47
1012.952	22109.66
1013.305	11411.26
1013.657	8245.73
1014.01	7803.85
1014.362	6428.54
1014.715	5704.37
1015.067	4956
1015.419	4845.74
1015.771	4303.27
1016.123	3839.25
1016.475	3952.49
1016.827	4208.51
1017.179	4513.52
1017.531	4551.3
1017.883	4658.42
1018.234	4490.12
1018.586	5666.07
1018.938	5996.83
1019.289	8286.53
1019.64	9485
1019.992	8818.86
1020.343	8070.41
1020.694	6363.37
1021.045	5624.34
1021.396	6410.7
1021.747	6847.63
1022.098	8243.48
1022.449	5962.35
1022.8	5520.78
1023.151	3833.02
1023.501	3399.07
1023.852	3688.78
1024.202	3847.93
1024.553	4261.83
1024.903	4175.96
1025.253	3562.03
1025.604	3219.98
1025.954	4005.79
1026.304	4905.93
1026.654	5754.5
1027.004	8429.6
1027.354	13639.87
1027.703	12880.86
1028.053	16801.23
1028.403	24574.28
1028.753	35697.04
1029.102	48920.75
1029.452	251814.03
1029.801	10861.02
1030.15	7022.45
1030.499	5949.79
897.758	2262.97
901.051	2201.11
904.343	2236.18
907.636	2242.94
910.928	2303.2
914.22	2223.27
917.511	2227.02
920.803	2278.53
924.094	2280.28
927.384	2278.87
930.675	2242.37
933.965	2204.88
937.255	2230.99
940.544	2195.92
943.834	2193.88
947.123	2133.2
950.411	2221.41
953.7	2203.4
956.988	2183.44
960.276	2119.92
963.563	2175.16
966.851	2185.1
970.138	2228.48
973.424	2227.99
976.711	2182.71
979.997	2235.46
983.283	2280.76
986.568	2207.73
989.853	2201.09
993.138	2229.52
996.423	2315.08
999.708	2264.83
1002.992	2297.45
1006.275	2204.71
1009.559	2214.88
1012.842	2314.54
1016.125	2264.36
1019.408	2244.9
1022.69	2304.98
1025.972	2336.81
1029.254	2308.97
1032.536	2265.57
1035.817	2282.82
1039.098	2250.72
1042.379	2310.41
1045.659	2336.93
1048.939	2282.3
1052.219	2290.44
1055.498	2286.64
1058.778	2282.68
1062.057	2260.11
1065.335	2284.8
1068.614	2299.38
1071.892	2291.4
1075.17	2347.47
1078.447	2350.81
1081.724	2343.24
1085.001	2372.67
1088.278	2349.12
1091.554	2355.88
1094.83	2351.15
1098.106	2386.85
1101.382	2419.31
1104.657	2416.98
1107.932	2416.77
1111.206	2393.28
1114.481	2348.57
1117.755	2348.98
1121.029	2338.16
1124.302	2400.79
1127.575	2365.12
1130.848	2358.62
1134.121	2327.28
1137.393	2288.16
1140.665	2350.79
1143.937	2326.39
1147.208	2277.32
1150.48	2330.55
1153.75	2322.15
1157.021	2328.45
1160.291	2302.96
1163.561	2353.38
1166.831	2328.53
1170.101	2354.02
1173.37	2316.74
1176.639	2268.86
1179.907	2318.22
1183.176	2339.37
1186.444	2340.26
1189.711	2365.41
1192.979	2385.98
1196.246	2339.75
1199.513	2354.76
1202.78	2358.67
1206.046	2368.25
1209.312	2393.54
1212.578	2411.9
1215.843	2375.74
1219.108	2342.15
1222.373	2368.14
1225.638	2338.48
1228.902	2333.58
1232.166	2292.73
1235.43	2280.51
1238.693	2301.13
1241.956	2294.46
1245.219	2341.66
1248.482	2325.31
1251.744	2323.69
1255.006	2450.1
1258.268	2400.47
1261.529	2352.7
1264.79	2351.69
1268.051	2452.34
1271.312	2462.82
1274.572	2432.94
1277.832	2419.07
1281.092	2402.72
1284.351	2391.58
1287.61	2375.2
1290.869	2309.75
1294.128	2300.54
1297.386	2355.06
1300.644	2348.3
1303.902	2356.56
1307.159	2224.37
1310.416	2276.49
1313.673	2306.52
1316.93	2303.93
1320.186	2337.21
1323.442	2371.2
1326.697	2368.4
1329.953	2345.18
1333.208	2378.28
1336.463	2353.47
1339.717	2312.06
1342.972	2420.56
1346.226	2395.41
1349.479	2340.97
1352.733	2317.12
1355.986	2325.7
1359.238	2306.28
1362.491	2314.73
1365.743	2314.94
1368.995	2308.8
1372.247	2321.8
1375.498	2342.74
1378.749	2382.29
1382	2331.09
1385.251	2371.17
1388.501	2325.54
1391.751	2322.73
1395	2288.26
1398.25	2313.48
1401.499	2336.09
1404.748	2282.09
1407.996	2260.83
1411.244	2250.01
1414.492	2232.44
1417.74	2216.64
1420.987	2222.07
1424.234	2279.4
1427.481	2247.21
1430.728	2304.91
1433.974	2280.17
1437.22	2279.09
1440.465	2276.85
1443.711	2271.01
1446.956	2295.7
1450.201	2269.76
1453.445	2312.19
1456.689	2298.01
1459.933	2311.61
1463.177	2348.08
1466.42	2321.99
1469.663	2305.2
1472.906	2316.05
1476.148	2365.9
1479.391	2346.73
1482.633	2319.74
1485.874	2344.03
1489.115	2348.25
1492.356	2335.02
1495.597	2313.2
1498.838	2308.83
1502.078	2291.47
1505.318	2258.93
1508.557	2294.24
1511.797	2291.92
1515.036	2331.02
1518.274	2306.25
1521.513	2263.4
1524.751	2275.76
1527.989	2300.68
1531.227	2317.31
1534.464	2327.54
1537.701	2324.86
1540.938	2338.91
1544.174	2287.79
1547.41	2277.87
1550.646	2314.9
1553.882	2363.91
1557.117	2419.6
1560.352	2429.51
1563.587	2389.51
1566.821	2355.47
1570.055	2374.68
1573.289	2356.63
1576.523	2417
1579.756	2431.05
1582.989	2451.76
1586.222	2411.49
1589.454	2441.93
1592.686	2423.49
1595.918	2451.02
1599.15	2446.42
1602.381	2498.12
1605.612	2474.96
1608.843	2568.41
1612.073	2489.89
1615.303	2477.2
1618.533	2474.88
1621.762	2475.3
1624.992	2450.2
1628.221	2452.2
1631.449	2437.58
1634.678	2472.74
1637.906	2435.59
1641.134	2466.54
1644.361	2428.37
1647.588	2416.57
1650.815	2437.31
1654.042	2402.37
1657.269	2430.67
1660.495	2406.68
1663.72	2396.78
1666.946	2367.2
1670.171	2333.36
1673.396	2309.49
1676.621	2289.55
1679.845	2291.96
1683.069	2302.21
1686.293	2334.61
1689.517	2322.59
1692.74	2271.03
1695.963	2292.35
1699.185	2330.37
1702.408	2302.23
1705.63	2333.1
1708.852	2348.77
1712.073	2322.4
1715.294	2327.03
1718.515	2372.8
1721.736	2329.83
1724.956	2311.99
1728.176	2333.25
1731.396	2356.76
1734.616	2341.3
1737.835	2377.28
1741.054	2349.48
1744.272	2342.71
1747.491	2380.46
1750.709	2409.86
1753.927	2351.13
1757.144	2377.31
1760.361	2433.11
1763.578	2413.01
1766.795	2361.87
1770.011	2352.38
1773.227	2380.41
1776.443	2420.34
1779.658	2462.44
1782.874	2401.43
1786.089	2392.17
1789.303	2395.24
1792.518	2393.64
1795.732	2380.93
1798.945	2395.24
1802.159	2435.45
1805.372	2373.88
1808.585	2365.88
1811.797	2366.34
1815.01	2391.89
1818.222	2412.24
1821.434	2375.27
1824.645	2418.19
1827.856	2425.84
1831.067	2457.37
1834.278	2396.21
1837.488	2382.02
1840.698	2508.68
1843.908	2447.22
1847.117	2414.01
1850.326	2333.06
1853.535	2400.24
1856.744	2431.77
1859.952	2354.94
1863.16	2356.34
1866.368	2368.88
1869.575	2479.43
1872.782	2365.03
1875.989	2296.04
1879.196	2351.79
1882.402	2343.01
1885.608	2379.04
1888.814	2313.63
1892.019	2219.07
1895.224	2269.79
1898.429	2239.97
1901.634	2223.16
1904.838	2198.15
1908.042	2251.54
1911.246	2265.08
1914.449	2221.75
1917.652	2206.77
1920.855	2184.77
1924.058	2216.9
1927.26	2260.79
1930.462	2281.23
1933.664	2316.84
1936.865	2259.95
1940.066	2275.72
1943.267	2221.23
1946.467	2232.16
1949.668	2250.8
1952.868	2322.02
1956.067	2311.99
1959.267	2249.16
1962.466	2272.17
1965.665	2257.58
1968.863	2250.31
1972.061	2254.65
1975.259	2249.98
1978.457	2324.2
1981.654	2285.41
1984.852	2290.41
1988.048	2238.77
1991.245	2229.15
1994.441	2315.7
1997.637	2278.78
2000.833	2261.6
2004.028	2297.23
2007.223	2359.52
2010.418	2343.73
2013.613	2296.89
2016.807	2286.17
2020.001	2279.79
2023.194	2304.85
2026.388	2289.61
2029.581	2233.1
2032.774	2293.49
2035.966	2302.91
2039.158	2247.67
2042.35	2266.23
2045.542	2193.61
2048.733	2280.21
2051.924	2275.58
2055.115	2297.24
2058.306	2260.34
2061.496	2316.23
2064.686	2368.31
2067.875	2275.6
2071.065	2279.52
2074.254	2299.26
2077.442	2255.48
2080.631	2341.15
2083.819	2264.36
2087.007	2257.73
2090.195	2238.02
2093.382	2257.39
2096.569	2238.74
2099.756	2199.56
2102.942	2245.14
2106.128	2257.27
2109.314	2246.67
2112.5	2226.89
2115.685	2194.23
2118.87	2203.34
2122.055	2263.81
2125.239	2241.63
2128.424	2226.31
2131.608	2292.93
2134.791	2277.32
2137.974	2318.16
2141.157	2308.17
2144.34	2275.17
2147.523	2271.5
2150.705	2296.14
2153.887	2264.81
2157.068	2234.58
2160.25	2220.55
2163.431	2243.04
2166.611	2210.45
2169.792	2230.36
2172.972	2138.79
2176.152	2192.2
2179.331	2221.22
2182.511	2220.1
2185.69	2243.49
2188.868	2246.51
2192.047	2284.15
2195.225	2295.94
2198.403	2248.05
2201.58	2233.76
2204.758	2222.53
2207.935	2298.33
2211.111	2212.67
2214.288	2200.21
2217.464	2233.44
2220.64	2193.04
2223.815	2243.81
2226.991	2175.21
2230.166	2191.48
2233.34	2231.21
2236.515	2245.92
2239.689	2310.31
2242.863	2259.2
2246.036	2312.66
2249.209	2297.82
2252.382	2318.79
2255.555	2323.74
2258.727	2272.04
2261.9	2304.02
2265.071	2294.46
2268.243	2292.71
2271.414	2240.14
2274.585	2220.88
2277.756	2282.91
2280.926	2234.43
2284.096	2264.7
2287.266	2194.91
2290.436	2240.82
2293.605	2262.99
2296.774	2296.35
2299.942	2304.5
2303.111	2319.2
2306.279	2371.76
2309.447	2355.77
2312.614	2326.82
2315.781	2354.87
2318.948	2332.29
2322.115	2367.03
2325.281	2268.38
2328.447	2276.51
2331.613	2247.7
2334.779	2236.1
2337.944	2233.64
2341.109	2233.69
2344.274	2223.71
2347.438	2190.87
2350.602	2210.93
2353.766	2221.54
2356.929	2209.55
2360.092	2249.28
2363.255	2216.43
2366.418	2178.48
2369.58	2251.34
2372.742	2113.7
2375.904	2111.49
2379.066	2094.1
2382.227	2122.35
2385.388	2083.5
2388.548	2030.03
2391.709	2075.75
2394.869	2059.1
2398.029	2121.62
2401.188	2120.07
2404.347	2078.73
2407.506	2168.31
2410.665	2202.31
2413.823	2192.8
2416.981	2167.59
2420.139	2188.07
2423.296	2231.21
2426.453	2201.45
2429.61	2223.62
2432.767	2188.72
2435.923	2229.14
2439.079	2180.06
2442.235	2215.61
2445.391	2156.65
2448.546	2195.89
2451.701	2233.69
2454.855	2225.7
2458.009	2256.46
2461.163	2248.9
2464.317	2220.88
2467.471	2247.47
2470.624	2277.34
2473.777	2263.24
2476.929	2279.96
2480.082	2301.52
2483.234	2273.4
2486.385	2214.24
2489.537	2208.86
2492.688	2194.8
2495.839	2211.22
2498.989	2224.25
2502.14	2211.3
2505.29	2201.32
2508.439	2224.82
2511.589	2161.58
2514.738	2164.71
2517.887	2189.54
2521.035	2263.74
2524.183	2229.2
2527.331	2215.97
2530.479	2206.76
2533.627	2211.3
