Data from C_2_DEC_OH_4N_Splice17_12-05-18-994.txt Node
Date: Sat Mar 14 12:05:18 EDT 2020
User: sa697716
Spectrometer: FLMS03696
Trigger mode: 0
Integration Time (sec): 3.180400E-1
Scans to average: 20
Electric dark correction enabled: true
Nonlinearity correction enabled: true
Boxcar width: 5
XAxis mode: Wavelengths
Number of Pixels in Spectrum: 2048
>>>>>Begin Spectral Data<<<<<
187.83	-342383.13
188.298	2386.06
188.766	1228.85
189.233	1084.95
189.701	1449.08
190.169	2008.93
190.636	753.54
191.104	596.67
191.571	35.47
192.039	-103.55
192.506	-155.68
192.974	165.25
193.441	-510.83
193.908	-219.45
194.375	-75.55
194.842	-65.95
195.31	13.64
195.777	121.28
196.244	301.67
196.711	318.61
197.177	400.74
197.644	536.66
198.111	941.44
198.578	1341.8
199.045	1091.73
199.511	1808.22
199.978	2093.38
200.445	1784.16
200.911	1976.72
201.378	2225.3
201.844	2028.35
202.31	3429.59
202.777	3612.21
203.243	2014.93
203.709	1934.73
204.176	2293.62
204.642	1860.74
205.108	1743.95
205.574	1401.17
206.04	1263.09
206.506	1171.76
206.972	1102.71
207.438	1073.91
207.903	1220.54
208.369	1078.62
208.835	1078.06
209.301	1128.43
209.766	1145.37
210.232	1141.54
210.697	1410.42
211.163	1720.7
211.628	2574.6
212.094	2151.68
212.559	2657.97
213.024	1636.73
213.49	1991.04
213.955	1907.89
214.42	1849.14
214.885	1737.79
215.35	1656.93
215.815	1621.81
216.28	1730.16
216.745	1394.82
217.21	1494.23
217.675	1332.02
218.14	1481.59
218.604	1618.94
219.069	1823.24
219.534	1911.33
219.998	2186.38
220.463	2609.47
220.927	3134.23
221.392	2944.78
221.856	2985.75
222.32	3698.91
222.785	4558.45
223.249	5702.2
223.713	6336.14
224.177	6344.66
224.642	8075.45
225.106	9906.73
225.57	10787.59
226.034	8037.55
226.497	12138.8
226.961	10959.82
227.425	12831.15
227.889	14247.81
228.353	14217.81
228.816	29343.3
229.28	27989.35
229.744	23610.19
230.207	14382.25
230.671	14140.71
231.134	23325.88
231.597	26941.2
232.061	26821.52
232.524	26168.49
232.987	18015.39
233.45	16310.6
233.914	14652.61
234.377	15021.42
234.84	13770.98
235.303	16218.65
235.766	18128.01
236.229	18731.27
236.691	11801.49
237.154	13286.93
237.617	9987.43
238.08	10214.72
238.542	11924.85
239.005	8524.18
239.468	8475.68
239.93	7981.98
240.393	7262.91
240.855	6379.95
241.317	6541.59
241.78	7949.95
242.242	8232.54
242.704	8927.88
243.166	7787.7
243.629	7109.64
244.091	8204.2
244.553	9000.6
245.015	9706.09
245.477	12555.67
245.939	18409.57
246.4	19572.52
246.862	19060.34
247.324	17997.42
247.786	20126.67
248.247	26389.17
248.709	27201.11
249.17	20365.64
249.632	19278.03
250.093	22416.96
250.555	19408.78
251.016	11879.05
251.477	11299.42
251.939	12223.45
252.4	12818.09
252.861	15264.16
253.322	14274.92
253.783	17024.76
254.244	22119.08
254.705	17427.08
255.166	15479.82
255.627	15268.4
256.088	21573.72
256.549	22905.2
257.009	19731.54
257.47	24000.89
257.931	19562.47
258.391	14666.4
258.852	15088.85
259.312	15827.68
259.773	19570.76
260.233	16607.27
260.694	14040.82
261.154	15934.91
261.614	12852.97
262.074	11531.88
262.534	12006.98
262.994	11349
263.455	15125.7
263.915	12796.03
264.374	12091.69
264.834	13222.83
265.294	14647.29
265.754	15206.45
266.214	14449.16
266.673	13557.52
267.133	17122.17
267.593	17021.94
268.052	20857.55
268.512	18177.18
268.971	21967.23
269.431	24092.73
269.89	21592.6
270.349	32458.78
270.809	36259.55
271.268	32599.77
271.727	73164.06
272.186	47482.73
272.645	35651.09
273.104	25718.61
273.563	37258.16
274.022	29316.34
274.481	25004.13
274.94	19320.24
275.399	14387.04
275.857	16743.4
276.316	22680.85
276.775	20205.02
277.233	19922.47
277.692	18693.49
278.15	21218.24
278.609	21893.66
279.067	20284.92
279.525	18882.92
279.984	24406.53
280.442	29321.99
280.9	28984.48
281.358	19089.89
281.816	17805.58
282.274	17463.63
282.732	18022.38
283.19	18091.15
283.648	15601.78
284.106	16652.33
284.564	16921.19
285.021	15708.84
285.479	11722.47
285.937	10671.98
286.394	9379.5
286.852	9674.97
287.309	10174.98
287.767	9864.82
288.224	9424.52
288.682	10369.99
289.139	11389.17
289.596	10461.32
290.053	10875.74
290.511	13719.79
290.968	16683.29
291.425	22653.79
291.882	18903.95
292.339	16474.67
292.796	16368.6
293.252	15424.02
293.709	12276.83
294.166	11021.98
294.623	12181.67
295.079	11715.38
295.536	11799.6
295.992	10696.89
296.449	10569.82
296.905	10995.01
297.362	10564.14
297.818	11115.31
298.274	11546.55
298.731	11776.57
299.187	11661.16
299.643	12544.88
300.099	15178.34
300.555	16653.37
301.011	13949.73
301.467	13492.71
301.923	15763.66
302.379	15398.52
302.835	15133.04
303.291	15165.24
303.746	17252.26
304.202	21803.21
304.658	21883.59
305.113	14731.44
305.569	14445.23
306.024	15372.6
306.479	14648.58
306.935	12373.43
307.39	13514.18
307.845	12490.97
308.301	12567.53
308.756	12245.33
309.211	11821.14
309.666	12098.6
310.121	15049.15
310.576	15282.36
311.031	15175.95
311.486	17372.36
311.94	17380.07
312.395	23251.58
312.85	43785.83
313.305	215227.19
313.759	1119820.35
314.214	81039.55
314.668	64417
315.123	54191.05
315.577	19460.67
316.032	17393.51
316.486	21790.93
316.94	17221.63
317.394	12031.43
317.849	9341.56
318.303	8836.18
318.757	8341.61
319.211	9238.69
319.665	8088
320.119	8183.5
320.572	11730.72
321.026	10944.03
321.48	9115.55
321.934	9927.51
322.387	9961.59
322.841	10782.1
323.295	9742.65
323.748	11213.39
324.202	11389.51
324.655	13691.67
325.108	19169.52
325.562	13588.83
326.015	16152.22
326.468	12250.28
326.921	13721.46
327.374	12798.28
327.827	13328.7
328.28	15072.24
328.733	10100.76
329.186	8890.11
329.639	8479.89
330.092	7152.14
330.545	6804.83
330.997	6859.3
331.45	7503.63
331.903	8804.18
332.355	15119.25
332.808	14702.88
333.26	12166.34
333.713	13201.37
334.165	13276.28
334.617	17724.17
335.069	14314.04
335.522	25857.16
335.974	28695.62
336.426	26213.5
336.878	18160.48
337.33	9218.14
337.782	9004.2
338.234	11253.83
338.686	13478.02
339.137	15994
339.589	15062.71
340.041	11823.85
340.493	10172.78
340.944	10431.42
341.396	11233.51
341.847	9470.89
342.299	11194.14
342.75	13693.05
343.201	11960.5
343.653	13752.74
344.104	16917.13
344.555	13331.91
345.006	20706.03
345.457	15937.11
345.908	12681.23
346.359	11942.3
346.81	9722.08
347.261	10253.45
347.712	10093.41
348.163	10837.56
348.613	11012.34
349.064	10299.15
349.515	9032.37
349.965	9294.6
350.416	11189.1
350.866	12276
351.317	13887.81
351.767	23019.13
352.217	29049.6
352.668	24103.8
353.118	22045.22
353.568	21203.64
354.018	16837
354.468	17763.83
354.918	12748.44
355.368	11139.99
355.818	15714.38
356.268	45116.43
356.718	188913.83
357.168	47057.46
357.617	23628.3
358.067	26310.63
358.517	24709.6
358.966	28920.19
359.416	32450.7
359.865	35047.01
360.315	41782.36
360.764	19571.38
361.213	11009.99
361.663	10427.99
362.112	12885.01
362.561	20788.26
363.01	15660.35
363.459	13197.77
363.908	14285.66
364.357	12142.82
364.806	20509.63
365.255	14076.84
365.703	12892.88
366.152	12891.19
366.601	10440.19
367.05	8508.2
367.498	7750.47
367.947	8118.49
368.395	8410.53
368.844	7460.25
369.292	8981.54
369.74	6212.72
370.189	9520.45
370.637	11170.53
371.085	9633.54
371.533	11725.89
371.981	11273.74
372.429	10766.14
372.877	11207.56
373.325	9410.41
373.773	9555.74
374.221	8494.37
374.669	10528.58
375.116	9111.33
375.564	9172.04
376.012	10260.84
376.459	8481.62
376.907	10129.09
377.354	12220.5
377.801	11408.46
378.249	13110.43
378.696	16728.75
379.143	20253.75
379.591	21618.52
380.038	36557.81
380.485	26468.8
380.932	28561.11
381.379	26084.57
381.826	19233.74
382.273	13668.94
382.72	11925.9
383.166	11635.32
383.613	7562.36
384.06	6825.47
384.506	7884.4
384.953	5777.04
385.4	5817.59
385.846	5068.97
386.292	4943.09
386.739	4825.5
387.185	4771.56
387.631	4776.84
388.078	4642.57
388.524	4966.46
388.97	4594.96
389.416	3836.2
389.862	4085.72
390.308	3864.01
390.754	3950.53
391.2	4286
391.645	4391.81
392.091	4218.11
392.537	4084.64
392.983	4090.83
393.428	4053.74
393.874	4346.08
394.319	4374.46
394.765	4169.38
395.21	4289.81
395.655	4037.47
396.101	3797.38
396.546	3436.55
396.991	3471.22
397.436	3241.91
397.881	3128.92
398.326	2958.73
398.771	2807.29
399.216	2456.95
399.661	2215.9
400.106	2214.31
400.551	2269.02
400.995	2036.49
401.44	2021.09
401.885	1902.46
402.329	1920.35
402.774	1849.35
403.218	1798
403.663	1737.47
404.107	1790.56
404.551	1809.77
404.995	1665.56
405.44	1609.61
405.884	1637.85
406.328	1584.51
406.772	1578.32
407.216	1442.81
407.66	1396.91
408.104	1325.3
408.547	1240.84
408.991	1203.45
409.435	1154.37
409.879	1137.13
410.322	1122.37
410.766	1088.11
411.209	1039.32
411.653	1001.13
412.096	981.92
412.54	984.2
412.983	978.86
413.426	985.18
413.869	984.69
414.312	969.26
414.756	937.29
415.199	896.68
415.642	871.98
416.085	872.65
416.527	867.12
416.97	879.32
417.413	836
417.856	826.44
418.298	817.99
418.741	812.04
419.184	811.92
419.626	844.67
420.069	847.49
420.511	853.34
420.953	838.28
421.396	833.11
421.838	813.36
422.28	831.32
422.722	837.31
423.164	848.27
423.606	836.7
424.048	834.95
424.49	794.52
424.932	787.8
425.374	773.76
425.816	783.82
426.258	796.47
426.699	806.33
427.141	796.98
427.582	808.89
428.024	803.39
428.465	797.1
428.907	778.96
429.348	767.88
429.789	768.6
430.231	753.84
430.672	765.42
431.113	746.71
431.554	736.13
431.995	716
432.436	690.38
432.877	675.61
433.318	666.88
433.759	661.35
434.2	662.87
434.64	654.23
435.081	656.4
435.522	621.19
435.962	598.82
436.403	585.18
436.843	590.39
437.284	577.06
437.724	560.99
438.164	558.58
438.604	546.35
439.045	526.38
439.485	504.88
439.925	493.48
440.365	481.19
440.805	473.6
441.245	466.42
441.685	450.67
442.125	446.39
442.564	448.46
443.004	437.37
443.444	435.82
443.883	436.32
444.323	432.3
444.762	429.7
445.202	432.3
445.641	440.62
446.081	437.07
446.52	439.73
446.959	435.65
447.398	425.59
447.837	420.61
448.276	412.29
448.716	415.95
449.154	418.21
449.593	410.67
450.032	409.99
450.471	400.23
450.91	400.38
451.349	399.98
451.787	397.94
452.226	402.15
452.664	402.6
453.103	401.9
453.541	397.93
453.98	397.76
454.418	399.19
454.856	393.65
455.295	394.62
455.733	397.64
456.171	398.15
456.609	400.32
457.047	401.23
457.485	407.12
457.923	409.51
458.361	404.3
458.798	405.7
459.236	404.92
459.674	406.81
460.111	407.2
460.549	403.51
460.987	403.1
461.424	399.68
461.862	398.11
462.299	391.57
462.736	392.22
463.173	393.72
463.611	390.88
464.048	390.81
464.485	395.1
464.922	392.22
465.359	389.2
465.796	387.79
466.233	385.84
466.67	383.7
467.106	384.25
467.543	379.05
467.98	375.98
468.416	365.37
468.853	361.23
469.29	350.15
469.726	346.86
470.162	338.98
470.599	332.07
471.035	328.41
471.471	320.49
471.907	317.78
472.344	315.77
472.78	316.72
473.216	320.11
473.652	317.15
474.088	316.05
474.523	315
474.959	317.88
475.395	314.45
475.831	313.8
476.266	314.7
476.702	313.37
477.138	309.97
477.573	309.01
478.008	308.57
478.444	310.36
478.879	313.62
479.314	315.51
479.75	315.16
480.185	316.55
480.62	317.7
481.055	318.8
481.49	321.19
481.925	326.05
482.36	331.44
482.795	340.35
483.229	349.02
483.664	356.51
484.099	358.4
484.534	365.11
484.968	369.03
485.403	370.54
485.837	370.67
486.271	370.94
486.706	371.39
487.14	367.16
487.574	361.69
488.009	358.69
488.443	355.26
488.877	358.65
489.311	359.32
489.745	364.11
490.179	368.59
490.613	377.35
491.046	380.84
491.48	384.7
491.914	386.22
492.348	389.85
492.781	393.38
493.215	395.44
493.648	397.21
494.082	401.05
494.515	402.79
494.948	408.93
495.382	411.14
495.815	414.93
496.248	419.76
496.681	428.39
497.114	436.16
497.547	443.9
497.98	453.5
498.413	459.3
498.846	467.25
499.279	473.37
499.711	477.26
500.144	480.96
500.577	489.72
501.009	497.62
501.442	506.45
501.874	510.01
502.306	513.18
502.739	521.64
503.171	533
503.603	537.1
504.036	545.84
504.468	552.11
504.9	562.04
505.332	568.69
505.764	574.77
506.196	581.53
506.627	593.35
507.059	604.38
507.491	611.3
507.923	612.04
508.354	624.78
508.786	634.22
509.217	648.77
509.649	661.06
510.08	675.79
510.512	690.1
510.943	702.3
511.374	713.28
511.805	729.88
512.237	746.24
512.668	770.99
513.099	791.54
513.53	812.76
513.961	829.14
514.391	853.14
514.822	878.89
515.253	906.19
515.684	925.59
516.114	947.62
516.545	965.33
516.975	985.01
517.406	999.79
517.836	1002.67
518.267	1008.4
518.697	1024.38
519.127	1029.39
519.558	1036.08
519.988	1039.19
520.418	1049.2
520.848	1062.87
521.278	1069.86
521.708	1093.15
522.138	1102.98
522.567	1127.47
522.997	1147.38
523.427	1158.29
523.857	1171.5
524.286	1179.67
524.716	1191.86
525.145	1206.01
525.575	1214.57
526.004	1225.84
526.433	1212.73
526.863	1213.94
527.292	1207.65
527.721	1212.96
528.15	1218.17
528.579	1219.9
529.008	1228.81
529.437	1245.41
529.866	1255.18
530.295	1268.68
530.724	1277.83
531.152	1297.55
531.581	1309.02
532.01	1323.01
532.438	1329.76
532.867	1340.5
533.295	1354.81
533.723	1359.5
534.152	1358.24
534.58	1360.54
535.008	1349.46
535.436	1352.17
535.865	1359.26
536.293	1370.06
536.721	1381.74
537.149	1400.2
537.576	1403.76
538.004	1413.35
538.432	1419.87
538.86	1420.97
539.287	1425.7
539.715	1437.41
540.143	1439.81
540.57	1438.11
540.998	1435.62
541.425	1419.89
541.852	1405.3
542.28	1404.06
542.707	1392.73
543.134	1383.71
543.561	1380.12
543.988	1375.44
544.415	1374.52
544.842	1370.31
545.269	1365.07
545.696	1367.58
546.123	1376.92
546.549	1369.51
546.976	1359.71
547.403	1358.53
547.829	1359.44
548.256	1361.2
548.682	1358.46
549.108	1353.15
549.535	1352.87
549.961	1354.08
550.387	1343.34
550.813	1339.35
551.24	1344.39
551.666	1345.17
552.092	1338.63
552.518	1333.92
552.943	1328.81
553.369	1334.43
553.795	1338.76
554.221	1340.28
554.646	1337.01
555.072	1345.2
555.498	1348.08
555.923	1353.89
556.349	1365.59
556.774	1371.92
557.199	1371.93
557.625	1375.97
558.05	1370.45
558.475	1377.18
558.9	1375.51
559.325	1369.5
559.75	1364.96
560.175	1360.19
560.6	1356.01
561.025	1353.81
561.449	1354.22
561.874	1358.94
562.299	1363.29
562.723	1369.41
563.148	1362.81
563.572	1365.79
563.997	1373.32
564.421	1377.23
564.846	1377.89
565.27	1380.68
565.694	1379.4
566.118	1388.16
566.542	1393.19
566.966	1387.97
567.39	1383.79
567.814	1375.08
568.238	1374.92
568.662	1379.37
569.086	1381.88
569.509	1387.04
569.933	1376.05
570.357	1370.91
570.78	1355.41
571.204	1346.41
571.627	1338.64
572.05	1338.51
572.474	1338.78
572.897	1328.85
573.32	1323
573.743	1314.35
574.166	1301.35
574.589	1301.14
575.012	1294.79
575.435	1293.66
575.858	1285.61
576.281	1277.55
576.704	1264.85
577.126	1255.61
577.549	1248.01
577.972	1240.64
578.394	1234.2
578.817	1228.16
579.239	1213.13
579.661	1202.78
580.084	1191.06
580.506	1181.84
580.928	1177.37
581.35	1168.53
581.772	1164.24
582.194	1153.58
582.616	1143.43
583.038	1130.8
583.46	1122.45
583.882	1120.17
584.303	1122.8
584.725	1119.01
585.147	1121.49
585.568	1128.68
585.99	1138.06
586.411	1142.34
586.833	1153.55
587.254	1154.64
587.675	1165.64
588.096	1174.68
588.518	1170.2
588.939	1157.18
589.36	1155.22
589.781	1145.97
590.202	1127.34
590.623	1120.83
591.043	1118.95
591.464	1108.98
591.885	1106.79
592.305	1102.53
592.726	1093.46
593.147	1093.94
593.567	1090.69
593.987	1084.8
594.408	1080.44
594.828	1077.66
595.248	1073.48
595.669	1060.29
596.089	1054.5
596.509	1049.37
596.929	1039.02
597.349	1038.77
597.769	1031.13
598.189	1025.92
598.608	1026.58
599.028	1028.26
599.448	1027.19
599.867	1016.89
600.287	1012.8
600.706	1010.05
601.126	1002.99
601.545	1002.26
601.965	1000.65
602.384	997.51
602.803	999.59
603.222	995.16
603.641	988.81
604.061	986.61
604.48	984.23
604.898	989.97
605.317	993.86
605.736	993.84
606.155	991.37
606.574	984.15
606.992	987.16
607.411	983.38
607.829	977.48
608.248	975.05
608.666	972.28
609.085	971.42
609.503	965.08
609.921	959.67
610.339	960.72
610.758	959.6
611.176	955.51
611.594	947.91
612.012	944.7
612.43	947.72
612.847	952.03
613.265	953.53
613.683	955.22
614.101	955.76
614.518	951.84
614.936	944.58
615.353	934.06
615.771	932.55
616.188	932.95
616.606	930.39
617.023	924.77
617.44	914.01
617.857	907.78
618.274	901.32
618.691	897.01
619.108	890.83
619.525	885.98
619.942	890.07
620.359	890.62
620.776	886.55
621.192	883.02
621.609	880.69
622.026	886.76
622.442	891.08
622.859	893.56
623.275	887.37
623.691	890.99
624.108	898.85
624.524	908.89
624.94	909.58
625.356	915.82
625.772	925.5
626.188	934.63
626.604	935.32
627.02	932.04
627.436	930.27
627.852	937.19
628.268	946.11
628.683	940.53
629.099	934.27
629.514	930.5
629.93	933.98
630.345	936.42
630.761	932.87
631.176	935.01
631.591	931.61
632.007	927.56
632.422	924.05
632.837	914.95
633.252	912.54
633.667	905.14
634.082	898.17
634.497	889.55
634.911	875.94
635.326	873.62
635.741	861.18
636.155	852.46
636.57	853.26
636.984	853.54
637.399	854.66
637.813	852.98
638.228	851.24
638.642	854.36
639.056	844.26
639.47	843.54
639.884	835.11
640.298	828.22
640.712	826.18
641.126	814.98
641.54	806.62
641.954	799.6
642.368	790.87
642.781	784.6
643.195	769.2
643.609	768.9
644.022	761.25
644.436	756.5
644.849	746.27
645.262	736.58
645.676	735.78
646.089	730.84
646.502	720.5
646.915	714.08
647.328	700.45
647.741	698.55
648.154	687.7
648.567	686.72
648.98	677.17
649.393	676.69
649.805	672.57
650.218	666.53
650.631	654.96
651.043	649.75
651.456	645.53
651.868	644.24
652.28	653.47
652.693	661.24
653.105	663.57
653.517	668.62
653.929	667.38
654.341	670.54
654.753	661.86
655.165	663.74
655.577	659.55
655.989	656.01
656.401	649.95
656.813	625.6
657.224	612.01
657.636	591.93
658.047	579.51
658.459	567.32
658.87	559.23
659.282	550.83
659.693	538.39
660.104	528.76
660.515	518.07
660.926	515.01
661.338	511.8
661.749	505.86
662.159	498.99
662.57	494.16
662.981	488.66
663.392	482.86
663.803	482.91
664.213	479.44
664.624	475.35
665.035	473.75
665.445	464.83
665.855	459.87
666.266	454.87
666.676	452.74
667.086	447.52
667.497	446.88
667.907	443.11
668.317	436.72
668.727	435.51
669.137	435.06
669.547	434.23
669.956	435.32
670.366	436.35
670.776	436.58
671.186	437.39
671.595	438.68
672.005	439.93
672.414	439.54
672.824	438.72
673.233	438.73
673.642	438.92
674.052	441.22
674.461	442.84
674.87	445.5
675.279	444.56
675.688	444.71
676.097	445.98
676.506	444.18
676.915	452.79
677.323	455.86
677.732	456.06
678.141	458.78
678.549	452.75
678.958	452.43
679.366	452.4
679.775	455.7
680.183	465.14
680.592	469.51
681	474.8
681.408	471.83
681.816	477.05
682.224	483.32
682.632	491.05
683.04	511.35
683.448	529.16
683.856	551.05
684.264	577.01
684.671	598.11
685.079	626.33
685.487	656.94
685.894	700.08
686.302	736.71
686.709	769.72
687.116	806.02
687.524	838.74
687.931	867.27
688.338	893.47
688.745	915.88
689.152	943.24
689.559	976.91
689.966	1011.25
690.373	1031.63
690.78	1065.13
691.187	1112.14
691.593	1150.91
692	1184.14
692.407	1231.9
692.813	1290.09
693.22	1335.68
693.626	1382.58
694.032	1421.56
694.439	1478.86
694.845	1522.32
695.251	1578.75
695.657	1630.2
696.063	1704.34
696.469	1758.96
696.875	1809.49
697.281	1838.21
697.687	1873.11
698.093	1904.65
698.498	1962.47
698.904	2005.75
699.31	2072.89
699.715	2120.05
700.12	2186.34
700.526	2199.35
700.931	2252.62
701.337	2293.51
701.742	2316.39
702.147	2380.91
702.552	2402.66
702.957	2445.99
703.362	2462.42
703.767	2483.36
704.172	2512.26
704.577	2477.75
704.981	2512.32
705.386	2523.53
705.791	2515.38
706.195	2570.22
706.6	2575.7
707.004	2633.54
707.408	2610.41
707.813	2628.65
708.217	2619.08
708.621	2619.23
709.025	2690.47
709.43	2690.18
709.834	2733.11
710.237	2782.74
710.641	2769.92
711.045	2786.16
711.449	2781.77
711.853	2801.6
712.256	2830.97
712.66	2856.77
713.064	2911.8
713.467	2942.95
713.87	3026.03
714.274	3059.46
714.677	3140.12
715.08	3260.29
715.484	3381.42
715.887	3528.04
716.29	3672.13
716.693	3824.81
717.096	4001.86
717.499	4096.14
717.901	4112.6
718.304	4127.26
718.707	4143.08
719.109	4067.57
719.512	4042.71
719.915	3941.57
720.317	3899.26
720.719	3932.15
721.122	3909.13
721.524	3870.38
721.926	3839.97
722.328	3913.76
722.731	3909.77
723.133	3928.52
723.535	4066.48
723.937	4079.38
724.338	4115.72
724.74	4145.6
725.142	4107.25
725.544	4103.04
725.945	4125.12
726.347	4121.83
726.748	4112.58
727.15	4120.14
727.551	4094.22
727.952	4074.35
728.354	4052.87
728.755	4055.38
729.156	4022.98
729.557	4004.17
729.958	3915.65
730.359	3869.81
730.76	3854.21
731.161	3810.58
731.562	3791.11
731.962	3792.22
732.363	3745.53
732.763	3699.98
733.164	3725.07
733.564	3675.9
733.965	3604.75
734.365	3580.66
734.766	3601.39
735.166	3571.56
735.566	3530.37
735.966	3510.8
736.366	3506.43
736.766	3463.28
737.166	3486.79
737.566	3458.38
737.966	3441.89
738.365	3469.71
738.765	3463.68
739.165	3410.31
739.564	3392.01
739.964	3425.25
740.363	3391.4
740.763	3389.22
741.162	3377.6
741.561	3352.23
741.96	3316.2
742.36	3329.41
742.759	3335.42
743.158	3362.54
743.557	3371.37
743.955	3400.15
744.354	3367.71
744.753	3406.1
745.152	3376.01
745.55	3416.12
745.949	3410.81
746.348	3411.57
746.746	3424.07
747.144	3394.81
747.543	3380.34
747.941	3414.49
748.339	3363.73
748.737	3358.38
749.136	3355.28
749.534	3401.28
749.932	3382.5
750.33	3400.83
750.727	3441.74
751.125	3423.44
751.523	3410.56
751.921	3440.98
752.318	3417.49
752.716	3462.15
753.113	3471.35
753.511	3490.24
753.908	3488.9
754.305	3476.27
754.703	3518.02
755.1	3560.26
755.497	3601.59
755.894	3736.21
756.291	3862.88
756.688	4100.5
757.085	4410.31
757.482	4848.55
757.878	5326.52
758.275	5763.3
758.672	6360.31
759.068	6851.23
759.465	7547.06
759.861	8446.44
760.258	9493.76
760.654	10029.94
761.05	9940.44
761.447	9487.96
761.843	8840.42
762.239	8161.02
762.635	7855.54
763.031	7565.34
763.427	7140.83
763.822	6694.88
764.218	6256.53
764.614	5683.43
765.01	5304.39
765.405	5059.18
765.801	4873.73
766.196	4635.26
766.592	4505.2
766.987	4281.16
767.382	4127.2
767.778	4062.52
768.173	3969.32
768.568	3917.62
768.963	3829.35
769.358	3845.31
769.753	3812.81
770.148	3752.01
770.542	3751.31
770.937	3728.79
771.332	3792.93
771.726	3806.97
772.121	3763.99
772.515	3805.07
772.91	3794.29
773.304	3846.43
773.699	3796.29
774.093	3832.8
774.487	3872.78
774.881	3902.53
775.275	3898.87
775.669	3869.35
776.063	3902.13
776.457	3928.26
776.851	3876.94
777.245	3873.32
777.638	3894.64
778.032	3976.34
778.425	3952.3
778.819	3984.96
779.212	3956.21
779.606	3930.52
779.999	3945.67
780.392	3933.56
780.786	3991.02
781.179	4003.97
781.572	4033.52
781.965	4044.04
782.358	4003.28
782.751	4045.97
783.143	4007.99
783.536	4060.09
783.929	4088.48
784.322	4169.61
784.714	4189.78
785.107	4186.94
785.499	4237.97
785.891	4221.22
786.284	4206.82
786.676	4308.89
787.068	4293.13
787.46	4330.28
787.852	4339.32
788.245	4397.2
788.636	4417.87
789.028	4466.24
789.42	4494.99
789.812	4500.94
790.204	4569.33
790.595	4641.57
790.987	4500.83
791.378	4516.5
791.77	4611.04
792.161	4710.07
792.553	4750.54
792.944	4668.43
793.335	4617.15
793.726	4669.56
794.117	4732.13
794.508	4827.02
794.899	4800.58
795.29	4901.5
795.681	4941.15
796.072	4837.95
796.463	4712.12
796.853	4722.35
797.244	4836.73
797.634	4862.51
798.025	4857.14
798.415	4862.78
798.806	4923.4
799.196	4988.26
799.586	5022.56
799.976	4993.44
800.366	5157.24
800.756	5319.28
801.146	5289.87
801.536	5307.15
801.926	5356.17
802.316	5375.1
802.706	5428.04
803.095	5343.54
803.485	5411.68
803.874	5436.73
804.264	5620.39
804.653	5597.34
805.043	5701.99
805.432	5773.23
805.821	5774.82
806.21	5789.35
806.599	5869.85
806.988	5901.29
807.377	5974.21
807.766	6069.93
808.155	6273.33
808.544	6086.08
808.933	6098.22
809.321	6079.99
809.71	6291.11
810.098	6402.83
810.487	6728.06
810.875	7072.55
811.264	7084.76
811.652	7294.52
812.04	7392.27
812.428	7511.79
812.816	8048.25
813.204	8338.97
813.592	8727.7
813.98	8958.65
814.368	8888.23
814.756	9223.15
815.144	9162
815.531	9489.52
815.919	9431.66
816.306	9650.04
816.694	9420.82
817.081	9459.93
817.469	9700.98
817.856	9705.41
818.243	9896.96
818.63	10177.05
819.017	9886.71
819.404	9925.49
819.791	10198.09
820.178	10627.31
820.565	10788.4
820.952	11447.87
821.339	11103.68
821.725	11227.35
822.112	10696.65
822.498	10662.28
822.885	10749.33
823.271	10678.32
823.657	10978.83
824.044	10979.69
824.43	11030.78
824.816	11019.1
825.202	10708.12
825.588	11413.97
825.974	11432.31
826.36	11804.51
826.746	11830.8
827.132	12080.77
827.517	12066.64
827.903	11507.03
828.289	11535.34
828.674	10990.55
829.06	10915.25
829.445	11195.27
829.83	11446.61
830.216	11782.08
830.601	12028.73
830.986	11748.51
831.371	11654.37
831.756	12039.1
832.141	11746.15
832.526	11739.36
832.911	11942.25
833.295	11860.87
833.68	12193.99
834.065	11767.38
834.449	11127.66
834.834	11079.59
835.218	11077.69
835.603	11318.69
835.987	11173.74
836.371	11754.9
836.755	11688.02
837.139	11970.32
837.524	12144.66
837.908	12017.73
838.291	12057.98
838.675	12107.84
839.059	12253.79
839.443	12243.15
839.827	12074.2
840.21	12413.2
840.594	12312.47
840.977	12458.11
841.361	12440.35
841.744	12695.72
842.127	12586.16
842.511	12761.71
842.894	13174.55
843.277	13441.45
843.66	13824.65
844.043	13890.18
844.426	13329.08
844.809	13107.71
845.191	13128.16
845.574	12809.28
845.957	12555.89
846.339	12481.75
846.722	12106.55
847.104	12153.52
847.487	12034.19
847.869	12044.44
848.252	12242.25
848.634	12470.07
849.016	12659.48
849.398	12747.55
849.78	13343.56
850.162	13357.15
850.544	13648.95
850.926	14094.88
851.307	14044.88
851.689	14244.87
852.071	14561.57
852.452	14787.21
852.834	14767.8
853.215	15040.41
853.597	15145.17
853.978	15345.69
854.359	15654.78
854.741	14957.03
855.122	14886.88
855.503	14673.91
855.884	14767.99
856.265	14727.14
856.646	14806.07
857.026	14532.73
857.407	14490.12
857.788	14603.92
858.169	14805.6
858.549	14212.9
858.93	14649.18
859.31	14681.26
859.69	14831.95
860.071	14539.27
860.451	14383.62
860.831	13861.33
861.211	14678.7
861.591	15070.04
861.971	15044.59
862.351	15179.2
862.731	15450.53
863.111	15638.79
863.491	15869.95
863.87	16483.12
864.25	16733.96
864.629	16452.02
865.009	16817.19
865.388	17407.64
865.768	18635
866.147	18569.99
866.526	17546.14
866.905	17744.84
867.284	18734.23
867.663	17793.25
868.042	17058.02
868.421	16989.46
868.8	17270.83
869.179	17440.71
869.558	16427.85
869.936	15159.78
870.315	15428.91
870.693	15803.49
871.072	17047.18
871.45	16241.15
871.828	16450.93
872.207	17293.13
872.585	17034.76
872.963	17501.52
873.341	16908.36
873.719	16704.38
874.097	16494.35
874.475	16798.04
874.853	17184.32
875.23	16465.15
875.608	17154.22
875.986	18537
876.363	17717.67
876.741	18263.94
877.118	17815.03
877.495	18677.25
877.873	18985.69
878.25	19974.33
878.627	19171.86
879.004	19436.77
879.381	19354.52
879.758	18847.87
880.135	17564.65
880.512	18575.7
880.889	18083.58
881.265	17883.43
881.642	17738.2
882.019	18047.5
882.395	17686.66
882.772	18384.06
883.148	17589.38
883.524	17515.64
883.901	17417.74
884.277	17675.88
884.653	17571.45
885.029	18086.46
885.405	20032.58
885.781	19872.34
886.157	19056.44
886.532	19292.68
886.908	19288.74
887.284	21449.13
887.659	22160.73
888.035	22851.37
888.411	23439.66
888.786	23746.68
889.161	24563.63
889.537	24116.89
889.912	24895.83
890.287	24876.4
890.662	25523.47
891.037	25050.76
891.412	23363
891.787	23122.24
892.162	22304.94
892.536	22836.92
892.911	21981.14
893.286	21518.3
893.66	20646.75
894.035	21171.72
894.409	23057.03
894.784	22124.41
895.158	22497.29
895.532	23821.76
895.906	24468.12
896.281	25056.25
896.655	24645.28
897.029	28160.74
897.402	29332.84
897.776	32635.39
898.15	32512.9
898.524	32140.83
898.898	32563.25
899.271	36458.54
899.645	31595.84
900.018	30354.16
900.392	31469.12
900.765	31721.03
901.138	29362.05
901.511	28915.49
901.884	26558.65
902.258	24501.04
902.631	25327.95
903.003	29143.61
903.376	26298.57
903.749	29479.82
904.122	31557.04
904.495	34750.97
904.867	35199.18
905.24	30550.91
905.612	28423.89
905.985	29079.49
906.357	30413.38
906.729	29040.88
907.102	24812.4
907.474	23861.54
907.846	24026.33
908.218	23717.86
908.59	20970.94
908.962	20275.82
909.334	21831.46
909.705	22942.38
910.077	22276.52
910.449	23181.16
910.82	23826.54
911.192	26217.06
911.563	27243.97
911.935	29145.38
912.306	29161.43
912.677	30072.47
913.048	29792.79
913.419	32341.57
913.79	32532.8
914.161	34881.49
914.532	33342.09
914.903	30633.68
915.274	29094.59
915.645	28653.37
916.015	25206.29
916.386	24040.13
916.756	25609.31
917.127	26391.04
917.497	23574.16
917.868	25654.74
918.238	24370.34
918.608	25077.67
918.978	25576.08
919.348	27077.2
919.718	27968.21
920.088	26945.88
920.458	28003.97
920.828	29460.86
921.198	27945.93
921.567	29854.33
921.937	23115.57
922.306	23343.47
922.676	25180.47
923.045	21032.68
923.415	20000.13
923.784	18222.98
924.153	18740.07
924.522	18721.01
924.891	17600.76
925.26	18849.9
925.629	18398.8
925.998	21148.76
926.367	20645.86
926.736	19662.6
927.104	23413.38
927.473	25143.42
927.842	30378.74
928.21	30097.3
928.578	31644.83
928.947	29922.72
929.315	30102.32
929.683	35298.26
930.051	35567.8
930.42	41296.35
930.788	35292.73
931.156	35015.85
931.523	32837.15
931.891	30343.05
932.259	29132.21
932.627	33755.82
932.994	47771.06
933.362	39531.9
933.729	34361.57
934.097	32887.68
934.464	27826.32
934.831	32088.78
935.199	31644.52
935.566	30701.05
935.933	31168.47
936.3	37751.18
936.667	29422
937.034	26561.86
937.401	26262.54
937.767	22687.05
938.134	20230.15
938.501	28550.56
938.867	30474.88
939.234	51515.13
939.6	43965.64
939.967	48350.87
940.333	32393.7
940.699	27538.76
941.065	22090.58
941.431	28945.88
941.798	27914.56
942.163	36630.86
942.529	22877.69
942.895	21036.68
943.261	13626
943.627	17885.17
943.992	15683.14
944.358	15713.16
944.723	15795.89
945.089	15374.18
945.454	14203.68
945.82	15160.63
946.185	14582.62
946.55	16933.81
946.915	15209.53
947.28	17822.43
947.645	15676.89
948.01	14442.33
948.375	15037.04
948.74	17999.51
949.104	21001.95
949.469	30342.74
949.834	53529.18
950.198	50770.93
950.562	30388.55
950.927	25305.48
951.291	30440.62
951.655	25959.87
952.02	24390.75
952.384	18481.34
952.748	16101.12
953.112	15728.76
953.476	13662.32
953.839	12628.65
954.203	12485.39
954.567	15605.46
954.931	24575.76
955.294	21024.55
955.658	21126.01
956.021	35932.48
956.385	60805.95
956.748	89706.1
957.111	139005.37
957.474	156156.69
957.837	176135.11
958.2	133192.05
958.563	47967.49
958.926	32432.7
959.289	49193.76
959.652	54944.41
960.015	41199.44
960.377	59212.6
960.74	67553.47
961.102	116605.72
961.465	125169.68
961.827	67038.13
962.189	128716.98
962.552	89178.37
962.914	71478.24
963.276	46398.24
963.638	38379.47
964	37982.12
964.362	25697.79
964.724	24839.55
965.085	17717.39
965.447	14530.54
965.809	16557.66
966.17	16590.48
966.532	17950.47
966.893	16467.9
967.255	15009.24
967.616	17716.93
967.977	14198.37
968.338	15482.94
968.699	12705.65
969.061	12700.53
969.421	12786.12
969.782	14338.6
970.143	12124.16
970.504	12573.25
970.865	14306.72
971.225	14604.23
971.586	14271.17
971.946	20340.48
972.307	17658.82
972.667	23115.67
973.027	23808.52
973.388	28851.07
973.748	19599.37
974.108	21339.17
974.468	28830.31
974.828	22231.07
975.188	17114.62
975.548	15732.99
975.907	13214.39
976.267	14818.78
976.627	12468.95
976.986	12929.71
977.346	12332.9
977.705	11887.93
978.064	10804.4
978.424	9002.84
978.783	9298.96
979.142	10613.22
979.501	10170.15
979.86	10751.94
980.219	10362.78
980.578	13340.88
980.937	14920.28
981.296	13309.76
981.654	13698.65
982.013	21355.43
982.371	27716.3
982.73	25928.22
983.088	29376.76
983.447	31340.57
983.805	44764.73
984.163	93482.79
984.521	103938.68
984.879	152569.23
985.237	-247971.46
985.595	239158.21
985.953	59376.14
986.311	34200.06
986.669	19842.18
987.026	17124.84
987.384	23017.22
987.741	23789.96
988.099	17060.49
988.456	13590.46
988.814	12731.72
989.171	11072.35
989.528	10891.37
989.885	11489.21
990.242	9107.83
990.599	11348.2
990.956	9290.93
991.313	6496.33
991.67	5335.15
992.027	5648.69
992.383	5024.05
992.74	4402.93
993.096	4626.58
993.453	4804.92
993.809	4986.2
994.165	6642.05
994.522	6099.79
994.878	6714.2
995.234	8437.58
995.59	8324.39
995.946	7868.34
996.302	8976.59
996.658	10401.23
997.013	11438.88
997.369	13557.34
997.725	17359.8
998.08	11283.02
998.436	17339.63
998.791	23941.74
999.147	23902.85
999.502	26101.58
999.857	19015.27
1000.212	30967.38
1000.567	44023.27
1000.922	25357.19
1001.277	16115.29
1001.632	11961.25
1001.987	15336.86
1002.342	10978.47
1002.696	8785.38
1003.051	7010.61
1003.406	8508.62
1003.76	8439.01
1004.114	8313.9
1004.469	6977.71
1004.823	5784.71
1005.177	6259.73
1005.531	4961.78
1005.885	4412.77
1006.239	5012
1006.593	6261.9
1006.947	8393.13
1007.301	6284.64
1007.655	6852.45
1008.008	5040.13
1008.362	5679.8
1008.715	8117.02
1009.069	7358.1
1009.422	11103.78
1009.776	22258.07
1010.129	14734.33
1010.482	12356.08
1010.835	10381.98
1011.188	21552.02
1011.541	20323.3
1011.894	-123747.35
1012.247	363419.28
1012.6	24689.85
1012.952	15564.98
1013.305	7995.02
1013.657	5767.57
1014.01	5456.43
1014.362	4511.33
1014.715	4047.55
1015.067	3538.57
1015.419	3453.29
1015.771	3068.32
1016.123	2737.23
1016.475	2815
1016.827	3003.28
1017.179	3238.68
1017.531	3269.22
1017.883	3337.75
1018.234	3235.33
1018.586	4061.38
1018.938	4302.21
1019.289	5937.73
1019.64	6787.99
1019.992	6328.7
1020.343	5805.2
1020.694	4590.94
1021.045	4030.45
1021.396	4583.03
1021.747	4936.3
1022.098	5856.98
1022.449	4233.12
1022.8	3932.23
1023.151	2745.36
1023.501	2446.96
1023.852	2648.62
1024.202	2737.7
1024.553	2993.61
1024.903	2960.42
1025.253	2554.55
1025.604	2295.18
1025.954	2859.5
1026.304	3515.79
1026.654	4112.23
1027.004	6063.36
1027.354	9783.45
1027.703	9239.78
1028.053	12130.46
1028.403	17862.29
1028.753	25626.06
1029.102	34702.45
1029.452	178391.15
1029.801	7709.8
1030.15	4969.12
1030.499	4186.42
897.758	2223.85
901.051	2153.39
904.343	2187.15
907.636	2195.45
910.928	2258.99
914.22	2176.96
917.511	2180.68
920.803	2230.54
924.094	2227.8
927.384	2231.86
930.675	2194.64
933.965	2156.2
937.255	2187.5
940.544	2155.38
943.834	2152.29
947.123	2091.65
950.411	2181.82
953.7	2162.75
956.988	2146.13
960.276	2082.44
963.563	2129.81
966.851	2143.08
970.138	2184.63
973.424	2184.88
976.711	2140.83
979.997	2189.43
983.283	2232.88
986.568	2162.17
989.853	2153.17
993.138	2181.06
996.423	2265.22
999.708	2225.77
1002.992	2253.88
1006.275	2168.14
1009.559	2176.92
1012.842	2270.09
1016.125	2225.13
1019.408	2204.02
1022.69	2262.42
1025.972	2296.61
1029.254	2269.03
1032.536	2230.56
1035.817	2237.52
1039.098	2208.83
1042.379	2258.22
1045.659	2283.87
1048.939	2233.79
1052.219	2240.48
1055.498	2233.57
1058.778	2227.76
1062.057	2203.08
1065.335	2226.5
1068.614	2239.96
1071.892	2236.02
1075.17	2287.24
1078.447	2291.28
1081.724	2284.71
1085.001	2310.78
1088.278	2288.83
1091.554	2294.82
1094.83	2290.79
1098.106	2326.84
1101.382	2357.83
1104.657	2355.87
1107.932	2355.54
1111.206	2335.23
1114.481	2286.2
1117.755	2284.79
1121.029	2278.35
1124.302	2336.34
1127.575	2300.83
1130.848	2297.02
1134.121	2266.25
1137.393	2227.85
1140.665	2287.71
1143.937	2265.35
1147.208	2213.01
1150.48	2271.57
1153.75	2260.8
1157.021	2263.71
1160.291	2240.64
1163.561	2295.45
1166.831	2261.04
1170.101	2288.02
1173.37	2249.14
1176.639	2204.09
1179.907	2249.94
1183.176	2272.51
1186.444	2271.32
1189.711	2298.97
1192.979	2321.73
1196.246	2278.08
1199.513	2289.26
1202.78	2295.92
1206.046	2305.35
1209.312	2332.78
1212.578	2351.74
1215.843	2317.85
1219.108	2285.39
1222.373	2312.32
1225.638	2282.48
1228.902	2276.33
1232.166	2230.84
1235.43	2221.02
1238.693	2246.53
1241.956	2237.52
1245.219	2285.58
1248.482	2267.05
1251.744	2266.59
1255.006	2388.3
1258.268	2335.38
1261.529	2292.59
1264.79	2290.83
1268.051	2392.35
1271.312	2397.89
1274.572	2368.59
1277.832	2355.97
1281.092	2336.76
1284.351	2326.4
1287.61	2310.18
1290.869	2246.25
1294.128	2242.81
1297.386	2290.36
1300.644	2284.71
1303.902	2293.55
1307.159	2163.94
1310.416	2214.11
1313.673	2243.37
1316.93	2242
1320.186	2273.63
1323.442	2307.41
1326.697	2306.65
1329.953	2280.41
1333.208	2317.05
1336.463	2288.81
1339.717	2248.53
1342.972	2354.18
1346.226	2329.85
1349.479	2278.13
1352.733	2257.41
1355.986	2264.45
1359.238	2244.18
1362.491	2252.82
1365.743	2254.54
1368.995	2244.75
1372.247	2259.07
1375.498	2280.24
1378.749	2323.59
1382	2272.43
1385.251	2308.72
1388.501	2262.03
1391.751	2263.21
1395	2230.98
1398.25	2255.32
1401.499	2275.53
1404.748	2227.29
1407.996	2204.26
1411.244	2192.7
1414.492	2179.4
1417.74	2163.68
1420.987	2171.41
1424.234	2230.53
1427.481	2191.23
1430.728	2249.42
1433.974	2223.44
1437.22	2224.12
1440.465	2220.11
1443.711	2219.66
1446.956	2244.12
1450.201	2214.61
1453.445	2256.45
1456.689	2241.71
1459.933	2253.77
1463.177	2294.94
1466.42	2266.5
1469.663	2250.76
1472.906	2264.65
1476.148	2314.67
1479.391	2285.86
1482.633	2258.8
1485.874	2284.47
1489.115	2289.46
1492.356	2271.85
1495.597	2250.41
1498.838	2243.78
1502.078	2226.95
1505.318	2196.65
1508.557	2230.95
1511.797	2225.35
1515.036	2270.79
1518.274	2241.47
1521.513	2195.06
1524.751	2206.15
1527.989	2231.34
1531.227	2248.74
1534.464	2259.86
1537.701	2253.23
1540.938	2265.82
1544.174	2212.72
1547.41	2203.81
1550.646	2239.1
1553.882	2290.6
1557.117	2346.62
1560.352	2355.26
1563.587	2317.06
1566.821	2282.47
1570.055	2297.06
1573.289	2280.2
1576.523	2336.82
1579.756	2350.83
1582.989	2372.24
1586.222	2332.74
1589.454	2358.65
1592.686	2341.96
1595.918	2368.4
1599.15	2365.16
1602.381	2412.09
1605.612	2393.56
1608.843	2484
1612.073	2409.5
1615.303	2398.56
1618.533	2393.65
1621.762	2394.37
1624.992	2371.5
1628.221	2372.82
1631.449	2363.82
1634.678	2389.84
1637.906	2358.46
1641.134	2386.74
1644.361	2352.1
1647.588	2341.29
1650.815	2362.39
1654.042	2327.81
1657.269	2354.38
1660.495	2334.43
1663.72	2321
1666.946	2286.64
1670.171	2260.66
1673.396	2235.03
1676.621	2216.14
1679.845	2213.5
1683.069	2222.67
1686.293	2250.83
1689.517	2241.5
1692.74	2193.13
1695.963	2214.28
1699.185	2254.69
1702.408	2228.2
1705.63	2257.5
1708.852	2273.36
1712.073	2246.05
1715.294	2257.73
1718.515	2297.5
1721.736	2257.9
1724.956	2239.02
1728.176	2261.31
1731.396	2282.4
1734.616	2266.75
1737.835	2305.05
1741.054	2274.9
1744.272	2269.68
1747.491	2309.02
1750.709	2333.14
1753.927	2282.2
1757.144	2306.35
1760.361	2361.89
1763.578	2339.45
1766.795	2290.18
1770.011	2279.85
1773.227	2305.45
1776.443	2349.28
1779.658	2389.74
1782.874	2330.02
1786.089	2323.12
1789.303	2325.72
1792.518	2327.22
1795.732	2311.89
1798.945	2327.57
1802.159	2368.02
1805.372	2311.67
1808.585	2306.49
1811.797	2307.01
1815.01	2328.36
1818.222	2351.83
1821.434	2309.55
1824.645	2352.13
1827.856	2360.26
1831.067	2393.46
1834.278	2330.52
1837.488	2314.65
1840.698	2437.9
1843.908	2377.9
1847.117	2348.95
1850.326	2274.41
1853.535	2334.93
1856.744	2372.16
1859.952	2294.46
1863.16	2297.36
1866.368	2310.35
1869.575	2423.09
1872.782	2308.97
1875.989	2241.91
1879.196	2295.04
1882.402	2283.91
1885.608	2320.7
1888.814	2262.72
1892.019	2168.85
1895.224	2222.79
1898.429	2187.83
1901.634	2174.76
1904.838	2148.94
1908.042	2205.65
1911.246	2217.88
1914.449	2178.51
1917.652	2161.04
1920.855	2139.53
1924.058	2165.57
1927.26	2213.16
1930.462	2234.53
1933.664	2274.54
1936.865	2214.97
1940.066	2232.39
1943.267	2177.84
1946.467	2188.87
1949.668	2207.53
1952.868	2279.43
1956.067	2270.49
1959.267	2210.31
1962.466	2232.69
1965.665	2214.4
1968.863	2207.52
1972.061	2210.82
1975.259	2204.38
1978.457	2278.78
1981.654	2239.06
1984.852	2243.3
1988.048	2195.02
1991.245	2182.95
1994.441	2269.36
1997.637	2230.63
2000.833	2210.02
2004.028	2249.35
2007.223	2311.97
2010.418	2300.15
2013.613	2250.89
2016.807	2243.44
2020.001	2236.8
2023.194	2259.73
2026.388	2246.14
2029.581	2189.32
2032.774	2249.97
2035.966	2265.2
2039.158	2206.75
2042.35	2224.87
2045.542	2151.39
2048.733	2232.79
2051.924	2227.09
2055.115	2241.62
2058.306	2206.19
2061.496	2260.04
2064.686	2312.39
2067.875	2219.32
2071.065	2224.26
2074.254	2242.25
2077.442	2196.34
2080.631	2278.02
2083.819	2209.19
2087.007	2202.77
2090.195	2187.29
2093.382	2204.68
2096.569	2186.93
2099.756	2146.73
2102.942	2194.16
2106.128	2204.51
2109.314	2196.23
2112.5	2181.59
2115.685	2150.2
2118.87	2157.52
2122.055	2217.38
2125.239	2198.59
2128.424	2183.59
2131.608	2243.57
2134.791	2231.14
2137.974	2268.77
2141.157	2257.69
2144.34	2226.85
2147.523	2218.03
2150.705	2243.68
2153.887	2211.69
2157.068	2183.32
2160.25	2165.66
2163.431	2189.04
2166.611	2158.87
2169.792	2178.04
2172.972	2090.61
2176.152	2142.73
2179.331	2168.94
2182.511	2172.92
2185.69	2195.18
2188.868	2199.88
2192.047	2235.64
2195.225	2250.58
2198.403	2201.52
2201.58	2190.07
2204.758	2177.34
2207.935	2250.95
2211.111	2165.64
2214.288	2155.63
2217.464	2187.5
2220.64	2145.3
2223.815	2194.63
2226.991	2127.53
2230.166	2143.49
2233.34	2184.2
2236.515	2197.94
2239.689	2262.26
2242.863	2214
2246.036	2267.89
2249.209	2250.38
2252.382	2270.8
2255.555	2277.32
2258.727	2228.56
2261.9	2256.06
2265.071	2248.23
2268.243	2247.25
2271.414	2192.91
2274.585	2174.91
2277.756	2235.26
2280.926	2192.53
2284.096	2221.71
2287.266	2152.14
2290.436	2198.48
2293.605	2217.84
2296.774	2256.18
2299.942	2261.57
2303.111	2276.9
2306.279	2331.11
2309.447	2317.2
2312.614	2286.48
2315.781	2311.45
2318.948	2288.3
2322.115	2325.33
2325.281	2226.49
2328.447	2235.15
2331.613	2205.06
2334.779	2195.62
2337.944	2192.01
2341.109	2192.53
2344.274	2180.92
2347.438	2150.73
2350.602	2171.98
2353.766	2182.42
2356.929	2170.64
2360.092	2206.27
2363.255	2177.46
2366.418	2142.59
2369.58	2211.48
2372.742	2080.15
2375.904	2076.55
2379.066	2062.04
2382.227	2087.4
2385.388	2045.89
2388.548	1997.14
2391.709	2038.93
2394.869	2030.22
2398.029	2083.67
2401.188	2081.49
2404.347	2043.48
2407.506	2126.24
2410.665	2162.76
2413.823	2148.15
2416.981	2126.95
2420.139	2146.24
2423.296	2187.19
2426.453	2158.08
2429.61	2178.55
2432.767	2149.49
2435.923	2188.44
2439.079	2135.27
2442.235	2171.27
2445.391	2113.99
2448.546	2157.21
2451.701	2191.05
2454.855	2186.21
2458.009	2212.75
2461.163	2206.13
2464.317	2177.64
2467.471	2203.6
2470.624	2232.14
2473.777	2222.28
2476.929	2237.58
2480.082	2259.9
2483.234	2232.3
2486.385	2172.65
2489.537	2167.65
2492.688	2158.13
2495.839	2172.86
2498.989	2187.69
2502.14	2175.7
2505.29	2168.74
2508.439	2190.42
2511.589	2130.76
2514.738	2131.01
2517.887	2156
2521.035	2231.65
2524.183	2191.43
2527.331	2177.78
2530.479	2171.83
2533.627	2174.22
