Data from C_2_DIV_PA_2N_Splice17_12-40-41-493.txt Node
Date: Sat Mar 14 12:40:41 EDT 2020
User: sa697716
Spectrometer: FLMS03696
Trigger mode: 0
Integration Time (sec): 3.180400E-1
Scans to average: 20
Electric dark correction enabled: true
Nonlinearity correction enabled: true
Boxcar width: 5
XAxis mode: Wavelengths
Number of Pixels in Spectrum: 2048
>>>>>Begin Spectral Data<<<<<
187.83	-491346.06
188.298	3482.37
188.766	1807.43
189.233	1644.96
189.701	2299.88
190.169	3069.32
190.636	1151.62
191.104	867.14
191.571	115.97
192.039	-95.06
192.506	-84.6
192.974	459.33
193.441	-794.35
193.908	-232.01
194.375	-38.39
194.842	13.74
195.31	117.96
195.777	189.42
196.244	405.78
196.711	397.32
197.177	480.89
197.644	676.63
198.111	1159.63
198.578	1604.44
199.045	1295.74
199.511	2053.52
199.978	2349.13
200.445	1994.11
200.911	2188.76
201.378	2409.32
201.844	2218.16
202.31	3755.85
202.777	3900.12
203.243	2167.3
203.709	2065.24
204.176	2443.33
204.642	2058.97
205.108	1938.55
205.574	1549.95
206.04	1399.94
206.506	1303.72
206.972	1220.19
207.438	1188.54
207.903	1343.62
208.369	1188.21
208.835	1190.66
209.301	1244.21
209.766	1250.94
210.232	1233.89
210.697	1548.55
211.163	1895.08
211.628	2890.67
212.094	2450.1
212.559	3069.85
213.024	1945.98
213.49	2395.41
213.955	2349.55
214.42	2281.54
214.885	2152.29
215.35	2096.18
215.815	2055.37
216.28	2211.64
216.745	1803.05
217.21	1983.63
217.675	1819.92
218.14	2065.23
218.604	2308.44
219.069	2692.16
219.534	2897.17
219.998	3406.37
220.463	4192.48
220.927	5210.89
221.392	4953.74
221.856	5065.23
222.32	6418.17
222.785	7981.75
223.249	10105.37
223.713	11375.65
224.177	11421.13
224.642	14680.72
225.106	18129.88
225.57	19856.75
226.034	14849.1
226.497	22692.06
226.961	20569.24
227.425	24032.77
227.889	26754.26
228.353	26850.48
228.816	55582.5
229.28	53301.25
229.744	45109.86
230.207	27560.32
230.671	27229.33
231.134	45165.97
231.597	52189.99
232.061	52330.26
232.524	51161.38
232.987	35342.63
233.45	31902.18
233.914	28695.29
234.377	29492.52
234.84	27051.99
235.303	31912.62
235.766	35652.31
236.229	36873.17
236.691	23283.93
237.154	26191.77
237.617	19733.68
238.08	20263.78
238.542	23769.72
239.005	17024.21
239.468	16908.5
239.93	15960.63
240.393	14542.91
240.855	12778.67
241.317	13097.88
241.78	15945.3
242.242	16534.14
242.704	17899.57
243.166	15592.54
243.629	14183.28
244.091	16356.85
244.553	17970.64
245.015	19351.79
245.477	25057.76
245.939	36804.57
246.4	39168.43
246.862	38174.45
247.324	36073.66
247.786	40442.71
248.247	53093.14
248.709	54858.02
249.17	41138.84
249.632	38845.07
250.093	45134.99
250.555	39043.95
251.016	23860.05
251.477	22666.59
251.939	24504.56
252.4	25698.69
252.861	30613.09
253.322	28537.84
253.783	34018.41
254.244	44136.59
254.705	34827.47
255.166	30965.9
255.627	30527.87
256.088	43114.26
256.549	45810.75
257.009	39448.62
257.47	47937.23
257.931	39010.01
258.391	29247.61
258.852	30170.81
259.312	31650.88
259.773	39081.81
260.233	33053.17
260.694	27897.31
261.154	31658.01
261.614	25456.21
262.074	22787.24
262.534	23670.7
262.994	22351.16
263.455	29804.61
263.915	25112.95
264.374	23651.58
264.834	25864.63
265.294	28742.21
265.754	29785.18
266.214	28207.35
266.673	26424.07
267.133	33417.26
267.593	33186.07
268.052	40613.13
268.512	35336.08
268.971	42656.99
269.431	46856.36
269.89	41960.68
270.349	62876.17
270.809	70157.7
271.268	63091.63
271.727	141613.61
272.186	91598.17
272.645	68684.18
273.104	49538.29
273.563	71719.53
274.022	56391.49
274.481	47971.27
274.94	36970.35
275.399	27476.98
275.857	31985.1
276.316	43269.13
276.775	38498.47
277.233	37928.72
277.692	35528.59
278.15	40190.87
278.609	41352.79
279.067	38230.72
279.525	35501.55
279.984	45824.26
280.442	55071.71
280.9	54292.43
281.358	35697.81
281.816	33278.53
282.274	32585.5
282.732	33666.92
283.19	33852.24
283.648	29217.52
284.106	31146.64
284.564	31680.9
285.021	29385.64
285.479	21869
285.937	19873.29
286.394	17428.02
286.852	17928.76
287.309	18840.74
287.767	18193.59
288.224	17302.95
288.682	18970.6
289.139	20825.56
289.596	19050.36
290.053	19810.8
290.511	25002.42
290.968	30379.37
291.425	41300.03
291.882	34397.44
292.339	29989.76
292.796	29812.24
293.252	28100.67
293.709	22359.42
294.166	20062.43
294.623	22207.79
295.079	21315.86
295.536	21453.33
295.992	19465.91
296.449	19249.71
296.905	20008.4
297.362	19176.88
297.818	20178.54
298.274	20938.82
298.731	21316.15
299.187	21092.44
299.643	22638.46
300.099	27370.92
300.555	30016.6
301.011	25077.42
301.467	24193.67
301.923	28300.66
302.379	27638.69
302.835	27133.27
303.291	27152.01
303.746	30924.11
304.202	39115.64
304.658	39296.7
305.113	26470.26
305.569	25941.26
306.024	27680.61
306.479	26339.08
306.935	22193.37
307.39	24221.6
307.845	22353.81
308.301	22489.6
308.756	21884.51
309.211	21035.15
309.666	21554.03
310.121	26719.46
310.576	27095.81
311.031	26900.21
311.486	30788.91
311.94	30772.29
312.395	41155.2
312.85	77372.22
313.305	380362.86
313.759	1971332.75
314.214	143082.38
314.668	113232.11
315.123	95291.42
315.577	34218.29
316.032	30384.55
316.486	38129.1
316.94	30114.46
317.394	20990.89
317.849	16346.43
318.303	15482.25
318.757	14645.04
319.211	16208.74
319.665	14203.7
320.119	14399.66
320.572	20658.6
321.026	19315.02
321.48	16086.81
321.934	17547.43
322.387	17588.06
322.841	18996.49
323.295	17103.12
323.748	19686.48
324.202	19968.31
324.655	23999.18
325.108	33534.15
325.562	23702.18
326.015	28228.29
326.468	21312.51
326.921	23882.56
327.374	22283.43
327.827	23207.51
328.28	26252.85
328.733	17626.32
329.186	15514.86
329.639	14808.7
330.092	12479.24
330.545	11875.82
330.997	12001.86
331.45	13132.48
331.903	15383.5
332.355	26465.22
332.808	25722.05
333.26	21227.77
333.713	22990.64
334.165	23160.68
334.617	30896.82
335.069	24969.97
335.522	45221.49
335.974	50053.23
336.426	45742.49
336.878	31703.02
337.33	16079.23
337.782	15709.43
338.234	19706.78
338.686	23628.61
339.137	27999.7
339.589	26363.9
340.041	20675.6
340.493	17768.9
340.944	18162.8
341.396	19575.52
341.847	16455.97
342.299	19455.04
342.75	23777.54
343.201	20797.66
343.653	23916.81
344.104	29458.4
344.555	23221.78
345.006	36171.82
345.457	27784.02
345.908	22111.65
346.359	20831.21
346.81	16988.39
347.261	17886.13
347.712	17633.69
348.163	18920.5
348.613	19188.14
349.064	17920.47
349.515	15699.38
349.965	16108.59
350.416	19371.51
350.866	21271.95
351.317	24020.61
351.767	39815.39
352.217	50385.31
352.668	41776.94
353.118	38255.7
353.568	36893.33
354.018	29182.79
354.468	30776.97
354.918	22097.02
355.368	19343.1
355.818	27323.15
356.268	78733.54
356.718	329607.61
357.168	82056.58
357.617	41187.23
358.067	45863.41
358.517	42939.23
358.966	50319.08
359.416	56469.03
359.865	61006.87
360.315	72685.79
360.764	34016.49
361.213	19103.18
361.663	18071.89
362.112	22309.21
362.561	36069.09
363.01	27206.73
363.459	22924.14
363.908	24836.69
364.357	21123.54
364.806	35730.02
365.255	24557.55
365.703	22456.33
366.152	22458.03
366.601	18240.64
367.05	14813.65
367.498	13453.57
367.947	14052.99
368.395	14624.5
368.844	12960.54
369.292	15607.06
369.74	10782.82
370.189	16530.67
370.637	19415.53
371.085	16740.3
371.533	20363.03
371.981	19623.06
372.429	18732.66
372.877	19514.11
373.325	16313.33
373.773	16573.23
374.221	14755.64
374.669	18303.18
375.116	15798.22
375.564	15900.88
376.012	17776.91
376.459	14672.74
376.907	17530.95
377.354	21142.82
377.801	19722.74
378.249	22664.09
378.696	28971.09
379.143	35057.13
379.591	37383.06
380.038	63279.83
380.485	45650.88
380.932	49367.67
381.379	45152.23
381.826	33255.77
382.273	23641.17
382.72	20637.84
383.166	20103.42
383.613	13046.86
384.06	11758.58
384.506	13561.91
384.953	9945.63
385.4	10020.42
385.846	8768.66
386.292	8536.8
386.739	8344.84
387.185	8251.07
387.631	8250.26
388.078	8001.79
388.524	8554.27
388.97	7895.25
389.416	6585.53
389.862	6995.09
390.308	6616.43
390.754	6707.89
391.2	7264.62
391.645	7414.88
392.091	7091.02
392.537	6845.92
392.983	6857.9
393.428	6740.71
393.874	7201.73
394.319	7223.18
394.765	6844.97
395.21	7030.68
395.655	6588.33
396.101	6168.82
396.546	5567.22
396.991	5608.24
397.436	5205.52
397.881	5013.99
398.326	4742.99
398.771	4493.62
399.216	3923.97
399.661	3534.61
400.106	3523.1
400.551	3607.44
400.995	3239.54
401.44	3214.18
401.885	3019.72
402.329	3055.13
402.774	2937
403.218	2851.27
403.663	2751.47
404.107	2836.22
404.551	2861.95
404.995	2629.32
405.44	2537.8
405.884	2583.55
406.328	2500.72
406.772	2505.29
407.216	2287
407.66	2215.65
408.104	2108.82
408.547	1982.15
408.991	1924.79
409.435	1857.97
409.879	1838.76
410.322	1819.42
410.766	1762.27
411.209	1683.14
411.653	1620.79
412.096	1595.55
412.54	1601.77
412.983	1598.58
413.426	1607.26
413.869	1610.17
414.312	1586.56
414.756	1532.6
415.199	1468.13
415.642	1428.49
416.085	1433.64
416.527	1426.14
416.97	1452.01
417.413	1381.47
417.856	1370.85
418.298	1361.98
418.741	1358.38
419.184	1357.96
419.626	1421.11
420.069	1426.54
420.511	1441.02
420.953	1419.72
421.396	1411.67
421.838	1378.99
422.28	1416.55
422.722	1424.93
423.164	1448.19
423.606	1426.08
424.048	1428.88
424.49	1361.03
424.932	1358.47
425.374	1343.14
425.816	1365.71
426.258	1395.38
426.699	1414.28
427.141	1397.74
427.582	1424.37
428.024	1421.92
428.465	1417.23
428.907	1383.5
429.348	1366.74
429.789	1365.51
430.231	1337.86
430.672	1357.75
431.113	1325.35
431.554	1307.44
431.995	1273.28
432.436	1227.17
432.877	1197.69
433.318	1177.88
433.759	1176.29
434.2	1176.71
434.64	1163.66
435.081	1165.52
435.522	1103.86
435.962	1063.84
436.403	1040.12
436.843	1053.92
437.284	1032.92
437.724	1006.17
438.164	1007.54
438.604	984.17
439.045	947.38
439.485	909.03
439.925	888.64
440.365	865.19
440.805	854.45
441.245	844.43
441.685	812.9
442.125	803.86
442.564	807.35
443.004	788.35
443.444	783.26
443.883	783.42
444.323	777.19
444.762	777.56
445.202	785.68
445.641	796.71
446.081	788.19
446.52	793.21
446.959	784.67
447.398	764.06
447.837	751.6
448.276	737.52
448.716	741.67
449.154	746.6
449.593	728.66
450.032	726.35
450.471	712.01
450.91	710.52
451.349	708.97
451.787	705.46
452.226	714.73
452.664	714.82
453.103	715.15
453.541	714.37
453.98	713.34
454.418	718.78
454.856	707.72
455.295	705.06
455.733	712.47
456.171	715.62
456.609	717.07
457.047	717.97
457.485	730.24
457.923	732.35
458.361	722.9
458.798	724.57
459.236	721.24
459.674	725.58
460.111	730.17
460.549	722.17
460.987	719.51
461.424	716.65
461.862	712.68
462.299	699
462.736	697.34
463.173	698.9
463.611	691.34
464.048	690.12
464.485	695.55
464.922	688.95
465.359	685.43
465.796	678.63
466.233	673.6
466.67	667.87
467.106	667.3
467.543	660.92
467.98	652.56
468.416	636.23
468.853	630.67
469.29	610.54
469.726	603.41
470.162	587.91
470.599	577.95
471.035	572.02
471.471	558.22
471.907	554.07
472.344	550.67
472.78	551.93
473.216	557.11
473.652	551.43
474.088	550.19
474.523	549.07
474.959	553.88
475.395	548.53
475.831	544.54
476.266	546.53
476.702	546.31
477.138	539.92
477.573	538.11
478.008	537.16
478.444	539.09
478.879	545.13
479.314	546.75
479.75	546.37
480.185	549.15
480.62	554.49
481.055	557.31
481.49	560.86
481.925	568.6
482.36	578.41
482.795	593.6
483.229	609.12
483.664	621.17
484.099	623.78
484.534	632.64
484.968	638.24
485.403	639
485.837	636.98
486.271	634.93
486.706	635.3
487.14	626.6
487.574	616.38
488.009	609.7
488.443	602.58
488.877	607.1
489.311	607.31
489.745	612.38
490.179	616.79
490.613	627.48
491.046	629.65
491.48	632.28
491.914	631.3
492.348	633.21
492.781	634.95
493.215	634.13
493.648	632.79
494.082	635.22
494.515	633.43
494.948	637.61
495.382	638.69
495.815	640.52
496.248	641.94
496.681	649
497.114	655.46
497.547	659.77
497.98	667.81
498.413	669.25
498.846	673.21
499.279	675.75
499.711	674.07
500.144	671.05
500.577	675.64
501.009	679.68
501.442	684.24
501.874	680.72
502.306	677.69
502.739	680.19
503.171	685.93
503.603	683.59
504.036	685.46
504.468	685.84
504.9	688.84
505.332	688.73
505.764	686.47
506.196	685.31
506.627	690.22
507.059	694.46
507.491	693.63
507.923	686.58
508.354	691.37
508.786	693.05
509.217	699.36
509.649	705.14
510.08	712.27
510.512	719.5
510.943	724.57
511.374	727.21
511.805	736.05
512.237	743.09
512.668	760.64
513.099	774.16
513.53	788.07
513.961	797.05
514.391	812.17
514.822	829.8
515.253	848.53
515.684	860.54
516.114	875.64
516.545	886
516.975	899.8
517.406	906.47
517.836	904.48
518.267	905.85
518.697	914.38
519.127	914.81
519.558	914.93
519.988	913.9
520.418	917.4
520.848	925.64
521.278	929.06
521.708	960.18
522.138	967.92
522.567	985.36
522.997	999.47
523.427	1007.3
523.857	1016.39
524.286	1022.7
524.716	1031.45
525.145	1043.54
525.575	1049.54
526.004	1056.86
526.433	1030.03
526.863	1027.87
527.292	1022.65
527.721	1026.48
528.15	1030.3
528.579	1031.7
529.008	1038.35
529.437	1051.91
529.866	1059.63
530.295	1070.22
530.724	1079.46
531.152	1096.99
531.581	1108.32
532.01	1118.8
532.438	1124.21
532.867	1132.77
533.295	1144.35
533.723	1149.83
534.152	1149.83
534.58	1151.31
535.008	1141.54
535.436	1142.6
535.865	1147.05
536.293	1154.93
536.721	1164.24
537.149	1180.22
537.576	1184.26
538.004	1192.46
538.432	1196.66
538.86	1195.39
539.287	1199.7
539.715	1208.9
540.143	1210.34
540.57	1209.07
540.998	1207.62
541.425	1195.89
541.852	1182.09
542.28	1180.36
542.707	1170.55
543.134	1161.6
543.561	1159.46
543.988	1155.28
544.415	1155.55
544.842	1152.96
545.269	1148.64
545.696	1150.83
546.123	1159.07
546.549	1152.94
546.976	1145.2
547.403	1145
547.829	1146.59
548.256	1148.38
548.682	1146.46
549.108	1142.89
549.535	1142.5
549.961	1143.37
550.387	1134.17
550.813	1130.92
551.24	1135.73
551.666	1135.8
552.092	1129.7
552.518	1126.1
552.943	1121.58
553.369	1126.6
553.795	1129.28
554.221	1130.49
554.646	1128.88
555.072	1137.38
555.498	1139.42
555.923	1144.76
556.349	1155.04
556.774	1160.51
557.199	1161.9
557.625	1165.43
558.05	1161.86
558.475	1169.28
558.9	1168.74
559.325	1164.69
559.75	1160.57
560.175	1156.48
560.6	1152.83
561.025	1151.05
561.449	1152.38
561.874	1155.25
562.299	1159.92
562.723	1165.26
563.148	1158.76
563.572	1160.67
563.997	1166.79
564.421	1170.02
564.846	1171.71
565.27	1174.28
565.694	1174.11
566.118	1181.89
566.542	1188.82
566.966	1184.11
567.39	1181.65
567.814	1175.19
568.238	1176.5
568.662	1180
569.086	1182.46
569.509	1187.13
569.933	1179.82
570.357	1174.98
570.78	1162.5
571.204	1155.55
571.627	1150.3
572.05	1149.22
572.474	1151.01
572.897	1143.68
573.32	1140.44
573.743	1134.72
574.166	1125.35
574.589	1126.18
575.012	1123.93
575.435	1124.18
575.858	1118.01
576.281	1111.75
576.704	1101.67
577.126	1094.05
577.549	1087.52
577.972	1080.51
578.394	1074.39
578.817	1070.44
579.239	1057.64
579.661	1049.24
580.084	1040.88
580.506	1033.1
580.928	1030.93
581.35	1024.65
581.772	1022.65
582.194	1014.88
582.616	1008.18
583.038	999.26
583.46	992.08
583.882	991.57
584.303	993.84
584.725	990.83
585.147	996.09
585.568	1003.74
585.99	1013.92
586.411	1019.47
586.833	1029.95
587.254	1031.61
587.675	1042.29
588.096	1052.06
588.518	1049.65
588.939	1039.66
589.36	1038.82
589.781	1029.08
590.202	1014.05
590.623	1008.2
591.043	1006.42
591.464	999.35
591.885	997.54
592.305	994.22
592.726	985.79
593.147	987.27
593.567	984.7
593.987	979.61
594.408	975.8
594.828	972.49
595.248	970.2
595.669	959.11
596.089	954.78
596.509	951.19
596.929	942.45
597.349	943.27
597.769	936.76
598.189	933.55
598.608	935.67
599.028	938.73
599.448	939.25
599.867	930.33
600.287	927.33
600.706	925.16
601.126	919.21
601.545	919.25
601.965	918.44
602.384	915.03
602.803	916.47
603.222	913.45
603.641	909.07
604.061	907.37
604.48	904.96
604.898	910.23
605.317	913.72
605.736	915.62
606.155	915.14
606.574	909.65
606.992	913.88
607.411	911.87
607.829	906.79
608.248	905.84
608.666	904.57
609.085	905.3
609.503	900.62
609.921	897.91
610.339	900.39
610.758	899.62
611.176	897.75
611.594	892.95
612.012	892.11
612.43	896.21
612.847	900.51
613.265	902.7
613.683	906.71
614.101	908.96
614.518	906.68
614.936	900.36
615.353	892.49
615.771	890.69
616.188	892.41
616.606	889.72
617.023	885.51
617.44	876.95
617.857	872.29
618.274	867.57
618.691	865.48
619.108	859.13
619.525	856.56
619.942	862.16
620.359	865.87
620.776	862.62
621.192	862.63
621.609	862.35
622.026	868.41
622.442	874.22
622.859	876.73
623.275	871.02
623.691	876.47
624.108	885.13
624.524	894.53
624.94	893.45
625.356	900.56
625.772	909.06
626.188	917.44
626.604	918.71
627.02	916.17
627.436	915.1
627.852	921.84
628.268	930.86
628.683	924.81
629.099	919.53
629.514	916.94
629.93	920.72
630.345	924.61
630.761	921.97
631.176	924.52
631.591	921.8
632.007	919.28
632.422	917.97
632.837	910.06
633.252	909.19
633.667	903.6
634.082	900.39
634.497	892.62
634.911	881.02
635.326	880.3
635.741	870.3
636.155	864.76
636.57	867.88
636.984	870.44
637.399	876.08
637.813	877.68
638.228	879.44
638.642	884.28
639.056	879.84
639.47	884.21
639.884	882.32
640.298	882.35
640.712	885.64
641.126	879.86
641.54	877.16
641.954	875.5
642.368	871.43
642.781	871.47
643.195	862.18
643.609	867.4
644.022	866.21
644.436	866.08
644.849	859.97
645.262	853.96
645.676	859.62
646.089	859.32
646.502	852.36
646.915	851.55
647.328	840.45
647.741	841.54
648.154	832.7
648.567	834.32
648.98	826.15
649.393	827.76
649.805	827.39
650.218	822.15
650.631	810.53
651.043	807.25
651.456	804.08
651.868	805.11
652.28	820.48
652.693	833.8
653.105	837.76
653.517	846.89
653.929	849.82
654.341	855.66
654.753	848.03
655.165	855.58
655.577	853.87
655.989	852
656.401	846.66
656.813	820.38
657.224	805.09
657.636	784.01
658.047	772.27
658.459	758.1
658.87	753.43
659.282	745.9
659.693	732.21
660.104	724.38
660.515	715.53
660.926	719.76
661.338	720.04
661.749	718.55
662.159	714.77
662.57	714.65
662.981	714.09
663.392	710.17
663.803	718.26
664.213	718.71
664.624	717.56
665.035	724.17
665.445	712.73
665.855	709.62
666.266	704.89
666.676	705.59
667.086	699.69
667.497	702.05
667.907	698.9
668.317	691.03
668.727	690.63
669.137	692.28
669.547	689.97
669.956	693.44
670.366	695.51
670.776	698.26
671.186	701.98
671.595	705.74
672.005	708.47
672.414	709.56
672.824	708.89
673.233	712.11
673.642	713.71
674.052	718.12
674.461	719.83
674.87	723.27
675.279	720.33
675.688	721.63
676.097	721.49
676.506	717.25
676.915	727.74
677.323	728.62
677.732	724.73
678.141	722.99
678.549	709.52
678.958	706.93
679.366	703.64
679.775	706.27
680.183	712.91
680.592	715.41
681	717.92
681.408	709.17
681.816	712.4
682.224	716.52
682.632	721.79
683.04	743.24
683.448	758.75
683.856	779.84
684.264	803.58
684.671	822.4
685.079	848.63
685.487	876.43
685.894	916.39
686.302	946.1
686.709	967.82
687.116	993.97
687.524	1013.68
687.931	1026.37
688.338	1034.02
688.745	1036.17
689.152	1042.87
689.559	1056.02
689.966	1068.94
690.373	1065.63
690.78	1076.53
691.187	1104.46
691.593	1119
692	1129.58
692.407	1156.81
692.813	1194.62
693.22	1220.16
693.626	1246.52
694.032	1266.94
694.439	1303.5
694.845	1332.45
695.251	1370.37
695.657	1403.07
696.063	1459.37
696.469	1498.36
696.875	1535.04
697.281	1550.59
697.687	1576.94
698.093	1600.55
698.498	1644.78
698.904	1678.83
699.31	1732.18
699.715	1773.68
700.12	1831.46
700.526	1842.9
700.931	1888.12
701.337	1923.24
701.742	1950.01
702.147	2005.16
702.552	2026.11
702.957	2066.96
703.362	2083.65
703.767	2106.8
704.172	2135.26
704.577	2109.24
704.981	2143.04
705.386	2158.32
705.791	2158.28
706.195	2209.23
706.6	2220.1
707.004	2275.19
707.408	2260.85
707.813	2284.77
708.217	2280.56
708.621	2285.45
709.025	2354.66
709.43	2361.85
709.834	2407.32
710.237	2458.46
710.641	2452.37
711.045	2473.26
711.449	2477.56
711.853	2503.6
712.256	2534.96
712.66	2567.25
713.064	2624.45
713.467	2658.4
713.87	2739.09
714.274	2774.5
714.677	2851.05
715.08	2965
715.484	3082.92
715.887	3225.78
716.29	3361.77
716.693	3512.05
717.096	3678.69
717.499	3773.34
717.901	3794.69
718.304	3818.54
718.707	3840.67
719.109	3778.02
719.512	3761.95
719.915	3677.72
720.317	3643.09
720.719	3679.21
721.122	3662.27
721.524	3633.12
721.926	3612.24
722.328	3686.84
722.731	3682.8
723.133	3706.82
723.535	3843.89
723.937	3862.73
724.338	3902.51
724.74	3935.15
725.142	3928.99
725.544	3933.92
725.945	3962.88
726.347	3961.26
726.748	3958.55
727.15	3975.58
727.551	3958.42
727.952	3944.53
728.354	3928.4
728.755	3928.44
729.156	3900.32
729.557	3864.17
729.958	3778.92
730.359	3736.91
730.76	3727.16
731.161	3687.9
731.562	3670
731.962	3670.65
732.363	3626.74
732.763	3585.69
733.164	3615.1
733.564	3570.86
733.965	3504.99
734.365	3483.82
734.766	3506.6
735.166	3481.3
735.566	3445
735.966	3429.71
736.366	3427.29
736.766	3383.97
737.166	3407.28
737.566	3379.82
737.966	3363.07
738.365	3393.81
738.765	3391.83
739.165	3338.63
739.564	3321.47
739.964	3354.17
740.363	3322.69
740.763	3323.8
741.162	3319.13
741.561	3297
741.96	3265.19
742.36	3279.86
742.759	3284.18
743.158	3311.32
743.557	3323.28
743.955	3352.73
744.354	3321.63
744.753	3363.69
745.152	3333.7
745.55	3373
745.949	3371.33
746.348	3373.21
746.746	3385.42
747.144	3359.56
747.543	3345.96
747.941	3382.56
748.339	3332.29
748.737	3327.82
749.136	3322.13
749.534	3367.35
749.932	3348.7
750.33	3363.25
750.727	3402.28
751.125	3388.22
751.523	3374.36
751.921	3404.58
752.318	3378.94
752.716	3421.49
753.113	3432.77
753.511	3449.86
753.908	3451.43
754.305	3441.45
754.703	3487.89
755.1	3532.29
755.497	3572.77
755.894	3709.46
756.291	3837.93
756.688	4074.8
757.085	4387.64
757.482	4827.1
757.878	5312.1
758.275	5749.86
758.672	6345.96
759.068	6833.36
759.465	7529.14
759.861	8430.19
760.258	9478.73
760.654	10018.69
761.05	9946.62
761.447	9496.96
761.843	8843.3
762.239	8167.29
762.635	7861.74
763.031	7569.96
763.427	7149.86
763.822	6713.29
764.218	6272.21
764.614	5698.28
765.01	5314.78
765.405	5066.99
765.801	4881.04
766.196	4644.32
766.592	4510.23
766.987	4285.46
767.382	4131
767.778	4066.26
768.173	3971.3
768.568	3920.2
768.963	3831.85
769.358	3845.51
769.753	3811.97
770.148	3751.04
770.542	3747.33
770.937	3723.16
771.332	3789.11
771.726	3804.35
772.121	3762.21
772.515	3799.67
772.91	3789.27
773.304	3840.05
773.699	3794.59
774.093	3833.32
774.487	3872.03
774.881	3905.07
775.275	3904.57
775.669	3873.92
776.063	3905.28
776.457	3928.84
776.851	3876.18
777.245	3872.5
777.638	3895.96
778.032	3976.71
778.425	3949.32
778.819	3982.08
779.212	3951.53
779.606	3924.66
779.999	3939.69
780.392	3930.23
780.786	3988.86
781.179	4003.16
781.572	4033.67
781.965	4043.18
782.358	4001.49
782.751	4042.96
783.143	4007.39
783.536	4063.71
783.929	4091.89
784.322	4174.14
784.714	4196.29
785.107	4193.89
785.499	4246.51
785.891	4230.71
786.284	4216.94
786.676	4320.89
787.068	4308.57
787.46	4346.87
787.852	4355.55
788.245	4416.65
788.636	4438.55
789.028	4486
789.42	4513.81
789.812	4520.03
790.204	4589.5
790.595	4663.29
790.987	4521.47
791.378	4536.77
791.77	4627.88
792.161	4725.49
792.553	4765.01
792.944	4681.58
793.335	4635.23
793.726	4688.93
794.117	4755.04
794.508	4853.25
794.899	4828.41
795.29	4928.31
795.681	4967.43
796.072	4866.98
796.463	4746.15
796.853	4754.84
797.244	4871.86
797.634	4891.38
798.025	4888.35
798.415	4891.54
798.806	4953.55
799.196	5014.15
799.586	5054.39
799.976	5028.24
800.366	5193.33
800.756	5350.35
801.146	5324.01
801.536	5344.97
801.926	5398.93
802.316	5419.83
802.706	5474.64
803.095	5388.98
803.485	5460.82
803.874	5484.53
804.264	5670.88
804.653	5650.48
805.043	5758.87
805.432	5835.61
805.821	5834.26
806.21	5850.87
806.599	5930.3
806.988	5965.26
807.377	6039.81
807.766	6135.57
808.155	6339.74
808.544	6153.04
808.933	6165.42
809.321	6152.6
809.71	6363.46
810.098	6474.03
810.487	6800.53
810.875	7146.39
811.264	7158.82
811.652	7376.61
812.04	7477.65
812.428	7595.03
812.816	8136.19
813.204	8432.44
813.592	8819.78
813.98	9061.59
814.368	8998.98
814.756	9343.24
815.144	9284.32
815.531	9619.57
815.919	9553.4
816.306	9773.2
816.694	9544.49
817.081	9579.93
817.469	9830.02
817.856	9828.39
818.243	10017.56
818.63	10296.23
819.017	9995.5
819.404	10038.83
819.791	10299.74
820.178	10739.09
820.565	10914.7
820.952	11594.82
821.339	11244.84
821.725	11367.12
822.112	10838.31
822.498	10807.89
822.885	10900.35
823.271	10826.99
823.657	11124.61
824.044	11138.23
824.43	11180.73
824.816	11169.17
825.202	10853.5
825.588	11577.39
825.974	11594.57
826.36	11961.57
826.746	11982.63
827.132	12223.45
827.517	12209.96
827.903	11650.07
828.289	11679.77
828.674	11129.33
829.06	11042.33
829.445	11321.89
829.83	11572.34
830.216	11902.69
830.601	12162.57
830.986	11875.05
831.371	11786.45
831.756	12183.31
832.141	11876.63
832.526	11866.49
832.911	12061.12
833.295	11972.35
833.68	12304.05
834.065	11863.05
834.449	11214.67
834.834	11157.65
835.218	11155.06
835.603	11405.19
835.987	11256.01
836.371	11850.98
836.755	11779.72
837.139	12064.35
837.524	12244.27
837.908	12117.68
838.291	12165.62
838.675	12212.25
839.059	12359.91
839.443	12346.88
839.827	12170.5
840.21	12503.26
840.594	12397.06
840.977	12539.91
841.361	12531.65
841.744	12795.1
842.127	12683.55
842.511	12853.88
842.894	13277.75
843.277	13548.37
843.66	13927.19
844.043	13995.85
844.426	13427.05
844.809	13202.92
845.191	13226.67
845.574	12897.87
845.957	12639.06
846.339	12561.18
846.722	12184.25
847.104	12234.12
847.487	12116.95
847.869	12136.73
848.252	12329.52
848.634	12563.67
849.016	12758.85
849.398	12844.82
849.78	13449.75
850.162	13458.74
850.544	13755.39
850.926	14208.15
851.307	14153.18
851.689	14351.26
852.071	14663.23
852.452	14885.2
852.834	14881.01
853.215	15158.61
853.597	15266.94
853.978	15473.89
854.359	15788.31
854.741	15083.26
855.122	15018.57
855.503	14805
855.884	14897.31
856.265	14860.04
856.646	14951.73
857.026	14662.59
857.407	14616.83
857.788	14731.22
858.169	14935.82
858.549	14341.24
858.93	14778.79
859.31	14804.9
859.69	14956
860.071	14663.55
860.451	14504.69
860.831	13973.83
861.211	14791.41
861.591	15173.14
861.971	15157.4
862.351	15289.6
862.731	15559.86
863.111	15747.74
863.491	15985.77
863.87	16606.19
864.25	16858.53
864.629	16573.99
865.009	16934.09
865.388	17542.05
865.768	18799.33
866.147	18721.13
866.526	17685.35
866.905	17892
867.284	18887.87
867.663	17925.78
868.042	17182.31
868.421	17128.12
868.8	17411.71
869.179	17588.48
869.558	16563.12
869.936	15262.6
870.315	15533.11
870.693	15919.44
871.072	17168.33
871.45	16360.49
871.828	16579.06
872.207	17427.43
872.585	17161.48
872.963	17636.84
873.341	17028.11
873.719	16838.33
874.097	16653.16
874.475	16973.92
874.853	17360.93
875.23	16643.67
875.608	17348.52
875.986	18759.3
876.363	17934.34
876.741	18495.96
877.118	18030.03
877.495	18926.95
877.873	19229.04
878.25	20223.47
878.627	19395.83
879.004	19665.13
879.381	19561.5
879.758	19051.2
880.135	17745.58
880.512	18773.72
880.889	18261.12
881.265	18067.77
881.642	17911.99
882.019	18215.53
882.395	17850.52
882.772	18567.18
883.148	17767.32
883.524	17710.99
883.901	17607.43
884.277	17870.89
884.653	17748.54
885.029	18272.75
885.405	20253.17
885.781	20097.88
886.157	19269.2
886.532	19502.88
886.908	19480.78
887.284	21658.24
887.659	22356.97
888.035	23059.79
888.411	23660.17
888.786	23989.14
889.161	24827.18
889.537	24374.92
889.912	25163.57
890.287	25141.43
890.662	25802
891.037	25342.52
891.412	23634.55
891.787	23411.01
892.162	22594.7
892.536	23125.22
892.911	22264.52
893.286	21781.58
893.66	20895.73
894.035	21428.84
894.409	23341.59
894.784	22405.58
895.158	22770.05
895.532	24128.23
895.906	24779.85
896.281	25353.24
896.655	24934.65
897.029	28495.38
897.402	29673.76
897.776	33030.28
898.15	32911.61
898.524	32549.52
898.898	32962.46
899.271	36932.99
899.645	31975.08
900.018	30705.56
900.392	31843.69
900.765	32111.91
901.138	29706.11
901.511	29254.59
901.884	26859.46
902.258	24783.7
902.631	25628.22
903.003	29508.02
903.376	26627.85
903.749	29857.68
904.122	31981.7
904.495	35208.37
904.867	35665.34
905.24	30954.5
905.612	28828.67
905.985	29472.36
906.357	30810.01
906.729	29387.14
907.102	25108.02
907.474	24132.27
907.846	24285.51
908.218	23950.16
908.59	21183.93
908.962	20486.39
909.334	22068.91
909.705	23190.75
910.077	22530.87
910.449	23453.17
910.82	24116.56
911.192	26517.79
911.563	27576.01
911.935	29513.14
912.306	29578.97
912.677	30540.65
913.048	30242.09
913.419	32826.89
913.79	33002.06
914.161	35379.55
914.532	33830.25
914.903	31093.47
915.274	29544.03
915.645	29099.95
916.015	25613.42
916.386	24419.05
916.756	25988.48
917.127	26799.16
917.497	23929.64
917.868	26059.23
918.238	24782.22
918.608	25504.01
918.978	26048.69
919.348	27583.97
919.718	28518.25
920.088	27486.58
920.458	28542.45
920.828	30034.92
921.198	28496.98
921.567	30456.97
921.937	23595.99
922.306	23804.67
922.676	25661.98
923.045	21413.48
923.415	20372.04
923.784	18549.11
924.153	19070.71
924.522	19058.56
924.891	17907.19
925.26	19181.47
925.629	18726.14
925.998	21521.1
926.367	21014.64
926.736	20034.06
927.104	23855.74
927.473	25603.41
927.842	30912.15
928.21	30607.24
928.578	32180.25
928.947	30459.36
929.315	30647.77
929.683	35973.22
930.051	36260.1
930.42	42114.68
930.788	35982.47
931.156	35708.74
931.523	33507.23
931.891	30988.78
932.259	29800.67
932.627	34539.73
932.994	48932.88
933.362	40474.9
933.729	35147.25
934.097	33672.24
934.464	28506.37
934.831	32892.51
935.199	32457.48
935.566	31500.25
935.933	32038.32
936.3	38821.48
936.667	30270.31
937.034	27353.05
937.401	27038.7
937.767	23361.53
938.134	20799.48
938.501	29386.47
938.867	31363.51
939.234	53059.59
939.6	45280.78
939.967	49695.52
940.333	33271.72
940.699	28322.42
941.065	22670.84
941.431	29763.27
941.798	28694.46
942.163	37651.95
942.529	23480.49
942.895	21584.13
943.261	13947.05
943.627	18300.68
943.992	16009.47
944.358	16050.74
944.723	16122.08
945.089	15671.87
945.454	14455.98
945.82	15427.46
946.185	14811.45
946.55	17177.39
946.915	15408.42
947.28	18072.62
947.645	15914.67
948.01	14710.14
948.375	15311.86
948.74	18332.13
949.104	21432.48
949.469	30929.14
949.834	54624.51
950.198	51964.81
950.562	31134.67
950.927	25958.56
951.291	31231.39
951.655	26563.36
952.02	24932.36
952.384	18861.32
952.748	16443.56
953.112	16052.19
953.476	13984.07
953.839	12924.95
954.203	12787.42
954.567	15980.65
954.931	25150.82
955.294	21547.84
955.658	21683.35
956.021	36844.62
956.385	62474.01
956.748	92132.49
957.111	142654.83
957.474	159916.9
957.837	180218.07
958.2	136299.06
958.563	49044.85
958.926	33152.49
959.289	50290.01
959.652	56187.74
960.015	42249.04
960.377	60619
960.74	69141.79
961.102	119413.64
961.465	128454.71
961.827	69065.22
962.189	132495.12
962.552	91903.36
962.914	73741.3
963.276	47854.22
963.638	39624.64
964	39189.77
964.362	26509.21
964.724	25611.17
965.085	18275.23
965.447	14986.29
965.809	17032.74
966.17	17038.05
966.532	18437.31
966.893	16904.86
967.255	15387.05
967.616	18114.93
967.977	14503.51
968.338	15845.41
968.699	13045.58
969.061	13043.58
969.421	13130.37
969.782	14733.82
970.143	12463.3
970.504	12922.4
970.865	14727.62
971.225	15073.52
971.586	14771.96
971.946	21056.31
972.307	18252.88
972.667	23849.19
973.027	24545.26
973.388	29744.11
973.748	20233.42
974.108	22020.53
974.468	29753.7
974.828	22940.98
975.188	17643.46
975.548	16200.9
975.907	13602.42
976.267	15282.59
976.627	12845.51
976.986	13309.9
977.346	12689.94
977.705	12209.65
978.064	11122.29
978.424	9259.89
978.783	9549.28
979.142	10898.86
979.501	10432.51
979.86	11034.55
980.219	10627.1
980.578	13698.66
980.937	15344.6
981.296	13689.7
981.654	14083.31
982.013	21937.73
982.371	28502.43
982.73	26663.39
983.088	30160.92
983.447	32269.28
983.805	46213
984.163	96631.79
984.521	107101.97
984.879	157443.97
985.237	-256577.12
985.595	247710.24
985.953	61461.95
986.311	35491.34
986.669	20631.74
987.026	17839.35
987.384	23944.24
987.741	24736.8
988.099	17724.15
988.456	14167.88
988.814	13288.69
989.171	11535.27
989.528	11385.96
989.885	12056.03
990.242	9558.9
990.599	11889.84
990.956	9719.27
991.313	6800.82
991.67	5586.22
992.027	5944.1
992.383	5283.78
992.74	4629.4
993.096	4867.61
993.453	5029.32
993.809	5208.31
994.165	6936.15
994.522	6398.56
994.878	7063.62
995.234	8865.25
995.59	8750.76
995.946	8237.4
996.302	9399.14
996.658	10862.38
997.013	11949.3
997.369	14252.59
997.725	18268.84
998.08	11843.04
998.436	18144.42
998.791	24994.9
999.147	24983.9
999.502	27248.53
999.857	19807.08
1000.212	32343.05
1000.567	45927.56
1000.922	26483.06
1001.277	16754.04
1001.632	12420.95
1001.987	15953.86
1002.342	11458.37
1002.696	9180.03
1003.051	7347.88
1003.406	8902.26
1003.76	8859.3
1004.114	8736.32
1004.469	7372.66
1004.823	6117.28
1005.177	6620.73
1005.531	5248.42
1005.885	4660.76
1006.239	5259.9
1006.593	6597.03
1006.947	8801.46
1007.301	6586.16
1007.655	7183.79
1008.008	5274.04
1008.362	5914.9
1008.715	8442.06
1009.069	7646.32
1009.422	11553.29
1009.776	23223.44
1010.129	15383.66
1010.482	12829.29
1010.835	10882.48
1011.188	22723.28
1011.541	21367.22
1011.894	-130052.5
1012.247	382279.66
1012.6	25927.18
1012.952	16419.87
1013.305	8412.36
1013.657	6046.76
1014.01	5748.16
1014.362	4734.6
1014.715	4227.26
1015.067	3695.51
1015.419	3609.25
1015.771	3203.53
1016.123	2869.7
1016.475	2958.57
1016.827	3145.36
1017.179	3392.74
1017.531	3426.31
1017.883	3476.13
1018.234	3400.01
1018.586	4270.46
1018.938	4537.03
1019.289	6286.96
1019.64	7197.59
1019.992	6653
1020.343	6080.68
1020.694	4828.84
1021.045	4276.66
1021.396	4888.35
1021.747	5284.19
1022.098	6250.03
1022.449	4527.86
1022.8	4190.9
1023.151	2925.53
1023.501	2607.68
1023.852	2836.91
1024.202	2949.42
1024.553	3232.26
1024.903	3165.53
1025.253	2707.76
1025.604	2445.08
1025.954	3035.43
1026.304	3694.97
1026.654	4307.28
1027.004	6261.86
1027.354	10062.71
1027.703	9538.81
1028.053	12467
1028.403	18194.13
1028.753	26105.12
1029.102	35299.56
1029.452	178621.61
1029.801	7714.66
1030.15	4968.92
1030.499	4158.49
897.758	3111.23
901.051	3097.35
904.343	3135.8
907.636	3126.56
910.928	3194.17
914.22	3096.11
917.511	3106.2
920.803	3189.25
924.094	3230.68
927.384	3183.09
930.675	3153.61
933.965	3097.9
937.255	3088.27
940.544	3053.84
943.834	2933.13
947.123	2888.3
950.411	2990.52
953.7	2956.32
956.988	2901.29
960.276	2850.44
963.563	2968.35
966.851	2947.02
970.138	3019.78
973.424	2997.36
976.711	2946.67
979.997	3171.21
983.283	3187.72
986.568	3066.96
989.853	3113.95
993.138	3142.65
996.423	3216.1
999.708	3130.56
1002.992	3236.62
1006.275	2994.9
1009.559	3089.41
1012.842	3223.89
1016.125	3131.81
1019.408	3111.18
1022.69	3229.47
1025.972	3226.78
1029.254	3201.26
1032.536	3104.16
1035.817	3145.14
1039.098	3057.09
1042.379	3294.65
1045.659	3255.37
1048.939	3168.05
1052.219	3204.08
1055.498	3236.92
1058.778	3206.02
1062.057	3203.18
1065.335	3218.3
1068.614	3244.97
1071.892	3208.4
1075.17	3307.93
1078.447	3281.07
1081.724	3265.75
1085.001	3311.05
1088.278	3283.75
1091.554	3299.86
1094.83	3300.41
1098.106	3316.53
1101.382	3377.37
1104.657	3379.52
1107.932	3376.48
1111.206	3324.37
1114.481	3287.13
1117.755	3297.77
1121.029	3261.66
1124.302	3301.27
1127.575	3237.03
1130.848	3213.88
1134.121	3168.83
1137.393	3102.83
1140.665	3180.36
1143.937	3152.48
1147.208	3089.46
1150.48	3106.54
1153.75	3084.83
1157.021	3158.3
1160.291	3118.45
1163.561	3154.19
1166.831	3175.61
1170.101	3207.64
1173.37	3204.66
1176.639	3131.75
1179.907	3206.91
1183.176	3230.74
1186.444	3242.77
1189.711	3278.37
1192.979	3274.05
1196.246	3234.52
1199.513	3256.33
1202.78	3245.79
1206.046	3251.85
1209.312	3278.71
1212.578	3308.33
1215.843	3244.28
1219.108	3228.69
1222.373	3250.85
1225.638	3202.69
1228.902	3174.76
1232.166	3152.42
1235.43	3129.95
1238.693	3147.79
1241.956	3154.82
1245.219	3178.63
1248.482	3187.29
1251.744	3175.49
1255.006	3350.98
1258.268	3315.64
1261.529	3247.43
1264.79	3263.61
1268.051	3376.49
1271.312	3397.65
1274.572	3347.74
1277.832	3341.72
1281.092	3344.01
1284.351	3293.89
1287.61	3267.82
1290.869	3160.63
1294.128	3114.75
1297.386	3249.11
1300.644	3232.1
1303.902	3240.81
1307.159	3093.75
1310.416	3154.14
1313.673	3169.52
1316.93	3140.76
1320.186	3203.39
1323.442	3258.25
1326.697	3236.96
1329.953	3247.13
1333.208	3253.42
1336.463	3246.25
1339.717	3167.52
1342.972	3281.14
1346.226	3277.55
1349.479	3193.04
1352.733	3148.98
1355.986	3197.71
1359.238	3167.42
1362.491	3162.97
1365.743	3172.26
1368.995	3175.34
1372.247	3184.44
1375.498	3208.9
1378.749	3237.7
1382	3191.27
1385.251	3265.76
1388.501	3240.2
1391.751	3202.92
1395	3182.66
1398.25	3221.64
1401.499	3215.31
1404.748	3121.69
1407.996	3071.49
1411.244	3059.1
1414.492	3036.5
1417.74	3010.49
1420.987	3028.77
1424.234	3077.28
1427.481	3079.51
1430.728	3135.63
1433.974	3111.31
1437.22	3141.45
1440.465	3151.28
1443.711	3128.34
1446.956	3167.62
1450.201	3178.01
1453.445	3223.82
1456.689	3186.91
1459.933	3203.9
1463.177	3228.12
1466.42	3197.24
1469.663	3174.72
1472.906	3143.06
1476.148	3271.1
1479.391	3178
1482.633	3162.48
1485.874	3156.49
1489.115	3118.34
1492.356	3149.92
1495.597	3117.68
1498.838	3128.75
1502.078	3080.44
1505.318	3006
1508.557	3055.46
1511.797	2980.27
1515.036	3123.83
1518.274	3110.21
1521.513	3099.66
1524.751	3133.6
1527.989	3129.56
1531.227	3139.03
1534.464	3105.25
1537.701	3157.85
1540.938	3184.64
1544.174	3146.78
1547.41	3154.44
1550.646	3190.89
1553.882	3210.88
1557.117	3261.69
1560.352	3282.52
1563.587	3236.62
1566.821	3187.45
1570.055	3247.3
1573.289	3205.62
1576.523	3298.32
1579.756	3294.82
1582.989	3306.61
1586.222	3270.55
1589.454	3319.88
1592.686	3282.12
1595.918	3302.65
1599.15	3279.55
1602.381	3387.38
1605.612	3312.08
1608.843	3409.56
1612.073	3315.37
1615.303	3293.43
1618.533	3277.54
1621.762	3283.51
1624.992	3286.87
1628.221	3249.91
1631.449	3233.26
1634.678	3329.76
1637.906	3268.76
1641.134	3321.85
1644.361	3266.86
1647.588	3252.79
1650.815	3265.77
1654.042	3262.93
1657.269	3297.08
1660.495	3237.76
1663.72	3211.34
1666.946	3193.21
1670.171	3094.76
1673.396	3077.16
1676.621	3077.44
1679.845	3126.05
1683.069	3160.7
1686.293	3216.42
1689.517	3169.38
1692.74	3069.67
1695.963	3093.34
1699.185	3161.3
1702.408	3120.56
1705.63	3176.63
1708.852	3178.34
1712.073	3152.86
1715.294	3109.65
1718.515	3169.3
1721.736	3104.58
1724.956	3099.63
1728.176	3131.52
1731.396	3150.48
1734.616	3146.58
1737.835	3156.81
1741.054	3153.03
1744.272	3151.37
1747.491	3162.5
1750.709	3252.14
1753.927	3128.21
1757.144	3196.72
1760.361	3231.27
1763.578	3248.82
1766.795	3179.53
1770.011	3204.39
1773.227	3267
1776.443	3288.04
1779.658	3329.07
1782.874	3284.08
1786.089	3241.67
1789.303	3246.82
1792.518	3259.4
1795.732	3250.88
1798.945	3251.26
1802.159	3314.5
1805.372	3175.1
1808.585	3145.6
1811.797	3149.65
1815.01	3231.63
1818.222	3226.44
1821.434	3134.24
1824.645	3231.74
1827.856	3187.31
1831.067	3225.83
1834.278	3180.49
1837.488	3162.11
1840.698	3337.34
1843.908	3241.35
1847.117	3203.96
1850.326	3036.64
1853.535	3172.89
1856.744	3275.56
1859.952	3160.11
1863.16	3161.15
1866.368	3199.19
1869.575	3318.08
1872.782	3209.18
1875.989	3158.95
1879.196	3286.42
1882.402	3279.77
1885.608	3328.74
1888.814	3194.81
1892.019	3075.67
1895.224	3130.24
1898.429	3130.69
1901.634	3097
1904.838	3084.66
1908.042	3127.3
1911.246	3131.46
1914.449	3025.15
1917.652	3039.57
1920.855	3026.76
1924.058	3106
1927.26	3131.39
1930.462	3166.57
1933.664	3180.91
1936.865	3114.93
1940.066	3108.91
1943.267	3058.28
1946.467	3080.76
1949.668	3115.61
1952.868	3181.4
1956.067	3144.46
1959.267	3062.78
1962.466	3096.44
1965.665	3083.11
1968.863	3079.74
1972.061	3109.16
1975.259	3116.5
1978.457	3199.91
1981.654	3154.61
1984.852	3150.92
1988.048	3061.62
1991.245	3080.34
1994.441	3161.84
1997.637	3176.64
2000.833	3159.29
2004.028	3202.6
2007.223	3245.62
2010.418	3204.95
2013.613	3180.13
2016.807	3119.4
2020.001	3145.02
2023.194	3214.9
2026.388	3179.92
2029.581	3128.1
2032.774	3158.53
2035.966	3153.54
2039.158	3068.4
2042.35	3107.35
2045.542	3037.18
2048.733	3162.38
2051.924	3219.67
2055.115	3262.58
2058.306	3179.27
2061.496	3242.05
2064.686	3324.73
2067.875	3247.29
2071.065	3280.65
2074.254	3315.08
2077.442	3264.41
2080.631	3363.01
2083.819	3203.71
2087.007	3175.39
2090.195	3128.4
2093.382	3186.47
2096.569	3165.2
2099.756	3105.8
2102.942	3106.83
2106.128	3094.61
2109.314	3092.5
2112.5	3028.83
2115.685	3015.81
2118.87	3029.73
2122.055	3099.72
2125.239	3048.93
2128.424	3003.7
2131.608	3155.71
2134.791	3139.53
2137.974	3221.34
2141.157	3204.49
2144.34	3131.7
2147.523	3175.65
2150.705	3175.4
2153.887	3168.67
2157.068	3093.24
2160.25	3120.77
2163.431	3179.45
2166.611	3096.89
2169.792	3106.49
2172.972	2980.98
2176.152	3093.26
2179.331	3138.48
2182.511	3093.75
2185.69	3127.39
2188.868	3111.93
2192.047	3191.6
2195.225	3153.38
2198.403	3101.3
2201.58	3103.82
2204.758	3106.71
2207.935	3198.01
2211.111	3054.53
2214.288	3033.08
2217.464	3079.95
2220.64	3075.85
2223.815	3134.08
2226.991	3042.66
2230.166	3066.36
2233.34	3078.57
2236.515	3119.05
2239.689	3198.86
2242.863	3138.1
2246.036	3200.15
2249.209	3220.47
2252.382	3274.26
2255.555	3236.13
2258.727	3160.32
2261.9	3211.91
2265.071	3202.72
2268.243	3212.46
2271.414	3123.53
2274.585	3063.17
2277.756	3138.91
2280.926	3092.89
2284.096	3151.25
2287.266	3030.91
2290.436	3096.31
2293.605	3133.18
2296.774	3151.53
2299.942	3195.99
2303.111	3214.69
2306.279	3258.73
2309.447	3248.34
2312.614	3226.72
2315.781	3241.97
2318.948	3197.15
2322.115	3239.82
2325.281	3142.99
2328.447	3180.57
2331.613	3164
2334.779	3113.12
2337.944	3126.25
2341.109	3115.56
2344.274	3090.95
2347.438	3054.51
2350.602	3087.31
2353.766	3114.09
2356.929	3095.93
2360.092	3141.73
2363.255	3070.61
2366.418	2966.7
2369.58	3129.75
2372.742	2826.81
2375.904	2862.68
2379.066	2828.49
2382.227	2877.31
2385.388	2837.7
2388.548	2735.82
2391.709	2804.51
2394.869	2773.23
2398.029	2924.86
2401.188	2955.82
2404.347	2856.74
2407.506	3058.67
2410.665	3083.67
2413.823	3110.96
2416.981	3040.81
2420.139	3091.58
2423.296	3149.22
2426.453	3124.41
2429.61	3155.21
2432.767	3044.01
2435.923	3091.7
2439.079	2994.87
2442.235	3075.97
2445.391	2981.57
2448.546	2991.84
2451.701	3062.22
2454.855	3001.55
2458.009	3082.87
2461.163	3101.98
2464.317	3045.76
2467.471	3088.64
2470.624	3130.89
2473.777	3163.43
2476.929	3157.93
2480.082	3187.51
2483.234	3150.24
2486.385	3044.91
2489.537	3042.45
2492.688	2972.26
2495.839	2995.96
2498.989	2994.9
2502.14	2975.09
2505.29	2942.82
2508.439	2971.99
2511.589	2877.57
2514.738	2908.01
2517.887	2937.53
2521.035	3069.23
2524.183	3070.58
2527.331	3037.76
2530.479	2983.03
2533.627	3005.95
