Data from C_2_DEC_VA_2N_Splice17_12-08-17-089.txt Node
Date: Sat Mar 14 12:08:17 EDT 2020
User: sa697716
Spectrometer: FLMS03696
Trigger mode: 0
Integration Time (sec): 3.180400E-1
Scans to average: 20
Electric dark correction enabled: true
Nonlinearity correction enabled: true
Boxcar width: 5
XAxis mode: Wavelengths
Number of Pixels in Spectrum: 2048
>>>>>Begin Spectral Data<<<<<
187.83	-255367.95
188.298	2038.91
188.766	1064.02
189.233	931.87
189.701	1298.35
190.169	1828
190.636	728.82
191.104	656.94
191.571	188.39
192.039	5.29
192.506	-12.52
192.974	408.79
193.441	-420.95
193.908	-108.55
194.375	-29.14
194.842	34.72
195.31	86.96
195.777	152.6
196.244	381.26
196.711	488.76
197.177	603.96
197.644	859.87
198.111	1487.65
198.578	2108.86
199.045	1696.36
199.511	2745.52
199.978	3205.17
200.445	2741.55
200.911	3047.71
201.378	3370.16
201.844	3064.44
202.31	5260.44
202.777	5487.1
203.243	3059.23
203.709	2891.67
204.176	3452.41
204.642	2853.23
205.108	2656.92
205.574	2159.32
206.04	1966.76
206.506	1851.57
206.972	1741.76
207.438	1679.84
207.903	1908.57
208.369	1662.31
208.835	1657.23
209.301	1742.06
209.766	1787.01
210.232	1769.05
210.697	2191.29
211.163	2676.4
211.628	4011.25
212.094	3335.73
212.559	4050.47
213.024	2509.35
213.49	3043.15
213.955	2952.58
214.42	2843.31
214.885	2631.54
215.35	2522.36
215.815	2405.23
216.28	2547.01
216.745	2060.25
217.21	2214.24
217.675	2006.15
218.14	2225.23
218.604	2435.21
219.069	2728.54
219.534	2826.11
219.998	3239.21
220.463	3861.84
220.927	4683.74
221.392	4368.25
221.856	4395.17
222.32	5481.08
222.785	6713.4
223.249	8400.29
223.713	9334.78
224.177	9321.1
224.642	11893.57
225.106	14607.49
225.57	15946.25
226.034	11832
226.497	17974.92
226.961	16229.54
227.425	18905.89
227.889	20975.24
228.353	20919.87
228.816	43099.77
229.28	41233.36
229.744	34803.05
230.207	21120.23
230.671	20723.91
231.134	34241.94
231.597	39459.85
232.061	39393.42
232.524	38399.19
232.987	26439.51
233.45	23815.94
233.914	21389.09
234.377	21891.97
234.84	20012.72
235.303	23579.79
235.766	26298.68
236.229	27165.14
236.691	17114.94
237.154	19199
237.617	14446.52
238.08	14818.48
238.542	17357.85
239.005	12421.84
239.468	12353.29
239.93	11643.61
240.393	10597.86
240.855	9314.19
241.317	9562.11
241.78	11621.45
242.242	12042.25
242.704	13018.73
243.166	11320.09
243.629	10276.97
244.091	11851.72
244.553	12979.56
245.015	13972.46
245.477	18046.68
245.939	26461.07
246.4	28086.53
246.862	27330.7
247.324	25760.15
247.786	28811.47
248.247	37780
248.709	38929.52
249.17	29054
249.632	27374.39
250.093	31706.19
250.555	27369.72
251.016	16686.26
251.477	15799.49
251.939	17019.17
252.4	17831.86
252.861	21174.08
253.322	19685.82
253.783	23438.18
254.244	30363.24
254.705	23877.96
255.166	21203.27
255.627	20871.3
256.088	29434.28
256.549	31231.86
257.009	26866.48
257.47	32538.99
257.931	26438.9
258.391	19791.26
258.852	20348.46
259.312	21324.88
259.773	26285.18
260.233	22196.25
260.694	18707.42
261.154	21152.21
261.614	16964.15
262.074	15157.01
262.534	15720.62
262.994	14806.23
263.455	19664.24
263.915	16558.13
264.374	15553.62
264.834	16970.34
265.294	18759.07
265.754	19401.26
266.214	18324.66
266.673	17135.08
267.133	21588.45
267.593	21402.32
268.052	26136.32
268.512	22699.83
268.971	27357.5
269.431	29950.16
269.89	26778.38
270.349	40145.2
270.809	44712.26
271.268	40179.4
271.727	89965.1
272.186	58241.85
272.645	43701.66
273.104	31486.35
273.563	45564.92
274.022	35762.04
274.481	30458.08
274.94	23461.36
275.399	17420.95
275.857	20249.61
276.316	27377.6
276.775	24361.85
277.233	23967.36
277.692	22408.37
278.15	25360.3
278.609	26108.52
279.067	24167.16
279.525	22471.8
279.984	29011.81
280.442	34813.37
280.9	34377.32
281.358	22628.14
281.816	21087.31
282.274	20642.33
282.732	21323.09
283.19	21422.55
283.648	18505.38
284.106	19705.26
284.564	20002.72
285.021	18563.65
285.479	13844.47
285.937	12574.48
286.394	11036.83
286.852	11374.3
287.309	11982.98
287.767	11592.14
288.224	11045.97
288.682	12102.65
289.139	13289.93
289.596	12176.02
290.053	12636.05
290.511	15931.9
290.968	19305.37
291.425	26187.5
291.882	21833.02
292.339	18960.62
292.796	18787.71
293.252	17666.06
293.709	14031.94
294.166	12580.73
294.623	13895.74
295.079	13334.41
295.536	13429.17
295.992	12202.5
296.449	12050.27
296.905	12489.44
297.362	11994.54
297.818	12613.34
298.274	13108.15
298.731	13352.35
299.187	13212.15
299.643	14180.02
300.099	17163.53
300.555	18806.74
301.011	15738.31
301.467	15226.22
301.923	17823.6
302.379	17411.07
302.835	17098.33
303.291	17110.8
303.746	19504.89
304.202	24644.35
304.658	24717.71
305.113	16623.69
305.569	16311.95
306.024	17385.76
306.479	16546.67
306.935	13973.87
307.39	15264.65
307.845	14132.11
308.301	14256.51
308.756	13891.33
309.211	13404.15
309.666	13781.29
310.121	17162.06
310.576	17439.27
311.031	17325.8
311.486	19817.34
311.94	19819.1
312.395	26528.3
312.85	49863.96
313.305	244750.59
313.759	1271232.35
314.214	92176.12
314.668	73130.91
315.123	61515.7
315.577	22062.94
316.032	19629.91
316.486	24624.64
316.94	19480.62
317.394	13572.94
317.849	10534.92
318.303	9982.31
318.757	9403.5
319.211	10381.74
319.665	9090.02
320.119	9186.15
320.572	13165.89
321.026	12296.6
321.48	10231.17
321.934	11127.25
322.387	11128.21
322.841	12034.81
323.295	10827.78
323.748	12474.52
324.202	12647.89
324.655	15168.94
325.108	21220.44
325.562	14995.74
326.015	17835.08
326.468	13484.73
326.921	15065.92
327.374	14077.05
327.827	14661.39
328.28	16588.85
328.733	11121.61
329.186	9822.7
329.639	9362.1
330.092	7888.3
330.545	7515.64
330.997	7579.91
331.45	8307.5
331.903	9755.96
332.355	16762.5
332.808	16318.77
333.26	13464.31
333.713	14639.16
334.165	14727.4
334.617	19656.28
335.069	15874.56
335.522	28741.31
335.974	31877.6
336.426	29097.38
336.878	20147.69
337.33	10244.84
337.782	10002.42
338.234	12562.48
338.686	15010.28
339.137	17837.1
339.589	16803.12
340.041	13189.62
340.493	11288.01
340.944	11572.07
341.396	12456.77
341.847	10488.8
342.299	12367.52
342.75	15109.89
343.201	13156.11
343.653	15086.8
344.104	18468.71
344.555	14520.59
345.006	22524.95
345.457	17269.34
345.908	13672.85
346.359	12866.41
346.81	10473.96
347.261	11011.05
347.712	10816.64
348.163	11610.64
348.613	11791.64
349.064	11010.82
349.515	9643.36
349.965	9899.21
350.416	11952.2
350.866	13127.47
351.317	14840.08
351.767	24576.97
352.217	31117.25
352.668	25812.72
353.118	23594.73
353.568	22725.36
354.018	17990.49
354.468	19002.76
354.918	13650.1
355.368	11940.25
355.818	16877.2
356.268	48466.25
356.718	203207.54
357.168	50659.64
357.617	25491.81
358.067	28375.28
358.517	26583.97
358.966	31210.06
359.416	35071.65
359.865	38004.9
360.315	45232.32
360.764	21131.45
361.213	11867.75
361.663	11196.52
362.112	13810.35
362.561	22306.14
363.01	16855.02
363.459	14205.77
363.908	15348
364.357	13019.82
364.806	21903.83
365.255	15090.38
365.703	13847.24
366.152	13880.24
366.601	11264.08
367.05	9153.01
367.498	8337.81
367.947	8712.26
368.395	9070.19
368.844	8041.66
369.292	9701.87
369.74	6738.27
370.189	10288.14
370.637	12053.16
371.085	10408.13
371.533	12704.21
371.981	12264.15
372.429	11726.85
372.877	12230.42
373.325	10249.62
373.773	10462.74
374.221	9301.64
374.669	11550.77
375.116	10015.17
375.564	10140.87
376.012	11350.65
376.459	9386.82
376.907	11236.89
377.354	13567.54
377.801	12723.08
378.249	14672.88
378.696	18809.92
379.143	22904.53
379.591	24508.97
380.038	41697.02
380.485	30258.25
380.932	32833.92
381.379	30278.77
381.826	22411.39
382.273	15999.45
382.72	14032.15
383.166	13774.61
383.613	9012.05
384.06	8175.39
384.506	9516.27
384.953	7024.36
385.4	7099.56
385.846	6255.15
386.292	6113.37
386.739	6018.42
387.185	5991.77
387.631	6034.99
388.078	5904.08
388.524	6358.76
388.97	5922.1
389.416	4976.42
389.862	5330.91
390.308	5093.02
390.754	5223.21
391.2	5724.69
391.645	5899.24
392.091	5691.64
392.537	5561.91
392.983	5606.52
393.428	5555.27
393.874	5993.79
394.319	6069.45
394.765	5819.93
395.21	6045
395.655	5724.76
396.101	5405.79
396.546	4920.27
396.991	5012.48
397.436	4685.41
397.881	4565.92
398.326	4361.87
398.771	4167.71
399.216	3678.4
399.661	3338.34
400.106	3354.7
400.551	3451.46
400.995	3122.57
401.44	3114.73
401.885	2947.67
402.329	2994.18
402.774	2887.85
403.218	2811.77
403.663	2724.04
404.107	2812.46
404.551	2846.69
404.995	2622.13
405.44	2544.27
405.884	2594.75
406.328	2526.17
406.772	2531.8
407.216	2321.88
407.66	2254.72
408.104	2151.88
408.547	2021.23
408.991	1967.6
409.435	1903.52
409.879	1882.85
410.322	1865.57
410.766	1809.23
411.209	1726.78
411.653	1664.74
412.096	1637.51
412.54	1647.11
412.983	1643.98
413.426	1657.71
413.869	1662.35
414.312	1636.73
414.756	1583.79
415.199	1515.93
415.642	1476.03
416.085	1482.02
416.527	1475.99
416.97	1503.06
417.413	1429.3
417.856	1416.81
418.298	1402.91
418.741	1394.89
419.184	1395.69
419.626	1459.17
420.069	1461.94
420.511	1471.97
420.953	1443.66
421.396	1432.49
421.838	1395.99
422.28	1428.44
422.722	1436.82
423.164	1460.09
423.606	1437.01
424.048	1437.03
424.49	1365.29
424.932	1357.51
425.374	1337.23
425.816	1357.78
426.258	1382.46
426.699	1397.03
427.141	1373.32
427.582	1393.87
428.024	1384.66
428.465	1374.36
428.907	1336.51
429.348	1316.55
429.789	1313.33
430.231	1283.34
430.672	1297.52
431.113	1263.56
431.554	1246.11
431.995	1214.79
432.436	1169.47
432.877	1143.64
433.318	1123.23
433.759	1116.95
434.2	1118.74
434.64	1112.16
435.081	1119.04
435.522	1061.49
435.962	1025.77
436.403	1002.47
436.843	1019.05
437.284	1000.32
437.724	978.24
438.164	983.86
438.604	966.32
439.045	930.58
439.485	894.11
439.925	878.57
440.365	863.92
440.805	855.72
441.245	851.66
441.685	823.67
442.125	821.05
442.564	830.49
443.004	817.54
443.444	820.78
443.883	829.3
444.323	829.74
444.762	839.13
445.202	856.79
445.641	878.4
446.081	879.49
446.52	894.66
446.959	894.26
447.398	878.74
447.837	875
448.276	868.53
448.716	884.56
449.154	900.52
449.593	885.04
450.032	887.43
450.471	877.91
450.91	883.96
451.349	887.58
451.787	890.53
452.226	909.63
452.664	915.24
453.103	922.62
453.541	925.87
453.98	926.75
454.418	938.52
454.856	927.93
455.295	930.35
455.733	941.86
456.171	951.67
456.609	955.18
457.047	957.88
457.485	973.41
457.923	974.45
458.361	964.18
458.798	969.24
459.236	965.89
459.674	973.61
460.111	978.42
460.549	969.48
460.987	965.72
461.424	962.69
461.862	959.19
462.299	945.41
462.736	945.1
463.173	947.46
463.611	936.18
464.048	934.67
464.485	941.62
464.922	933.91
465.359	929.21
465.796	913.3
466.233	906.13
466.67	895.94
467.106	892.95
467.543	884.65
467.98	874.83
468.416	852.66
468.853	846.21
469.29	821.83
469.726	813.08
470.162	791.76
470.599	785.59
471.035	778.79
471.471	760.76
471.907	758.24
472.344	753.51
472.78	755.17
473.216	766.32
473.652	758.85
474.088	758.91
474.523	757.87
474.959	767.08
475.395	759.86
475.831	757.85
476.266	763.33
476.702	761.55
477.138	755.52
477.573	753.88
478.008	752.61
478.444	756.35
478.879	763.23
479.314	767.85
479.75	768.34
480.185	774.84
480.62	782.26
481.055	787.52
481.49	794.94
481.925	807.69
482.36	823.36
482.795	847.39
483.229	872.35
483.664	893.21
484.099	899.08
484.534	915.17
484.968	926.46
485.403	932.92
485.837	935.88
486.271	937.94
486.706	942.36
487.14	935.86
487.574	925.05
488.009	920.76
488.443	917.51
488.877	930.29
489.311	938.66
489.745	954.51
490.179	968.15
490.613	990.41
491.046	1004.24
491.48	1016.78
491.914	1024.05
492.348	1038.88
492.781	1051.58
493.215	1061.12
493.648	1070.79
494.082	1086.23
494.515	1093.66
494.948	1112.05
495.382	1128.06
495.815	1143.59
496.248	1160.74
496.681	1189.94
497.114	1215.24
497.547	1238.96
497.98	1267.16
498.413	1284.51
498.846	1307.28
499.279	1330.51
499.711	1346.6
500.144	1358.5
500.577	1382.81
501.009	1409.32
501.442	1432.06
501.874	1442.09
502.306	1454.67
502.739	1471.82
503.171	1505.04
503.603	1517
504.036	1539.78
504.468	1555.54
504.9	1581.06
505.332	1596.76
505.764	1607.3
506.196	1623.41
506.627	1651.77
507.059	1677.11
507.491	1697.8
507.923	1694.91
508.354	1723.15
508.786	1741.36
509.217	1772.89
509.649	1797.31
510.08	1830.21
510.512	1858.62
510.943	1882.89
511.374	1899.59
511.805	1930.63
512.237	1960.13
512.668	2013.49
513.099	2055.44
513.53	2096.85
513.961	2124.97
514.391	2172.93
514.822	2220.77
515.253	2273.33
515.684	2307.45
516.114	2348.44
516.545	2375.61
516.975	2411.51
517.406	2430.17
517.836	2423.57
518.267	2422.82
518.697	2440.93
519.127	2436.81
519.558	2440.02
519.988	2435.34
520.418	2441.82
520.848	2459.54
521.278	2461.97
521.708	2450.4
522.138	2459.07
522.567	2498.02
522.997	2527.01
523.427	2541.16
523.857	2556.62
524.286	2562.46
524.716	2574.55
525.145	2592.79
525.575	2599.32
526.004	2612.26
526.433	2615.38
526.863	2607.24
527.292	2581.99
527.721	2582.14
528.15	2583.15
528.579	2576.84
529.008	2585.01
529.437	2613.37
529.866	2628.85
530.295	2649.87
530.724	2661.88
531.152	2698.3
531.581	2714.42
532.01	2736.76
532.438	2746.13
532.867	2764.97
533.295	2788.1
533.723	2793.1
534.152	2786.59
534.58	2782.74
535.008	2754.11
535.436	2754.48
535.865	2763.83
536.293	2783.38
536.721	2805.35
537.149	2842.66
537.576	2843.24
538.004	2860.57
538.432	2871.86
538.86	2867.35
539.287	2876.47
539.715	2897.63
540.143	2900.49
540.57	2892.71
540.998	2886.09
541.425	2848.57
541.852	2814.83
542.28	2811.89
542.707	2786.45
543.134	2763.07
543.561	2755.18
543.988	2743.02
544.415	2740.26
544.842	2731.17
545.269	2718.17
545.696	2719.09
546.123	2737.46
546.549	2718.93
546.976	2697.2
547.403	2695.6
547.829	2697.17
548.256	2699.98
548.682	2693.58
549.108	2679.37
549.535	2676.92
549.961	2679.92
550.387	2658.54
550.813	2649
551.24	2657.96
551.666	2659.4
552.092	2644.77
552.518	2634.84
552.943	2625.39
553.369	2635.81
553.795	2645.61
554.221	2647.71
554.646	2642.83
555.072	2658.67
555.498	2668.84
555.923	2685.28
556.349	2709.18
556.774	2724.02
557.199	2729.33
557.625	2740.51
558.05	2733.55
558.475	2751.06
558.9	2753.26
559.325	2744.74
559.75	2739.99
560.175	2732.68
560.6	2726.57
561.025	2726.94
561.449	2731.49
561.874	2743.33
562.299	2754.44
562.723	2771.34
563.148	2761.81
563.572	2772.07
563.997	2792.52
564.421	2806.39
564.846	2814.75
565.27	2826.65
565.694	2831.29
566.118	2857.66
566.542	2876.82
566.966	2875.95
567.39	2876.06
567.814	2869.38
568.238	2877.37
568.662	2895.94
569.086	2909.26
569.509	2929.95
569.933	2913.67
570.357	2910.49
570.78	2885.4
571.204	2871.61
571.627	2862.24
572.05	2867.03
572.474	2871.77
572.897	2860.51
573.32	2853.8
573.743	2845.7
574.166	2821.97
574.589	2830.71
575.012	2824.62
575.435	2829.28
575.858	2821.54
576.281	2809.22
576.704	2788.71
577.126	2775.38
577.549	2762.8
577.972	2752.52
578.394	2740.26
578.817	2732.8
579.239	2705.55
579.661	2688.38
580.084	2665.82
580.506	2647.27
580.928	2644.11
581.35	2631.1
581.772	2627.28
582.194	2607.94
582.616	2590.73
583.038	2571.59
583.46	2557.87
583.882	2555.75
584.303	2567.28
584.725	2564.39
585.147	2566.99
585.568	2589.07
585.99	2613.28
586.411	2627.55
586.833	2656.46
587.254	2662.26
587.675	2689.17
588.096	2714.71
588.518	2708.79
588.939	2682.08
589.36	2681.62
589.781	2673.08
590.202	2623.22
590.623	2609.46
591.043	2609.49
591.464	2588.97
591.885	2583.35
592.305	2575.8
592.726	2553.92
593.147	2556.85
593.567	2549.35
593.987	2537.81
594.408	2529.3
594.828	2532.28
595.248	2522.92
595.669	2490.57
596.089	2481.28
596.509	2472.86
596.929	2450.7
597.349	2452.19
597.769	2436.67
598.189	2427.73
598.608	2432.12
599.028	2438.08
599.448	2440.32
599.867	2421.07
600.287	2416.82
600.706	2409.13
601.126	2393.67
601.545	2393.46
601.965	2394.07
602.384	2387.71
602.803	2395.74
603.222	2388.41
603.641	2378.9
604.061	2373.61
604.48	2369.79
604.898	2386.75
605.317	2400.35
605.736	2407.01
606.155	2404.27
606.574	2390.72
606.992	2403.29
607.411	2396.88
607.829	2387.67
608.248	2385.83
608.666	2385.1
609.085	2387.59
609.503	2376.83
609.921	2367.43
610.339	2375.05
610.758	2378.73
611.176	2374.4
611.594	2361.72
612.012	2360.12
612.43	2368.51
612.847	2384.51
613.265	2389.18
613.683	2401.37
614.101	2406.37
614.518	2404.8
614.936	2390.09
615.353	2366.34
615.771	2363.91
616.188	2367.28
616.606	2363.5
617.023	2354.1
617.44	2330.68
617.857	2322.41
618.274	2310.48
618.691	2300.92
619.108	2286.14
619.525	2277.85
619.942	2292.49
620.359	2299.88
620.776	2294.58
621.192	2288.89
621.609	2286.07
622.026	2299.22
622.442	2311.24
622.859	2318.39
623.275	2308.16
623.691	2320.13
624.108	2341.97
624.524	2369.87
624.94	2371.01
625.356	2389.86
625.772	2415.8
626.188	2440.55
626.604	2445.24
627.02	2438.67
627.436	2434.18
627.852	2445.84
628.268	2469.97
628.683	2454.24
629.099	2438.72
629.514	2431.29
629.93	2439.15
630.345	2447.05
630.761	2440.2
631.176	2445.72
631.591	2433.22
632.007	2423.59
632.422	2423.24
632.837	2402.73
633.252	2399.44
633.667	2380.7
634.082	2366.24
634.497	2341.61
634.911	2305.66
635.326	2300.25
635.741	2269.68
636.155	2254.32
636.57	2256.24
636.984	2255.23
637.399	2256.78
637.813	2257.77
638.228	2258.61
638.642	2265.88
639.056	2248.15
639.47	2252.07
639.884	2235.73
640.298	2225.45
640.712	2223.79
641.126	2201.76
641.54	2186.97
641.954	2181.86
642.368	2158.16
642.781	2139.93
643.195	2109.09
643.609	2110.47
644.022	2097.31
644.436	2089.2
644.849	2067.38
645.262	2044.78
645.676	2046.64
646.089	2036
646.502	2002.68
646.915	1992.48
647.328	1960.51
647.741	1952.05
648.154	1924.24
648.567	1914.92
648.98	1888.35
649.393	1886.65
649.805	1878.63
650.218	1864.08
650.631	1832.87
651.043	1821.65
651.456	1809
651.868	1811.26
652.28	1843.24
652.693	1869.62
653.105	1882.02
653.517	1900.55
653.929	1901.21
654.341	1909.48
654.753	1885.05
655.165	1897.24
655.577	1892.35
655.989	1882.05
656.401	1865.73
656.813	1795.86
657.224	1757.16
657.636	1704.41
658.047	1666.59
658.459	1627.81
658.87	1608.64
659.282	1584.52
659.693	1541.51
660.104	1508.11
660.515	1479.51
660.926	1468.56
661.338	1458.23
661.749	1438.89
662.159	1413.96
662.57	1399.4
662.981	1381.93
663.392	1359.98
663.803	1357.15
664.213	1343.8
664.624	1328.39
665.035	1322.77
665.445	1291.22
665.855	1269.14
666.266	1246.77
666.676	1233.52
667.086	1209.4
667.497	1198.41
667.907	1180.22
668.317	1156.89
668.727	1141.53
669.137	1134.21
669.547	1122.78
669.956	1118.59
670.366	1113.39
670.776	1108.86
671.186	1107.76
671.595	1106.48
672.005	1106.69
672.414	1100.48
672.824	1092.67
673.233	1094.53
673.642	1093.43
674.052	1092.78
674.461	1092.86
674.87	1096.96
675.279	1089.33
675.688	1089.42
676.097	1088.47
676.506	1082.31
676.915	1100.43
677.323	1104.23
677.732	1103.9
678.141	1105.45
678.549	1093.82
678.958	1096.97
679.366	1100.12
679.775	1114.42
680.183	1135.23
680.592	1152.74
681	1171.31
681.408	1173.81
681.816	1198.13
682.224	1225.62
682.632	1254.16
683.04	1317.09
683.448	1371.85
683.856	1439.17
684.264	1514.9
684.671	1591.14
685.079	1680.96
685.487	1779.2
685.894	1909.03
686.302	2023.09
686.709	2118.13
687.116	2225.95
687.524	2313.65
687.931	2390.08
688.338	2455.86
688.745	2512.12
689.152	2570.15
689.559	2644.73
689.966	2712.99
690.373	2736.24
690.78	2789.46
691.187	2883.36
691.593	2944.91
692	2993.25
692.407	3075.09
692.813	3173.09
693.22	3242.47
693.626	3312.61
694.032	3357.27
694.439	3443.79
694.845	3501.85
695.251	3583.97
695.657	3651.52
696.063	3770.71
696.469	3846.6
696.875	3912.4
697.281	3932.42
697.687	3964.46
698.093	3984.41
698.498	4058.86
698.904	4107.19
699.31	4200.02
699.715	4253.58
700.12	4346.38
700.526	4334.59
700.931	4395.8
701.337	4430.19
701.742	4438.73
702.147	4521.89
702.552	4528.08
702.957	4576.96
703.362	4573.5
703.767	4579.94
704.172	4602.22
704.577	4508.55
704.981	4541.26
705.386	4535.4
705.791	4495.88
706.195	4567.54
706.6	4553.2
707.004	4630.74
707.408	4564.5
707.813	4572.17
708.217	4531.1
708.621	4508.25
709.025	4607.93
709.43	4584.65
709.834	4635.28
710.237	4702.63
710.641	4661.94
711.045	4665.53
711.449	4637.33
711.853	4650.37
712.256	4679.07
712.66	4706.01
713.064	4778.94
713.467	4808.13
713.87	4927.26
714.274	4964.41
714.677	5074.78
715.08	5248.74
715.484	5429.72
715.887	5648.52
716.29	5868.2
716.693	6095.49
717.096	6356.89
717.499	6490.7
717.901	6504.47
718.304	6513.02
718.707	6520.85
719.109	6384.89
719.512	6328.62
719.915	6153.75
720.317	6074.76
720.719	6110.38
721.122	6061.9
721.524	5991.65
721.926	5929.38
722.328	6025.56
722.731	6005.24
723.133	6024.61
723.535	6228.02
723.937	6241.23
724.338	6288.63
724.74	6323.42
725.142	6220.27
725.544	6205.81
725.945	6221.89
726.347	6209.93
726.748	6190.12
727.15	6190.7
727.551	6140.52
727.952	6099.95
728.354	6059.65
728.755	6051.47
729.156	5998.15
729.557	5993.62
729.958	5853.78
730.359	5785.05
730.76	5756.07
731.161	5685.13
731.562	5654.2
731.962	5651.54
732.363	5577.03
732.763	5502.62
733.164	5533.91
733.564	5455.14
733.965	5344.81
734.365	5302.13
734.766	5327.2
735.166	5280.2
735.566	5217.78
735.966	5186.14
736.366	5177.38
736.766	5105.65
737.166	5133.92
737.566	5085.46
737.966	5053.14
738.365	5091.55
738.765	5082.74
739.165	5002.9
739.564	4972.58
739.964	5017.5
740.363	4963.94
740.763	4956.96
741.162	4944.24
741.561	4907.7
741.96	4859.92
742.36	4878.99
742.759	4883.17
743.158	4921.56
743.557	4933.9
743.955	4972.8
744.354	4924.1
744.753	4983.95
745.152	4941.41
745.55	4997.65
745.949	4992.04
746.348	4992.55
746.746	5009.78
747.144	4968.05
747.543	4943.59
747.941	4994.41
748.339	4919.85
748.737	4910.09
749.136	4900.1
749.534	4968.19
749.932	4938.83
750.33	4962.52
750.727	5019.5
751.125	4992.82
751.523	4973.07
751.921	5017.01
752.318	4980.64
752.716	5043.4
753.113	5056.21
753.511	5081.22
753.908	5077.75
754.305	5057.05
754.703	5117.97
755.1	5178.42
755.497	5240.14
755.894	5439.8
756.291	5628.22
756.688	5971.84
757.085	6429.14
757.482	7078.24
757.878	7783.66
758.275	8421.87
758.672	9304.97
759.068	10023.1
759.465	11049.01
759.861	12367.89
760.258	13890.51
760.654	14674.05
761.05	14556.8
761.447	13894.57
761.843	12930.09
762.239	11939.09
762.635	11487.59
763.031	11057.42
763.427	10438.62
763.822	9788.94
764.218	9145.53
764.614	8312.67
765.01	7753.28
765.405	7393.1
765.801	7118.37
766.196	6769.31
766.592	6575.67
766.987	6246.07
767.382	6021.47
767.778	5927.61
768.173	5788.03
768.568	5711.66
768.963	5579.41
769.358	5598.57
769.753	5547.66
770.148	5459.06
770.542	5456.95
770.937	5423.53
771.332	5520.15
771.726	5540.35
772.121	5473.91
772.515	5531.96
772.91	5517.54
773.304	5591.75
773.699	5524.82
774.093	5581.51
774.487	5640.82
774.881	5689.76
775.275	5685.82
775.669	5642.71
776.063	5691.61
776.457	5730.59
776.851	5654.99
777.245	5648.38
777.638	5684.55
778.032	5806.34
778.425	5770.8
778.819	5811.44
779.212	5763.65
779.606	5721.55
779.999	5743.22
780.392	5725.19
780.786	5812.34
781.179	5834.7
781.572	5879.35
781.965	5894.57
782.358	5829.27
782.751	5887.96
783.143	5840.2
783.536	5920.3
783.929	5963.87
784.322	6082.33
784.714	6110.92
785.107	6101.89
785.499	6174.45
785.891	6149.18
786.284	6128.32
786.676	6278.72
787.068	6258.32
787.46	6312.76
787.852	6330.55
788.245	6419.51
788.636	6452.25
789.028	6523.58
789.42	6568.12
789.812	6578.27
790.204	6678.55
790.595	6781.25
790.987	6574.82
791.378	6597.27
791.77	6726.81
792.161	6865.92
792.553	6924.25
792.944	6806.11
793.335	6734.96
793.726	6808.77
794.117	6902.16
794.508	7046.07
794.899	7013.21
795.29	7161.04
795.681	7219.19
796.072	7073.02
796.463	6879.94
796.853	6889.8
797.244	7053.22
797.634	7089.14
798.025	7087.15
798.415	7099.28
798.806	7187.38
799.196	7276.46
799.586	7330.36
799.976	7291.08
800.366	7535.5
800.756	7786.93
801.146	7744.1
801.536	7773.49
801.926	7846.17
802.316	7874.45
802.706	7950.46
803.095	7824.31
803.485	7930.77
803.874	7971.37
804.264	8241.48
804.653	8210.48
805.043	8361.79
805.432	8474.94
805.821	8474.44
806.21	8500.93
806.599	8627.65
806.988	8672.19
807.377	8784.37
807.766	8919.36
808.155	9214.4
808.544	8942.48
808.933	8959.94
809.321	8934.88
809.71	9243.03
810.098	9416.7
810.487	9896.74
810.875	10391.75
811.264	10416.38
811.652	10719.49
812.04	10874.29
812.428	11042.35
812.816	11837.62
813.204	12271
813.592	12849.46
813.98	13195.43
814.368	13096.33
814.756	13593.06
815.144	13510.46
815.531	13993.93
815.919	13914.27
816.306	14229.58
816.694	13910.97
817.081	13962.48
817.469	14322.76
817.856	14324.22
818.243	14610.26
818.63	15020.98
819.017	14587.05
819.404	14654.23
819.791	15053.14
820.178	15695.35
820.565	15950.13
820.952	16923.23
821.339	16407.42
821.725	16600.15
822.112	15825.78
822.498	15784
822.885	15918.71
823.271	15820.66
823.657	16258.11
824.044	16258.51
824.43	16339.55
824.816	16310.18
825.202	15852.94
825.588	16913.62
825.974	16930.8
826.36	17468.67
826.746	17498.64
827.132	17865.3
827.517	17835.83
827.903	17023.41
828.289	17064.06
828.674	16250.23
829.06	16142.43
829.445	16552.98
829.83	16922.43
830.216	17415.31
830.601	17793.39
830.986	17371.44
831.371	17232.31
831.756	17811.16
832.141	17358.77
832.526	17356.16
832.911	17649.88
833.295	17520.84
833.68	18014.73
834.065	17376.56
834.449	16435.94
834.834	16358.23
835.218	16352.41
835.603	16700.21
835.987	16482.33
836.371	17352.4
836.755	17238.26
837.139	17656.4
837.524	17923.63
837.908	17735.13
838.291	17794.13
838.675	17862.37
839.059	18080.55
839.443	18077.15
839.827	17840.37
840.21	18340.95
840.594	18179.83
840.977	18402.33
841.361	18385.44
841.744	18764.59
842.127	18608.5
842.511	18869.29
842.894	19491.78
843.277	19890.9
843.66	20453.31
844.043	20540.6
844.426	19698.87
844.809	19376.35
845.191	19421.76
845.574	18945.21
845.957	18579.8
846.339	18462.82
846.722	17919.38
847.104	17989.68
847.487	17807.38
847.869	17823.91
848.252	18118.44
848.634	18475.95
849.016	18752.35
849.398	18883.3
849.78	19763.61
850.162	19769.61
850.544	20209.16
850.926	20864.52
851.307	20774.07
851.689	21073.5
852.071	21545.47
852.452	21883.78
852.834	21857.87
853.215	22276.39
853.597	22420.2
853.978	22731.89
854.359	23210.27
854.741	22179.59
855.122	22078.56
855.503	21776.07
855.884	21922.56
856.265	21855.02
856.646	21970.55
857.026	21561.25
857.407	21504.88
857.788	21677.16
858.169	21975.72
858.549	21085.51
858.93	21736.49
859.31	21784.3
859.69	21999.41
860.071	21569.59
860.451	21342.06
860.831	20568.39
861.211	21768.74
861.591	22327.83
861.971	22295.13
862.351	22491.69
862.731	22894.61
863.111	23153.99
863.491	23492.82
863.87	24405.56
864.25	24758.39
864.629	24338.17
865.009	24878.24
865.388	25771.92
865.768	27626.24
866.147	27518.3
866.526	26005.74
866.905	26302.31
867.284	27792.21
867.663	26384.78
868.042	25290.68
868.421	25199.1
868.8	25622.02
869.179	25861.35
869.558	24347.02
869.936	22435.64
870.315	22834.88
870.693	23383.45
871.072	25222.46
871.45	24013.91
871.828	24321.65
872.207	25565.72
872.585	25193.58
872.963	25879.84
873.341	24986.03
873.719	24684.14
874.097	24388.38
874.475	24847.67
874.853	25409.26
875.23	24341.19
875.608	25354.73
875.986	27428.79
876.363	26238.58
876.741	27037.44
877.118	26365.16
877.495	27659.99
877.873	28120.1
878.25	29581.33
878.627	28382.52
879.004	28787.88
879.381	28662.25
879.758	27914.82
880.135	25988.9
880.512	27465.44
880.889	26740.65
881.265	26459.65
881.642	26244.26
882.019	26697.33
882.395	26158.91
882.772	27192.55
883.148	26009.85
883.524	25904.26
883.901	25744.29
884.277	26126.42
884.653	25968.59
885.029	26704.63
885.405	29568.64
885.781	29347.04
886.157	28138.14
886.532	28485.95
886.908	28474.64
887.284	31663.29
887.659	32704.07
888.035	33743.58
888.411	34622.16
888.786	35076.97
889.161	36298.75
889.537	35629.04
889.912	36753.69
890.287	36704.42
890.662	37641.02
891.037	36954.45
891.412	34474.6
891.787	34127.96
892.162	32938.46
892.536	33713.21
892.911	32451.56
893.286	31777.24
893.66	30497.22
894.035	31300.98
894.409	34107.84
894.784	32744.9
895.158	33304
895.532	35273.4
895.906	36245.3
896.281	37097.42
896.655	36486.81
897.029	41688.52
897.402	43416.14
897.776	48337.86
898.15	48149.63
898.524	47621.2
898.898	48251.56
899.271	54011.33
899.645	46773.95
900.018	44913.41
900.392	46568.21
900.765	46947.3
901.138	43457.81
901.511	42800.51
901.884	39307.82
902.258	36258.6
902.631	37457.93
903.003	43085.31
903.376	38869.74
903.749	43575.37
904.122	46655.23
904.495	51355.84
904.867	52024.58
905.24	45168.76
905.612	42047.76
905.985	42990.27
906.357	44929.56
906.729	42888.24
907.102	36668.72
907.474	35263.22
907.846	35491.64
908.218	35007.8
908.59	30944.73
908.962	29929.28
909.334	32222.42
909.705	33831.29
910.077	32833.14
910.449	34178.7
910.82	35114.45
911.192	38598.01
911.563	40121
911.935	42923.69
912.306	42978.64
912.677	44388.87
913.048	43936.33
913.419	47660.86
913.79	47929.94
914.161	51393.36
914.532	49125.42
914.903	45165.51
915.274	42907.04
915.645	42246.35
916.015	37163.8
916.386	35419.98
916.756	37672.38
917.127	38852.69
917.497	34701.23
917.868	37743.98
918.238	35872.96
918.608	36895.95
918.978	37644.51
919.348	39858.68
919.718	41172.45
920.088	39673.13
920.458	41248.13
920.828	43423.76
921.198	41160.38
921.567	43990.31
921.937	34086.74
922.306	34412.1
922.676	37114.23
923.045	30964.94
923.415	29437.01
923.784	26816.25
924.153	27563.4
924.522	27519.06
924.891	25858.99
925.26	27701.55
925.629	27029.3
925.998	31074.27
926.367	30329.47
926.736	28877.15
927.104	34397.04
927.473	36952.76
927.842	44633.74
928.21	44237.14
928.578	46513.08
928.947	44016.75
929.315	44262.47
929.683	51947.82
930.051	52393.27
930.42	60839.75
930.788	52030.84
931.156	51624.12
931.523	48380.32
931.891	44716.23
932.259	42944.4
932.627	49775.03
932.994	70422.18
933.362	58242.01
933.729	50538.42
934.097	48338.42
934.464	40891.41
934.831	47158.74
935.199	46522.4
935.566	45138.75
935.933	45779.31
936.3	55452.66
936.667	43150.03
937.034	38873.32
937.401	38448.06
937.767	33226.03
938.134	29578.33
938.501	41708.3
938.867	44475.34
939.234	75117.91
939.6	64089.12
939.967	70504.58
940.333	47173.06
940.699	40186.86
941.065	32280.77
941.431	42267.56
941.798	40711.35
942.163	53463.86
942.529	33422.72
942.895	30744.08
943.261	19899.82
943.627	26090.32
943.992	22828.15
944.358	22853.8
944.723	22930.62
945.089	22352.87
945.454	20666.8
945.82	22039.57
946.185	21164.76
946.55	24546.61
946.915	22038.71
947.28	25795.53
947.645	22739.36
948.01	20995.27
948.375	21909.41
948.74	26252.93
949.104	30620.21
949.469	44265.85
949.834	78359.77
950.198	74353
950.562	44479.59
950.927	37029.56
951.291	44678.78
951.655	38078.32
952.02	35762.83
952.384	27023.74
952.748	23540.33
953.112	22959.63
953.476	19946
953.839	18416.02
954.203	18206.89
954.567	22799.24
954.931	35895.74
955.294	30711.58
955.658	30881.88
956.021	52528.2
956.385	89157.76
956.748	131517.58
957.111	204081.01
957.474	229321.13
957.837	258469.82
958.2	195745.86
958.563	70393.7
958.926	47679.72
959.289	72343.07
959.652	80753.56
960.015	60654.59
960.377	86978.41
960.74	99328.39
961.102	171455.58
961.465	183994.97
961.827	98432.98
962.189	188919.94
962.552	130955.61
962.914	104873.65
963.276	68027.47
963.638	56276.14
964	55687.34
964.362	37661.1
964.724	36405.97
965.085	25948.61
965.447	21302.3
965.809	24308.97
966.17	24339.07
966.532	26354.77
966.893	24181.23
967.255	22010.38
967.616	25974.27
967.977	20791.51
968.338	22709.73
968.699	18637.53
969.061	18649.19
969.421	18754.73
969.782	21071.58
970.143	17804.1
970.504	18432.5
970.865	20947.79
971.225	21404.7
971.586	20932.29
971.946	29847.79
972.307	25915.57
972.667	33943.03
973.027	34917.54
973.388	42349.78
973.748	28776.75
974.108	31355.41
974.468	42412.23
974.828	32685.2
975.188	25167.33
975.548	23137.09
975.907	19418.56
976.267	21785.77
976.627	18267.39
976.986	18948.86
977.346	18055.95
977.705	17357.21
978.064	15799.91
978.424	13149.68
978.783	13607.4
979.142	15516.06
979.501	14838.4
979.86	15699.63
980.219	15114.94
980.578	19537.85
980.937	21898.95
981.296	19530.25
981.654	20107.68
982.013	31317.61
982.371	40620.43
982.73	37949.32
983.088	43031.3
983.447	45967.32
983.805	65691.97
984.163	137511.45
984.521	152356.51
984.879	223570.35
985.237	-363935.37
985.595	350681.15
985.953	87090.01
986.311	50382.48
986.669	29236.94
987.026	25222.86
987.384	33932.9
987.741	35077.32
988.099	25027.71
988.456	19967.59
988.814	18653.43
989.171	16182.36
989.528	15986.73
989.885	16885.6
990.242	13362.83
990.599	16672.69
990.956	13640.48
991.313	9529.71
991.67	7814.37
992.027	8272.32
992.383	7351.05
992.74	6445.98
993.096	6760.34
993.453	6999.41
993.809	7251.54
994.165	9657.18
994.522	8826.73
994.878	9732.68
995.234	12211.79
995.59	12063.83
995.946	11434.33
996.302	13042.44
996.658	15103.44
997.013	16656.72
997.369	19744.11
997.725	25298.07
998.08	16393.69
998.436	25348.46
998.791	34970.71
999.147	34929.38
999.502	38107.21
999.857	27702.91
1000.212	45102.35
1000.567	64181.84
1000.922	36987.93
1001.277	23512.96
1001.632	17421.03
1001.987	22388.46
1002.342	16034.21
1002.696	12823.01
1003.051	10221.82
1003.406	12374.53
1003.76	12305.93
1004.114	12135.16
1004.469	10195.14
1004.823	8468.88
1005.177	9132.35
1005.531	7232.19
1005.885	6418.67
1006.239	7247.51
1006.593	9088.02
1006.947	12186.3
1007.301	9136.26
1007.655	9976.37
1008.008	7317.67
1008.362	8232.31
1008.715	11734.8
1009.069	10659.13
1009.422	16060.02
1009.776	32239.28
1010.129	21429.78
1010.482	17927.27
1010.835	15131.49
1011.188	31580.55
1011.541	29744.54
1011.894	-181902.03
1012.247	534862.61
1012.6	36378.13
1012.952	23049.62
1013.305	11880.73
1013.657	8566.93
1014.01	8113.22
1014.362	6674.93
1014.715	5922.07
1015.067	5141.24
1015.419	5005.84
1015.771	4443.71
1016.123	3954.58
1016.475	4072.14
1016.827	4333.81
1017.179	4669.31
1017.531	4716.29
1017.883	4800.77
1018.234	4625.83
1018.586	5850.37
1018.938	6170.7
1019.289	8534.52
1019.64	9776.38
1019.992	9116.59
1020.343	8333.8
1020.694	6550.63
1021.045	5784.12
1021.396	6599.24
1021.747	7086.15
1022.098	8526.17
1022.449	6196.08
1022.8	5764.18
1023.151	4023.12
1023.501	3565.13
1023.852	3885.46
1024.202	4025.97
1024.553	4448.41
1024.903	4342.39
1025.253	3715.3
1025.604	3343.29
1025.954	4157.78
1026.304	5049.05
1026.654	5906.62
1027.004	8635.1
1027.354	13944.81
1027.703	13059.88
1028.053	17157.88
1028.403	25010.96
1028.753	36092.18
1029.102	49305.68
1029.452	255114.9
1029.801	11047.06
1030.15	7164.03
1030.499	6084.21
897.758	2269.76
901.051	2203.52
904.343	2238.6
907.636	2246.49
910.928	2307.79
914.22	2225.56
917.511	2228.92
920.803	2280.85
924.094	2282.31
927.384	2281.16
930.675	2244.8
933.965	2205.66
937.255	2235.68
940.544	2200.84
943.834	2197.37
947.123	2135.91
950.411	2226.36
953.7	2206.86
956.988	2187.23
960.276	2125.14
963.563	2178.99
966.851	2188.04
970.138	2234.27
973.424	2231.84
976.711	2187.07
979.997	2241.05
983.283	2285.7
986.568	2212.5
989.853	2207.17
993.138	2234.33
996.423	2317.95
999.708	2270.07
1002.992	2303.5
1006.275	2207.5
1009.559	2218.54
1012.842	2317.35
1016.125	2264.39
1019.408	2245.72
1022.69	2306.49
1025.972	2338.51
1029.254	2312.48
1032.536	2269.36
1035.817	2284.44
1039.098	2253.55
1042.379	2314.19
1045.659	2339.73
1048.939	2286.54
1052.219	2297.24
1055.498	2293.01
1058.778	2289.28
1062.057	2264.49
1065.335	2287.7
1068.614	2302.52
1071.892	2295.58
1075.17	2351.18
1078.447	2353.97
1081.724	2347.59
1085.001	2375.86
1088.278	2351.87
1091.554	2358.67
1094.83	2352.59
1098.106	2389.77
1101.382	2422.77
1104.657	2423.15
1107.932	2421.69
1111.206	2398.9
1114.481	2352.63
1117.755	2353.31
1121.029	2342.62
1124.302	2405.1
1127.575	2369.33
1130.848	2364.28
1134.121	2330.81
1137.393	2291.34
1140.665	2350.47
1143.937	2327.27
1147.208	2276.84
1150.48	2332.04
1153.75	2322.04
1157.021	2330.96
1160.291	2304.22
1163.561	2355.11
1166.831	2329.28
1170.101	2357
1173.37	2318.99
1176.639	2272.38
1179.907	2321.76
1183.176	2343.55
1186.444	2344.05
1189.711	2368.96
1192.979	2390.17
1196.246	2344.12
1199.513	2359.42
1202.78	2362.46
1206.046	2372.16
1209.312	2398.79
1212.578	2419.04
1215.843	2382.33
1219.108	2349.26
1222.373	2375.31
1225.638	2346.3
1228.902	2336.93
1232.166	2297.53
1235.43	2283.68
1238.693	2306.41
1241.956	2298.62
1245.219	2345.93
1248.482	2328.74
1251.744	2326.98
1255.006	2453.35
1258.268	2403.22
1261.529	2355.31
1264.79	2355.6
1268.051	2456.88
1271.312	2467.29
1274.572	2437.04
1277.832	2424.78
1281.092	2406.65
1284.351	2394.89
1287.61	2378.59
1290.869	2311.61
1294.128	2303.41
1297.386	2357.48
1300.644	2350.98
1303.902	2360.51
1307.159	2227.26
1310.416	2279.75
1313.673	2309.13
1316.93	2307.14
1320.186	2340.46
1323.442	2374.18
1326.697	2372.57
1329.953	2347.32
1333.208	2382.45
1336.463	2356.44
1339.717	2312.69
1342.972	2424.47
1346.226	2398.19
1349.479	2342.98
1352.733	2319.37
1355.986	2327.19
1359.238	2307.81
1362.491	2315.77
1365.743	2318.66
1368.995	2309.3
1372.247	2322.6
1375.498	2344.02
1378.749	2380.88
1382	2333.5
1385.251	2374.41
1388.501	2329.3
1391.751	2326.53
1395	2294.38
1398.25	2318.87
1401.499	2337.98
1404.748	2285.59
1407.996	2264.39
1411.244	2252.72
1414.492	2236.84
1417.74	2219.82
1420.987	2222.57
1424.234	2281.23
1427.481	2250.26
1430.728	2306.73
1433.974	2282.59
1437.22	2283.46
1440.465	2281.44
1443.711	2275.51
1446.956	2301.83
1450.201	2274.58
1453.445	2317.01
1456.689	2304.81
1459.933	2317.64
1463.177	2352.33
1466.42	2326.15
1469.663	2308.35
1472.906	2319.9
1476.148	2371.06
1479.391	2351.18
1482.633	2322.81
1485.874	2347.27
1489.115	2350.27
1492.356	2337.72
1495.597	2315.75
1498.838	2311.69
1502.078	2294.16
1505.318	2262.98
1508.557	2296.91
1511.797	2294.49
1515.036	2332.14
1518.274	2309.27
1521.513	2267.51
1524.751	2280.63
1527.989	2304.4
1531.227	2320.91
1534.464	2331.81
1537.701	2328.44
1540.938	2342.53
1544.174	2293.21
1547.41	2282.61
1550.646	2321.35
1553.882	2370.81
1557.117	2424.41
1560.352	2434.42
1563.587	2396.01
1566.821	2361.59
1570.055	2379.02
1573.289	2360.91
1576.523	2421.95
1579.756	2433.44
1582.989	2455.21
1586.222	2415.57
1589.454	2445.23
1592.686	2429.19
1595.918	2454.17
1599.15	2448.74
1602.381	2500.67
1605.612	2480.31
1608.843	2573.5
1612.073	2493.49
1615.303	2482.4
1618.533	2479.98
1621.762	2480.09
1624.992	2453.45
1628.221	2454.59
1631.449	2441.09
1634.678	2476.78
1637.906	2439.76
1641.134	2469.58
1644.361	2432.28
1647.588	2420.76
1650.815	2441.89
1654.042	2407.47
1657.269	2435.8
1660.495	2412.87
1663.72	2403.66
1666.946	2373.18
1670.171	2339.22
1673.396	2315.02
1676.621	2294.9
1679.845	2298.06
1683.069	2307.79
1686.293	2339.62
1689.517	2326.07
1692.74	2274.67
1695.963	2296.27
1699.185	2332.91
1702.408	2306.39
1705.63	2335.91
1708.852	2351.58
1712.073	2325.12
1715.294	2329.92
1718.515	2375.99
1721.736	2333.28
1724.956	2315.38
1728.176	2337.34
1731.396	2360.51
1734.616	2344.32
1737.835	2380.1
1741.054	2353.42
1744.272	2344.74
1747.491	2382.62
1750.709	2411.15
1753.927	2352.27
1757.144	2380.27
1760.361	2435.1
1763.578	2413.17
1766.795	2362.6
1770.011	2354.84
1773.227	2381.7
1776.443	2422.78
1779.658	2467.92
1782.874	2405.63
1786.089	2397.69
1789.303	2400.72
1792.518	2398.81
1795.732	2386.76
1798.945	2401.4
1802.159	2442.51
1805.372	2379.18
1808.585	2372.35
1811.797	2372.25
1815.01	2395.95
1818.222	2418.43
1821.434	2380.43
1824.645	2423.88
1827.856	2430.6
1831.067	2460.87
1834.278	2401.57
1837.488	2386.88
1840.698	2513.84
1843.908	2451.7
1847.117	2419.63
1850.326	2339.46
1853.535	2406.58
1856.744	2438.37
1859.952	2360.1
1863.16	2361.1
1866.368	2374.04
1869.575	2487.41
1872.782	2369.65
1875.989	2300.5
1879.196	2357.46
1882.402	2346.74
1885.608	2382.56
1888.814	2315.93
1892.019	2221.31
1895.224	2272.56
1898.429	2241.93
1901.634	2225.94
1904.838	2199.1
1908.042	2254.09
1911.246	2268.6
1914.449	2224.18
1917.652	2210.46
1920.855	2189.76
1924.058	2220.53
1927.26	2263.66
1930.462	2285.12
1933.664	2321.33
1936.865	2265.66
1940.066	2278.89
1943.267	2222.97
1946.467	2234.39
1949.668	2254.66
1952.868	2323.93
1956.067	2312.92
1959.267	2250.86
1962.466	2274.94
1965.665	2261.42
1968.863	2252.34
1972.061	2256.14
1975.259	2253.49
1978.457	2330.06
1981.654	2288.24
1984.852	2292.85
1988.048	2241.46
1991.245	2232.32
1994.441	2321.02
1997.637	2283.18
2000.833	2263.47
2004.028	2301.13
2007.223	2360.7
2010.418	2344.53
2013.613	2298.93
2016.807	2290.36
2020.001	2281.8
2023.194	2308.57
2026.388	2292.99
2029.581	2236.83
2032.774	2296.81
2035.966	2307.93
2039.158	2252.64
2042.35	2273.97
2045.542	2201.08
2048.733	2286.75
2051.924	2281.9
2055.115	2304.44
2058.306	2266.62
2061.496	2321.93
2064.686	2372.38
2067.875	2281.48
2071.065	2283.9
2074.254	2304.21
2077.442	2259.29
2080.631	2343.33
2083.819	2265.86
2087.007	2260.53
2090.195	2240.37
2093.382	2257.94
2096.569	2240.37
2099.756	2201.04
2102.942	2245.84
2106.128	2257.78
2109.314	2246.74
2112.5	2226.51
2115.685	2197.25
2118.87	2205.19
2122.055	2265.16
2125.239	2243.18
2128.424	2230.23
2131.608	2296.54
2134.791	2281.12
2137.974	2322.59
2141.157	2312.02
2144.34	2280.13
2147.523	2275.45
2150.705	2298.66
2153.887	2270.47
2157.068	2239.28
2160.25	2224.05
2163.431	2247.88
2166.611	2215.92
2169.792	2235.71
2172.972	2143.08
2176.152	2197.62
2179.331	2226.87
2182.511	2226.67
2185.69	2249.41
2188.868	2250.9
2192.047	2289.09
2195.225	2301.86
2198.403	2252.3
2201.58	2237.8
2204.758	2227.18
2207.935	2303.16
2211.111	2215.26
2214.288	2202.02
2217.464	2234.99
2220.64	2195.47
2223.815	2245.2
2226.991	2176.27
2230.166	2192.98
2233.34	2232.39
2236.515	2247.51
2239.689	2311.64
2242.863	2261
2246.036	2316.2
2249.209	2299.89
2252.382	2322.97
2255.555	2326.93
2258.727	2275.06
2261.9	2306.17
2265.071	2296.83
2268.243	2296.02
2271.414	2242.43
2274.585	2223.16
2277.756	2283.41
2280.926	2233.74
2284.096	2268.14
2287.266	2194.86
2290.436	2241.27
2293.605	2263.8
2296.774	2298.21
2299.942	2304.2
2303.111	2319.52
2306.279	2369.73
2309.447	2357.07
2312.614	2327.85
2315.781	2357.42
2318.948	2331.21
2322.115	2367.43
2325.281	2269.31
2328.447	2276.43
2331.613	2248.83
2334.779	2238.52
2337.944	2235.93
2341.109	2235.82
2344.274	2222.9
2347.438	2191.36
2350.602	2211.81
2353.766	2223.99
2356.929	2213.03
2360.092	2251.58
2363.255	2220.89
2366.418	2180.85
2369.58	2255.36
2372.742	2116.02
2375.904	2115.23
2379.066	2098.22
2382.227	2125.9
2385.388	2087.55
2388.548	2033.13
2391.709	2077.07
2394.869	2062.24
2398.029	2123.42
2401.188	2122.72
2404.347	2081.5
2407.506	2170.93
2410.665	2206.03
2413.823	2195.4
2416.981	2170.94
2420.139	2191.23
2423.296	2233.98
2426.453	2205.99
2429.61	2227.75
2432.767	2192.43
2435.923	2233.6
2439.079	2182.63
2442.235	2219.3
2445.391	2159.74
2448.546	2199.87
2451.701	2236.67
2454.855	2228.55
2458.009	2261.48
2461.163	2251.24
2464.317	2221.64
2467.471	2249.28
2470.624	2278.39
2473.777	2265.88
2476.929	2281.78
2480.082	2304.07
2483.234	2275.77
2486.385	2217.69
2489.537	2212.4
2492.688	2196.14
2495.839	2212.41
2498.989	2228.83
2502.14	2215.15
2505.29	2204.61
2508.439	2227.95
2511.589	2164.66
2514.738	2168.22
2517.887	2193.2
2521.035	2266.87
2524.183	2230.9
2527.331	2217.92
2530.479	2210.89
2533.627	2212.6
