Data from C_2_DEC_CT_2N_Splice17_12-29-12-906.txt Node
Date: Sat Mar 14 12:29:12 EDT 2020
User: sa697716
Spectrometer: FLMS03696
Trigger mode: 0
Integration Time (sec): 3.180400E-1
Scans to average: 20
Electric dark correction enabled: true
Nonlinearity correction enabled: true
Boxcar width: 5
XAxis mode: Wavelengths
Number of Pixels in Spectrum: 2048
>>>>>Begin Spectral Data<<<<<
187.83	-294072.93
188.298	2072.59
188.766	1133.83
189.233	1047.3
189.701	1484.76
190.169	1985.97
190.636	756.78
191.104	665.65
191.571	136.76
192.039	-42.91
192.506	-42.29
192.974	454.53
193.441	-836.8
193.908	-260.82
194.375	-47.58
194.842	41.37
195.31	121.47
195.777	180.67
196.244	406.78
196.711	460.44
197.177	542.16
197.644	733.74
198.111	1261.74
198.578	1749.01
199.045	1405.56
199.511	2289.95
199.978	2629.25
200.445	2226.59
200.911	2468.62
201.378	2725.22
201.844	2475.03
202.31	4201.15
202.777	4404.39
203.243	2475.74
203.709	2358.67
204.176	2809.73
204.642	2296.21
205.108	2173.19
205.574	1772.13
206.04	1609.26
206.506	1507.63
206.972	1408.16
207.438	1382.47
207.903	1559.64
208.369	1363.65
208.835	1364.68
209.301	1427.85
209.766	1492.32
210.232	1478.65
210.697	1815.48
211.163	2234.17
211.628	3392.31
212.094	2907.12
212.559	3598.32
213.024	2241.63
213.49	2737.08
213.955	2685
214.42	2630.17
214.885	2450.16
215.35	2343.95
215.815	2301.49
216.28	2481.41
216.745	2045.9
217.21	2216.44
217.675	2048.5
218.14	2346.07
218.604	2670.72
219.069	3099.66
219.534	3322.67
219.998	3925.47
220.463	4840.37
220.927	6053.28
221.392	5754.65
221.856	5896.35
222.32	7525.51
222.785	9399.87
223.249	11954.6
223.713	13441.43
224.177	13529.76
224.642	17464.51
225.106	21607.48
225.57	23755.06
226.034	17723.89
226.497	27110.55
226.961	24593.86
227.425	28735.6
227.889	32004.54
228.353	32073.93
228.816	66507.47
229.28	63851.09
229.744	53909.73
230.207	32825.78
230.671	32381.29
231.134	53646.01
231.597	61985.36
232.061	62062.15
232.524	60645.97
232.987	41815.16
233.45	37713.66
233.914	33864.52
234.377	34790.19
234.84	31936.15
235.303	37719.64
235.766	42140.09
236.229	43633.71
236.691	27531.94
237.154	30990.67
237.617	23342.44
238.08	23968.75
238.542	28107.87
239.005	20090.09
239.468	19934.79
239.93	18807.22
240.393	17098.98
240.855	15019.14
241.317	15399.25
241.78	18725.62
242.242	19363.78
242.704	20908.46
243.166	18184.68
243.629	16508.44
244.091	19049.21
244.553	20897.07
245.015	22475.51
245.477	29107.81
245.939	42735.83
246.4	45390.15
246.862	44211.49
247.324	41706.66
247.786	46779.37
248.247	61435.88
248.709	63465.43
249.17	47516.69
249.632	44845.2
250.093	51995.68
250.555	44973.51
251.016	27421.65
251.477	26036.6
251.939	28130.17
252.4	29560.26
252.861	35163.65
253.322	32729.18
253.783	38993.71
254.244	50595.36
254.705	39864.72
255.166	35466.03
255.627	34939.34
256.088	49292.06
256.549	52410.66
257.009	45133.11
257.47	54843.29
257.931	44731.75
258.391	33549.56
258.852	34664.42
259.312	36394.7
259.773	45110.16
260.233	38212.51
260.694	32272.69
261.154	36698.82
261.614	29494.61
262.074	26428.04
262.534	27500.44
262.994	25942.39
263.455	34605.55
263.915	29195.06
264.374	27550.49
264.834	30115.54
265.294	33427.55
265.754	34661.13
266.214	32871.65
266.673	30854.48
267.133	39035.22
267.593	38784.35
268.052	47573.36
268.512	41482.84
268.971	50109.95
269.431	55071.5
269.89	49422.77
270.349	74263.92
270.809	83013.07
271.268	74773.58
271.727	168080.26
272.186	109000.79
272.645	81897.52
273.104	59128.38
273.563	85687.42
274.022	67553.02
274.481	57524.28
274.94	44383.72
275.399	33036.39
275.857	38503.63
276.316	52113.85
276.775	46397.19
277.233	45726.47
277.692	42828.41
278.15	48497.23
278.609	49929.13
279.067	46175.06
279.525	42916.47
279.984	55417.09
280.442	66589.94
280.9	65665.49
281.358	43245.44
281.816	40361.23
282.274	39570.85
282.732	40933.98
283.19	41201.43
283.648	35627.35
284.106	38039.59
284.564	38743.36
285.021	35959.4
285.479	26847.18
285.937	24455.11
286.394	21482.54
286.852	22121.43
287.309	23269.1
287.767	22482.09
288.224	21394.49
288.682	23487.67
289.139	25786.65
289.596	23619.73
290.053	24599.32
290.511	31067.89
290.968	37729.74
291.425	51256.22
291.882	42746.1
292.339	37241.51
292.796	37019.91
293.252	34921.22
293.709	27775.95
294.166	24908.28
294.623	27540.44
295.079	26429.99
295.536	26556.12
295.992	24150.56
296.449	23914.21
296.905	24832.24
297.362	23833.71
297.818	25098.85
298.274	26042.87
298.731	26579.41
299.187	26331.58
299.643	28298.46
300.099	34278.21
300.555	37654.08
301.011	31503.6
301.467	30345.22
301.923	35607.18
302.379	34812.61
302.835	34197.51
303.291	34292.46
303.746	39040.7
304.202	49332.77
304.658	49595.97
305.113	33354.21
305.569	32666.56
306.024	34811.79
306.479	33184.93
306.935	27945.48
307.39	30501.87
307.845	28169.77
308.301	28346.43
308.756	27615.17
309.211	26627.73
309.666	27283.39
310.121	33871.49
310.576	34437.08
311.031	34187.67
311.486	39187.56
311.94	39227.06
312.395	52553.9
312.85	98966.15
313.305	486647.39
313.759	2517960.2
314.214	182432
314.668	144624.84
315.123	121608.1
315.577	43613.81
316.032	38828.67
316.486	48689.07
316.94	38381.24
317.394	26704.87
317.849	20749.88
318.303	19666.98
318.757	18575.37
319.211	20587.56
319.665	18038.82
320.119	18280.05
320.572	26219.4
321.026	24490.44
321.48	20399.6
321.934	22307.01
322.387	22394.61
322.841	24202.41
323.295	21761.79
323.748	25114.9
324.202	25473.68
324.655	30603.57
325.108	42761.97
325.562	30253.15
326.015	35990.84
326.468	27230.09
326.921	30453.97
327.374	28383.98
327.827	29553.75
328.28	33484.35
328.733	22441.96
329.186	19759.95
329.639	18865.34
330.092	15919.73
330.545	15169.11
330.997	15305.37
331.45	16733
331.903	19608.83
332.355	33798.16
332.808	32920.59
333.26	27181.6
333.713	29515.56
334.165	29736.65
334.617	39711.41
335.069	32119.26
335.522	58083.79
335.974	64376.05
336.426	58806.26
336.878	40783.36
337.33	20674
337.782	20176.83
338.234	25220.91
338.686	30208.6
339.137	35778.64
339.589	33668.31
340.041	26416.21
340.493	22701.77
340.944	23223.36
341.396	25036.65
341.847	21047.79
342.299	24835.16
342.75	30324.71
343.201	26550.37
343.653	30541.04
344.104	37578.08
344.555	29601.61
345.006	46198.77
345.457	35407.28
345.908	28240.94
346.359	26569.48
346.81	21662.08
347.261	22863.11
347.712	22557.33
348.163	24216.29
348.613	24515.77
349.064	22922.26
349.515	20092.58
349.965	20571.77
350.416	24803.06
350.866	27211.79
351.317	30812.24
351.767	51026.67
352.217	64522.2
352.668	53572.3
353.118	49084.3
353.568	47402.74
354.018	37473.54
354.468	39553.05
354.918	28382.64
355.368	24855.29
355.818	35052.13
356.268	101008.39
356.718	423091.78
357.168	105242.45
357.617	52756.22
358.067	58710.39
358.517	54983.15
358.966	64492.51
359.416	72265.66
359.865	78160.89
360.315	93088.3
360.764	43565.7
361.213	24370.22
361.663	23099.78
362.112	28553.79
362.561	46175.3
363.01	34871.17
363.459	29403.33
363.908	31841.8
364.357	27035.5
364.806	45714.53
365.255	31429.28
365.703	28749.5
366.152	28785.79
366.601	23317.38
367.05	18892.39
367.498	17157.03
367.947	17932.64
368.395	18639.43
368.844	16504.78
369.292	19914.29
369.74	13733.64
370.189	21025.54
370.637	24640.35
371.085	21279.7
371.533	25918.08
371.981	25018.57
372.429	23854.04
372.877	24842.99
373.325	20773.07
373.773	21167.12
374.221	18840.51
374.669	23355.27
375.116	20183.96
375.564	20349.37
376.012	22729.3
376.459	18722.58
376.907	22332.92
377.354	26990.27
377.801	25092.31
378.249	28805.99
378.696	36791.33
379.143	44540.83
379.591	47513.49
380.038	80377.58
380.485	57989.5
380.932	62576.28
381.379	57197.66
381.826	42124.47
382.273	29910.94
382.72	26166.38
383.166	25488.87
383.613	16503.21
384.06	14847.9
384.506	17171.91
384.953	12609.62
385.4	12700.57
385.846	11138.43
386.292	10856.9
386.739	10595.09
387.185	10486.58
387.631	10480.55
388.078	10152.46
388.524	10849.63
388.97	10023.93
389.416	8352.25
389.862	8865.68
390.308	8401.02
390.754	8507.75
391.2	9230.82
391.645	9450.52
392.091	9007.12
392.537	8703.36
392.983	8721.75
393.428	8569.56
393.874	9176.27
394.319	9188.16
394.765	8708.07
395.21	8946.51
395.655	8401.97
396.101	7867.98
396.546	7103.2
396.991	7175.53
397.436	6663.15
397.881	6449.91
398.326	6116.43
398.771	5789.45
399.216	5072.44
399.661	4571.54
400.106	4559.75
400.551	4662.37
400.995	4187.65
401.44	4146.53
401.885	3904.99
402.329	3948.32
402.774	3786.28
403.218	3666.26
403.663	3541.49
404.107	3644.19
404.551	3677.54
404.995	3376.66
405.44	3256.96
405.884	3313.81
406.328	3214.21
406.772	3204.65
407.216	2924.56
407.66	2829.07
408.104	2695.22
408.547	2525.23
408.991	2447.8
409.435	2360.93
409.879	2328.79
410.322	2302.58
410.766	2225.99
411.209	2120.52
411.653	2042.77
412.096	2003.98
412.54	2008.11
412.983	1993.66
413.426	1997.67
413.869	1999.13
414.312	1956.16
414.756	1888.15
415.199	1802.1
415.642	1747.02
416.085	1748.18
416.527	1734.85
416.97	1761.32
417.413	1672.79
417.856	1658.34
418.298	1645.45
418.741	1635.45
419.184	1638.83
419.626	1707.37
420.069	1713.46
420.511	1724.42
420.953	1689.42
421.396	1674.17
421.838	1634.76
422.28	1671.69
422.722	1678.91
423.164	1703.88
423.606	1674.82
424.048	1670.2
424.49	1584.88
424.932	1572.92
425.374	1550.9
425.816	1578.28
426.258	1605.3
426.699	1621.01
427.141	1595.68
427.582	1622.1
428.024	1612.53
428.465	1603.55
428.907	1561.25
429.348	1542.87
429.789	1541.48
430.231	1507.9
430.672	1525.51
431.113	1488.98
431.554	1466.93
431.995	1430.74
432.436	1374.16
432.877	1339.25
433.318	1311.33
433.759	1306.56
434.2	1304.27
434.64	1288.61
435.081	1291.13
435.522	1221.24
435.962	1175.71
436.403	1147.35
436.843	1159.78
437.284	1135.5
437.724	1105.05
438.164	1108.8
438.604	1082.01
439.045	1039.98
439.485	996.22
439.925	972.96
440.365	949.03
440.805	936.26
441.245	922.39
441.685	887.13
442.125	878.5
442.564	881.21
443.004	859.01
443.444	855.9
443.883	855.29
444.323	848.93
444.762	849.16
445.202	858.55
445.641	871.17
446.081	864.8
446.52	870.81
446.959	861.44
447.398	838.92
447.837	826.69
448.276	810.21
448.716	817.69
449.154	821.29
449.593	802.18
450.032	796.55
450.471	781.15
450.91	780.76
451.349	778.4
451.787	773.79
452.226	785.31
452.664	785.92
453.103	787.69
453.541	786.1
453.98	785.73
454.418	790.91
454.856	778.41
455.295	775.94
455.733	782.48
456.171	786.51
456.609	788.82
457.047	789.07
457.485	799.51
457.923	800.33
458.361	789.87
458.798	791.47
459.236	788.3
459.674	795.25
460.111	798.79
460.549	791.66
460.987	789.69
461.424	787.59
461.862	784.17
462.299	772.53
462.736	771.07
463.173	772.16
463.611	763.76
464.048	762.95
464.485	767.97
464.922	761.15
465.359	754.38
465.796	742.23
466.233	735.8
466.67	727.61
467.106	725.87
467.543	718.84
467.98	709.39
468.416	690.83
468.853	683.56
469.29	662.81
469.726	655.51
470.162	639.62
470.599	631.94
471.035	626.27
471.471	611.5
471.907	607.69
472.344	603.71
472.78	605.5
473.216	613.52
473.652	606.9
474.088	604.74
474.523	603.9
474.959	610
475.395	604.71
475.831	600.96
476.266	603.73
476.702	603.05
477.138	596.14
477.573	594.45
478.008	591.53
478.444	593.76
478.879	599.3
479.314	600.98
479.75	599.94
480.185	602.92
480.62	607.56
481.055	610.66
481.49	613.91
481.925	622.46
482.36	633.13
482.795	651.07
483.229	669.55
483.664	683.49
484.099	685.9
484.534	697.11
484.968	703.22
485.403	705.05
485.837	704.8
486.271	704.88
486.706	706.28
487.14	698.21
487.574	686.43
488.009	679.09
488.443	673.42
488.877	680.22
489.311	681.94
489.745	690.31
490.179	697.2
490.613	710.27
491.046	714.89
491.48	720.38
491.914	721.45
492.348	727.17
492.781	732.26
493.215	733.67
493.648	734.8
494.082	740.03
494.515	739.46
494.948	746.81
495.382	750.87
495.815	755.39
496.248	760.46
496.681	774.09
497.114	785.2
497.547	794.66
497.98	808.17
498.413	813.88
498.846	824.01
499.279	832.21
499.711	835.81
500.144	837.55
500.577	847.43
501.009	857.43
501.442	865.63
501.874	866.03
502.306	867.22
502.739	873.72
503.171	888.13
503.603	889.38
504.036	898.71
504.468	904.28
504.9	914.46
505.332	919.87
505.764	923.32
506.196	928.29
506.627	942.35
507.059	954.1
507.491	960.82
507.923	958.2
508.354	972.38
508.786	980.52
509.217	996.05
509.649	1008.63
510.08	1025.17
510.512	1039.2
510.943	1052.42
511.374	1061.33
511.805	1079.47
512.237	1096.86
512.668	1125.28
513.099	1149.13
513.53	1173.97
513.961	1190.79
514.391	1219.6
514.822	1251.02
515.253	1283.22
515.684	1304.38
516.114	1329.12
516.545	1346.17
516.975	1367.79
517.406	1381.5
517.836	1380.17
518.267	1382.42
518.697	1397.16
519.127	1397.49
519.558	1399.43
519.988	1399.62
520.418	1407.33
520.848	1420.29
521.278	1424.92
521.708	1442.63
522.138	1452.32
522.567	1479.69
522.997	1501.35
523.427	1513.33
523.857	1527.39
524.286	1534.64
524.716	1546.17
525.145	1561.16
525.575	1570.11
526.004	1582.04
526.433	1569.31
526.863	1566.08
527.292	1554.81
527.721	1558.52
528.15	1561.55
528.579	1559.84
529.008	1568.48
529.437	1588.04
529.866	1598.99
530.295	1613.46
530.724	1623.36
531.152	1646.8
531.581	1659.79
532.01	1674
532.438	1679.56
532.867	1692.04
533.295	1709.21
533.723	1713.64
534.152	1710.18
534.58	1710.13
535.008	1694.02
535.436	1694.24
535.865	1700.73
536.293	1712.8
536.721	1727.7
537.149	1751.72
537.576	1753.71
538.004	1764.02
538.432	1771.07
538.86	1770.05
539.287	1775.31
539.715	1788.65
540.143	1792.44
540.57	1788.47
540.998	1785.26
541.425	1763.77
541.852	1743.74
542.28	1742.78
542.707	1726.64
543.134	1713.73
543.561	1709.09
543.988	1702.65
544.415	1701.51
544.842	1695.08
545.269	1688.91
545.696	1690.68
546.123	1701.93
546.549	1692.25
546.976	1678.95
547.403	1678.58
547.829	1679.45
548.256	1680.19
548.682	1676.35
549.108	1668.33
549.535	1668.27
549.961	1669.58
550.387	1656.99
550.813	1651.56
551.24	1656.83
551.666	1658.28
552.092	1649.56
552.518	1643.6
552.943	1638.61
553.369	1645.79
553.795	1651.03
554.221	1651.88
554.646	1649.07
555.072	1658.64
555.498	1663.26
555.923	1671.52
556.349	1685.82
556.774	1693.98
557.199	1696.47
557.625	1702.94
558.05	1697.18
558.475	1708.26
558.9	1708.12
559.325	1702.31
559.75	1698.17
560.175	1692.83
560.6	1688.27
561.025	1687.89
561.449	1689.91
561.874	1695.23
562.299	1700.72
562.723	1708.6
563.148	1700.58
563.572	1705.59
563.997	1714.79
564.421	1721.1
564.846	1724.05
565.27	1730.19
565.694	1727.6
566.118	1741.26
566.542	1750.78
566.966	1746.81
567.39	1744.17
567.814	1735.88
568.238	1736.22
568.662	1742.86
569.086	1746.98
569.509	1754.84
569.933	1740.42
570.357	1736.75
570.78	1718.13
571.204	1707.8
571.627	1699.6
572.05	1700.46
572.474	1702.49
572.897	1693.7
573.32	1688.12
573.743	1680.37
574.166	1664.64
574.589	1667.14
575.012	1660.88
575.435	1661.01
575.858	1653.19
576.281	1643.47
576.704	1628.8
577.126	1617.32
577.549	1607.11
577.972	1599.1
578.394	1590.4
578.817	1585.7
579.239	1567.35
579.661	1555.39
580.084	1541.92
580.506	1530.23
580.928	1527.65
581.35	1517.81
581.772	1514.3
582.194	1503.17
582.616	1492.01
583.038	1479.01
583.46	1469.17
583.882	1468.33
584.303	1473.74
584.725	1470.2
585.147	1472.6
585.568	1483.9
585.99	1497.05
586.411	1504.72
586.833	1518.8
587.254	1520.53
587.675	1535.3
588.096	1547.86
588.518	1543.77
588.939	1528.04
589.36	1526.98
589.781	1516.5
590.202	1488.73
590.623	1480.58
591.043	1477.87
591.464	1466.8
591.885	1464.24
592.305	1458.17
592.726	1445.13
593.147	1446.18
593.567	1440.71
593.987	1432.61
594.408	1427.9
594.828	1427.22
595.248	1422.07
595.669	1404.95
596.089	1398.11
596.509	1391.42
596.929	1379.45
597.349	1380.21
597.769	1370.52
598.189	1365.73
598.608	1368.09
599.028	1370.72
599.448	1369.62
599.867	1357.55
600.287	1353.61
600.706	1350.01
601.126	1341.78
601.545	1341.01
601.965	1340.36
602.384	1335.81
602.803	1338.4
603.222	1333.61
603.641	1328.39
604.061	1326.45
604.48	1323.27
604.898	1332.7
605.317	1339
605.736	1341.79
606.155	1338.99
606.574	1331.05
606.992	1337.01
607.411	1333.23
607.829	1326.01
608.248	1324.15
608.666	1321.88
609.085	1322.67
609.503	1314.78
609.921	1308.96
610.339	1310.8
610.758	1311.87
611.176	1308.2
611.594	1300.24
612.012	1298.3
612.43	1303.27
612.847	1309.74
613.265	1312.34
613.683	1317.61
614.101	1319.82
614.518	1317.26
614.936	1309.22
615.353	1295.73
615.771	1293.23
616.188	1294.76
616.606	1291.72
617.023	1285.14
617.44	1272.11
617.857	1266.43
618.274	1258.72
618.691	1253.47
619.108	1245.62
619.525	1239.31
619.942	1246.24
620.359	1249.41
620.776	1245.75
621.192	1242.97
621.609	1241.05
622.026	1248.31
622.442	1254.61
622.859	1257.18
623.275	1250.17
623.691	1255.32
624.108	1267.95
624.524	1282.7
624.94	1282.52
625.356	1291.83
625.772	1304.35
626.188	1316.46
626.604	1317.9
627.02	1313.05
627.436	1311.52
627.852	1319.67
628.268	1332.02
628.683	1322.73
629.099	1315.15
629.514	1311.25
629.93	1315.06
630.345	1319.51
630.761	1317.07
631.176	1321.72
631.591	1316.84
632.007	1311.94
632.422	1310.09
632.837	1299.4
633.252	1298.29
633.667	1288.36
634.082	1279.81
634.497	1267.66
634.911	1249.13
635.326	1245.18
635.741	1228.81
636.155	1220.15
636.57	1222.78
636.984	1223.31
637.399	1225.62
637.813	1226.04
638.228	1225.64
638.642	1231.22
639.056	1222.14
639.47	1223.9
639.884	1216.86
640.298	1211.48
640.712	1210.85
641.126	1199.5
641.54	1191.82
641.954	1187.37
642.368	1176.48
642.781	1170.07
643.195	1153.86
643.609	1155.32
644.022	1150.81
644.436	1148.53
644.849	1137.4
645.262	1126.98
645.676	1128.55
646.089	1125.37
646.502	1111.4
646.915	1105.99
647.328	1089.11
647.741	1087.42
648.154	1074.49
648.567	1071.02
648.98	1057.06
649.393	1057.2
649.805	1054.12
650.218	1047.65
650.631	1030.94
651.043	1025.03
651.456	1019.82
651.868	1019.91
652.28	1037.68
652.693	1052.45
653.105	1060.05
653.517	1071.74
653.929	1073.13
654.341	1079.11
654.753	1066.85
655.165	1073.72
655.577	1072.08
655.989	1068.08
656.401	1062.43
656.813	1026.37
657.224	1006.68
657.636	978.48
658.047	960.89
658.459	942.14
658.87	933.13
659.282	921.66
659.693	900.91
660.104	886.49
660.515	873.15
660.926	871.74
661.338	869.49
661.749	862.55
662.159	853.23
662.57	848.73
662.981	843.9
663.392	837.8
663.803	842.99
664.213	841.79
664.624	837.56
665.035	841.46
665.445	826.79
665.855	818.97
666.266	811.58
666.676	809
667.086	800.56
667.497	800.53
667.907	792.52
668.317	781.41
668.727	776.83
669.137	777.06
669.547	773.14
669.956	774.97
670.366	776.62
670.776	778.6
671.186	781.68
671.595	783.14
672.005	785.61
672.414	784.89
672.824	783.63
673.233	787.63
673.642	788.44
674.052	790.82
674.461	793.35
674.87	797.27
675.279	793.7
675.688	795.38
676.097	796.96
676.506	792.02
676.915	806.26
677.323	807.54
677.732	805.19
678.141	805.09
678.549	794.66
678.958	792.78
679.366	791.7
679.775	796.47
680.183	806.51
680.592	810.97
681	816.31
681.408	808.8
681.816	815.89
682.224	824.5
682.632	833.72
683.04	863.34
683.448	888.43
683.856	918.85
684.264	953.48
684.671	984.68
685.079	1022.73
685.487	1066.18
685.894	1128.21
686.302	1178.14
686.709	1217.2
687.116	1264.13
687.524	1299.37
687.931	1327.32
688.338	1351.25
688.745	1369.82
689.152	1392.35
689.559	1427.83
689.966	1461.44
690.373	1471.15
690.78	1500.17
691.187	1550.09
691.593	1583.18
692	1612.92
692.407	1662.59
692.813	1725.22
693.22	1771.48
693.626	1819.88
694.032	1855.69
694.439	1915.7
694.845	1960.96
695.251	2021.1
695.657	2074
696.063	2158.92
696.469	2218.58
696.875	2271.62
697.281	2296.42
697.687	2330.93
698.093	2358.88
698.498	2420.04
698.904	2463.17
699.31	2535.95
699.715	2585.65
700.12	2660.36
700.526	2670.51
700.931	2727.95
701.337	2768.73
701.742	2793.17
702.147	2863.69
702.552	2886.37
702.957	2933.3
703.362	2949.2
703.767	2969.56
704.172	3000.14
704.577	2953.96
704.981	2991.18
705.386	2997.19
705.791	2986.32
706.195	3048.56
706.6	3053.24
707.004	3119.82
707.408	3088.9
707.813	3108.46
708.217	3094.85
708.621	3092.52
709.025	3174.4
709.43	3171.7
709.834	3223.1
710.237	3280.82
710.641	3263.94
711.045	3279.31
711.449	3271.9
711.853	3295.78
712.256	3328.52
712.66	3356.32
713.064	3420
713.467	3453.6
713.87	3547.95
714.274	3585.64
714.677	3677.31
715.08	3815.39
715.484	3958.49
715.887	4130.16
716.29	4298.81
716.693	4475.28
717.096	4680.38
717.499	4788.95
717.901	4809.61
718.304	4827.48
718.707	4843.97
719.109	4753.41
719.512	4721.6
719.915	4603.05
720.317	4550.61
720.719	4589.21
721.122	4565.35
721.524	4519.8
721.926	4483.87
722.328	4568.11
722.731	4558.36
723.133	4582.83
723.535	4744.94
723.937	4763.17
724.338	4804.57
724.74	4839.76
725.142	4791.25
725.544	4785.26
725.945	4809.31
726.347	4804.15
726.748	4794.34
727.15	4806.34
727.551	4771.8
727.952	4748
728.354	4720.03
728.755	4719.06
729.156	4681.86
729.557	4659.64
729.958	4554.6
730.359	4504.25
730.76	4486.3
731.161	4435.06
731.562	4411.25
731.962	4411.81
732.363	4357.61
732.763	4304.01
733.164	4333.58
733.564	4276.22
733.965	4192.64
734.365	4161.69
734.766	4185.16
735.166	4151.3
735.566	4103.43
735.966	4081.21
736.366	4075.4
736.766	4020.89
737.166	4045.57
737.566	4009.43
737.966	3985.41
738.365	4017.65
738.765	4013.2
739.165	3948.64
739.564	3927.62
739.964	3965.07
740.363	3924.74
740.763	3922.7
741.162	3910.63
741.561	3882.94
741.96	3844.34
742.36	3861.57
742.759	3865.88
743.158	3898.35
743.557	3911.26
743.955	3943.31
744.354	3904.25
744.753	3952.63
745.152	3918.51
745.55	3966.94
745.949	3962.58
746.348	3964.36
746.746	3977.97
747.144	3947.27
747.543	3927.6
747.941	3968.52
748.339	3909.92
748.737	3903.29
749.136	3896.64
749.534	3950.08
749.932	3929.14
750.33	3948.75
750.727	3995.1
751.125	3973.09
751.523	3956.35
751.921	3994.36
752.318	3964.21
752.716	4013.55
753.113	4025.15
753.511	4045.8
753.908	4049.01
754.305	4034.1
754.703	4086.09
755.1	4137.02
755.497	4186.84
755.894	4348.65
756.291	4496.16
756.688	4775.31
757.085	5143.34
757.482	5661.9
757.878	6225.89
758.275	6731.9
758.672	7431.41
759.068	8000.77
759.465	8815.91
759.861	9870.47
760.258	11088.73
760.654	11720.25
761.05	11626.45
761.447	11094.21
761.843	10322.63
762.239	9533.8
762.635	9179.73
763.031	8835.86
763.427	8342.24
763.822	7820.74
764.218	7307.95
764.614	6640.03
765.01	6191.76
765.405	5903.16
765.801	5684.33
766.196	5407.03
766.592	5250.36
766.987	4985.27
767.382	4806.6
767.778	4732.51
768.173	4623.05
768.568	4563.18
768.963	4459.75
769.358	4477.03
769.753	4435.2
770.148	4365.84
770.542	4367
770.937	4341.54
771.332	4421.41
771.726	4437.98
772.121	4386.12
772.515	4433.33
772.91	4421.81
773.304	4482.29
773.699	4425.93
774.093	4472.74
774.487	4516.52
774.881	4553.12
775.275	4551.8
775.669	4515.29
776.063	4554.31
776.457	4584.05
776.851	4522.82
777.245	4516.02
777.638	4543.31
778.032	4641.7
778.425	4613.19
778.819	4650.67
779.212	4614.86
779.606	4580.97
779.999	4598.96
780.392	4584.62
780.786	4657.16
781.179	4675.2
781.572	4711.4
781.965	4723.45
782.358	4673.65
782.751	4717.53
783.143	4678.6
783.536	4739.65
783.929	4776.54
784.322	4869.3
784.714	4897.65
785.107	4891.17
785.499	4952.03
785.891	4932.52
786.284	4914.75
786.676	5032.05
787.068	5017.93
787.46	5059.73
787.852	5075.96
788.245	5145.12
788.636	5170.33
789.028	5223.64
789.42	5255.92
789.812	5265.16
790.204	5347.27
790.595	5429.51
790.987	5267.35
791.378	5285.77
791.77	5392.43
792.161	5503.98
792.553	5550.03
792.944	5455.59
793.335	5398.35
793.726	5457.93
794.117	5529.36
794.508	5640.84
794.899	5616.07
795.29	5736.16
795.681	5784.82
796.072	5666.25
796.463	5517.34
796.853	5526.44
797.244	5657.49
797.634	5685.64
798.025	5683.75
798.415	5692.38
798.806	5767.35
799.196	5835.24
799.586	5871.46
799.976	5837.16
800.366	6030.95
800.756	6224.89
801.146	6188.01
801.536	6211.52
801.926	6268.37
802.316	6290.3
802.706	6349.48
803.095	6252.52
803.485	6341.9
803.874	6375.81
804.264	6591.12
804.653	6565.38
805.043	6685.85
805.432	6780.24
805.821	6783.03
806.21	6805.05
806.599	6904.61
806.988	6944
807.377	7028.35
807.766	7133.78
808.155	7370.62
808.544	7159.11
808.933	7175.52
809.321	7157.73
809.71	7402.95
810.098	7535.2
810.487	7920.24
810.875	8319.55
811.264	8337.46
811.652	8580.6
812.04	8705.66
812.428	8843.8
812.816	9470.9
813.204	9816.23
813.592	10279.47
813.98	10563.48
814.368	10484.59
814.756	10879.48
815.144	10814.28
815.531	11201.32
815.919	11133.69
816.306	11378.77
816.694	11120.54
817.081	11167.4
817.469	11453.39
817.856	11442.57
818.243	11653.63
818.63	11979.71
819.017	11634.6
819.404	11684.25
819.791	11999.7
820.178	12506.57
820.565	12717.82
820.952	13495.45
821.339	13086.23
821.725	13241.76
822.112	12629.53
822.498	12601.02
822.885	12706.63
823.271	12626.54
823.657	12971.45
824.044	12972.89
824.43	13032.62
824.816	13008.72
825.202	12645.56
825.588	13489.66
825.974	13503.24
826.36	13929.33
826.746	13955.24
827.132	14252.95
827.517	14231.31
827.903	13579.67
828.289	13611.45
828.674	12969.34
829.06	12880.94
829.445	13212.61
829.83	13503.99
830.216	13893.1
830.601	14202.3
830.986	13861.29
831.371	13743.59
831.756	14199.92
832.141	13849.75
832.526	13845.93
832.911	14082.75
833.295	13985.46
833.68	14361.16
834.065	13850.74
834.449	13098.65
834.834	13034.48
835.218	13037.64
835.603	13319.85
835.987	13151.42
836.371	13840.23
836.755	13757.14
837.139	14085.93
837.524	14286.96
837.908	14153.42
838.291	14201.7
838.675	14256.18
839.059	14431.28
839.443	14416.22
839.827	14231.43
840.21	14622.21
840.594	14498.72
840.977	14672.17
841.361	14654.07
841.744	14969.78
842.127	14832.07
842.511	15037.7
842.894	15540.77
843.277	15855.46
843.66	16315.35
844.043	16381.66
844.426	15723.08
844.809	15471.16
845.191	15499.07
845.574	15122.6
845.957	14817.65
846.339	14724.92
846.722	14295
847.104	14346.94
847.487	14207.27
847.869	14226.74
848.252	14459.65
848.634	14737.05
849.016	14956.72
849.398	15061.38
849.78	15765.25
850.162	15769.72
850.544	16127.8
850.926	16646.99
851.307	16575.15
851.689	16811.41
852.071	17181.85
852.452	17457.39
852.834	17449.48
853.215	17777.02
853.597	17911.12
853.978	18157.22
854.359	18548.86
854.741	17722.51
855.122	17638.81
855.503	17404.66
855.884	17506.76
856.265	17453.49
856.646	17548.32
857.026	17212.76
857.407	17168.13
857.788	17289.53
858.169	17535.3
858.549	16823.1
858.93	17334.25
859.31	17380.14
859.69	17555.38
860.071	17220.04
860.451	17037.67
860.831	16417.95
861.211	17377.77
861.591	17819.87
861.971	17798.76
862.351	17953.74
862.731	18273.74
863.111	18494.54
863.491	18771.66
863.87	19495.32
864.25	19790.7
864.629	19452.61
865.009	19884.11
865.388	20593.48
865.768	22074.07
866.147	21988.23
866.526	20772.34
866.905	21019.09
867.284	22192.28
867.663	21061.08
868.042	20184.23
868.421	20114.92
868.8	20456.78
869.179	20657.25
869.558	19450.8
869.936	17925.05
870.315	18244.42
870.693	18699.08
871.072	20163.27
871.45	19211.66
871.828	19462.95
872.207	20467.63
872.585	20157.64
872.963	20695.34
873.341	19980.85
873.719	19746.89
874.097	19499.81
874.475	19866.71
874.853	20301.82
875.23	19453.23
875.608	20263.15
875.986	21900.53
876.363	20930.09
876.741	21566.23
877.118	21029.44
877.495	22055.21
877.873	22412.68
878.25	23603.7
878.627	22640.65
879.004	22954.24
879.381	22848.86
879.758	22251.1
880.135	20730.9
880.512	21925.56
880.889	21342.04
881.265	21129.15
881.642	20949.11
882.019	21312.12
882.395	20878.48
882.772	21718.22
883.148	20786.93
883.524	20706.45
883.901	20588.96
884.277	20908.53
884.653	20786.01
885.029	21392.52
885.405	23706.19
885.781	23542.83
886.157	22582.84
886.532	22865.18
886.908	22857.78
887.284	25424.26
887.659	26265.12
888.035	27099.29
888.411	27812.73
888.786	28172.32
889.161	29152.97
889.537	28599.16
889.912	29505.38
890.287	29477.12
890.662	30241.02
891.037	29690.13
891.412	27696.27
891.787	27413.56
892.162	26456.96
892.536	27054.84
892.911	26047.1
893.286	25503.39
893.66	24474.78
894.035	25110.04
894.409	27330.32
894.784	26232.77
895.158	26670.01
895.532	28235.29
895.906	29015.71
896.281	29702.35
896.655	29232.5
897.029	33385.84
897.402	34762.09
897.776	38711.49
898.15	38562.97
898.524	38182.13
898.898	38684.72
899.271	43318.93
899.645	37525.29
900.018	36015.44
900.392	37322.15
900.765	37612.11
901.138	34814.34
901.511	34291.32
901.884	31471.79
902.258	29025.94
902.631	29971.29
903.003	34472.95
903.376	31105.04
903.749	34881.23
904.122	37351.57
904.495	41150.98
904.867	41683.42
905.24	36200.71
905.612	33699.02
905.985	34481
906.357	36072.67
906.729	34445.3
907.102	29434.33
907.474	28299.19
907.846	28486.34
908.218	28114.77
908.59	24836.7
908.962	24016.84
909.334	25880.39
909.705	27182.22
910.077	26394.28
910.449	27465.24
910.82	28236.21
911.192	31079.99
911.563	32297.06
911.935	34574.44
912.306	34614.22
912.677	35767.42
913.048	35428.04
913.419	38429.28
913.79	38644.34
914.161	41419.79
914.532	39628.97
914.903	36402.79
915.274	34576.26
915.645	34092.79
916.015	29995.62
916.386	28613.25
916.756	30454.29
917.127	31407.32
917.497	28054.96
917.868	30553.74
918.238	29041.92
918.608	29845.69
918.978	30466.55
919.348	32261.76
919.718	33326.66
920.088	32086.27
920.458	33345.52
920.828	35097.21
921.198	33273.14
921.567	35549.19
921.937	27527.87
922.306	27781.69
922.676	29966.08
923.045	25012.15
923.415	23767.41
923.784	21660.45
924.153	22288.65
924.522	22257.77
924.891	20925.97
925.26	22435.65
925.629	21911.37
925.998	25185.91
926.367	24586.45
926.736	23436.56
927.104	27897.11
927.473	29995.35
927.842	36192.84
928.21	35854.16
928.578	37704.71
928.947	35659.23
929.315	35874.51
929.683	42067.06
930.051	42452.97
930.42	49354.48
930.788	42191.05
931.156	41901.45
931.523	39271.12
931.891	36293.78
932.259	34884.19
932.627	40467.86
932.994	57227.63
933.362	47297.71
933.729	41091.65
934.097	39309.76
934.464	33239.19
934.831	38373.06
935.199	37841.68
935.566	36735.08
935.933	37219.68
936.3	45088.7
936.667	35093.95
937.034	31690.02
937.401	31373.16
937.767	27089.01
938.134	24116.15
938.501	34046.81
938.867	36310.58
939.234	61456.98
939.6	52372.94
939.967	57791.38
940.333	38656.68
940.699	32881.93
941.065	26378.27
941.431	34566.68
941.798	33351.53
942.163	43799.94
942.529	27338.63
942.895	25122.05
943.261	16219.68
943.627	21271.66
943.992	18607.95
944.358	18644.35
944.723	18737.3
945.089	18265.75
945.454	16862
945.82	17972.5
946.185	17260.84
946.55	20008.69
946.915	17925.31
947.28	21027.77
947.645	18547.15
948.01	17125.92
948.375	17866.39
948.74	21372.83
949.104	24925.19
949.469	36034.39
949.834	63737.56
950.198	60519.98
950.562	36300.46
950.927	30239.79
951.291	36433.65
951.655	31031.75
952.02	29134.75
952.384	21997.47
952.748	19158.17
953.112	18698.24
953.476	16261.8
953.839	15046.3
954.203	14884.06
954.567	18603.06
954.931	29298.95
955.294	25067.58
955.658	25221.33
956.021	42900.69
956.385	72859.44
956.748	107674.69
957.111	166967.88
957.474	187279.38
957.837	211021.35
958.2	159677.03
958.563	57478.13
958.926	38941.92
959.289	59117.88
959.652	66078.63
960.015	49646.25
960.377	71230.71
960.74	81313.53
961.102	140539.35
961.465	151352.68
961.827	81086.59
962.189	155757.11
962.552	108012.28
962.914	86698.29
963.276	56259.61
963.638	46491.36
964	46017.1
964.362	31107.27
964.724	30073.24
965.085	21425.72
965.447	17533.01
965.809	19969.91
966.17	20007.56
966.532	21655.23
966.893	19864.69
967.255	18095.35
967.616	21351.11
967.977	17100.89
968.338	18690.98
968.699	15356.99
969.061	15359.62
969.421	15473.14
969.782	17355.48
970.143	14672.58
970.504	15196.2
970.865	17267.56
971.225	17633.06
971.586	17272.64
971.946	24633.13
972.307	21404.53
972.667	27980.27
973.027	28798.08
973.388	34935.06
973.748	23791.05
974.108	25916.86
974.468	35045.22
974.828	27033.42
975.188	20829.04
975.548	19106.15
975.907	16060.62
976.267	17998.09
976.627	15147.74
976.986	15738.3
977.346	15007.19
977.705	14444.69
978.064	13159.13
978.424	10971.86
978.783	11342.68
979.142	12953.82
979.501	12432.16
979.86	13140.24
980.219	12662.91
980.578	16315.08
980.937	18261.92
981.296	16285.32
981.654	16747.74
982.013	26009.59
982.371	33809.36
982.73	31593.86
983.088	35759.77
983.447	38128.61
983.805	54529.11
984.163	114016.41
984.521	126722.35
984.879	185814.68
985.237	-301679.57
985.595	291067.99
985.953	72409.26
986.311	41785.61
986.669	24256.9
987.026	20934.88
987.384	28170.21
987.741	29117.2
988.099	20818.93
988.456	16590.28
988.814	15539.33
989.171	13526.44
989.528	13348.55
989.885	14087
990.242	11148.19
990.599	13894.6
990.956	11378.7
991.313	7968.6
991.67	6547.91
992.027	6966.99
992.383	6201.5
992.74	5447.07
993.096	5716.55
993.453	5920.52
993.809	6144.43
994.165	8180.39
994.522	7505.75
994.878	8263.71
995.234	10364.41
995.59	10208.44
995.946	9614.24
996.302	10971.91
996.658	12661.62
997.013	13979.37
997.369	16587.8
997.725	21302.16
998.08	13798.59
998.436	21260.99
998.791	29349.08
999.147	29271.78
999.502	31987.12
999.857	23324.39
1000.212	37926.16
1000.567	54011.68
1000.922	31113.78
1001.277	19805.55
1001.632	14631.53
1001.987	18887.69
1002.342	13540.1
1002.696	10833.02
1003.051	8661.55
1003.406	10501.11
1003.76	10437.98
1004.114	10302.36
1004.469	8651.5
1004.823	7157.66
1005.177	7725.76
1005.531	6139.19
1005.885	5440.33
1006.239	6145.68
1006.593	7734.9
1006.947	10369.67
1007.301	7777.32
1007.655	8498.65
1008.008	6235.42
1008.362	7021.51
1008.715	10048.4
1009.069	9111.84
1009.422	13733.65
1009.776	27543.7
1010.129	18275.69
1010.482	15236.13
1010.835	12843.85
1011.188	26701.38
1011.541	25015.42
1011.894	-153000.75
1012.247	450088.35
1012.6	30508.81
1012.952	19266.64
1013.305	9901.64
1013.657	7167.33
1014.01	6808.25
1014.362	5612.88
1014.715	4997.89
1015.067	4347.19
1015.419	4269.5
1015.771	3783.03
1016.123	3364.82
1016.475	3463.49
1016.827	3700.2
1017.179	3980.38
1017.531	4004.14
1017.883	4070.83
1018.234	3940.68
1018.586	4961.25
1018.938	5268.72
1019.289	7243.56
1019.64	8303.67
1019.992	7744.27
1020.343	7111.72
1020.694	5594.11
1021.045	4930.17
1021.396	5598.08
1021.747	6028.65
1022.098	7204.8
1022.449	5221.03
1022.8	4842.78
1023.151	3384.71
1023.501	3005.57
1023.852	3263.67
1024.202	3377.44
1024.553	3711.26
1024.903	3637.49
1025.253	3125.61
1025.604	2815.3
1025.954	3506.8
1026.304	4282.79
1026.654	5007.05
1027.004	7335.71
1027.354	11836.34
1027.703	11114.93
1028.053	14609.18
1028.403	21334.74
1028.753	30870.17
1029.102	42058.84
1029.452	215654.23
1029.801	9291.09
1030.15	6011.65
1030.499	5067.32
897.758	2701.24
901.051	2667.75
904.343	2702.84
907.636	2702.54
910.928	2765.88
914.22	2674.25
917.511	2683.33
920.803	2748.95
924.094	2770.56
927.384	2745.84
930.675	2713.99
933.965	2666.62
937.255	2670.31
940.544	2638.2
943.834	2573.89
947.123	2519.69
950.411	2617.06
953.7	2588.63
956.988	2551.35
960.276	2495.45
963.563	2581.37
966.851	2575.95
970.138	2634.33
973.424	2624.49
976.711	2574.85
979.997	2716.21
983.283	2748.75
986.568	2650.29
989.853	2673.25
993.138	2699.68
996.423	2778.96
999.708	2711.59
1002.992	2780.22
1006.275	2611.23
1009.559	2662.05
1012.842	2775.66
1016.125	2703.39
1019.408	2683.11
1022.69	2774.53
1025.972	2785.64
1029.254	2762.16
1032.536	2690.11
1035.817	2719.12
1039.098	2657.88
1042.379	2811.33
1045.659	2805.9
1048.939	2739.91
1052.219	2760.67
1055.498	2777.81
1058.778	2759.73
1062.057	2747.17
1065.335	2767.73
1068.614	2787.19
1071.892	2767.5
1075.17	2846.95
1078.447	2832.69
1081.724	2821.18
1085.001	2855.45
1088.278	2832.84
1091.554	2844.3
1094.83	2840.65
1098.106	2865.94
1101.382	2915.23
1104.657	2914.33
1107.932	2908.89
1111.206	2869.37
1114.481	2828.86
1117.755	2835.31
1121.029	2815.45
1124.302	2862.45
1127.575	2812
1130.848	2799.25
1134.121	2758.38
1137.393	2702.43
1140.665	2773.76
1143.937	2746.59
1147.208	2712.25
1150.48	2747.66
1153.75	2730.72
1157.021	2767.23
1160.291	2737.26
1163.561	2778.45
1166.831	2775.05
1170.101	2808.4
1173.37	2786.83
1176.639	2727.75
1179.907	2790.84
1183.176	2792.19
1186.444	2800.81
1189.711	2830.41
1192.979	2839.84
1196.246	2798.32
1199.513	2818.9
1202.78	2809.74
1206.046	2817.99
1209.312	2844
1212.578	2867.74
1215.843	2819.18
1219.108	2795.43
1222.373	2817.28
1225.638	2779.96
1228.902	2759.19
1232.166	2729.3
1235.43	2710.2
1238.693	2735.67
1241.956	2734.88
1245.219	2771.41
1248.482	2766.72
1251.744	2761.13
1255.006	2912.55
1258.268	2867.31
1261.529	2810.44
1264.79	2820.59
1268.051	2922.7
1271.312	2939.26
1274.572	2899.83
1277.832	2890.81
1281.092	2885.47
1284.351	2857.47
1287.61	2832.71
1290.869	2744.4
1294.128	2718.41
1297.386	2814.89
1300.644	2801.19
1303.902	2814.78
1307.159	2675.02
1310.416	2730.52
1313.673	2752.51
1316.93	2733.59
1320.186	2781.08
1323.442	2828.46
1326.697	2816.16
1329.953	2812.7
1333.208	2831.79
1336.463	2815.81
1339.717	2749.42
1342.972	2888.24
1346.226	2867.58
1349.479	2798.13
1352.733	2766.11
1355.986	2794.37
1359.238	2769.54
1362.491	2771.78
1365.743	2776.54
1368.995	2772.78
1372.247	2784.73
1375.498	2809.6
1378.749	2816.69
1382	2775.09
1385.251	2831.2
1388.501	2797.46
1391.751	2775.88
1395	2748.03
1398.25	2781.52
1401.499	2784.59
1404.748	2708.1
1407.996	2704.16
1411.244	2689.15
1414.492	2669.8
1417.74	2646.74
1420.987	2658.82
1424.234	2712.79
1427.481	2696.45
1430.728	2757.33
1433.974	2732.55
1437.22	2749.76
1440.465	2753.8
1443.711	2710.72
1446.956	2746.68
1450.201	2738.41
1453.445	2783.05
1456.689	2758.28
1459.933	2770.16
1463.177	2801.06
1466.42	2771.55
1469.663	2751.36
1472.906	2742.22
1476.148	2822.35
1479.391	2781.52
1482.633	2754.93
1485.874	2759.04
1489.115	2740.71
1492.356	2754.7
1495.597	2726.3
1498.838	2732.06
1502.078	2697.37
1505.318	2643.04
1508.557	2686.55
1511.797	2655.16
1515.036	2729.77
1518.274	2720.9
1521.513	2698.66
1524.751	2721.61
1527.989	2729.62
1531.227	2744.61
1534.464	2732.78
1537.701	2760.13
1540.938	2780.19
1544.174	2732.18
1547.41	2733.47
1550.646	2771.68
1553.882	2805.28
1557.117	2856.54
1560.352	2875.56
1563.587	2829.29
1566.821	2788.1
1570.055	2825.44
1573.289	2792.75
1576.523	2871.28
1579.756	2875.16
1582.989	2894.09
1586.222	2856.8
1589.454	2890.71
1592.686	2862.92
1595.918	2886.61
1599.15	2874.4
1602.381	2954.38
1605.612	2904.01
1608.843	3000.57
1612.073	2912.32
1615.303	2898.29
1618.533	2886.88
1621.762	2883.55
1624.992	2880.64
1628.221	2863.04
1631.449	2845.23
1634.678	2909.18
1637.906	2862.27
1641.134	2904.93
1644.361	2859.91
1647.588	2847.6
1650.815	2864.26
1654.042	2844.78
1657.269	2879.03
1660.495	2825
1663.72	2849.29
1666.946	2811.84
1670.171	2748.42
1673.396	2722.71
1676.621	2713.58
1679.845	2737.75
1683.069	2762.62
1686.293	2806.66
1689.517	2775.3
1692.74	2702.15
1695.963	2731.43
1699.185	2745.41
1702.408	2725.3
1705.63	2768.75
1708.852	2779.11
1712.073	2752.44
1715.294	2731.54
1718.515	2793.33
1721.736	2737.83
1724.956	2734.54
1728.176	2761.91
1731.396	2783.27
1734.616	2773.36
1737.835	2796.7
1741.054	2781.59
1744.272	2775.53
1747.491	2801.45
1750.709	2860.27
1753.927	2758.43
1757.144	2806.16
1760.361	2845.41
1763.578	2842.48
1766.795	2783.34
1770.011	2794.15
1773.227	2837.34
1776.443	2866.25
1779.658	2911.01
1782.874	2858.9
1786.089	2836.69
1789.303	2837.71
1792.518	2848.63
1795.732	2832.71
1798.945	2839.6
1802.159	2892.95
1805.372	2787.86
1808.585	2771.46
1811.797	2773.76
1815.01	2828.95
1818.222	2824.92
1821.434	2794.54
1824.645	2856.29
1827.856	2833.87
1831.067	2871.09
1834.278	2836.55
1837.488	2815.21
1840.698	2969.47
1843.908	2891.58
1847.117	2858.65
1850.326	2731.88
1853.535	2844.65
1856.744	2871.57
1859.952	2786.63
1863.16	2789.71
1866.368	2811.9
1869.575	2908.68
1872.782	2805.58
1875.989	2745.78
1879.196	2834.7
1882.402	2826.94
1885.608	2870.61
1888.814	2768.49
1892.019	2664.25
1895.224	2717.82
1898.429	2701.47
1901.634	2682.38
1904.838	2662.12
1908.042	2706.12
1911.246	2713.51
1914.449	2640.8
1917.652	2636.9
1920.855	2621.77
1924.058	2674.46
1927.26	2709.48
1930.462	2737.63
1933.664	2761.99
1936.865	2699.48
1940.066	2704.1
1943.267	2652
1946.467	2668.51
1949.668	2694.67
1952.868	2762.23
1956.067	2737.34
1959.267	2666.27
1962.466	2694.83
1965.665	2678.25
1968.863	2673.42
1972.061	2691.09
1975.259	2690.33
1978.457	2772.08
1981.654	2727.36
1984.852	2730.18
1988.048	2660.53
1991.245	2665.8
1994.441	2749.3
1997.637	2739.49
2000.833	2726.05
2004.028	2764.13
2007.223	2816.22
2010.418	2791.05
2013.613	2751.99
2016.807	2718.71
2020.001	2730.81
2023.194	2776
2026.388	2753.34
2029.581	2700.8
2032.774	2745.97
2035.966	2745.79
2039.158	2676.44
2042.35	2707.25
2045.542	2634.29
2048.733	2738.14
2051.924	2768.85
2055.115	2795.37
2058.306	2736.51
2061.496	2794.98
2064.686	2856.86
2067.875	2774.2
2071.065	2792.52
2074.254	2821.77
2077.442	2770.15
2080.631	2863
2083.819	2745.6
2087.007	2726.93
2090.195	2697.55
2093.382	2735.21
2096.569	2714.21
2099.756	2668.74
2102.942	2689.69
2106.128	2692.34
2109.314	2685.07
2112.5	2644.81
2115.685	2622.86
2118.87	2634.99
2122.055	2700.89
2125.239	2661.56
2128.424	2635.7
2131.608	2747.54
2134.791	2729.79
2137.974	2790.36
2141.157	2774.6
2144.34	2721.9
2147.523	2743.21
2150.705	2754.58
2153.887	2736.34
2157.068	2680.41
2160.25	2690.49
2163.431	2726.24
2166.611	2668.44
2169.792	2681.17
2172.972	2572.51
2176.152	2656.25
2179.331	2693
2182.511	2669.6
2185.69	2698.73
2188.868	2690.49
2192.047	2748.57
2195.225	2730.57
2198.403	2686.23
2201.58	2677.17
2204.758	2679.01
2207.935	2764.31
2211.111	2645.99
2214.288	2628.64
2217.464	2667.68
2220.64	2645.27
2223.815	2701.08
2226.991	2620.92
2230.166	2641.31
2233.34	2668.26
2236.515	2697.51
2239.689	2767.12
2242.863	2709.18
2246.036	2767.76
2249.209	2772.31
2252.382	2809.4
2255.555	2792.04
2258.727	2727.23
2261.9	2770.84
2265.071	2762.78
2268.243	2765.56
2271.414	2691.13
2274.585	2651.38
2277.756	2722.02
2280.926	2677.9
2284.096	2720.42
2287.266	2624.1
2290.436	2680.42
2293.605	2711.72
2296.774	2735.4
2299.942	2761.39
2303.111	2777.06
2306.279	2824.45
2309.447	2814.65
2312.614	2787.65
2315.781	2808.53
2318.948	2776
2322.115	2815.53
2325.281	2719
2328.447	2741.35
2331.613	2721.04
2334.779	2690.07
2337.944	2696.35
2341.109	2693.21
2344.274	2674.26
2347.438	2640.5
2350.602	2666.75
2353.766	2683.26
2356.929	2669.48
2360.092	2711.49
2363.255	2659.26
2366.418	2586.49
2369.58	2705.6
2372.742	2480.95
2375.904	2499.37
2379.066	2471.15
2382.227	2508.99
2385.388	2471.5
2388.548	2396.19
2391.709	2453.39
2394.869	2429.81
2398.029	2535.76
2401.188	2552.59
2404.347	2482.36
2407.506	2629.84
2410.665	2657.85
2413.823	2670.42
2416.981	2623.71
2420.139	2655.62
2423.296	2707.74
2426.453	2679.21
2429.61	2705.73
2432.767	2632.92
2435.923	2669.43
2439.079	2638.44
2442.235	2689.27
2445.391	2614.15
2448.546	2635.65
2451.701	2688.3
2454.855	2657.98
2458.009	2714
2461.163	2719.11
2464.317	2673.95
2467.471	2709.31
2470.624	2751.56
2473.777	2714.33
2476.929	2729
2480.082	2754.76
2483.234	2719.55
2486.385	2677.36
2489.537	2668.91
2492.688	2624.72
2495.839	2643.81
2498.989	2655.98
2502.14	2637.92
2505.29	2617.8
2508.439	2646.56
2511.589	2565.72
2514.738	2581.31
2517.887	2614.02
2521.035	2670.9
2524.183	2662.3
2527.331	2639.14
2530.479	2608.47
2533.627	2619.15
