Data from C_2_DEC_NC_4N_Splice17_12-25-59-957.txt Node
Date: Sat Mar 14 12:25:59 EDT 2020
User: sa697716
Spectrometer: FLMS03696
Trigger mode: 0
Integration Time (sec): 3.180400E-1
Scans to average: 20
Electric dark correction enabled: true
Nonlinearity correction enabled: true
Boxcar width: 5
XAxis mode: Wavelengths
Number of Pixels in Spectrum: 2048
>>>>>Begin Spectral Data<<<<<
187.83	-378549.38
188.298	2616.58
188.766	1424.48
189.233	1340.98
189.701	1896.75
190.169	2653.95
190.636	997.44
191.104	782.54
191.571	121.9
192.039	-58.04
192.506	-67.99
192.974	356.99
193.441	-791.3
193.908	-79.59
194.375	-10.36
194.842	65.05
195.31	154.07
195.777	175.02
196.244	420.59
196.711	526.01
197.177	655.32
197.644	917.06
198.111	1572.41
198.578	2237.3
199.045	1773.49
199.511	2952.27
199.978	3471.19
200.445	2953.2
200.911	3268.43
201.378	3622.7
201.844	3262.66
202.31	5530.01
202.777	5785.92
203.243	3214.95
203.709	3043.2
204.176	3660.96
204.642	2996.6
205.108	2774.28
205.574	2255.89
206.04	2048.44
206.506	1910.04
206.972	1805.91
207.438	1750.6
207.903	1982.7
208.369	1723.46
208.835	1709
209.301	1758.19
209.766	1785.24
210.232	1756.12
210.697	2152.56
211.163	2647.31
211.628	3977.17
212.094	3313.07
212.559	4026.52
213.024	2489.65
213.49	3010.54
213.955	2926.17
214.42	2846.87
214.885	2619.02
215.35	2508
215.815	2427.88
216.28	2563.84
216.745	2061.3
217.21	2186.85
217.675	1963.35
218.14	2157.61
218.604	2358.28
219.069	2615.66
219.534	2695.77
219.998	3089.9
220.463	3658.74
220.927	4368.02
221.392	4035.35
221.856	4048.27
222.32	5026.42
222.785	6165.86
223.249	7721.17
223.713	8577.95
224.177	8550.62
224.642	10875.34
225.106	13277.29
225.57	14489.5
226.034	10786.31
226.497	16430.6
226.961	14838.22
227.425	17272.85
227.889	19119.49
228.353	19043.85
228.816	39237.28
229.28	37622.54
229.744	31751.06
230.207	19353.94
230.671	19025.9
231.134	31424.32
231.597	36166.31
232.061	36099.38
232.524	35234.35
232.987	24305.9
233.45	21931.76
233.914	19656.41
234.377	20075.91
234.84	18379.18
235.303	21661.9
235.766	24166.73
236.229	25009.91
236.691	15787.7
237.154	17766.95
237.617	13387.63
238.08	13713.75
238.542	16050.77
239.005	11515.57
239.468	11455.01
239.93	10827.74
240.393	9846.54
240.855	8659.8
241.317	8865.6
241.78	10776.28
242.242	11164.17
242.704	12060.1
243.166	10504.89
243.629	9556.32
244.091	11025.68
244.553	12092.42
245.015	13009.71
245.477	16847.33
245.939	24713.57
246.4	26273.7
246.862	25601.52
247.324	24103.11
247.786	27003.9
248.247	35417.6
248.709	36587.22
249.17	27353.05
249.632	25825.81
250.093	29967.99
250.555	25926.47
251.016	15829.01
251.477	15031.37
251.939	16216.38
252.4	17044.83
252.861	20261.87
253.322	18876.51
253.783	22434.69
254.244	29092.76
254.705	22946.19
255.166	20391.98
255.627	20074.69
256.088	28372.76
256.549	30166.11
257.009	26003.17
257.47	31590.14
257.931	25750.37
258.391	19322.92
258.852	19939.03
259.312	20905.44
259.773	25823.59
260.233	21832.34
260.694	18430.9
261.154	20890.65
261.614	16769.73
262.074	15001.12
262.534	15566.06
262.994	14676.83
263.455	19540.92
263.915	16469.51
264.374	15531.29
264.834	16965.39
265.294	18818.6
265.754	19484.96
266.214	18448.52
266.673	17273.88
267.133	21799.84
267.593	21615.62
268.052	26462.48
268.512	23001.35
268.971	27813.81
269.431	30500.62
269.89	27302.28
270.349	40984.7
270.809	45761.84
271.268	41184.64
271.727	92403.56
272.186	59938.93
272.645	45060.98
273.104	32520.07
273.563	47189.97
274.022	37104.28
274.481	31625.4
274.94	24408.82
275.399	18143.56
275.857	21119.07
276.316	28597.12
276.775	25481.62
277.233	25091.73
277.692	23532.41
278.15	26670.19
278.609	27494.43
279.067	25448.1
279.525	23650.05
279.984	30566.98
280.442	36754.29
280.9	36332.77
281.358	23899.41
281.816	22325.88
282.274	21910.33
282.732	22660.57
283.19	22824.13
283.648	19703.44
284.106	21037.19
284.564	21437.41
285.021	19937.17
285.479	14890.74
285.937	13562.4
286.394	11939.3
286.852	12302.95
287.309	12948.39
287.767	12539.05
288.224	11928.14
288.682	13113.37
289.139	14407.46
289.596	13193.93
290.053	13718.85
290.511	17324.51
290.968	21018.57
291.425	28487.83
291.882	23745.92
292.339	20684.77
292.796	20515.21
293.252	19342.74
293.709	15381.01
294.166	13787.28
294.623	15259.5
295.079	14637.09
295.536	14707.49
295.992	13372.81
296.449	13246.84
296.905	13776.07
297.362	13233.26
297.818	13927.21
298.274	14469.59
298.731	14752.13
299.187	14608.4
299.643	15681.84
300.099	18984
300.555	20845.73
301.011	17413.16
301.467	16824.98
301.923	19704.45
302.379	19242.7
302.835	18921.07
303.291	18965.83
303.746	21594.89
304.202	27325.84
304.658	27465.59
305.113	18480.71
305.569	18126.73
306.024	19342.24
306.479	18406.35
306.935	15514.98
307.39	16938.79
307.845	15662.62
308.301	15756.49
308.756	15376.4
309.211	14827.82
309.666	15196.7
310.121	18918.38
310.576	19265.92
311.031	19143.51
311.486	21959.29
311.94	21984.09
312.395	29418.31
312.85	55299.39
313.305	271617.15
313.759	1409013.33
314.214	102187.28
314.668	81225.62
315.123	68283.1
315.577	24426.27
316.032	21733.82
316.486	27257.98
316.94	21520.71
317.394	15025.41
317.849	11686.89
318.303	11083.98
318.757	10434.9
319.211	11540.3
319.665	10092.49
320.119	10223.31
320.572	14650.62
321.026	13703.3
321.48	11390.45
321.934	12411.45
322.387	12415.43
322.841	13407.24
323.295	12052.46
323.748	13892.26
324.202	14089.08
324.655	16948.35
325.108	23711.89
325.562	16778.57
326.015	19950.11
326.468	15102.04
326.921	16926.16
327.374	15811.49
327.827	16491.13
328.28	18687.45
328.733	12548.39
329.186	11050.36
329.639	10528.33
330.092	8864.08
330.545	8448.81
330.997	8538.46
331.45	9333.34
331.903	10941.58
332.355	18826.17
332.808	18303.54
333.26	15113.24
333.713	16406.91
334.165	16518.72
334.617	22056.91
335.069	17851.65
335.522	32314.25
335.974	35737.74
336.426	32693.39
336.878	22654.39
337.33	11514.55
337.782	11267.42
338.234	14123.89
338.686	16917.17
339.137	20095.63
339.589	18927.12
340.041	14869.99
340.493	12793.32
340.944	13107.68
341.396	14138.05
341.847	11919.77
342.299	14076.05
342.75	17155.7
343.201	14986.36
343.653	17220.17
344.104	21167.78
344.555	16686.56
345.006	25920.44
345.457	19875.52
345.908	15804.08
346.359	14861.45
346.81	12066.47
347.261	12696.02
347.712	12522.63
348.163	13425.93
348.613	13622.75
349.064	12747.72
349.515	11153.28
349.965	11462.57
350.416	13802.56
350.866	15139.19
351.317	17149.09
351.767	28460.74
352.217	36019.13
352.668	29888.42
353.118	27479.62
353.568	26452.52
354.018	20910.16
354.468	22123.13
354.918	15876.34
355.368	13908.51
355.818	19701.82
356.268	56513.98
356.718	236880.28
357.168	59053.05
357.617	29653.94
358.067	32939.9
358.517	30914.69
358.966	36340.25
359.416	40629.17
359.865	43965.27
360.315	52318.63
360.764	24431.27
361.213	13740.87
361.663	13015.18
362.112	16085.86
362.561	25993.43
363.01	19608.38
363.459	16534.85
363.908	17841.03
364.357	15228.75
364.806	25704.81
365.255	17678.24
365.703	16239.39
366.152	16286.44
366.601	13238.87
367.05	10757.78
367.498	9799.77
367.947	10269.5
368.395	10696.41
368.844	9495.47
369.292	11426.59
369.74	7927.09
370.189	12162.36
370.637	14247.92
371.085	12291.87
371.533	14996.7
371.981	14448.89
372.429	13787.76
372.877	14371.52
373.325	12017.79
373.773	12255.58
374.221	10932.3
374.669	13529.03
375.116	11735.94
375.564	11839.59
376.012	13285.91
376.459	10948.11
376.907	13093.45
377.354	15820.64
377.801	14778.25
378.249	17000.45
378.696	21780.68
379.143	26432.61
379.591	28226.95
380.038	47813.32
380.485	34679.07
380.932	37421.66
381.379	34257.39
381.826	25308.77
382.273	18017.33
382.72	15756.69
383.166	15407.93
383.613	9997.6
384.06	9036.89
384.506	10502.47
384.953	7730.27
385.4	7812.05
385.846	6873.12
386.292	6746.13
386.739	6643.59
387.185	6633.38
387.631	6701.06
388.078	6595.06
388.524	7164.66
388.97	6707.54
389.416	5665.64
389.862	6094.61
390.308	5844.31
390.754	6033.92
391.2	6711.63
391.645	7070.66
392.091	6990.46
392.537	7003.41
392.983	7238.77
393.428	7325.9
393.874	8096.34
394.319	8465.64
394.765	8475.08
395.21	9288.68
395.655	9326.99
396.101	9338.68
396.546	9003.69
396.991	9728.15
397.436	9660.32
397.881	10002.55
398.326	10212.88
398.771	10367.17
399.216	9730.78
399.661	9332
400.106	9806.76
400.551	10545.21
400.995	9891.8
401.44	10177.95
401.885	9887.38
402.329	10294.55
402.774	10139.27
403.218	10023.03
403.663	9913.63
404.107	10419.61
404.551	10756.49
404.995	10149.7
405.44	10080.39
405.884	10528.86
406.328	10467.08
406.772	10690.37
407.216	9962.26
407.66	9890.54
408.104	9703.84
408.547	9327.96
408.991	9247.88
409.435	9087.17
409.879	9089.91
410.322	9092.74
410.766	8891.48
411.209	8583.8
411.653	8395.25
412.096	8364.4
412.54	8510.05
412.983	8562.56
413.426	8669.26
413.869	8774.84
414.312	8699.69
414.756	8506.53
415.199	8225.53
415.642	8075.96
416.085	8166.36
416.527	8189.45
416.97	8401.88
417.413	8012.99
417.856	7973.42
418.298	7918.02
418.741	7875.56
419.184	7867.75
419.626	8212.84
420.069	8205.77
420.511	8257.17
420.953	8088.43
421.396	8035.48
421.838	7872.59
422.28	8083.92
422.722	8160.39
423.164	8366.63
423.606	8307.12
424.048	8391.07
424.49	8022.22
424.932	8058.46
425.374	8019.83
425.816	8209.62
426.258	8349.11
426.699	8357.4
427.141	8093.4
427.582	8108.22
428.024	7986.59
428.465	7935.64
428.907	7772.13
429.348	7761.28
429.789	7814.32
430.231	7681.37
430.672	7824.1
431.113	7726.24
431.554	7757.46
431.995	7803.27
432.436	7710.57
432.877	7710.33
433.318	7680.34
433.759	7752.18
434.2	7823.19
434.64	7815.39
435.081	7912.5
435.522	7590.04
435.962	7413.09
436.403	7343.93
436.843	7545.42
437.284	7485.16
437.724	7367.85
438.164	7477.03
438.604	7362.21
439.045	7105.28
439.485	6830.38
439.925	6747.66
440.365	6632.91
440.805	6591.37
441.245	6511.52
441.685	6282.81
442.125	6251.53
442.564	6294.71
443.004	6137.6
443.444	6125.29
443.883	6136.96
444.323	6135.07
444.762	6192.97
445.202	6291.91
445.641	6393.07
446.081	6406.56
446.52	6449.83
446.959	6385.99
447.398	6234.87
447.837	6177.5
448.276	6082.08
448.716	6144.86
449.154	6203.52
449.593	6021.58
450.032	5973.63
450.471	5858.23
450.91	5831.58
451.349	5774.86
451.787	5726.08
452.226	5771.01
452.664	5729.26
453.103	5695.69
453.541	5643.4
453.98	5548.15
454.418	5529.33
454.856	5374.21
455.295	5318.14
455.733	5291.13
456.171	5274.77
456.609	5222.5
457.047	5156.69
457.485	5169.82
457.923	5128.18
458.361	5033.43
458.798	5038
459.236	5009.63
459.674	5054.34
460.111	5063.24
460.549	5021.73
460.987	5020.14
461.424	5013.05
461.862	5008.39
462.299	4945.43
462.736	4939.97
463.173	4970.57
463.611	4906.87
464.048	4907.08
464.485	4956.45
464.922	4935.69
465.359	4935.11
465.796	4812.14
466.233	4799.77
466.67	4763.58
467.106	4767.79
467.543	4757.87
467.98	4721.28
468.416	4643.33
468.853	4633.76
469.29	4516.47
469.726	4482.13
470.162	4373.31
470.599	4383.29
471.035	4353.36
471.471	4259.34
471.907	4251.55
472.344	4224.06
472.78	4218.37
473.216	4259.56
473.652	4186.83
474.088	4158.06
474.523	4108.12
474.959	4119.63
475.395	4053.81
475.831	3991.48
476.266	3980.35
476.702	3934.66
477.138	3849.93
477.573	3800.56
478.008	3742.16
478.444	3708.91
478.879	3687.14
479.314	3662.45
479.75	3616.03
480.185	3593.99
480.62	3582.93
481.055	3558.34
481.49	3533.14
481.925	3536.15
482.36	3532.12
482.795	3580.93
483.229	3630.97
483.664	3655.34
484.099	3619.04
484.534	3620.65
484.968	3606.67
485.403	3574.58
485.837	3534.45
486.271	3490.57
486.706	3458.9
487.14	3403.19
487.574	3321.95
488.009	3267.75
488.443	3217.6
488.877	3220.63
489.311	3208.58
489.745	3218.53
490.179	3221.83
490.613	3245.53
491.046	3251.69
491.48	3254.36
491.914	3234.21
492.348	3236.99
492.781	3235.69
493.215	3227.99
493.648	3224.18
494.082	3233.45
494.515	3219.75
494.948	3235.52
495.382	3246.19
495.815	3246.41
496.248	3250.98
496.681	3289.88
497.114	3323.81
497.547	3345.21
497.98	3373.74
498.413	3368.94
498.846	3383.4
499.279	3396.33
499.711	3392.54
500.144	3377.83
500.577	3392.49
501.009	3413.72
501.442	3423.49
501.874	3395.73
502.306	3381.84
502.739	3378.05
503.171	3417.51
503.603	3404.13
504.036	3412.87
504.468	3406.55
504.9	3420.44
505.332	3418.09
505.764	3401.94
506.196	3399.49
506.627	3423.14
507.059	3437.04
507.491	3444.79
507.923	3397.16
508.354	3414.61
508.786	3416.79
509.217	3441.92
509.649	3458.28
510.08	3487.7
510.512	3505.39
510.943	3518.75
511.374	3520.28
511.805	3549.63
512.237	3576.57
512.668	3647.41
513.099	3697.9
513.53	3743.26
513.961	3764.54
514.391	3818.23
514.822	3868.65
515.253	3931.15
515.684	3960.64
516.114	4000.56
516.545	4014.07
516.975	4041.03
517.406	4041.92
517.836	4002.65
518.267	3974.43
518.697	3977.6
519.127	3945.67
519.558	3923.81
519.988	3893.35
520.418	3881.88
520.848	3888.67
521.278	3873.04
521.708	3805.28
522.138	3803.94
522.567	3847.28
522.997	3876.46
523.427	3884.24
523.857	3894.25
524.286	3892.42
524.716	3900.13
525.145	3916.2
525.575	3916.06
526.004	3926.54
526.433	3953.13
526.863	3931.51
527.292	3883.64
527.721	3875.89
528.15	3871.79
528.579	3854.64
529.008	3863.56
529.437	3901.71
529.866	3918.09
530.295	3942.55
530.724	3954.78
531.152	4000.68
531.581	4017.79
532.01	4047.47
532.438	4056.38
532.867	4078.66
533.295	4111.89
533.723	4116.07
534.152	4102.27
534.58	4093.54
535.008	4052.47
535.436	4049.44
535.865	4062.18
536.293	4090.57
536.721	4122.3
537.149	4173.4
537.576	4176.32
538.004	4203.16
538.432	4219.36
538.86	4213.87
539.287	4229.68
539.715	4259.6
540.143	4269.66
540.57	4263.8
540.998	4259.24
541.425	4207.01
541.852	4166.66
542.28	4167.12
542.707	4136.38
543.134	4110.37
543.561	4106.32
543.988	4094.85
544.415	4101.01
544.842	4094.91
545.269	4082.97
545.696	4090.94
546.123	4129.58
546.549	4112.23
546.976	4087.38
547.403	4091.07
547.829	4101.36
548.256	4113.14
548.682	4110.29
549.108	4096.34
549.535	4101.61
549.961	4111.98
550.387	4088.44
550.813	4078.73
551.24	4097.18
551.666	4105.56
552.092	4087.48
552.518	4078.77
552.943	4067.68
553.369	4091.68
553.795	4111.9
554.221	4117.72
554.646	4116.66
555.072	4141.17
555.498	4158.27
555.923	4185.47
556.349	4224.32
556.774	4250.17
557.199	4256.36
557.625	4277.73
558.05	4264.4
558.475	4289.71
558.9	4289.06
559.325	4270.06
559.75	4259.05
560.175	4247.18
560.6	4234.48
561.025	4230.27
561.449	4233.51
561.874	4247.64
562.299	4254.12
562.723	4274.19
563.148	4251.03
563.572	4260.54
563.997	4285.37
564.421	4298.92
564.846	4298.92
565.27	4303.29
565.694	4296.73
566.118	4318.67
566.542	4331.07
566.966	4313.59
567.39	4296.34
567.814	4267.88
568.238	4266.21
568.662	4276.28
569.086	4281.94
569.509	4301.91
569.933	4269.08
570.357	4259.4
570.78	4219.83
571.204	4196.43
571.627	4185.53
572.05	4198.03
572.474	4213.52
572.897	4203.85
573.32	4206.27
573.743	4208.18
574.166	4185.14
574.589	4212.36
575.012	4218.31
575.435	4242.94
575.858	4249.47
576.281	4249.08
576.704	4237.63
577.126	4236.52
577.549	4234.21
577.972	4238.08
578.394	4235.95
578.817	4238.83
579.239	4215.59
579.661	4204.57
580.084	4181.74
580.506	4172.36
580.928	4186.81
581.35	4181.32
581.772	4190.95
582.194	4176.82
582.616	4161.67
583.038	4145.4
583.46	4141.55
583.882	4151.37
584.303	4182.95
584.725	4196.05
585.147	4206.2
585.568	4248.32
585.99	4292.49
586.411	4321.64
586.833	4373.09
587.254	4387.95
587.675	4440.82
588.096	4489.41
588.518	4486.34
588.939	4450.05
589.36	4453.13
589.781	4448.01
590.202	4368.41
590.623	4355.65
591.043	4359.22
591.464	4330.1
591.885	4324.49
592.305	4312.21
592.726	4274.21
593.147	4276.35
593.567	4259.43
593.987	4234.09
594.408	4214.41
594.828	4212.76
595.248	4184.96
595.669	4118.03
596.089	4087.51
596.509	4060.48
596.929	4007
597.349	3994.33
597.769	3952.47
598.189	3918.83
598.608	3907.95
599.028	3898.67
599.448	3885.77
599.867	3839.61
600.287	3820.38
600.706	3796.52
601.126	3757.86
601.545	3744.71
601.965	3736.05
602.384	3717.03
602.803	3721.82
603.222	3704.91
603.641	3686.37
604.061	3674.94
604.48	3666.56
604.898	3693.65
605.317	3713.84
605.736	3727.6
606.155	3727.28
606.574	3710.79
606.992	3735.52
607.411	3732.86
607.829	3725.21
608.248	3731.03
608.666	3739.99
609.085	3752.18
609.503	3739.47
609.921	3736.15
610.339	3756
610.758	3771.71
611.176	3774.51
611.594	3763.44
612.012	3769.83
612.43	3792.47
612.847	3825.56
613.265	3839.72
613.683	3868.47
614.101	3889.28
614.518	3895.47
614.936	3882.94
615.353	3854.05
615.771	3859.49
616.188	3876.2
616.606	3881.4
617.023	3876.19
617.44	3847.26
617.857	3844.52
618.274	3833.46
618.691	3827.75
619.108	3812.27
619.525	3805.05
619.942	3835.05
620.359	3852.71
620.776	3845.05
621.192	3838.45
621.609	3838.86
622.026	3863.97
622.442	3886.93
622.859	3903.35
623.275	3887.85
623.691	3909.77
624.108	3950.89
624.524	4000.97
624.94	4005.62
625.356	4042.55
625.772	4090.44
626.188	4133.56
626.604	4144.39
627.02	4136.81
627.436	4133.93
627.852	4156.77
628.268	4197.21
628.683	4174.74
629.099	4154.27
629.514	4147.01
629.93	4166.06
630.345	4188.24
630.761	4184.68
631.176	4204.7
631.591	4190.53
632.007	4180.67
632.422	4190.33
632.837	4168.67
633.252	4170.24
633.667	4150.72
634.082	4135.58
634.497	4107.63
634.911	4055.5
635.326	4059.49
635.741	4022.23
636.155	4012.99
636.57	4035.3
636.984	4054.38
637.399	4077.81
637.813	4102.68
638.228	4122.46
638.642	4163.7
639.056	4157.2
639.47	4189.61
639.884	4189.12
640.298	4195.26
640.712	4217.69
641.126	4204.66
641.54	4205.62
641.954	4224.24
642.368	4207.42
642.781	4198.42
643.195	4160.58
643.609	4185.69
644.022	4187.09
644.436	4192.83
644.849	4171.09
645.262	4148.18
645.676	4174.94
646.089	4170.92
646.502	4121.85
646.915	4117.93
647.328	4076.83
647.741	4084.52
648.154	4052.35
648.567	4048.07
648.98	4011.08
649.393	4027.61
649.805	4028.44
650.218	4014
650.631	3964.99
651.043	3959.17
651.456	3947.75
651.868	3962.82
652.28	4038.87
652.693	4090.89
653.105	4110.58
653.517	4133.53
653.929	4119.84
654.341	4134.29
654.753	4080.94
655.165	4111.72
655.577	4109.17
655.989	4105.14
656.401	4092.83
656.813	3962.04
657.224	3912.71
657.636	3843.69
658.047	3814.75
658.459	3780.48
658.87	3789.09
659.282	3779.61
659.693	3720.68
660.104	3684.56
660.515	3652.64
660.926	3668.27
661.338	3684.92
661.749	3682.65
662.159	3658.81
662.57	3664.98
662.981	3664.68
663.392	3645.85
663.803	3679.23
664.213	3686.32
664.624	3683.31
665.035	3713.23
665.445	3666.13
665.855	3642.28
666.266	3612.47
666.676	3614.05
667.086	3580.66
667.497	3578.43
667.907	3554
668.317	3514.78
668.727	3485.22
669.137	3492.14
669.547	3477.14
669.956	3488.16
670.366	3493.72
670.776	3493.52
671.186	3505.34
671.595	3510.48
672.005	3521.12
672.414	3506.23
672.824	3487.84
673.233	3513.4
673.642	3512.21
674.052	3511.99
674.461	3504.14
674.87	3514.1
675.279	3487.83
675.688	3488.22
676.097	3476.93
676.506	3449.95
676.915	3504.2
677.323	3502.26
677.732	3481.96
678.141	3467.27
678.549	3411.79
678.958	3398.41
679.366	3383.61
679.775	3397.55
680.183	3412.99
680.592	3424.73
681	3430.46
681.408	3380.79
681.816	3393.61
682.224	3409.23
682.632	3416.73
683.04	3505.98
683.448	3558.48
683.856	3610.99
684.264	3661.02
684.671	3700.76
685.079	3759.77
685.487	3830.48
685.894	3959.52
686.302	4040.66
686.709	4075.38
687.116	4138.32
687.524	4165.22
687.931	4186.24
688.338	4214.41
688.745	4241.86
689.152	4280.26
689.559	4342.33
689.966	4387.08
690.373	4361.32
690.78	4384.6
691.187	4471.09
691.593	4505.33
692	4519.2
692.407	4582.97
692.813	4670.31
693.22	4724.11
693.626	4786.95
694.032	4819.23
694.439	4919.89
694.845	4980.79
695.251	5080.03
695.657	5155.72
696.063	5306.73
696.469	5396.13
696.875	5469.74
697.281	5476.34
697.687	5496.74
698.093	5495.01
698.498	5567.63
698.904	5604.98
699.31	5702.36
699.715	5746.61
700.12	5856.33
700.526	5826.26
700.931	5903.57
701.337	5945.94
701.742	5960.89
702.147	6076.47
702.552	6089.73
702.957	6161.19
703.362	6156.49
703.767	6175.91
704.172	6218.03
704.577	6096.37
704.981	6150.04
705.386	6143.13
705.791	6095.77
706.195	6198.18
706.6	6181.4
707.004	6294.99
707.408	6211.36
707.813	6229.21
708.217	6178.03
708.621	6154.01
709.025	6298.22
709.43	6268.82
709.834	6345.94
710.237	6438.19
710.641	6385.39
711.045	6394.25
711.449	6354.03
711.853	6369.08
712.256	6411.82
712.66	6442.48
713.064	6529.69
713.467	6550.85
713.87	6675.31
714.274	6675.25
714.677	6767.58
715.08	6924.18
715.484	7080.32
715.887	7280.38
716.29	7468.15
716.693	7656.32
717.096	7888.15
717.499	7966.39
717.901	7921.97
718.304	7917.09
718.707	7949.41
719.109	7824.81
719.512	7816.46
719.915	7658.91
720.317	7608.98
720.719	7699.1
721.122	7678.68
721.524	7620.62
721.926	7566.88
722.328	7703.43
722.731	7664.99
723.133	7662.27
723.535	7885.54
723.937	7864.43
724.338	7893.3
724.74	7913.33
725.142	7768.55
725.544	7753.19
725.945	7775.37
726.347	7764.44
726.748	7747.28
727.15	7761.94
727.551	7701.43
727.952	7659.63
728.354	7614.46
728.755	7620.44
729.156	7573.04
729.557	7603.55
729.958	7457.96
730.359	7413.98
730.76	7422.13
731.161	7375.89
731.562	7380.43
731.962	7427.05
732.363	7369.37
732.763	7309.63
733.164	7385.63
733.564	7307.78
733.965	7181.79
734.365	7139.62
734.766	7188.12
735.166	7131.97
735.566	7047.72
735.966	7000.91
736.366	6985.92
736.766	6894.95
737.166	6940.42
737.566	6882.7
737.966	6848.5
738.365	6908.29
738.765	6900.34
739.165	6790.58
739.564	6753.24
739.964	6822.39
740.363	6763.83
740.763	6767.18
741.162	6754.28
741.561	6712.37
741.96	6648.8
742.36	6679.95
742.759	6690.43
743.158	6751.59
743.557	6776.21
743.955	6838.92
744.354	6772.8
744.753	6854.24
745.152	6789.06
745.55	6868.78
745.949	6853.8
746.348	6851.65
746.746	6873.41
747.144	6805.18
747.543	6761.19
747.941	6821.77
748.339	6707.88
748.737	6687.28
749.136	6664.03
749.534	6747.42
749.932	6693.52
750.33	6719.54
750.727	6788.51
751.125	6745.66
751.523	6719.56
751.921	6770.44
752.318	6715.75
752.716	6794.25
753.113	6807.83
753.511	6833.13
753.908	6824.72
754.305	6792.32
754.703	6870.56
755.1	6945.58
755.497	7018.07
755.894	7259.96
756.291	7461.03
756.688	7816.66
757.085	8248.85
757.482	8846.16
757.878	9453.86
758.275	9941.46
758.672	10685.49
759.068	11215.27
759.465	12049.67
759.861	13124.62
760.258	14368.57
760.654	14868.16
761.05	14557.91
761.447	13866.98
761.843	12999.8
762.239	12150.02
762.635	11851.71
763.031	11550.43
763.427	11037.1
763.822	10489.23
764.218	9966.08
764.614	9223.89
765.01	8770.26
765.405	8519.04
765.801	8352.36
766.196	8074.72
766.592	7959.4
766.987	7662.53
767.382	7477.15
767.778	7437.38
768.173	7326.06
768.568	7275.49
768.963	7141.75
769.358	7191.96
769.753	7147.24
770.148	7046.6
770.542	7056.08
770.937	7022.51
771.332	7145.81
771.726	7175.1
772.121	7084.67
772.515	7154.82
772.91	7129.87
773.304	7224.97
773.699	7131.58
774.093	7202.47
774.487	7271.52
774.881	7320.9
775.275	7306.96
775.669	7248.55
776.063	7300.89
776.457	7340.98
776.851	7233.51
777.245	7217.16
777.638	7251.06
778.032	7393.36
778.425	7335.47
778.819	7379.74
779.212	7315.48
779.606	7254.22
779.999	7270.84
780.392	7234.82
780.786	7334.78
781.179	7351.14
781.572	7395.41
781.965	7401.7
782.358	7313.45
782.751	7374.87
783.143	7301
783.536	7379.47
783.929	7420.64
784.322	7550.24
784.714	7574.62
785.107	7550.73
785.499	7622.54
785.891	7573.29
786.284	7523.61
786.676	7680.47
787.068	7627.24
787.46	7665.55
787.852	7667.99
788.245	7749.6
788.636	7763.15
789.028	7823.85
789.42	7849.13
789.812	7839.02
790.204	7939.65
790.595	8046.91
790.987	7790.31
791.378	7811.31
791.77	7961.94
792.161	8118.67
792.553	8173.32
792.944	8020.25
793.335	7925.77
793.726	7998.38
794.117	8093.29
794.508	8245.05
794.899	8197.96
795.29	8359.33
795.681	8410.29
796.072	8222.52
796.463	7973.25
796.853	7968.33
797.244	8144.85
797.634	8164.88
798.025	8146.67
798.415	8142.64
798.806	8224.83
799.196	8300.98
799.586	8329.42
799.976	8261.27
800.366	8508.69
800.756	8772.28
801.146	8701.2
801.536	8714.22
801.926	8777.59
802.316	8789.58
802.706	8863.17
803.095	8711.92
803.485	8817.35
803.874	8854.73
804.264	9140.54
804.653	9098.32
805.043	9251.93
805.432	9365.17
805.821	9347.2
806.21	9354.23
806.599	9466.27
806.988	9482.77
807.377	9572.71
807.766	9686.57
808.155	9968.98
808.544	9633.1
808.933	9605.01
809.321	9535.69
809.71	9812.93
810.098	9934.76
810.487	10382.77
810.875	10843.25
811.264	10798.02
811.652	11027.11
812.04	11088.81
812.428	11178.8
812.816	11888.61
813.204	12226.44
813.592	12695.8
813.98	12948
814.368	12767.94
814.756	13175.44
815.144	13022.7
815.531	13427.7
815.919	13307.33
816.306	13572.01
816.694	13233.65
817.081	13269.1
817.469	13614.06
817.856	13623.31
818.243	13902.54
818.63	14298.85
819.017	13877.88
819.404	13926.37
819.791	14274.71
820.178	14834.03
820.565	15048.95
820.952	15930.41
821.339	15429.2
821.725	15585.53
822.112	14831.11
822.498	14762.4
822.885	14862.04
823.271	14749.49
823.657	15159.28
824.044	15174.59
824.43	15269.44
824.816	15243
825.202	14807.96
825.588	15770.03
825.974	15751.94
826.36	16221.08
826.746	16217.22
827.132	16521.94
827.517	16475.57
827.903	15678.96
828.289	15688.11
828.674	14911.28
829.06	14788.93
829.445	15155.11
829.83	15479.86
830.216	15915.23
830.601	16245.49
830.986	15834.2
831.371	15692.83
831.756	16208.26
832.141	15808.52
832.526	15789.72
832.911	16056.8
833.295	15948.46
833.68	16387.1
834.065	15796.1
834.449	14929.21
834.834	14857.5
835.218	14856.21
835.603	15178.29
835.987	14971.82
836.371	15741.52
836.755	15643.06
837.139	16012.98
837.524	16231.68
837.908	16051.19
838.291	16107.41
838.675	16161.81
839.059	16347.58
839.443	16326.33
839.827	16095.19
840.21	16532
840.594	16381.98
840.977	16567.22
841.361	16534.7
841.744	16873.51
842.127	16726.91
842.511	16943.05
842.894	17496.79
843.277	17840.8
843.66	18339.5
844.043	18402.35
844.426	17639.49
844.809	17341.96
845.191	17351.08
845.574	16917.59
845.957	16564.61
846.339	16440.88
846.722	15927.77
847.104	15958.7
847.487	15770.94
847.869	15763.49
848.252	15999.61
848.634	16284.2
849.016	16504.22
849.398	16597.38
849.78	17349.38
850.162	17333.8
850.544	17693.14
850.926	18248.02
851.307	18149.37
851.689	18381.93
852.071	18760.98
852.452	19029.75
852.834	18983.67
853.215	19319.04
853.597	19436.34
853.978	19684.14
854.359	20081.9
854.741	19175.55
855.122	19079.37
855.503	18822.34
855.884	18948.45
856.265	18895.85
856.646	19004.06
857.026	18645.21
857.407	18572.74
857.788	18713.36
858.169	18962.18
858.549	18186.39
858.93	18733.36
859.31	18765.18
859.69	18948.53
860.071	18569.32
860.451	18365.99
860.831	17686.78
861.211	18720.34
861.591	19208.58
861.971	19176.98
862.351	19339.01
862.731	19666.1
863.111	19872.77
863.491	20138.48
863.87	20871.11
864.25	21162.48
864.629	20777.89
865.009	21204.66
865.388	21924.74
865.768	23461.49
866.147	23341.47
866.526	22021.22
866.905	22273.55
867.284	23529.73
867.663	22336.31
868.042	21411.28
868.421	21333.96
868.8	21677.51
869.179	21890.9
869.558	20619.08
869.936	19009.71
870.315	19335.81
870.693	19807.86
871.072	21350.76
871.45	20333.49
871.828	20579.87
872.207	21630.56
872.585	21300.39
872.963	21876.53
873.341	21117.63
873.719	20852.55
874.097	20591.43
874.475	20991.19
874.853	21475.27
875.23	20578.34
875.608	21426.77
875.986	23183.71
876.363	22171.91
876.741	22839.21
877.118	22267.5
877.495	23355.15
877.873	23742.86
878.25	24958.58
878.627	23915.7
879.004	24224.66
879.381	24109.86
879.758	23467.79
880.135	21839.55
880.512	23077.19
880.889	22459.96
881.265	22215.22
881.642	22025.62
882.019	22391.25
882.395	21948.57
882.772	22825.27
883.148	21832.69
883.524	21723.9
883.901	21583.28
884.277	21896.65
884.653	21756.73
885.029	22364.54
885.405	24764.25
885.781	24547.57
886.157	23521.58
886.532	23797.35
886.908	23776.82
887.284	26432.72
887.659	27296.98
888.035	28150.37
888.411	28872.44
888.786	29231.43
889.161	30247.22
889.537	29677.89
889.912	30644.86
890.287	30602.33
890.662	31364.92
891.037	30765.23
891.412	28657.97
891.787	28339.78
892.162	27318.08
892.536	27922.02
892.911	26841.19
893.286	26243.26
893.66	25139.34
894.035	25713.91
894.409	27954.76
894.784	26788.41
895.158	27182.33
895.532	28741.99
895.906	29471.8
896.281	30109.87
896.655	29582.66
897.029	33765.51
897.402	35098.32
897.776	39019.32
898.15	38854.97
898.524	38407.44
898.898	38881.48
899.271	43509.72
899.645	37679.96
900.018	36173.29
900.392	37515.1
900.765	37837.88
901.138	35019.09
901.511	34499.23
901.884	31702.85
902.258	29261.05
902.631	30267.06
903.003	34875.06
903.376	31494.11
903.749	35330.61
904.122	37865.56
904.495	41709.26
904.867	42210.96
905.24	36633.57
905.612	34095.38
905.985	34843.75
906.357	36413.27
906.729	34709.11
907.102	29613.53
907.474	28453.05
907.846	28605.62
908.218	28187.79
908.59	24890.53
908.962	24062.79
909.334	25913.68
909.705	27217.35
910.077	26423.25
910.449	27500.83
910.82	28254.45
911.192	31083.44
911.563	32293.81
911.935	34553.08
912.306	34604.8
912.677	35718.16
913.048	35336.78
913.419	38292.67
913.79	38486.73
914.161	41248.71
914.532	39431.38
914.903	36252.2
915.274	34432.66
915.645	33928.24
916.015	29869.51
916.386	28487.25
916.756	30340.76
917.127	31327.31
917.497	28029.42
917.868	30536.67
918.238	29038.8
918.608	29881.9
918.978	30488.82
919.348	32291.81
919.718	33376.01
920.088	32178.56
920.458	33457.1
920.828	35215.25
921.198	33398.99
921.567	35676.79
921.937	27613.12
922.306	27873.91
922.676	30048.99
923.045	25086.39
923.415	23836.76
923.784	21711.31
924.153	22317.57
924.522	22278.16
924.891	20935.54
925.26	22427.98
925.629	21884.46
925.998	25162.45
926.367	24537.93
926.736	23345.69
927.104	27764.79
927.473	29799.93
927.842	35954.56
928.21	35539.79
928.578	37311.26
928.947	35253.04
929.315	35397.29
929.683	41440.75
930.051	41668.71
930.42	48310.82
930.788	41259.46
931.156	40903.84
931.523	38305.52
931.891	35326.57
932.259	33892.79
932.627	39247.02
932.994	55414.04
933.362	45752.23
933.729	39707.08
934.097	38014.57
934.464	32164.08
934.831	37075.61
935.199	36518.8
935.566	35417.11
935.933	35966.92
936.3	43582.29
936.667	33940.19
937.034	30642.46
937.401	30310.49
937.767	26154.94
938.134	23292.44
938.501	32894.62
938.867	35139.86
939.234	59508.12
939.6	50873.26
939.967	55951.67
940.333	37494.45
940.699	31947
941.065	25656.3
941.431	33648.92
941.798	32470.35
942.163	42666.31
942.529	26649.58
942.895	24493.31
943.261	15860.78
943.627	20795.57
943.992	18225.75
944.358	18245.31
944.723	18295.11
945.089	17823.74
945.454	16462.96
945.82	17582.2
946.185	16895.8
946.55	19566.27
946.915	17560.77
947.28	20591.39
947.645	18121.86
948.01	16741.02
948.375	17450.11
948.74	20919.59
949.104	24429.6
949.469	35300.43
949.834	62371.1
950.198	59169.34
950.562	35482.1
950.927	29543.26
951.291	35507.62
951.655	30241.42
952.02	28364.95
952.384	21458.9
952.748	18676.32
953.112	18209.94
953.476	15835.77
953.839	14648.91
954.203	14496.4
954.567	18111.1
954.931	28527.44
955.294	24414.91
955.658	24558.68
956.021	41761.63
956.385	70700.77
956.748	104378.58
957.111	161762.12
957.474	181751.52
957.837	204588.68
958.2	154806.44
958.563	55689.32
958.926	37634.76
959.289	57179.84
959.652	63901.47
960.015	47898.22
960.377	68817.48
960.74	78567.51
961.102	135621.15
961.465	145757.17
961.827	78272.89
962.189	150278.48
962.552	104358.85
962.914	83808.8
963.276	54432.61
963.638	44962.14
964	44540.79
964.362	30131.91
964.724	29126.01
965.085	20805.53
965.447	17049.39
965.809	19414.24
966.17	19421.27
966.532	21001.43
966.893	19304.63
967.255	17563.71
967.616	20753.93
967.977	16641.63
968.338	18176.24
968.699	14951.49
969.061	14954.29
969.421	15070.97
969.782	16919.14
970.143	14330.63
970.504	14877.77
970.865	16905.13
971.225	17281.94
971.586	16922.03
971.946	24134.49
972.307	20954.01
972.667	27400.42
973.027	28219.34
973.388	34192.51
973.748	23254.55
974.108	25275.77
974.468	34179.95
974.828	26362.31
975.188	20300.29
975.548	18639.42
975.907	15653.92
976.267	17567.28
976.627	14752.06
976.986	15283.87
977.346	14587.94
977.705	14050.05
978.064	12827.92
978.424	10664.48
978.783	11016.15
979.142	12566.52
979.501	12043.81
979.86	12745.34
980.219	12276.77
980.578	15833.78
980.937	17729.79
981.296	15798.26
981.654	16258.75
982.013	25246.76
982.371	32776.43
982.73	30596.01
983.088	34658.19
983.447	36969.1
983.805	52813.15
984.163	110433.12
984.521	122663.42
984.879	180047.66
985.237	-292875.53
985.595	282268.03
985.953	70185.49
986.311	40623.89
986.669	23634.53
987.026	20419.96
987.384	27496.58
987.741	28412.12
988.099	20342.38
988.456	16232.01
988.814	15209.55
989.171	13224.07
989.528	13072.3
989.885	13828.62
990.242	10936.68
990.599	13607.56
990.956	11126.44
991.313	7790.15
991.67	6406.51
992.027	6796.18
992.383	6035.14
992.74	5292.16
993.096	5556.02
993.453	5757.29
993.809	5965.63
994.165	7963.28
994.522	7317
994.878	8069.31
995.234	10110.83
995.59	9972.67
995.946	9423.05
996.302	10753.38
996.658	12434.48
997.013	13696.45
997.369	16245.23
997.725	20798.28
998.08	13472.06
998.436	20739.21
998.791	28644.37
999.147	28643.97
999.502	31297.42
999.857	22795.04
1000.212	37193.85
1000.567	53021.62
1000.922	30599.88
1001.277	19438.8
1001.632	14433.7
1001.987	18552.33
1002.342	13312.14
1002.696	10622.29
1003.051	8489.05
1003.406	10292.72
1003.76	10256.28
1004.114	10127.17
1004.469	8526.92
1004.823	7061.73
1005.177	7635.14
1005.531	6041.2
1005.885	5370.77
1006.239	6070.4
1006.593	7631.26
1006.947	10195.85
1007.301	7631.84
1007.655	8299.8
1008.008	6094.7
1008.362	6832.77
1008.715	9753.86
1009.069	8856.26
1009.422	13341.54
1009.776	26686.16
1010.129	17708.35
1010.482	14832.75
1010.835	12547.84
1011.188	26160.32
1011.541	24650.16
1011.894	-150592.96
1012.247	444592.62
1012.6	30274.99
1012.952	19089.4
1013.305	9851.05
1013.657	7134.31
1014.01	6759.86
1014.362	5592.97
1014.715	4969.12
1015.067	4325.77
1015.419	4232.55
1015.771	3745.11
1016.123	3338.79
1016.475	3434.25
1016.827	3660.43
1017.179	3935.09
1017.531	3968.67
1017.883	4045.98
1018.234	3884.71
1018.586	4920.95
1018.938	5218.82
1019.289	7212.38
1019.64	8306.4
1019.992	7699.55
1020.343	7082.44
1020.694	5596.49
1021.045	4964.35
1021.396	5662.21
1021.747	6095.72
1022.098	7347.67
1022.449	5319.47
1022.8	4958.48
1023.151	3459.28
1023.501	3073.24
1023.852	3358.52
1024.202	3482.81
1024.553	3813.84
1024.903	3727.57
1025.253	3195.36
1025.604	2883.06
1025.954	3575.72
1026.304	4373.08
1026.654	5085.88
1027.004	7486.43
1027.354	11998.13
1027.703	11264.38
1028.053	14796.01
1028.403	21551.29
1028.753	31141.24
1029.102	42425.47
1029.452	218510.11
1029.801	9458.4
1030.15	6105.1
1030.499	5170.57
897.758	2610.45
901.051	2569.6
904.343	2603.46
907.636	2602.2
910.928	2667.74
914.22	2576.96
917.511	2584.1
920.803	2648.27
924.094	2664.97
927.384	2649.02
930.675	2613.23
933.965	2567.24
937.255	2577.83
940.544	2544.9
943.834	2495.66
947.123	2436.42
950.411	2534.37
953.7	2508.2
956.988	2475.09
960.276	2416.45
963.563	2493.05
966.851	2489.87
970.138	2543.95
973.424	2536.29
976.711	2491.04
979.997	2610.51
983.283	2646.44
986.568	2552.85
989.853	2569.15
993.138	2597.3
996.423	2677.93
999.708	2616.53
1002.992	2676.8
1006.275	2525.3
1009.559	2565.12
1012.842	2674.62
1016.125	2610.76
1019.408	2593.06
1022.69	2678.53
1025.972	2695.78
1029.254	2670.4
1032.536	2605.64
1035.817	2632.42
1039.098	2577.96
1042.379	2711.95
1045.659	2715.56
1048.939	2650.84
1052.219	2670.29
1055.498	2678.23
1058.778	2663.21
1062.057	2646.74
1065.335	2669.97
1068.614	2686.28
1071.892	2672.88
1075.17	2745.27
1078.447	2737.73
1081.724	2725.11
1085.001	2760.14
1088.278	2735.63
1091.554	2747.22
1094.83	2743.61
1098.106	2775
1101.382	2817.56
1104.657	2819.46
1107.932	2812.1
1111.206	2780.43
1114.481	2736.81
1117.755	2741.33
1121.029	2720.88
1124.302	2771.4
1127.575	2727.25
1130.848	2715.21
1134.121	2675.37
1137.393	2626.06
1140.665	2692.63
1143.937	2665.96
1147.208	2628.1
1150.48	2666.38
1153.75	2653.74
1157.021	2685.03
1160.291	2658.24
1163.561	2702.21
1166.831	2690.54
1170.101	2721.56
1173.37	2696.22
1176.639	2641.5
1179.907	2700.95
1183.176	2707.07
1186.444	2713.71
1189.711	2741.93
1192.979	2755.31
1196.246	2710.96
1199.513	2728.17
1202.78	2727.32
1206.046	2735.96
1209.312	2761.19
1212.578	2784.33
1215.843	2739.57
1219.108	2712.61
1222.373	2737.07
1225.638	2700.8
1228.902	2683.88
1232.166	2648.71
1235.43	2633.5
1238.693	2655.18
1241.956	2650.92
1245.219	2690.39
1248.482	2685.48
1251.744	2678.58
1255.006	2824.49
1258.268	2776.53
1261.529	2721.84
1264.79	2729.24
1268.051	2835.87
1271.312	2849.07
1274.572	2812.77
1277.832	2804.14
1281.092	2794.32
1284.351	2766.56
1287.61	2746.15
1290.869	2663.15
1294.128	2642.96
1297.386	2729.07
1300.644	2714.94
1303.902	2721.54
1307.159	2587.12
1310.416	2639.97
1313.673	2664.14
1316.93	2651.44
1320.186	2695.71
1323.442	2738.39
1326.697	2728.85
1329.953	2718.47
1333.208	2740.08
1336.463	2723.16
1339.717	2665.68
1342.972	2793.19
1346.226	2773.63
1349.479	2708.2
1352.733	2676.29
1355.986	2700.14
1359.238	2675.86
1362.491	2677.26
1365.743	2682.71
1368.995	2677.08
1372.247	2688.24
1375.498	2713.42
1378.749	2728.77
1382	2682.91
1385.251	2735.87
1388.501	2697.24
1391.751	2681.33
1395	2653.19
1398.25	2684.84
1401.499	2692.01
1404.748	2622.15
1407.996	2612.26
1411.244	2596.54
1414.492	2578.56
1417.74	2556.4
1420.987	2564.28
1424.234	2621.86
1427.481	2598.14
1430.728	2656.38
1433.974	2629.97
1437.22	2643.89
1440.465	2645.57
1443.711	2611.22
1446.956	2646.42
1450.201	2633.08
1453.445	2676.39
1456.689	2655.18
1459.933	2666.78
1463.177	2700.13
1466.42	2671.73
1469.663	2652.84
1472.906	2644.98
1476.148	2714.1
1479.391	2686.44
1482.633	2653.33
1485.874	2663.41
1489.115	2650.94
1492.356	2657.11
1495.597	2632.5
1498.838	2635.98
1502.078	2606.09
1505.318	2558.37
1508.557	2599.87
1511.797	2580.34
1515.036	2639.35
1518.274	2632.18
1521.513	2605.42
1524.751	2627.07
1527.989	2638.63
1531.227	2652.89
1534.464	2646.3
1537.701	2664.72
1540.938	2683.15
1544.174	2637.08
1547.41	2634.34
1550.646	2672.85
1553.882	2708.87
1557.117	2763.66
1560.352	2775.17
1563.587	2734.41
1566.821	2694.89
1570.055	2729.44
1573.289	2701.91
1576.523	2775.8
1579.756	2784.72
1582.989	2802.6
1586.222	2766.23
1589.454	2802.03
1592.686	2773.6
1595.918	2802.73
1599.15	2792.69
1602.381	2864.15
1605.612	2821.63
1608.843	2918.17
1612.073	2833.09
1615.303	2815.93
1618.533	2808.94
1621.762	2808.12
1624.992	2797.25
1628.221	2783.49
1631.449	2768.01
1634.678	2821.91
1637.906	2778.63
1641.134	2816.69
1644.361	2772.15
1647.588	2761.16
1650.815	2778.61
1654.042	2755.23
1657.269	2785.77
1660.495	2738.79
1663.72	2762.93
1666.946	2726.02
1670.171	2671.65
1673.396	2646.52
1676.621	2633.87
1679.845	2654.26
1683.069	2672.81
1686.293	2712
1689.517	2688.6
1692.74	2620.11
1695.963	2649.59
1699.185	2665.09
1702.408	2642.45
1705.63	2682.27
1708.852	2694.76
1712.073	2668.24
1715.294	2652.88
1718.515	2712.11
1721.736	2663.73
1724.956	2653.21
1728.176	2678.59
1731.396	2698.79
1734.616	2685.91
1737.835	2714.18
1741.054	2693.09
1744.272	2686.22
1747.491	2714.41
1750.709	2768.59
1753.927	2677.05
1757.144	2719.49
1760.361	2761.49
1763.578	2756.06
1766.795	2698.7
1770.011	2702.77
1773.227	2741.36
1776.443	2777.28
1779.658	2820.84
1782.874	2765.94
1786.089	2741.16
1789.303	2742.9
1792.518	2751.43
1795.732	2739.93
1798.945	2745.33
1802.159	2796.61
1805.372	2702.23
1808.585	2687.39
1811.797	2690.81
1815.01	2737.53
1818.222	2741.44
1821.434	2726.91
1824.645	2784.9
1827.856	2768.83
1831.067	2804.06
1834.278	2761.49
1837.488	2745.54
1840.698	2892.7
1843.908	2818.32
1847.117	2780.98
1850.326	2667.82
1853.535	2766.82
1856.744	2779.9
1859.952	2693.5
1863.16	2695.06
1866.368	2718.11
1869.575	2820.89
1872.782	2706.61
1875.989	2644.9
1879.196	2727.35
1882.402	2718.79
1885.608	2759.21
1888.814	2664.65
1892.019	2564.01
1895.224	2617.22
1898.429	2599.84
1901.634	2577.27
1904.838	2556.6
1908.042	2602.31
1911.246	2614
1914.449	2547.87
1917.652	2542.35
1920.855	2526.98
1924.058	2574.29
1927.26	2610.53
1930.462	2639.72
1933.664	2662.61
1936.865	2601.47
1940.066	2607.34
1943.267	2557.98
1946.467	2571.87
1949.668	2596.14
1952.868	2662.24
1956.067	2640.41
1959.267	2572.66
1962.466	2599.8
1965.665	2584.42
1968.863	2580.9
1972.061	2594.73
1975.259	2594.6
1978.457	2673.15
1981.654	2629.13
1984.852	2632.77
1988.048	2569.1
1991.245	2569.29
1994.441	2654.63
1997.637	2639.58
2000.833	2619.23
2004.028	2659.22
2007.223	2716.2
2010.418	2690.43
2013.613	2650
2016.807	2623.34
2020.001	2630.21
2023.194	2670.87
2026.388	2650.19
2029.581	2596.63
2032.774	2644.21
2035.966	2647.96
2039.158	2580.59
2042.35	2608.13
2045.542	2539.46
2048.733	2636.34
2051.924	2657.79
2055.115	2684.85
2058.306	2630.26
2061.496	2689.24
2064.686	2748
2067.875	2666.13
2071.065	2681.15
2074.254	2706.79
2077.442	2655.13
2080.631	2742.63
2083.819	2639.63
2087.007	2624.29
2090.195	2593.91
2093.382	2627.82
2096.569	2607.73
2099.756	2564.67
2102.942	2588.17
2106.128	2596.33
2109.314	2589.06
2112.5	2555
2115.685	2531.24
2118.87	2540.27
2122.055	2605.62
2125.239	2573.59
2128.424	2550.53
2131.608	2651.23
2134.791	2634.21
2137.974	2688.59
2141.157	2673.76
2144.34	2626.25
2147.523	2640.98
2150.705	2655.05
2153.887	2636.15
2157.068	2585.17
2160.25	2585.9
2163.431	2622.87
2166.611	2569.29
2169.792	2585.05
2172.972	2481.29
2176.152	2558.58
2179.331	2592.38
2182.511	2574.2
2185.69	2602.8
2188.868	2595.81
2192.047	2650.34
2195.225	2642.35
2198.403	2591.16
2201.58	2582.67
2204.758	2579.36
2207.935	2663.02
2211.111	2549.44
2214.288	2533.81
2217.464	2573.91
2220.64	2545.34
2223.815	2598.71
2226.991	2521.53
2230.166	2541.51
2233.34	2571.23
2236.515	2595.58
2239.689	2665.17
2242.863	2610.43
2246.036	2669.35
2249.209	2667.41
2252.382	2702.18
2255.555	2689.25
2258.727	2628.88
2261.9	2667.87
2265.071	2658.44
2268.243	2661.09
2271.414	2593.57
2274.585	2558.14
2277.756	2621.56
2280.926	2577.76
2284.096	2618.15
2287.266	2525.9
2290.436	2582.09
2293.605	2610.83
2296.774	2636.63
2299.942	2658.44
2303.111	2675.95
2306.279	2724.94
2309.447	2711.42
2312.614	2691.57
2315.781	2709.69
2318.948	2681.13
2322.115	2720.22
2325.281	2622.34
2328.447	2642.79
2331.613	2619.68
2334.779	2593.48
2337.944	2594.85
2341.109	2591.99
2344.274	2572.73
2347.438	2536.61
2350.602	2564.72
2353.766	2584.07
2356.929	2569.2
2360.092	2609.86
2363.255	2561.8
2366.418	2498.84
2369.58	2607.52
2372.742	2403.16
2375.904	2416.55
2379.066	2396.03
2382.227	2428.82
2385.388	2392.68
2388.548	2316.65
2391.709	2370.87
2394.869	2349.8
2398.029	2444.55
2401.188	2456.37
2404.347	2392.68
2407.506	2528.39
2410.665	2558.76
2413.823	2564.06
2416.981	2523
2420.139	2551.12
2423.296	2601.58
2426.453	2573.51
2429.61	2602.06
2432.767	2538.39
2435.923	2575.79
2439.079	2541.39
2442.235	2587.98
2445.391	2515.25
2448.546	2545.01
2451.701	2592.05
2454.855	2565.78
2458.009	2617.4
2461.163	2617.27
2464.317	2573.77
2467.471	2609.51
2470.624	2644.17
2473.777	2614.28
2476.929	2627.66
2480.082	2654.93
2483.234	2619.32
2486.385	2572.31
2489.537	2565.51
2492.688	2527.78
2495.839	2547.2
2498.989	2558.67
2502.14	2542.17
2505.29	2528.61
2508.439	2553.24
2511.589	2478.44
2514.738	2488.58
2517.887	2518.83
2521.035	2587.05
2524.183	2568.65
2527.331	2548.75
2530.479	2524.84
2533.627	2534.7
