Data from C_2_HIR_WI_4N_Splice17_12-33-16-293.txt Node
Date: Sat Mar 14 12:33:16 EDT 2020
User: sa697716
Spectrometer: FLMS03696
Trigger mode: 0
Integration Time (sec): 3.180400E-1
Scans to average: 20
Electric dark correction enabled: true
Nonlinearity correction enabled: true
Boxcar width: 5
XAxis mode: Wavelengths
Number of Pixels in Spectrum: 2048
>>>>>Begin Spectral Data<<<<<
187.83	-407030.91
188.298	3003.49
188.766	1594.99
189.233	1453.2
189.701	2047.69
190.169	2785.14
190.636	1063.07
191.104	845.66
191.571	143.7
192.039	-14.76
192.506	-13.25
192.974	540.35
193.441	-831.26
193.908	-100.36
194.375	-0.65
194.842	117.78
195.31	199.88
195.777	190.53
196.244	531.7
196.711	903.09
197.177	1235.05
197.644	1866.79
198.111	3266.48
198.578	4585.44
199.045	3665.37
199.511	6031.84
199.978	7033.02
200.445	5905.52
200.911	6554.47
201.378	7376.14
201.844	6556.44
202.31	11097.26
202.777	11457.17
203.243	6295.8
203.709	5967.49
204.176	7063.23
204.642	5757.63
205.108	5363.93
205.574	4360.89
206.04	4004.82
206.506	3732.81
206.972	3537.48
207.438	3399.77
207.903	3845.51
208.369	3325.78
208.835	3272.02
209.301	3394.42
209.766	3475.93
210.232	3401.17
210.697	4210.13
211.163	5150.8
211.628	7699.78
212.094	6342.64
212.559	7636.92
213.024	4682.86
213.49	5640.8
213.955	5471.24
214.42	5336.62
214.885	4900.57
215.35	4651
215.815	4355.5
216.28	4565.91
216.745	3673.51
217.21	3875
217.675	3475.95
218.14	3761.99
218.604	4059.62
219.069	4442.32
219.534	4463.62
219.998	4997.32
220.463	5833.4
220.927	6949.35
221.392	6322.95
221.856	6220.25
222.32	7650.13
222.785	9252.16
223.249	11452.14
223.713	12604.01
224.177	12439.29
224.642	15787.06
225.106	19227.32
225.57	20815.73
226.034	15334.97
226.497	23105.66
226.961	20705.5
227.425	23958.19
227.889	26375.44
228.353	26207.15
228.816	53679.89
229.28	51010.18
229.744	42694.35
230.207	25797.01
230.671	25254.29
231.134	41521.38
231.597	47762.01
232.061	47520.09
232.524	46124.73
232.987	31705.04
233.45	28479.24
233.914	25463.16
234.377	26013.03
234.84	23761.2
235.303	27974.56
235.766	31159.52
236.229	32162.24
236.691	20207.07
237.154	22680.69
237.617	17071.14
238.08	17435.01
238.542	20364.88
239.005	14582.75
239.468	14461.15
239.93	13615.56
240.393	12369.03
240.855	10848.41
241.317	11091.68
241.78	13471.49
242.242	13901.61
242.704	14986.29
243.166	13030.8
243.629	11830.2
244.091	13565.24
244.553	14835.82
245.015	15925.23
245.477	20561.88
245.939	30116.23
246.4	31951.72
246.862	31031.34
247.324	29246.37
247.786	32633.01
248.247	42728
248.709	44018.14
249.17	32927.12
249.632	31065.79
250.093	36010.02
250.555	31065.82
251.016	18935.91
251.477	17922.88
251.939	19349.88
252.4	20281.36
252.861	24132.75
253.322	22460.24
253.783	26724.05
254.244	34670.71
254.705	27284.6
255.166	24244.46
255.627	23869.23
256.088	33635.59
256.549	35757.07
257.009	30755.58
257.47	37335.44
257.931	30369.88
258.391	22725.73
258.852	23391.84
259.312	24458.46
259.773	30172.15
260.233	25466.85
260.694	21461.17
261.154	24283.68
261.614	19480.33
262.074	17401.54
262.534	18037.84
262.994	16973.36
263.455	22550.65
263.915	18967.25
264.374	17847.02
264.834	19463.48
265.294	21536.54
265.754	22277.67
266.214	21061.15
266.673	19696.04
267.133	24798.03
267.593	24548.78
268.052	30006.35
268.512	26095.19
268.971	31466.55
269.431	34468.68
269.89	30846.07
270.349	46177.33
270.809	51416.59
271.268	46183.01
271.727	103513.19
272.186	67024
272.645	50275.49
273.104	36214.47
273.563	52355.67
274.022	41139.02
274.481	35018.24
274.94	26971.43
275.399	20055.25
275.857	23363
276.316	31614.45
276.775	28106.1
277.233	27710.82
277.692	25978.31
278.15	29424.89
278.609	30333.7
279.067	28093.78
279.525	26126.67
279.984	33775.77
280.442	40608.26
280.9	40058.85
281.358	26399.22
281.816	24670.75
282.274	24156.53
282.732	24952.76
283.19	25126.41
283.648	21730.06
284.106	23178.88
284.564	23610.15
285.021	21917.47
285.479	16342.64
285.937	14877.38
286.394	13069.45
286.852	13463.38
287.309	14181.48
287.767	13726.97
288.224	13050.43
288.682	14299.72
289.139	15682.7
289.596	14336.21
290.053	14901.09
290.511	18792.7
290.968	22767.72
291.425	30826.03
291.882	25608.69
292.339	22247.1
292.796	22028.47
293.252	20734.03
293.709	16471.71
294.166	14754.53
294.623	16275.97
295.079	15581.39
295.536	15654.22
295.992	14206.35
296.449	14048.16
296.905	14605.59
297.362	14003.12
297.818	14711.18
298.274	15276.98
298.731	15535.2
299.187	15369.58
299.643	16505.47
300.099	19976.78
300.555	21881
301.011	18272.76
301.467	17629.72
301.923	20612.2
302.379	20144.41
302.835	19792.64
303.291	19779.12
303.746	22572.87
304.202	28536.47
304.658	28665.54
305.113	19293.68
305.569	18965.9
306.024	20244.86
306.479	19261.57
306.935	16256.65
307.39	17732.32
307.845	16396.17
308.301	16534.95
308.756	16091.4
309.211	15511.29
309.666	15903.4
310.121	19766.35
310.576	20060.79
311.031	19925.67
311.486	22832.9
311.94	22824.18
312.395	30578.26
312.85	57519.27
313.305	282799.77
313.759	1467492.87
314.214	106403.59
314.668	84539.18
315.123	71237.2
315.577	25570.37
316.032	22775.32
316.486	28573.24
316.94	22573.63
317.394	15720.85
317.849	12212.41
318.303	11545.53
318.757	10890.83
319.211	12053.6
319.665	10520.63
320.119	10628.14
320.572	15196.45
321.026	14159.02
321.48	11771.17
321.934	12819.31
322.387	12837.72
322.841	13872.98
323.295	12497.61
323.748	14375.61
324.202	14569.87
324.655	17526.13
325.108	24529.41
325.562	17337.58
326.015	20632.13
326.468	15589.78
326.921	17424.81
327.374	16248.77
327.827	16926.98
328.28	19169.94
328.733	12866.36
329.186	11324.41
329.639	10789.74
330.092	9085.92
330.545	8676.95
330.997	8753.58
331.45	9604.65
331.903	11281.89
332.355	19403.93
332.808	18874.87
333.26	15563.56
333.713	16943.35
334.165	17094.69
334.617	22887.94
335.069	18486.2
335.522	33398.09
335.974	37074.74
336.426	33831.79
336.878	23450.14
337.33	11944.18
337.782	11686.24
338.234	14670.66
338.686	17510.85
339.137	20748.63
339.589	19517.97
340.041	15331.09
340.493	13173.76
340.944	13475.03
341.396	14527.68
341.847	12223.73
342.299	14415.72
342.75	17575.27
343.201	15339.29
343.653	17647.88
344.104	21616.67
344.555	16982.11
345.006	26331.96
345.457	20218.83
345.908	16052.3
346.359	15083.63
346.81	12253.53
347.261	12888.36
347.712	12679.91
348.163	13553.25
348.613	13717.18
349.064	12820.36
349.515	11248.08
349.965	11540.77
350.416	13870.66
350.866	15236.84
351.317	17204.32
351.767	28510.77
352.217	35984.95
352.668	29872.62
353.118	27449.92
353.568	26460.18
354.018	20952.28
354.468	22097.9
354.918	15894.97
355.368	13916.47
355.818	19641.4
356.268	56630.56
356.718	237181.43
357.168	59226.31
357.617	29747.23
358.067	33171.17
358.517	31155.62
358.966	36597.29
359.416	41100.45
359.865	44422.71
360.315	52878.66
360.764	24759.57
361.213	13878.74
361.663	13170.12
362.112	16258.19
362.561	26320.62
363.01	19807.83
363.459	16647.41
363.908	17996.72
364.357	15288.44
364.806	25808.34
365.255	17776.83
365.703	16291.55
366.152	16340
366.601	13264.04
367.05	10777.75
367.498	9817.74
367.947	10285.83
368.395	10728.16
368.844	9535.66
369.292	11472.02
369.74	7958.68
370.189	12186.08
370.637	14298.53
371.085	12329.38
371.533	15013.18
371.981	14466.81
372.429	13759.99
372.877	14343.58
373.325	12031.83
373.773	12252.11
374.221	10938.54
374.669	13541.47
375.116	11716.5
375.564	11792.42
376.012	13193.38
376.459	10902.16
376.907	13057.79
377.354	15801.67
377.801	14735.06
378.249	16936.21
378.696	21628.46
379.143	26251.26
379.591	28029.59
380.038	47503.15
380.485	34480.59
380.932	37386.88
381.379	34361.4
381.826	25405.26
382.273	18135.4
382.72	15924.72
383.166	15588.55
383.613	10154.12
384.06	9204.52
384.506	10725.86
384.953	7914.81
385.4	8026.33
385.846	7092.16
386.292	6975.68
386.739	6909.75
387.185	6943.7
387.631	7056.97
388.078	6977.53
388.524	7629.88
388.97	7187.42
389.416	6096.39
389.862	6591.8
390.308	6341.5
390.754	6554.82
391.2	7272.07
391.645	7663.21
392.091	7591.68
392.537	7604.82
392.983	7864.44
393.428	7958.74
393.874	8819.6
394.319	9274.17
394.765	9368.12
395.21	10404.54
395.655	10628.98
396.101	10875.61
396.546	10727.17
396.991	11876.85
397.436	12124.45
397.881	12935.41
398.326	13631.25
398.771	14250.91
399.216	13787.88
399.661	13639.78
400.106	14772.32
400.551	16357.97
400.995	15788.17
401.44	16681.13
401.885	16601.72
402.329	17674.48
402.774	17732.9
403.218	17807.03
403.663	17890.52
404.107	19075.24
404.551	19875.36
404.995	18880.31
405.44	18818.97
405.884	19689.36
406.328	19591.82
406.772	20015.12
407.216	18659.48
407.66	18504.93
408.104	18101.92
408.547	17311.11
408.991	17070.14
409.435	16702.56
409.879	16654.18
410.322	16632.6
410.766	16235.23
411.209	15637.52
411.653	15256.92
412.096	15151.41
412.54	15396.23
412.983	15492.74
413.426	15691.31
413.869	15890.18
414.312	15772.18
414.756	15449.09
415.199	14954.69
415.642	14707.17
416.085	14903.14
416.527	14969.5
416.97	15389.29
417.413	14691.12
417.856	14624.03
418.298	14527.13
418.741	14456.38
419.184	14458.01
419.626	15101.64
420.069	15091.78
420.511	15194.06
420.953	14870.73
421.396	14782.75
421.838	14478.69
422.28	14872.59
422.722	15044.33
423.164	15457.54
423.606	15378.39
424.048	15545.96
424.49	14874.37
424.932	14966.46
425.374	14907.01
425.816	15301.71
426.258	15601.72
426.699	15675.28
427.141	15253.19
427.582	15359.65
428.024	15179.24
428.465	15106.01
428.907	14802.2
429.348	14767.45
429.789	14849.17
430.231	14599.08
430.672	14854.46
431.113	14645.68
431.554	14670.43
431.995	14705.51
432.436	14455.71
432.877	14406.07
433.318	14322.48
433.759	14451.4
434.2	14589.29
434.64	14592.3
435.081	14783.21
435.522	14201.69
435.962	13881.43
436.403	13765.33
436.843	14160.16
437.284	14065.84
437.724	13872.52
438.164	14104.51
438.604	13906.9
439.045	13433.16
439.485	12914.65
439.925	12755.49
440.365	12534.69
440.805	12459.12
441.245	12308.86
441.685	11882.71
442.125	11831.23
442.564	11924.6
443.004	11629.09
443.444	11613.94
443.883	11646.65
444.323	11654.1
444.762	11777.07
445.202	11972.7
445.641	12166.8
446.081	12195.77
446.52	12268.28
446.959	12145.76
447.398	11849.27
447.837	11730.23
448.276	11540.27
448.716	11652.25
449.154	11763.15
449.593	11412.02
450.032	11312.67
450.471	11092.2
450.91	11035.86
451.349	10923.16
451.787	10824.19
452.226	10902.72
452.664	10819.63
453.103	10747.26
453.541	10641.49
453.98	10444.95
454.418	10396.23
454.856	10090.57
455.295	9973.65
455.733	9910.46
456.171	9871.69
456.609	9763.49
457.047	9630.89
457.485	9650.84
457.923	9571.11
458.361	9388.97
458.798	9401.18
459.236	9346.92
459.674	9434.4
460.111	9451.1
460.549	9376.59
460.987	9379.81
461.424	9367.68
461.862	9363.74
462.299	9247.12
462.736	9235.63
463.173	9300.44
463.611	9176.59
464.048	9178.62
464.485	9270.43
464.922	9229.06
465.359	9230.28
465.796	8988.5
466.233	8969.06
466.67	8895.91
467.106	8901.55
467.543	8885.27
467.98	8809.95
468.416	8662.64
468.853	8639.83
469.29	8410.7
469.726	8342.06
470.162	8131.92
470.599	8143.98
471.035	8075.69
471.471	7886.65
471.907	7857.35
472.344	7791.93
472.78	7762.94
473.216	7823.14
473.652	7673.1
474.088	7607.42
474.523	7495.4
474.959	7495.4
475.395	7354.77
475.831	7218.75
476.266	7179.79
476.702	7079.49
477.138	6905.64
477.573	6798.35
478.008	6671.76
478.444	6586.81
478.879	6526.31
479.314	6462.28
479.75	6359.5
480.185	6304.37
480.62	6270.08
481.055	6213.29
481.49	6154.08
481.925	6145.28
482.36	6127.3
482.795	6206.93
483.229	6294.55
483.664	6332.92
484.099	6264.28
484.534	6257.76
484.968	6224.88
485.403	6159.75
485.837	6082.25
486.271	5997.16
486.706	5929.84
487.14	5822.09
487.574	5666.22
488.009	5557.26
488.443	5457.89
488.877	5450.6
489.311	5423.19
489.745	5432.15
490.179	5430.65
490.613	5458.43
491.046	5460.48
491.48	5458.85
491.914	5417.41
492.348	5416.44
492.781	5407.29
493.215	5386.59
493.648	5373.69
494.082	5381.79
494.515	5352.7
494.948	5371.41
495.382	5387.2
495.815	5382.27
496.248	5384.29
496.681	5445.06
497.114	5496.13
497.547	5526
497.98	5567.47
498.413	5552.7
498.846	5570.75
499.279	5584.95
499.711	5572.94
500.144	5542.1
500.577	5558.71
501.009	5587.08
501.442	5594.55
501.874	5541.05
502.306	5510.46
502.739	5493.23
503.171	5551.15
503.603	5519.67
504.036	5526.89
504.468	5507.33
504.9	5521.85
505.332	5510.47
505.764	5475.87
506.196	5462.77
506.627	5492.53
507.059	5509.06
507.491	5516.52
507.923	5429.11
508.354	5448.61
508.786	5443.49
509.217	5475.11
509.649	5490.1
510.08	5527.11
510.512	5546.38
510.943	5560.43
511.374	5554.73
511.805	5590.45
512.237	5623.99
512.668	5729.11
513.099	5801.69
513.53	5863.79
513.961	5887.35
514.391	5962.11
514.822	6028.79
515.253	6116.32
515.684	6150.09
516.114	6201.62
516.545	6209.66
516.975	6239.26
517.406	6229.77
517.836	6157.58
518.267	6104.2
518.697	6100.3
519.127	6043.6
519.558	6005.29
519.988	5949.34
520.418	5924.34
520.848	5928.42
521.278	5901.14
521.708	5773.02
522.138	5766.2
522.567	5828.26
522.997	5866.64
523.427	5871.83
523.857	5877.23
524.286	5865.43
524.716	5871.9
525.145	5890.21
525.575	5885.07
526.004	5896.11
526.433	5952.73
526.863	5917.12
527.292	5842.86
527.721	5830.27
528.15	5823.9
528.579	5801.42
529.008	5815.36
529.437	5870.39
529.866	5894.85
530.295	5929.26
530.724	5942.59
531.152	6007.38
531.581	6026.37
532.01	6065.56
532.438	6074.1
532.867	6105.47
533.295	6148.38
533.723	6149.61
534.152	6126.05
534.58	6108.07
535.008	6041.87
535.436	6034.44
535.865	6049.74
536.293	6090.8
536.721	6132.62
537.149	6203.12
537.576	6200.05
538.004	6235.54
538.432	6258.07
538.86	6247.91
539.287	6271.5
539.715	6314.61
540.143	6330.57
540.57	6322.08
540.998	6316.1
541.425	6240.04
541.852	6184.48
542.28	6188.85
542.707	6147.87
543.134	6111.17
543.561	6106.75
543.988	6091.51
544.415	6102.58
544.842	6094.49
545.269	6078.74
545.696	6091.9
546.123	6153.11
546.549	6126.78
546.976	6092.16
547.403	6098.63
547.829	6116.45
548.256	6137.18
548.682	6135.07
549.108	6118.06
549.535	6128.89
549.961	6146.93
550.387	6111.12
550.813	6096.75
551.24	6127.81
551.666	6141.26
552.092	6116.02
552.518	6104.03
552.943	6086.47
553.369	6122.4
553.795	6150.05
554.221	6155.6
554.646	6150.46
555.072	6185.88
555.498	6209.13
555.923	6243.48
556.349	6295.79
556.774	6328.07
557.199	6332.88
557.625	6364.69
558.05	6344.14
558.475	6382.95
558.9	6381.95
559.325	6353.47
559.75	6338.26
560.175	6320.16
560.6	6304.07
561.025	6299.6
561.449	6307.47
561.874	6328.51
562.299	6336.89
562.723	6362.36
563.148	6323.07
563.572	6334.66
563.997	6369.01
564.421	6385.96
564.846	6383.21
565.27	6386.25
565.694	6372.19
566.118	6398.96
566.542	6413.44
566.966	6383.13
567.39	6354.97
567.814	6308.37
568.238	6300.76
568.662	6314.15
569.086	6320.19
569.509	6350.25
569.933	6299.81
570.357	6287.86
570.78	6230.53
571.204	6199.25
571.627	6183.89
572.05	6204.32
572.474	6231.16
572.897	6221.64
573.32	6227.34
573.743	6234.37
574.166	6203.13
574.589	6247.2
575.012	6258.44
575.435	6300.43
575.858	6312.42
576.281	6318.5
576.704	6308.07
577.126	6312.46
577.549	6317.01
577.972	6330.66
578.394	6332.71
578.817	6342.48
579.239	6315.55
579.661	6306.03
580.084	6279.62
580.506	6272.49
580.928	6301.49
581.35	6300.92
581.772	6322.78
582.194	6307.27
582.616	6290.95
583.038	6275.55
583.46	6276.67
583.882	6297.37
584.303	6353.79
584.725	6378.43
585.147	6397.17
585.568	6466.98
585.99	6537.64
586.411	6588.4
586.833	6672.56
587.254	6700.72
587.675	6783.39
588.096	6860.56
588.518	6861.02
588.939	6808.08
589.36	6816.58
589.781	6815.33
590.202	6692.87
590.623	6675.47
591.043	6682.17
591.464	6638.33
591.885	6629.45
592.305	6611.39
592.726	6553.3
593.147	6553.31
593.567	6524.1
593.987	6482.76
594.408	6449.63
594.828	6445.14
595.248	6397.16
595.669	6290.06
596.089	6236.36
596.509	6188.01
596.929	6100.2
597.349	6076.28
597.769	6007.55
598.189	5950.01
598.608	5927.89
599.028	5906.39
599.448	5880.05
599.867	5804.44
600.287	5770.82
600.706	5728.75
601.126	5665.77
601.545	5641.15
601.965	5623.8
602.384	5592.1
602.803	5598.34
603.222	5570.51
603.641	5542.1
604.061	5523.5
604.48	5512.84
604.898	5551.85
605.317	5584.96
605.736	5606.78
606.155	5608.34
606.574	5585.25
606.992	5624.91
607.411	5621.16
607.829	5613.83
608.248	5626.39
608.666	5644.03
609.085	5664.05
609.503	5650.95
609.921	5648.37
610.339	5682.84
610.758	5711.06
611.176	5719.02
611.594	5707.27
612.012	5722.58
612.43	5757.76
612.847	5811.9
613.265	5836.25
613.683	5884.93
614.101	5920.27
614.518	5936.77
614.936	5921.57
615.353	5882.2
615.771	5895.01
616.188	5922.75
616.606	5932.52
617.023	5930.36
617.44	5890.55
617.857	5891.21
618.274	5877.5
618.691	5868.42
619.108	5847.39
619.525	5840.53
619.942	5889.13
620.359	5918.26
620.776	5911.66
621.192	5904.23
621.609	5906.42
622.026	5946.76
622.442	5986.63
622.859	6014.46
623.275	5994.46
623.691	6030.17
624.108	6095.03
624.524	6176.39
624.94	6186.61
625.356	6243.98
625.772	6323.08
626.188	6392.68
626.604	6411.68
627.02	6401.06
627.436	6397.58
627.852	6436.76
628.268	6502.1
628.683	6472.54
629.099	6442.88
629.514	6436.1
629.93	6468.36
630.345	6504.32
630.761	6502.68
631.176	6537.78
631.591	6517.41
632.007	6508.63
632.422	6529.9
632.837	6501.07
633.252	6506.48
633.667	6481.83
634.082	6462.5
634.497	6426.54
634.911	6350.43
635.326	6364.34
635.741	6312.61
636.155	6307.72
636.57	6350.13
636.984	6389.11
637.399	6434.36
637.813	6485.42
638.228	6527.1
638.642	6605.08
639.056	6605.92
639.47	6672.47
639.884	6685.5
640.298	6711.05
640.712	6762.85
641.126	6756.19
641.54	6774.55
641.954	6822.63
642.368	6814.24
642.781	6819.11
643.195	6780.45
643.609	6849.67
644.022	6881.87
644.436	6924.32
644.849	6922.45
645.262	6917.51
645.676	7000.46
646.089	7030.68
646.502	6985.12
646.915	7012.45
647.328	6973.4
647.741	7009.99
648.154	6973.56
648.567	6981.56
648.98	6931.88
649.393	6974.83
649.805	6991.12
650.218	6978.29
650.631	6895.42
651.043	6890.25
651.456	6876.17
651.868	6915.28
652.28	7070.03
652.693	7196.79
653.105	7277.48
653.517	7369.99
653.929	7389.08
654.341	7451.97
654.753	7384.43
655.165	7471.29
655.577	7493.87
655.989	7513.68
656.401	7509.02
656.813	7280.83
657.224	7186.03
657.636	7048.71
658.047	6973.98
658.459	6896.93
658.87	6905.94
659.282	6891.6
659.693	6788.98
660.104	6734.81
660.515	6689.47
660.926	6740.97
661.338	6792.34
661.749	6811.97
662.159	6788.78
662.57	6827.35
662.981	6853.6
663.392	6848.92
663.803	6940.5
664.213	6989.07
664.624	7018.88
665.035	7106.77
665.445	7041.71
665.855	7022.32
666.266	6988.29
666.676	7017.19
667.086	6978.73
667.497	7002.94
667.907	6984.09
668.317	6935.4
668.727	6899.7
669.137	6935.73
669.547	6934.48
669.956	6981.91
670.366	7018.01
670.776	7048.76
671.186	7102.2
671.595	7138.41
672.005	7188.59
672.414	7178.77
672.824	7156.3
673.233	7232.68
673.642	7248.92
674.052	7266.38
674.461	7271.17
674.87	7314.57
675.279	7277.03
675.688	7294.87
676.097	7288.66
676.506	7245.41
676.915	7377.2
677.323	7397.87
677.732	7371.74
678.141	7360.66
678.549	7258.44
678.958	7246.07
679.366	7229.84
679.775	7274.12
680.183	7315.85
680.592	7349.02
681	7371.42
681.408	7270.02
681.816	7299.81
682.224	7338.31
682.632	7351.31
683.04	7546.26
683.448	7684.52
683.856	7847.17
684.264	8028.51
684.671	8195.63
685.079	8393.47
685.487	8601.44
685.894	8931.87
686.302	9146.42
686.709	9248.18
687.116	9395.55
687.524	9438.15
687.931	9419.93
688.338	9365.41
688.745	9284.49
689.152	9209.84
689.559	9197.91
689.966	9159.49
690.373	8981.21
690.78	8916.68
691.187	8978.84
691.593	8945.17
692	8879.14
692.407	8911.33
692.813	8991.87
693.22	9000.71
693.626	9034.39
694.032	8995.24
694.439	9079.41
694.845	9099.98
695.251	9183.97
695.657	9230.46
696.063	9418.9
696.469	9491.33
696.875	9544.13
697.281	9497.67
697.687	9479.11
698.093	9427.5
698.498	9518.04
698.904	9551.53
699.31	9686.91
699.715	9724.77
700.12	9871.56
700.526	9772.17
700.931	9862.53
701.337	9892
701.742	9865.42
702.147	10003.95
702.552	9979.01
702.957	10054.02
703.362	10006.89
703.767	9990.64
704.172	10019.78
704.577	9789.87
704.981	9846.44
705.386	9802.37
705.791	9697.71
706.195	9833.05
706.6	9782.96
707.004	9938.6
707.408	9779.49
707.813	9784.38
708.217	9679.03
708.621	9620.58
709.025	9822.19
709.43	9757.1
709.834	9857.4
710.237	9989.76
710.641	9892.61
711.045	9895.62
711.449	9825.95
711.853	9844.33
712.256	9904.6
712.66	9954.61
713.064	10098.83
713.467	10145.98
713.87	10370.34
714.274	10412.71
714.677	10598.25
715.08	10901.18
715.484	11209.34
715.887	11578.53
716.29	11948.03
716.693	12316.94
717.096	12755.99
717.499	12944.94
717.901	12919.08
718.304	12929.51
718.707	12965.84
719.109	12734.98
719.512	12689.77
719.915	12392.02
720.317	12291.22
720.719	12407.6
721.122	12353.5
721.524	12249.21
721.926	12142.66
722.328	12353.07
722.731	12291.71
723.133	12309.02
723.535	12693.78
723.937	12675.59
724.338	12742.86
724.74	12778.21
725.142	12488.71
725.544	12459.35
725.945	12469.29
726.347	12450.27
726.748	12414.56
727.15	12424.17
727.551	12309.06
727.952	12228.76
728.354	12149.01
728.755	12140.79
729.156	12058.05
729.557	12140.77
729.958	11881.08
730.359	11798.11
730.76	11774.5
731.161	11666.26
731.562	11634.68
731.962	11677.36
732.363	11553.56
732.763	11433.18
733.164	11537.33
733.564	11392.64
733.965	11180.85
734.365	11105.53
734.766	11169.65
735.166	11077.56
735.566	10948.41
735.966	10885.31
736.366	10861.99
736.766	10721.77
737.166	10790.13
737.566	10693.16
737.966	10633.39
738.365	10715.03
738.765	10695.29
739.165	10526.23
739.564	10469.4
739.964	10573.54
740.363	10474.5
740.763	10479.52
741.162	10456.09
741.561	10386.68
741.96	10287.6
742.36	10343.07
742.759	10367.48
743.158	10467.77
743.557	10512.84
743.955	10609.66
744.354	10512.9
744.753	10649.32
745.152	10553.91
745.55	10686.11
745.949	10674.98
746.348	10677.03
746.746	10714.28
747.144	10610.67
747.543	10550.6
747.941	10642.92
748.339	10470.18
748.737	10436.56
749.136	10392.57
749.534	10520.59
749.932	10431.08
750.33	10457.39
750.727	10556.98
751.125	10471.57
751.523	10410.37
751.921	10470.69
752.318	10366.47
752.716	10464.77
753.113	10464.49
753.511	10489.2
753.908	10457.67
754.305	10384.46
754.703	10489.4
755.1	10588.74
755.497	10693.11
755.894	11068.85
756.291	11387.27
756.688	11958.59
757.085	12658.62
757.482	13571.1
757.878	14441.99
758.275	15130.73
758.672	16248.68
759.068	17057.51
759.465	18331.4
759.861	19976.69
760.258	21842.23
760.654	22540.46
761.05	22009.25
761.447	20928.35
761.843	19690.09
762.239	18568.14
762.635	18264.48
763.031	17915.16
763.427	17199.36
763.822	16418.05
764.218	15658.44
764.614	14556.84
765.01	13898.88
765.405	13547.25
765.801	13308.41
766.196	12878.94
766.592	12705.62
766.987	12235.14
767.382	11939.5
767.778	11871.89
768.173	11695.12
768.568	11615.53
768.963	11405.82
769.358	11490.77
769.753	11427
770.148	11276.4
770.542	11304.06
770.937	11259.66
771.332	11476.17
771.726	11530.57
772.121	11397.08
772.515	11525.64
772.91	11504.29
773.304	11671.23
773.699	11537.47
774.093	11666.49
774.487	11795.95
774.881	11898.5
775.275	11893.01
775.669	11805.2
776.063	11907.44
776.457	11994.27
776.851	11830.19
777.245	11809.54
777.638	11879.77
778.032	12129.64
778.425	12042.46
778.819	12121.84
779.212	12016.41
779.606	11922.4
779.999	11962.16
780.392	11914.98
780.786	12089.33
781.179	12128.13
781.572	12212.33
781.965	12232.68
782.358	12098.18
782.751	12210.92
783.143	12099.85
783.536	12248.64
783.929	12326.04
784.322	12550.72
784.714	12600.02
785.107	12564.57
785.499	12690.86
785.891	12614.91
786.284	12541.6
786.676	12807.1
787.068	12722.72
787.46	12794.54
787.852	12800.88
788.245	12945.24
788.636	12976.56
789.028	13077.22
789.42	13122.63
789.812	13108.14
790.204	13281.97
790.595	13453.03
790.987	13022.75
791.378	13049.43
791.77	13298.21
792.161	13551.57
792.553	13637.87
792.944	13378.76
793.335	13212.66
793.726	13329.32
794.117	13476.49
794.508	13726.73
794.899	13643.17
795.29	13900.46
795.681	13987.14
796.072	13670.85
796.463	13233.64
796.853	13213.68
797.244	13484.23
797.634	13509.66
798.025	13469.35
798.415	13458.5
798.806	13581.12
799.196	13696.71
799.586	13732.77
799.976	13596.82
800.366	13981.81
800.756	14420.72
801.146	14289.87
801.536	14296.11
801.926	14384.2
802.316	14381.41
802.706	14466.68
803.095	14194.14
803.485	14343.15
803.874	14382.91
804.264	14836.69
804.653	14738.37
805.043	14952.18
805.432	15103.53
805.821	15045.89
806.21	15029.68
806.599	15178.65
806.988	15181.21
807.377	15291.19
807.766	15429.9
808.155	15833.73
808.544	15252.76
808.933	15163.94
809.321	15007.06
809.71	15386.42
810.098	15504.39
810.487	16111.74
810.875	16734.73
811.264	16560.66
811.652	16791.13
812.04	16776.42
812.428	16772.37
812.816	17690.47
813.204	18033.61
813.592	18560.64
813.98	18757.86
814.368	18343.12
814.756	18777.44
815.144	18416.19
815.531	18868.06
815.919	18596.02
816.306	18867.64
816.694	18322.99
817.081	18322.56
817.469	18768.74
817.856	18789.32
818.243	19189.34
818.63	19761.63
819.017	19194.22
819.404	19233.18
819.791	19618.55
820.178	20290.63
820.565	20479.6
820.952	21610.22
821.339	20869.54
821.725	21025.27
822.112	19938.38
822.498	19775.2
822.885	19838.42
823.271	19644.61
823.657	20181.3
824.044	20255.97
824.43	20414.87
824.816	20391.34
825.202	19798.14
825.588	21028.85
825.974	20938.48
826.36	21474.26
826.746	21388
827.132	21706.24
827.517	21538.36
827.903	20418.95
828.289	20336.57
828.674	19269.34
829.06	19071.73
829.445	19481.14
829.83	19860.59
830.216	20366.26
830.601	20739.48
830.986	20177.15
831.371	19962.05
831.756	20590.56
832.141	20041.62
832.526	20003.78
832.911	20314.63
833.295	20147.49
833.68	20686.54
834.065	19919.65
834.449	18832.37
834.834	18744.92
835.218	18733.33
835.603	19133.83
835.987	18861.12
836.371	19819.81
836.755	19678.15
837.139	20133.81
837.524	20399.44
837.908	20164.88
838.291	20205.07
838.675	20236.72
839.059	20435.2
839.443	20387.05
839.827	20069.78
840.21	20584.64
840.594	20367.2
840.977	20543.88
841.361	20452.81
841.744	20824.48
842.127	20587.8
842.511	20830.93
842.894	21473.6
843.277	21867.53
843.66	22431.09
844.043	22467.64
844.426	21503.85
844.809	21103.77
845.191	21090.85
845.574	20523.33
845.957	20065.27
846.339	19886.55
846.722	19215.67
847.104	19188.51
847.487	18904.26
847.869	18837.05
848.252	19072.84
848.634	19356.61
849.016	19562.33
849.398	19629.35
849.78	20476.44
850.162	20395.32
850.544	20752.64
850.926	21319.59
851.307	21132.52
851.689	21323.09
852.071	21696.02
852.452	21934.63
852.834	21836.83
853.215	22175.45
853.597	22262.93
853.978	22505.61
854.359	22922.14
854.741	21871.11
855.122	21784.63
855.503	21519.98
855.884	21684.35
856.265	21636.72
856.646	21751.25
857.026	21335.12
857.407	21257.91
857.788	21405.34
858.169	21667.48
858.549	20761.9
858.93	21364.89
859.31	21366.96
859.69	21532.7
860.071	21081.73
860.451	20816.33
860.831	20026.64
861.211	21146.74
861.591	21649.65
861.971	21558.36
862.351	21701.32
862.731	22015.8
863.111	22175.94
863.491	22391.53
863.87	23140.39
864.25	23371.65
864.629	22875.81
865.009	23272.14
865.388	24010.8
865.768	25634.82
866.147	25459.21
866.526	23969.52
866.905	24220.64
867.284	25557.51
867.663	24265.94
868.042	23270.07
868.421	23196.01
868.8	23578.64
869.179	23813.72
869.558	22408.13
869.936	20642.04
870.315	20991.53
870.693	21486.52
871.072	23134.99
871.45	22020.25
871.828	22277.24
872.207	23381.95
872.585	22980.54
872.963	23558.98
873.341	22714.63
873.719	22428.44
874.097	22120.65
874.475	22505.35
874.853	22993.93
875.23	22004.27
875.608	22898.09
875.986	24718.32
876.363	23603.64
876.741	24309.97
877.118	23677.92
877.495	24793.45
877.873	25152.74
878.25	26421
878.627	25295.9
879.004	25608.32
879.381	25448.89
879.758	24738.44
880.135	23008.33
880.512	24301.37
880.889	23604.28
881.265	23324.29
881.642	23097.5
882.019	23458.63
882.395	22962.14
882.772	23856.43
883.148	22790.15
883.524	22664.61
883.901	22489.87
884.277	22781.36
884.653	22590.4
885.029	23198.83
885.405	25651.45
885.781	25423.27
886.157	24336.51
886.532	24585.38
886.908	24523.4
887.284	27229.72
887.659	28073.33
888.035	28908.62
888.411	29621.21
888.786	29967.81
889.161	30975.22
889.537	30353.65
889.912	31254.18
890.287	31156.74
890.662	31904.98
891.037	31247.02
891.412	29032.8
891.787	28642.87
892.162	27540.88
892.536	28065.37
892.911	26890.31
893.286	26185.95
893.66	24988.36
894.035	25476.96
894.409	27575.92
894.784	26299.62
895.158	26581.19
895.532	28000.23
895.906	28590.67
896.281	29081.97
896.655	28448.43
897.029	32331.2
897.402	33498.26
897.776	37124.64
898.15	36841.19
898.524	36314.72
898.898	36669.83
899.271	40925.33
899.645	35362.03
900.018	33919.95
900.392	35179.55
900.765	35506.51
901.138	32904.28
901.511	32483.59
901.884	29916.4
902.258	27686.62
902.631	28712.8
903.003	33151.08
903.376	29995.77
903.749	33726.48
904.122	36182.38
904.495	39844.08
904.867	40324.14
905.24	34958.5
905.612	32460.49
905.985	33082.51
906.357	34485.1
906.729	32775.11
907.102	27900.45
907.474	26732.09
907.846	26800.63
908.218	26350.4
908.59	23223.23
908.962	22411.46
909.334	24103.55
909.705	25286.38
910.077	24523.75
910.449	25490
910.82	26163.42
911.192	28744.4
911.563	29836.27
911.935	31904.46
912.306	31922.08
912.677	32942.47
913.048	32564.78
913.419	35269.02
913.79	35422.17
914.161	37941.3
914.532	36229.02
914.903	33274.06
915.274	31578.79
915.645	31088
916.015	27352.32
916.386	26074.43
916.756	27780.14
917.127	28688.29
917.497	25666.88
917.868	27986.91
918.238	26629.5
918.608	27459.4
918.978	28082.74
919.348	29814.07
919.718	30893.36
920.088	29827.15
920.458	31054.49
920.828	32702.98
921.198	31032.67
921.567	33157.43
921.937	25679.36
922.306	25915.69
922.676	27908.88
923.045	23284.81
923.415	22095.8
923.784	20098.36
924.153	20651.19
924.522	20608.3
924.891	19347.9
925.26	20688.61
925.629	20156.58
925.998	23106.96
926.367	22498.31
926.736	21371.17
927.104	25358.13
927.473	27154.16
927.842	32644.16
928.21	32128.66
928.578	33559.09
928.947	31541.34
929.315	31520.78
929.683	36732.81
930.051	36796.12
930.42	42463.62
930.788	36042.98
931.156	35516.67
931.523	33062.55
931.891	30339.96
932.259	28948.51
932.627	33355.25
932.994	46935.45
933.362	38650.51
933.729	33458.17
934.097	31901.75
934.464	26925.37
934.831	30994.54
935.199	30497.6
935.566	29562.82
935.933	30049.7
936.3	36441.43
936.667	28410.38
937.034	25726.36
937.401	25507.83
937.767	22083.77
938.134	19748.23
938.501	27962.99
938.867	29958.93
939.234	50957.44
939.6	43717.88
939.967	48238.16
940.333	32500
940.699	27817.26
941.065	22351.82
941.431	29382.31
941.798	28413.58
942.163	37390.47
942.529	23358.57
942.895	21491.23
943.261	13882.01
943.627	18188.86
943.992	15914.28
944.358	15907.64
944.723	15947.79
945.089	15539.76
945.454	14342.71
945.82	15281.55
946.185	14672.25
946.55	17006.96
946.915	15242.36
947.28	17897.19
947.645	15760.61
948.01	14563.74
948.375	15168.12
948.74	18153.46
949.104	21164.24
949.469	30547.93
949.834	54019.9
950.198	51214.09
950.562	30676.12
950.927	25565.08
951.291	30740.65
951.655	26187.62
952.02	24547.81
952.384	18592.63
952.748	16212.23
953.112	15832.47
953.476	13763.99
953.839	12710.22
954.203	12579.61
954.567	15741.96
954.931	24803.04
955.294	21204.74
955.658	21308.03
956.021	36279.38
956.385	61430.13
956.748	90622.58
957.111	140416.73
957.474	157624.04
957.837	177455.83
958.2	134296.67
958.563	48332.69
958.926	32658.81
959.289	49564.83
959.652	55444.63
960.015	41601.65
960.377	59708.87
960.74	68174.12
961.102	117631.87
961.465	126541.32
961.827	68106.98
962.189	130897.25
962.552	90934.6
962.914	73062.34
963.276	47563.4
963.638	39356.86
964	39030.74
964.362	26441.01
964.724	25580.27
965.085	18288.25
965.447	15026.29
965.809	17089.77
966.17	17105.06
966.532	18524.73
966.893	17029.51
967.255	15516.24
967.616	18362.94
967.977	14737.31
968.338	16139.13
968.699	13309.7
969.061	13351.02
969.421	13466.14
969.782	15165.95
970.143	12864.74
970.504	13358.81
970.865	15236.47
971.225	15631.1
971.586	15322.56
971.946	21840.25
972.307	18953.52
972.667	24755.81
973.027	25468.34
973.388	30851.04
973.748	21001.86
974.108	22874.97
974.468	30914.66
974.828	23797.53
975.188	18255.52
975.548	16729.68
975.907	14052.16
976.267	15756.01
976.627	13270.79
976.986	13776.24
977.346	13126.94
977.705	12598.93
978.064	11462.22
978.424	9550.85
978.783	9875.47
979.142	11292.96
979.501	10837.69
979.86	11480.38
980.219	11068.12
980.578	14242.1
980.937	15961.31
981.296	14268
981.654	14744.98
982.013	22959.13
982.371	29821.86
982.73	27917.13
983.088	31667.59
983.447	33797.29
983.805	48356.57
984.163	101232.38
984.521	112788.93
984.879	165630.52
985.237	-270266.75
985.595	260763.23
985.953	64901.44
986.311	37568.74
986.669	21836.26
987.026	18861.91
987.384	25411.04
987.741	26327.64
988.099	18874.71
988.456	15041.97
988.814	14107.03
989.171	12245.39
989.528	12079.28
989.885	12780.5
990.242	10131.79
990.599	12643.11
990.956	10358.49
991.313	7258.23
991.67	5958.48
992.027	6329.3
992.383	5634.53
992.74	4937.59
993.096	5193.06
993.453	5379.54
993.809	5569.82
994.165	7418.98
994.522	6809.99
994.878	7509.66
995.234	9409.81
995.59	9284.92
995.946	8785.03
996.302	10038.19
996.658	11602.11
997.013	12778.09
997.369	15234.67
997.725	19582.96
998.08	12690.75
998.436	19559.61
998.791	27010.79
999.147	27111.9
999.502	29626.8
999.857	21570.1
1000.212	35132.62
1000.567	50215.94
1000.922	28976.2
1001.277	18384.29
1001.632	13643.45
1001.987	17558.16
1002.342	12592.43
1002.696	10078.87
1003.051	8038.14
1003.406	9735.47
1003.76	9677.58
1004.114	9553.64
1004.469	8027.68
1004.823	6662.41
1005.177	7181.97
1005.531	5705.47
1005.885	5079.96
1006.239	5727.23
1006.593	7187.08
1006.947	9628.66
1007.301	7223.98
1007.655	7889.18
1008.008	5799.43
1008.362	6525.4
1008.715	9319.42
1009.069	8472.91
1009.422	12757.24
1009.776	25546.86
1010.129	17072.22
1010.482	14314.89
1010.835	12071.21
1011.188	25219.87
1011.541	23773.95
1011.894	-145580.02
1012.247	428582.71
1012.6	29204.29
1012.952	18497.38
1013.305	9516.86
1013.657	6906.56
1014.01	6527.4
1014.362	5383.79
1014.715	4823.54
1015.067	4203
1015.419	4113.25
1015.771	3652.55
1016.123	3260.39
1016.475	3345.46
1016.827	3568.63
1017.179	3856.06
1017.531	3879.69
1017.883	3972.3
1018.234	3845.82
1018.586	4859.16
1018.938	5168.79
1019.289	7158.12
1019.64	8200.83
1019.992	7668.67
1020.343	7039.53
1020.694	5568.71
1021.045	4908.23
1021.396	5632.52
1021.747	6067.34
1022.098	7298.92
1022.449	5287.16
1022.8	4918.02
1023.151	3434.08
1023.501	3061.84
1023.852	3316.7
1024.202	3459.16
1024.553	3828.28
1024.903	3780.03
1025.253	3234.32
1025.604	2919.83
1025.954	3638.3
1026.304	4453.21
1026.654	5211.4
1027.004	7638.12
1027.354	12340.62
1027.703	11741.44
1028.053	15458.48
1028.403	22516.54
1028.753	32633.25
1029.102	44539.67
1029.452	228729.49
1029.801	9869.63
1030.15	6387.6
1030.499	5406.32
897.758	2760.99
901.051	2723.31
904.343	2760.33
907.636	2759.67
910.928	2823.71
914.22	2733.75
917.511	2742.05
920.803	2811.45
924.094	2833.44
927.384	2809.02
930.675	2771.37
933.965	2722.93
937.255	2730
940.544	2697.18
943.834	2624.43
947.123	2572.8
950.411	2667.81
953.7	2639.14
956.988	2604.8
960.276	2546.18
963.563	2633.45
966.851	2628.95
970.138	2691.44
973.424	2680.74
976.711	2628.22
979.997	2780.29
983.283	2810.1
986.568	2710.35
989.853	2734.43
993.138	2758.78
996.423	2841.2
999.708	2773.52
1002.992	2849.07
1006.275	2667.09
1009.559	2720.91
1012.842	2841.58
1016.125	2769.74
1019.408	2749.06
1022.69	2843.74
1025.972	2857.36
1029.254	2830.28
1032.536	2757.04
1035.817	2789.89
1039.098	2723.04
1042.379	2889.02
1045.659	2880.7
1048.939	2809.75
1052.219	2833.97
1055.498	2848.69
1058.778	2830.16
1062.057	2816.67
1065.335	2839.83
1068.614	2859.71
1071.892	2837.65
1075.17	2918.59
1078.447	2906.91
1081.724	2896.28
1085.001	2936.62
1088.278	2906.34
1091.554	2925.06
1094.83	2920.48
1098.106	2948.71
1101.382	2994.73
1104.657	2997.8
1107.932	2991.83
1111.206	2954.56
1114.481	2909.01
1117.755	2916.72
1121.029	2891.71
1124.302	2946.45
1127.575	2890.58
1130.848	2877.53
1134.121	2834.79
1137.393	2783.16
1140.665	2852.31
1143.937	2827.22
1147.208	2788.82
1150.48	2825.51
1153.75	2808.62
1157.021	2847.6
1160.291	2817.17
1163.561	2860.59
1166.831	2855.75
1170.101	2888.33
1173.37	2867.29
1176.639	2807.6
1179.907	2871.86
1183.176	2875.06
1186.444	2882.66
1189.711	2913.86
1192.979	2922.35
1196.246	2877.29
1199.513	2896.62
1202.78	2892.65
1206.046	2902.97
1209.312	2927.55
1212.578	2953.66
1215.843	2900.89
1219.108	2881.36
1222.373	2905.01
1225.638	2865.16
1228.902	2847.4
1232.166	2810.42
1235.43	2794.69
1238.693	2818.51
1241.956	2816.4
1245.219	2853.74
1248.482	2845.34
1251.744	2840.54
1255.006	2994.18
1258.268	2949.84
1261.529	2890.19
1264.79	2900.51
1268.051	3012
1271.312	3027.57
1274.572	2985.74
1277.832	2976.17
1281.092	2969.7
1284.351	2941.89
1287.61	2918.49
1290.869	2827.89
1294.128	2800.63
1297.386	2898.53
1300.644	2883.23
1303.902	2896.23
1307.159	2751.21
1310.416	2808.73
1313.673	2831.57
1316.93	2814.15
1320.186	2863.04
1323.442	2909.79
1326.697	2893.45
1329.953	2888.29
1333.208	2908.72
1336.463	2891.66
1339.717	2823.57
1342.972	2965.77
1346.226	2947.66
1349.479	2875.35
1352.733	2843.33
1355.986	2871.78
1359.238	2844.89
1362.491	2845.18
1365.743	2852.07
1368.995	2848.76
1372.247	2862.12
1375.498	2889.74
1378.749	2897.61
1382	2852.04
1385.251	2911.57
1388.501	2872.42
1391.751	2852.03
1395	2825.13
1398.25	2861.21
1401.499	2865.05
1404.748	2783.9
1407.996	2778.94
1411.244	2759.81
1414.492	2740.68
1417.74	2715.4
1420.987	2725.16
1424.234	2783.75
1427.481	2763.26
1430.728	2824.77
1433.974	2797.36
1437.22	2816.32
1440.465	2821.86
1443.711	2775.62
1446.956	2812.98
1450.201	2807.21
1453.445	2851.32
1456.689	2827.7
1459.933	2841.18
1463.177	2875.58
1466.42	2843.51
1469.663	2825.17
1472.906	2813.08
1476.148	2902.53
1479.391	2851.08
1482.633	2826.39
1485.874	2833.04
1489.115	2817.66
1492.356	2828.15
1495.597	2801.6
1498.838	2807.01
1502.078	2772.38
1505.318	2716.95
1508.557	2763.33
1511.797	2728.03
1515.036	2813.34
1518.274	2804.45
1521.513	2776.79
1524.751	2800.66
1527.989	2813.89
1531.227	2826
1534.464	2816.08
1537.701	2843.04
1540.938	2864.22
1544.174	2815.43
1547.41	2817.28
1550.646	2859.01
1553.882	2892.02
1557.117	2948.77
1560.352	2966.03
1563.587	2918.47
1566.821	2876.2
1570.055	2914.29
1573.289	2883.82
1576.523	2965.82
1579.756	2970.56
1582.989	2988.23
1586.222	2949.52
1589.454	2989.58
1592.686	2957.8
1595.918	2983.13
1599.15	2970.28
1602.381	3054.6
1605.612	3004.94
1608.843	3104.46
1612.073	3012.07
1615.303	2994.8
1618.533	2984.38
1621.762	2987.53
1624.992	2975.69
1628.221	2962.03
1631.449	2944.64
1634.678	3012.71
1637.906	2962.35
1641.134	3005.09
1644.361	2957.51
1647.588	2943.85
1650.815	2962.41
1654.042	2941.12
1657.269	2971.8
1660.495	2919.75
1663.72	2928.25
1666.946	2892.53
1670.171	2823.49
1673.396	2797.71
1676.621	2788.42
1679.845	2815.73
1683.069	2840.86
1686.293	2886.87
1689.517	2854.62
1692.74	2778.27
1695.963	2809.85
1699.185	2837.1
1702.408	2813.91
1705.63	2858.76
1708.852	2869.76
1712.073	2842.14
1715.294	2820.29
1718.515	2884.15
1721.736	2826.54
1724.956	2822.36
1728.176	2849.92
1731.396	2872.33
1734.616	2862.23
1737.835	2885.06
1741.054	2869.43
1744.272	2865.89
1747.491	2893.36
1750.709	2952.29
1753.927	2848.07
1757.144	2896.38
1760.361	2937.17
1763.578	2931.83
1766.795	2871.3
1770.011	2878.6
1773.227	2927.1
1776.443	2959.46
1779.658	3001.54
1782.874	2946.07
1786.089	2922.22
1789.303	2924.13
1792.518	2933.01
1795.732	2919.29
1798.945	2928.35
1802.159	2981.41
1805.372	2876.34
1808.585	2855.56
1811.797	2855.46
1815.01	2910.59
1818.222	2907.54
1821.434	2864.44
1824.645	2928.69
1827.856	2907.65
1831.067	2942.87
1834.278	2906.23
1837.488	2885.7
1840.698	3043.93
1843.908	2962.16
1847.117	2929.39
1850.326	2803.02
1853.535	2914.93
1856.744	2957.4
1859.952	2867.76
1863.16	2870.51
1866.368	2893.69
1869.575	2996.12
1872.782	2881.08
1875.989	2820.05
1879.196	2912.7
1882.402	2901.6
1885.608	2943.32
1888.814	2838.73
1892.019	2727.69
1895.224	2780.18
1898.429	2761.52
1901.634	2739.67
1904.838	2715.19
1908.042	2762.03
1911.246	2768.82
1914.449	2692.26
1917.652	2690.35
1920.855	2673.85
1924.058	2727.61
1927.26	2761.85
1930.462	2793.14
1933.664	2817.41
1936.865	2753.83
1940.066	2759.06
1943.267	2710.28
1946.467	2724.16
1949.668	2753.17
1952.868	2822.33
1956.067	2797.36
1959.267	2727.09
1962.466	2756.36
1965.665	2740.84
1968.863	2736.02
1972.061	2753.74
1975.259	2754.76
1978.457	2832.1
1981.654	2789.65
1984.852	2790.72
1988.048	2717.68
1991.245	2722.27
1994.441	2810.06
1997.637	2803.06
2000.833	2784.42
2004.028	2824.56
2007.223	2879.78
2010.418	2856.09
2013.613	2818.11
2016.807	2784.64
2020.001	2795.73
2023.194	2842.27
2026.388	2818.11
2029.581	2760.95
2032.774	2805.73
2035.966	2808.43
2039.158	2738.43
2042.35	2763.39
2045.542	2693.07
2048.733	2800.55
2051.924	2830.9
2055.115	2858.66
2058.306	2798.56
2061.496	2861.03
2064.686	2929.25
2067.875	2843.77
2071.065	2865.08
2074.254	2892.38
2077.442	2842.5
2080.631	2934.37
2083.819	2814.8
2087.007	2793.39
2090.195	2761.67
2093.382	2802.61
2096.569	2780.05
2099.756	2731.8
2102.942	2752.4
2106.128	2750.1
2109.314	2746.63
2112.5	2705.49
2115.685	2680.89
2118.87	2692.37
2122.055	2760.34
2125.239	2724.55
2128.424	2692.36
2131.608	2806.4
2134.791	2790.31
2137.974	2853.64
2141.157	2839.37
2144.34	2782.3
2147.523	2806.98
2150.705	2817.93
2153.887	2801.08
2157.068	2744.96
2160.25	2748.64
2163.431	2793.72
2166.611	2733.44
2169.792	2745.95
2172.972	2635.05
2176.152	2720
2179.331	2758.41
2182.511	2733.51
2185.69	2765.19
2188.868	2753.52
2192.047	2814.55
2195.225	2799.26
2198.403	2747.03
2201.58	2740.82
2204.758	2741.15
2207.935	2824.58
2211.111	2704.86
2214.288	2688.25
2217.464	2727.45
2220.64	2702.79
2223.815	2763.75
2226.991	2679.6
2230.166	2703.02
2233.34	2730.86
2236.515	2759.49
2239.689	2831.28
2242.863	2774.56
2246.036	2834.33
2249.209	2835.05
2252.382	2877.09
2255.555	2858.98
2258.727	2790.52
2261.9	2834.31
2265.071	2824.56
2268.243	2826.4
2271.414	2753.25
2274.585	2710.59
2277.756	2780.21
2280.926	2736.88
2284.096	2782.17
2287.266	2679.97
2290.436	2737.87
2293.605	2770.57
2296.774	2797.72
2299.942	2824.27
2303.111	2839.27
2306.279	2885.32
2309.447	2875.32
2312.614	2852.77
2315.781	2870.87
2318.948	2839.86
2322.115	2879.98
2325.281	2781.43
2328.447	2803.55
2331.613	2780.45
2334.779	2748.4
2337.944	2754.55
2341.109	2753.56
2344.274	2730.77
2347.438	2694.36
2350.602	2721.88
2353.766	2737.62
2356.929	2722.95
2360.092	2767.12
2363.255	2714.5
2366.418	2639.82
2369.58	2763.45
2372.742	2530.57
2375.904	2548.82
2379.066	2522.61
2382.227	2562.59
2385.388	2522.97
2388.548	2445.77
2391.709	2504.44
2394.869	2477.48
2398.029	2588.84
2401.188	2606.11
2404.347	2530.9
2407.506	2688.47
2410.665	2716.89
2413.823	2726.94
2416.981	2677.75
2420.139	2714.11
2423.296	2765.17
2426.453	2738.03
2429.61	2766.92
2432.767	2688.98
2435.923	2726.71
2439.079	2688.43
2442.235	2739.83
2445.391	2659.98
2448.546	2687
2451.701	2739.43
2454.855	2705.95
2458.009	2762.1
2461.163	2768.87
2464.317	2720.96
2467.471	2757.54
2470.624	2799.21
2473.777	2772.42
2476.929	2784.78
2480.082	2812.1
2483.234	2774.01
2486.385	2731.18
2489.537	2720.87
2492.688	2677.77
2495.839	2694.39
2498.989	2706.99
2502.14	2686.98
2505.29	2668.1
2508.439	2697.04
2511.589	2614.82
2514.738	2630.65
2517.887	2663.87
2521.035	2724.15
2524.183	2714.35
2527.331	2691.07
2530.479	2658.85
2533.627	2670.67
