Data from C_2_DEC_VA_2N_Splice17_12-08-29-251.txt Node
Date: Sat Mar 14 12:08:29 EDT 2020
User: sa697716
Spectrometer: FLMS03696
Trigger mode: 0
Integration Time (sec): 3.180400E-1
Scans to average: 20
Electric dark correction enabled: true
Nonlinearity correction enabled: true
Boxcar width: 5
XAxis mode: Wavelengths
Number of Pixels in Spectrum: 2048
>>>>>Begin Spectral Data<<<<<
187.83	-222764.3
188.298	1803.98
188.766	962.48
189.233	854.4
189.701	1174.39
190.169	1635.82
190.636	556.99
191.104	460.77
191.571	50.27
192.039	-81.38
192.506	-35.95
192.974	355.38
193.441	-287.09
193.908	-18.93
194.375	12.3
194.842	2.8
195.31	49.99
195.777	145.81
196.244	401.96
196.711	508.72
197.177	623.4
197.644	886.33
198.111	1499.25
198.578	2091.76
199.045	1697.51
199.511	2791.21
199.978	3303.38
200.445	2800.38
200.911	3078.07
201.378	3415.13
201.844	3079.97
202.31	5264.37
202.777	5528.83
203.243	3059.28
203.709	2924.71
204.176	3436.58
204.642	2819.72
205.108	2616.5
205.574	2125.22
206.04	1942.76
206.506	1834.12
206.972	1738.72
207.438	1690.01
207.903	1910
208.369	1675.19
208.835	1665.83
209.301	1761.36
209.766	1811.77
210.232	1795.97
210.697	2228.43
211.163	2750.86
211.628	4132.66
212.094	3443.21
212.559	4181.26
213.024	2580.22
213.49	3136.26
213.955	3054.36
214.42	2978.82
214.885	2740.78
215.35	2619.41
215.815	2504.54
216.28	2625.84
216.745	2107.66
217.21	2272.46
217.675	2051.54
218.14	2290.99
218.604	2518.96
219.069	2816.33
219.534	2899.72
219.998	3308.26
220.463	3939.14
220.927	4765.27
221.392	4451.35
221.856	4465.46
222.32	5550.61
222.785	6823.12
223.249	8515.38
223.713	9446.74
224.177	9422.71
224.642	11989.26
225.106	14744.8
225.57	16074.96
226.034	11935.91
226.497	18101.49
226.961	16341.55
227.425	19005.07
227.889	21045.22
228.353	21015.56
228.816	43323.25
229.28	41419.66
229.744	35022.39
230.207	21275.82
230.671	20917.26
231.134	34606.15
231.597	39921.79
232.061	39905.13
232.524	38834.58
232.987	26723.2
233.45	24049.09
233.914	21566.61
234.377	22041.94
234.84	20161.38
235.303	23731.55
235.766	26491.79
236.229	27318.04
236.691	17177.08
237.154	19293.58
237.617	14555.17
238.08	14925.04
238.542	17464.98
239.005	12486.86
239.468	12407.44
239.93	11705.9
240.393	10655.47
240.855	9349.5
241.317	9590.12
241.78	11687.32
242.242	12080.75
242.704	13036.36
243.166	11329.97
243.629	10296.12
244.091	11860.22
244.553	12988.58
245.015	13961.94
245.477	18042.68
245.939	26430.44
246.4	28062.16
246.862	27206.21
247.324	25667.21
247.786	28713.53
248.247	37654.85
248.709	38825.78
249.17	29090.46
249.632	27472.47
250.093	31817.22
250.555	27464
251.016	16753.15
251.477	15860.35
251.939	17108.8
252.4	17914.51
252.861	21277.74
253.322	19781.39
253.783	23528.48
254.244	30419.52
254.705	23922.37
255.166	21238.12
255.627	20907.93
256.088	29485.84
256.549	31276.91
257.009	26944.06
257.47	32660.05
257.931	26608.99
258.391	19908.27
258.852	20463.78
259.312	21455.26
259.773	26439.24
260.233	22301.73
260.694	18792.82
261.154	21282.09
261.614	17073.2
262.074	15243.01
262.534	15826.47
262.994	14873.4
263.455	19788.63
263.915	16651.88
264.374	15615.58
264.834	17012.74
265.294	18819.43
265.754	19445.84
266.214	18351.21
266.673	17159.67
267.133	21604.71
267.593	21375.47
268.052	26093.04
268.512	22638.7
268.971	27280.62
269.431	29937.26
269.89	26793.18
270.349	40107.13
270.809	44680.06
271.268	40165.68
271.727	89963.68
272.186	58189.13
272.645	43613.12
273.104	31415.7
273.563	45455.85
274.022	35728.13
274.481	30354.76
274.94	23386.28
275.399	17396.61
275.857	20240.87
276.316	27309.72
276.775	24278.24
277.233	23930.05
277.692	22395.9
278.15	25362.02
278.609	26109.75
279.067	24139.84
279.525	22451.98
279.984	28947.39
280.442	34775.95
280.9	34298.95
281.358	22610.58
281.816	21097.22
282.274	20641.21
282.732	21343.32
283.19	21464.88
283.648	18546.23
284.106	19762.62
284.564	20103.41
285.021	18682.79
285.479	13928.27
285.937	12671.07
286.394	11136.75
286.852	11466.03
287.309	12074.6
287.767	11673.94
288.224	11100.86
288.682	12170.36
289.139	13385.09
289.596	12239.98
290.053	12697.83
290.511	15997.03
290.968	19389.45
291.425	26258.14
291.882	21860.43
292.339	19014.25
292.796	18867.58
293.252	17784.26
293.709	14132.73
294.166	12640.04
294.623	13961.3
295.079	13388.74
295.536	13493.13
295.992	12239.57
296.449	12106.88
296.905	12586.29
297.362	12061.39
297.818	12681.24
298.274	13155.15
298.731	13389.48
299.187	13258.53
299.643	14239.32
300.099	17245.12
300.555	18870.16
301.011	15794.51
301.467	15266.76
301.923	17854.22
302.379	17464.14
302.835	17155.11
303.291	17185.25
303.746	19580.19
304.202	24746.78
304.658	24871.63
305.113	16738.32
305.569	16421.62
306.024	17485.43
306.479	16623.98
306.935	14046.97
307.39	15342.06
307.845	14169.21
308.301	14269.8
308.756	13899.15
309.211	13411.56
309.666	13743.44
310.121	17112.96
310.576	17387.95
311.031	17306.83
311.486	19837.46
311.94	19817.17
312.395	26509.72
312.85	49887.69
313.305	244900.73
313.759	1272562.06
314.214	92442.44
314.668	73355.6
315.123	61643.98
315.577	22167.13
316.032	19725.61
316.486	24719.51
316.94	19514.36
317.394	13609.59
317.849	10568.19
318.303	10005.01
318.757	9424.69
319.211	10412.62
319.665	9107.07
320.119	9210.89
320.572	13142.24
321.026	12273.3
321.48	10198.81
321.934	11109.62
322.387	11116.87
322.841	12026.45
323.295	10841.92
323.748	12499.04
324.202	12660.97
324.655	15214.77
325.108	21285.36
325.562	15074.87
326.015	17899.51
326.468	13559.3
326.921	15131.41
327.374	14132.12
327.827	14715.99
328.28	16644.24
328.733	11167.6
329.186	9819.06
329.639	9351.4
330.092	7872.07
330.545	7505
330.997	7596.22
331.45	8303.28
331.903	9776.84
332.355	16805.52
332.808	16304.41
333.26	13448.98
333.713	14581.38
334.165	14678.35
334.617	19628.83
335.069	15866.84
335.522	28701.01
335.974	31745.83
336.426	29011.36
336.878	20042.13
337.33	10159.12
337.782	9945.36
338.234	12488.63
338.686	14942.53
339.137	17755.15
339.589	16722.24
340.041	13123.52
340.493	11262.75
340.944	11546.73
341.396	12434.55
341.847	10485.45
342.299	12384.08
342.75	15177.6
343.201	13221.72
343.653	15206.26
344.104	18622.55
344.555	14635.29
345.006	22765.74
345.457	17465.77
345.908	13846.61
346.359	13036.02
346.81	10601.13
347.261	11169.58
347.712	10939.28
348.163	11714.08
348.613	11860.17
349.064	11094.65
349.515	9709.46
349.965	9958.19
350.416	11962.1
350.866	13159.55
351.317	14856.1
351.767	24615.6
352.217	31108.65
352.668	25858.93
353.118	23761.46
353.568	22888.86
354.018	18157.28
354.468	19177.72
354.918	13776.43
355.368	12087.68
355.818	17042.74
356.268	49080.61
356.718	205478.7
357.168	51129.75
357.617	25668.37
358.067	28483.87
358.517	26759.8
358.966	31352.74
359.416	35177.53
359.865	37961.4
360.315	45171.63
360.764	21104.64
361.213	11848.76
361.663	11231.59
362.112	13852.97
362.561	22400.22
363.01	16949.56
363.459	14231.5
363.908	15374.32
364.357	13099.68
364.806	22142.69
365.255	15226.22
365.703	13969.72
366.152	13993.1
366.601	11363.07
367.05	9254.99
367.498	8407.54
367.947	8783.68
368.395	9148.55
368.844	8117.97
369.292	9753.64
369.74	6744.61
370.189	10336.45
370.637	12104.5
371.085	10435.86
371.533	12725.55
371.981	12231.95
372.429	11693.42
372.877	12205.22
373.325	10237.84
373.773	10445.32
374.221	9313.93
374.669	11570.59
375.116	10016.69
375.564	10135.31
376.012	11372.92
376.459	9404.5
376.907	11308.68
377.354	13695.18
377.801	12825.69
378.249	14802.96
378.696	18968.75
379.143	23124.05
379.591	24751.66
380.038	42072.42
380.485	30468.42
380.932	33041.28
381.379	30372.97
381.826	22412.65
382.273	15989.5
382.72	14017.71
383.166	13731.71
383.613	8951.72
384.06	8105.93
384.506	9439.58
384.953	6969.33
385.4	7078.16
385.846	6227.51
386.292	6098.03
386.739	6003.56
387.185	5983.02
387.631	6017.9
388.078	5889.91
388.524	6356.24
388.97	5916.18
389.416	4980.18
389.862	5341.83
390.308	5086.21
390.754	5209.74
391.2	5689.97
391.645	5883.26
392.091	5671.51
392.537	5533.83
392.983	5569.8
393.428	5532.39
393.874	5987.49
394.319	6063.72
394.765	5804.11
395.21	6026.04
395.655	5705.67
396.101	5401.04
396.546	4922.76
396.991	5010.3
397.436	4692.97
397.881	4583.82
398.326	4379.97
398.771	4168.93
399.216	3675.02
399.661	3334.52
400.106	3348.88
400.551	3452.74
400.995	3119.44
401.44	3101.25
401.885	2937.79
402.329	2992.58
402.774	2885.62
403.218	2804.68
403.663	2719.88
404.107	2811.1
404.551	2852.27
404.995	2631.59
405.44	2546.69
405.884	2598.85
406.328	2529.86
406.772	2538.06
407.216	2323.61
407.66	2259.64
408.104	2158.68
408.547	2034.59
408.991	1974.3
409.435	1908.89
409.879	1893.15
410.322	1880.37
410.766	1827
411.209	1741.89
411.653	1677.04
412.096	1648.04
412.54	1654.79
412.983	1650.81
413.426	1658.58
413.869	1664.82
414.312	1638.57
414.756	1580.37
415.199	1511.82
415.642	1471.27
416.085	1479.91
416.527	1473.87
416.97	1498.73
417.413	1426.18
417.856	1416.24
418.298	1404
418.741	1398.56
419.184	1398.38
419.626	1462.47
420.069	1463.84
420.511	1472.96
420.953	1443.74
421.396	1432.08
421.838	1400.58
422.28	1430.1
422.722	1435.9
423.164	1459.21
423.606	1434.88
424.048	1429.05
424.49	1356.49
424.932	1350.18
425.374	1331.76
425.816	1355.71
426.258	1379.05
426.699	1392.06
427.141	1371.03
427.582	1392.81
428.024	1383.34
428.465	1375.17
428.907	1340.88
429.348	1323.21
429.789	1320.94
430.231	1293.1
430.672	1305.09
431.113	1274.97
431.554	1253.58
431.995	1223.09
432.436	1175.2
432.877	1147.88
433.318	1125.25
433.759	1121.4
434.2	1120.95
434.64	1109.35
435.081	1112.95
435.522	1058.03
435.962	1020.56
436.403	1000.06
436.843	1015.52
437.284	999.16
437.724	975.75
438.164	983.34
438.604	964.95
439.045	933.2
439.485	900.48
439.925	883.62
440.365	865.55
440.805	859.1
441.245	854.1
441.685	828.58
442.125	828.01
442.564	838.47
443.004	823.82
443.444	829.72
443.883	836.78
444.323	837.26
444.762	847.49
445.202	866.64
445.641	887.18
446.081	889.75
446.52	903.33
446.959	899.63
447.398	884.07
447.837	880.5
448.276	871.06
448.716	888.14
449.154	902.91
449.593	886.98
450.032	890.56
450.471	882.32
450.91	890.67
451.349	895.62
451.787	899.32
452.226	918.93
452.664	926.79
453.103	933.41
453.541	936.43
453.98	938.17
454.418	948.32
454.856	935.72
455.295	937.64
455.733	945.44
456.171	953.21
456.609	957.07
457.047	960.16
457.485	974.78
457.923	977.42
458.361	965.4
458.798	970.59
459.236	970.37
459.674	978.57
460.111	983.87
460.549	977.17
460.987	974.4
461.424	971.54
461.862	966
462.299	950.94
462.736	948.67
463.173	953.61
463.611	941.89
464.048	938.99
464.485	947.3
464.922	937.78
465.359	931.61
465.796	914.68
466.233	906.69
466.67	897.51
467.106	895.74
467.543	887.54
467.98	875.88
468.416	854.82
468.853	848.44
469.29	823.41
469.726	815.29
470.162	795.44
470.599	789.27
471.035	784.36
471.471	766.9
471.907	763.64
472.344	760.71
472.78	763.34
473.216	773.61
473.652	765.14
474.088	764.57
474.523	763.23
474.959	770.68
475.395	764.28
475.831	759.07
476.266	764.39
476.702	762.9
477.138	755.54
477.573	753.58
478.008	751.02
478.444	754.74
478.879	761.61
479.314	766.01
479.75	766.46
480.185	771.45
480.62	781.18
481.055	786.15
481.49	793.96
481.925	806.92
482.36	821.84
482.795	847.56
483.229	873.14
483.664	894.61
484.099	900.98
484.534	916.72
484.968	929.31
485.403	934.54
485.837	937.07
486.271	938.75
486.706	944.39
487.14	938.97
487.574	928.19
488.009	923.86
488.443	920.48
488.877	933.51
489.311	941.81
489.745	957.99
490.179	971.52
490.613	993.15
491.046	1006.98
491.48	1019.38
491.914	1026.12
492.348	1039.51
492.781	1052.9
493.215	1061.27
493.648	1070.87
494.082	1086.66
494.515	1093.59
494.948	1112.24
495.382	1129.49
495.815	1144.71
496.248	1161.54
496.681	1190.51
497.114	1217.55
497.547	1241.93
497.98	1271.25
498.413	1288.01
498.846	1312.01
499.279	1334.79
499.711	1351.04
500.144	1362.26
500.577	1386.34
501.009	1412.82
501.442	1434.88
501.874	1442.92
502.306	1453.13
502.739	1469.45
503.171	1501.98
503.603	1512.4
504.036	1534.2
504.468	1549.57
504.9	1573.73
505.332	1590.44
505.764	1600.16
506.196	1617.74
506.627	1646.83
507.059	1673.41
507.491	1695.02
507.923	1692.93
508.354	1721.11
508.786	1740.37
509.217	1771.61
509.649	1796.82
510.08	1829.18
510.512	1856.75
510.943	1880.24
511.374	1896.98
511.805	1928.75
512.237	1958.59
512.668	2010.95
513.099	2053.86
513.53	2095.52
513.961	2122.78
514.391	2171.35
514.822	2218.37
515.253	2271.26
515.684	2305.7
516.114	2347.95
516.545	2372.33
516.975	2405.88
517.406	2425.62
517.836	2418.87
518.267	2418.87
518.697	2438.6
519.127	2435.75
519.558	2438.86
519.988	2433.92
520.418	2439.96
520.848	2457.72
521.278	2462.64
521.708	2452.3
522.138	2460.97
522.567	2501.96
522.997	2531.07
523.427	2544.71
523.857	2560.97
524.286	2565.99
524.716	2579.47
525.145	2597.93
525.575	2603.84
526.004	2615.58
526.433	2618.95
526.863	2610.04
527.292	2582.68
527.721	2582.05
528.15	2582.54
528.579	2574.02
529.008	2583.12
529.437	2611.56
529.866	2626.16
530.295	2646.29
530.724	2658.64
531.152	2694.37
531.581	2710.02
532.01	2731.5
532.438	2740.4
532.867	2758.51
533.295	2782.29
533.723	2786.49
534.152	2779.59
534.58	2774.28
535.008	2746.7
535.436	2746.5
535.865	2756.73
536.293	2776.83
536.721	2798.09
537.149	2833.51
537.576	2835.12
538.004	2853.06
538.432	2865.17
538.86	2860.53
539.287	2872.04
539.715	2892.14
540.143	2896.45
540.57	2888.7
540.998	2882.41
541.425	2847.49
541.852	2815.68
542.28	2811.96
542.707	2786.6
543.134	2763.51
543.561	2755.54
543.988	2742.99
544.415	2740.43
544.842	2730.72
545.269	2718.74
545.696	2718.94
546.123	2736.12
546.549	2719.69
546.976	2699.92
547.403	2696.84
547.829	2699.06
548.256	2702.37
548.682	2694.7
549.108	2681.24
549.535	2678.57
549.961	2679.91
550.387	2659.31
550.813	2650.32
551.24	2657.21
551.666	2657.35
552.092	2643.4
552.518	2633.04
552.943	2622.62
553.369	2634.58
553.795	2643.88
554.221	2645.59
554.646	2641.56
555.072	2658
555.498	2666.78
555.923	2682.57
556.349	2707.3
556.774	2721.7
557.199	2725.82
557.625	2737.15
558.05	2729.49
558.475	2747.74
558.9	2749.1
559.325	2739.9
559.75	2734.27
560.175	2727.78
560.6	2721.53
561.025	2722.17
561.449	2727.06
561.874	2739.53
562.299	2751.97
562.723	2768.57
563.148	2759.77
563.572	2771.1
563.997	2791.6
564.421	2806.34
564.846	2813.57
565.27	2825.11
565.694	2828.54
566.118	2855.76
566.542	2873.59
566.966	2869.27
567.39	2870.25
567.814	2859.22
568.238	2867.98
568.662	2885.61
569.086	2897.79
569.509	2918.44
569.933	2902.58
570.357	2899.09
570.78	2872.27
571.204	2859.3
571.627	2852.16
572.05	2857.66
572.474	2865.68
572.897	2853.11
573.32	2847.84
573.743	2840.48
574.166	2817.99
574.589	2826.64
575.012	2821.84
575.435	2828.13
575.858	2821.09
576.281	2809.22
576.704	2788.85
577.126	2775.05
577.549	2761.69
577.972	2749.89
578.394	2737.59
578.817	2729.06
579.239	2701.89
579.661	2683.24
580.084	2659.54
580.506	2641.07
580.928	2639.61
581.35	2624.72
581.772	2621.78
582.194	2603.83
582.616	2588.3
583.038	2568.58
583.46	2556.84
583.882	2556.33
584.303	2568.77
584.725	2567.03
585.147	2570.69
585.568	2590.59
585.99	2615.44
586.411	2628.7
586.833	2657.35
587.254	2661.91
587.675	2688.79
588.096	2712.79
588.518	2706.89
588.939	2679.42
589.36	2677.13
589.781	2668.22
590.202	2620.15
590.623	2607.4
591.043	2607.63
591.464	2586.79
591.885	2581.34
592.305	2573.46
592.726	2551.3
593.147	2554.47
593.567	2547.81
593.987	2537.81
594.408	2529.79
594.828	2530.99
595.248	2521.66
595.669	2489.61
596.089	2479.8
596.509	2472.28
596.929	2450.22
597.349	2452.67
597.769	2436.78
598.189	2426.9
598.608	2430.49
599.028	2434.75
599.448	2436.28
599.867	2416.86
600.287	2411.99
600.706	2406.74
601.126	2391.81
601.545	2390.9
601.965	2390.45
602.384	2383.98
602.803	2391.99
603.222	2385.82
603.641	2377.01
604.061	2371.8
604.48	2367.6
604.898	2385.02
605.317	2397.1
605.736	2403.01
606.155	2401.24
606.574	2389.25
606.992	2401.27
607.411	2395.11
607.829	2384.73
608.248	2382.51
608.666	2382.99
609.085	2385.2
609.503	2372.42
609.921	2363.24
610.339	2370.44
610.758	2373.7
611.176	2368.66
611.594	2355.42
612.012	2354.46
612.43	2363.55
612.847	2378.38
613.265	2383.05
613.683	2395.68
614.101	2402.54
614.518	2400.28
614.936	2385.97
615.353	2363.48
615.771	2361.25
616.188	2366.03
616.606	2362.5
617.023	2352.94
617.44	2331.29
617.857	2324.48
618.274	2312.24
618.691	2303.32
619.108	2289.3
619.525	2279.95
619.942	2294.41
620.359	2302.03
620.776	2294.69
621.192	2288.81
621.609	2286.09
622.026	2299.17
622.442	2308.4
622.859	2315.71
623.275	2304.46
623.691	2315.99
624.108	2338.83
624.524	2366.53
624.94	2366.93
625.356	2387.7
625.772	2413.44
626.188	2436.73
626.604	2440.24
627.02	2434.42
627.436	2430.11
627.852	2442.87
628.268	2466.4
628.683	2449.94
629.099	2434.09
629.514	2427.21
629.93	2432.52
630.345	2440.83
630.761	2434.79
631.176	2442.79
631.591	2431.58
632.007	2419.82
632.422	2418.08
632.837	2398.43
633.252	2394.61
633.667	2377.23
634.082	2361.66
634.497	2339.91
634.911	2303.82
635.326	2298.82
635.741	2268.91
636.155	2252.56
636.57	2256.29
636.984	2256.06
637.399	2258.54
637.813	2259.95
638.228	2259.01
638.642	2268.1
639.056	2251.23
639.47	2254.81
639.884	2238.26
640.298	2226.18
640.712	2224.12
641.126	2202.07
641.54	2187.04
641.954	2181
642.368	2158.45
642.781	2140.46
643.195	2106.23
643.609	2104.72
644.022	2091.14
644.436	2084.08
644.849	2061.27
645.262	2039.66
645.676	2043.2
646.089	2032.81
646.502	2000.21
646.915	1989.29
647.328	1959.19
647.741	1953.67
648.154	1928.74
648.567	1919.23
648.98	1891.9
649.393	1892.37
649.805	1884.67
650.218	1868.12
650.631	1838.24
651.043	1825.77
651.456	1813.5
651.868	1813.04
652.28	1845.99
652.693	1870.05
653.105	1883.05
653.517	1901.74
653.929	1900.39
654.341	1909.12
654.753	1885.36
655.165	1895.71
655.577	1890.04
655.989	1881.02
656.401	1867.08
656.813	1796.06
657.224	1758.46
657.636	1705.54
658.047	1668.26
658.459	1629.93
658.87	1610.14
659.282	1586.14
659.693	1543.84
660.104	1511.45
660.515	1481.23
660.926	1470.08
661.338	1459.77
661.749	1441.22
662.159	1417.28
662.57	1401.77
662.981	1384.46
663.392	1363.38
663.803	1360.27
664.213	1347.91
664.624	1332.3
665.035	1327.93
665.445	1296.64
665.855	1273.25
666.266	1249.14
666.676	1235.29
667.086	1212.11
667.497	1202.35
667.907	1183.29
668.317	1159.55
668.727	1142.85
669.137	1135.77
669.547	1122.83
669.956	1119.07
670.366	1114.88
670.776	1110.93
671.186	1111.01
671.595	1108.94
672.005	1107.6
672.414	1101.42
672.824	1093.83
673.233	1097.55
673.642	1096.92
674.052	1096.82
674.461	1095.34
674.87	1099.19
675.279	1092.17
675.688	1092.58
676.097	1093.77
676.506	1088
676.915	1106.96
677.323	1111.1
677.732	1109.23
678.141	1109.9
678.549	1097.84
678.958	1101.1
679.366	1105.28
679.775	1119.19
680.183	1139.05
680.592	1155.36
681	1173.45
681.408	1173.98
681.816	1199.34
682.224	1226.4
682.632	1256.55
683.04	1319.91
683.448	1376.49
683.856	1444.15
684.264	1521.56
684.671	1599.08
685.079	1688.94
685.487	1787.33
685.894	1919.02
686.302	2032.21
686.709	2127.04
687.116	2236.23
687.524	2323.61
687.931	2399.28
688.338	2463.93
688.745	2518.25
689.152	2572.73
689.559	2646.62
689.966	2713.82
690.373	2737.06
690.78	2790.96
691.187	2884.69
691.593	2945.06
692	2993.94
692.407	3073.68
692.813	3170.43
693.22	3238.25
693.626	3312.86
694.032	3358.69
694.439	3446.78
694.845	3505.48
695.251	3589.07
695.657	3656.1
696.063	3775.69
696.469	3852.33
696.875	3916.86
697.281	3937.53
697.687	3973.35
698.093	3992.51
698.498	4067.22
698.904	4114.76
699.31	4208.39
699.715	4258.3
700.12	4352.35
700.526	4338.06
700.931	4399.13
701.337	4438.41
701.742	4447.97
702.147	4527.99
702.552	4533.05
702.957	4581.5
703.362	4576.2
703.767	4582.45
704.172	4606.55
704.577	4513.97
704.981	4549.03
705.386	4542.26
705.791	4500.55
706.195	4572.61
706.6	4557.58
707.004	4634.62
707.408	4569.41
707.813	4578.77
708.217	4536.65
708.621	4515.83
709.025	4614.22
709.43	4590.71
709.834	4643.19
710.237	4709.21
710.641	4669.55
711.045	4675.58
711.449	4649.57
711.853	4661.84
712.256	4693.26
712.66	4719.56
713.064	4791.73
713.467	4821.73
713.87	4938.48
714.274	4974.06
714.677	5085.71
715.08	5260.87
715.484	5442.06
715.887	5661.03
716.29	5877.61
716.693	6104.14
717.096	6365.62
717.499	6498.06
717.901	6508.92
718.304	6520.7
718.707	6532.07
719.109	6396.3
719.512	6340.88
719.915	6163.69
720.317	6084.71
720.719	6121.38
721.122	6072.33
721.524	6002.68
721.926	5940.83
722.328	6038.81
722.731	6014.05
723.133	6031.86
723.535	6237.96
723.937	6244.52
724.338	6294.02
724.74	6326.98
725.142	6223.77
725.544	6208.98
725.945	6223.13
726.347	6208.64
726.748	6194.69
727.15	6201.27
727.551	6150.12
727.952	6109.31
728.354	6069.15
728.755	6061.57
729.156	6005.58
729.557	5999.06
729.958	5856.74
730.359	5793.29
730.76	5765.39
731.161	5692.9
731.562	5659.2
731.962	5657.15
732.363	5579.61
732.763	5506.26
733.164	5537.05
733.564	5459.33
733.965	5352.62
734.365	5309.1
734.766	5333.37
735.166	5288.55
735.566	5223.3
735.966	5190.73
736.366	5180.5
736.766	5113.19
737.166	5142.69
737.566	5095.51
737.966	5065.67
738.365	5105.36
738.765	5098.14
739.165	5014.35
739.564	4982.48
739.964	5029.06
740.363	4975.47
740.763	4970.58
741.162	4954.61
741.561	4919.31
741.96	4870.47
742.36	4888.53
742.759	4891.35
743.158	4927.69
743.557	4942.4
743.955	4980.95
744.354	4929.19
744.753	4988.8
745.152	4941.4
745.55	4999.45
745.949	4991.13
746.348	4990.09
746.746	5007.98
747.144	4963
747.543	4942.07
747.941	4991.86
748.339	4919.97
748.737	4912.3
749.136	4904.88
749.534	4973.04
749.932	4944.43
750.33	4967.22
750.727	5027.08
751.125	4998.62
751.523	4984.69
751.921	5029.66
752.318	4993.15
752.716	5053.37
753.113	5067.82
753.511	5092.12
753.908	5093.95
754.305	5070.61
754.703	5134.71
755.1	5194.07
755.497	5257.14
755.894	5454.08
756.291	5642.4
756.688	5989.74
757.085	6450.22
757.482	7095.77
757.878	7803.55
758.275	8443.22
758.672	9326.1
759.068	10045.68
759.465	11074.03
759.861	12393.5
760.258	13924.51
760.654	14710.36
761.05	14588.2
761.447	13916.85
761.843	12955.73
762.239	11959.24
762.635	11506.66
763.031	11078.79
763.427	10456.89
763.822	9804.84
764.218	9162.71
764.614	8327.53
765.01	7765.61
765.405	7403.38
765.801	7128.04
766.196	6775.22
766.592	6581.47
766.987	6251.51
767.382	6026.01
767.778	5935.73
768.173	5796.17
768.568	5718.5
768.963	5588.16
769.358	5607.29
769.753	5556.27
770.148	5467.24
770.542	5466.71
770.937	5432.36
771.332	5525.95
771.726	5547.36
772.121	5476.88
772.515	5537.03
772.91	5521.84
773.304	5596.09
773.699	5529.01
774.093	5587.6
774.487	5649.3
774.881	5699.1
775.275	5696.28
775.669	5655.57
776.063	5701.15
776.457	5740.31
776.851	5661.64
777.245	5655.31
777.638	5689.49
778.032	5808.6
778.425	5769.91
778.819	5813.63
779.212	5769.24
779.606	5728.72
779.999	5748.3
780.392	5730.56
780.786	5816.71
781.179	5839.68
781.572	5883.43
781.965	5896.42
782.358	5837.3
782.751	5897.68
783.143	5846.23
783.536	5919.41
783.929	5961.38
784.322	6080.26
784.714	6113.48
785.107	6105.68
785.499	6177.8
785.891	6152.79
786.284	6132.81
786.676	6279.51
787.068	6256.49
787.46	6313.21
787.852	6336.04
788.245	6425.93
788.636	6458.81
789.028	6528.68
789.42	6573.73
789.812	6581.59
790.204	6684.11
790.595	6788.06
790.987	6583.84
791.378	6612.53
791.77	6746.41
792.161	6885.27
792.553	6941.92
792.944	6825.96
793.335	6759.92
793.726	6833.21
794.117	6933.23
794.508	7074.02
794.899	7039.88
795.29	7183.36
795.681	7241.96
796.072	7094.64
796.463	6899.47
796.853	6911.84
797.244	7072.86
797.634	7101.77
798.025	7100.76
798.415	7105.65
798.806	7197.71
799.196	7284.64
799.586	7338.02
799.976	7291.83
800.366	7528.94
800.756	7783.68
801.146	7739.99
801.536	7771
801.926	7846.97
802.316	7877.89
802.706	7956.87
803.095	7827.57
803.485	7932.48
803.874	7977.02
804.264	8249.32
804.653	8220.63
805.043	8367.22
805.432	8480.17
805.821	8479.68
806.21	8503.74
806.599	8623.89
806.988	8669.82
807.377	8788.73
807.766	8932.72
808.155	9226.1
808.544	8951.24
808.933	8967.41
809.321	8942.95
809.71	9257.03
810.098	9422.98
810.487	9907.99
810.875	10412.85
811.264	10437.46
811.652	10737.97
812.04	10888.38
812.428	11061.93
812.816	11863.33
813.204	12301.07
813.592	12884.62
813.98	13234.74
814.368	13135.24
814.756	13632.56
815.144	13545.8
815.531	14039.63
815.919	13953.44
816.306	14268.85
816.694	13951.25
817.081	14002.52
817.469	14369.16
817.856	14365.03
818.243	14637.16
818.63	15053.6
819.017	14613.88
819.404	14679.77
819.791	15066.85
820.178	15718.5
820.565	15977.44
820.952	16940.96
821.339	16430.55
821.725	16616.93
822.112	15848.7
822.498	15810.49
822.885	15945.3
823.271	15841.78
823.657	16277.58
824.044	16284.22
824.43	16356.27
824.816	16319.12
825.202	15867.98
825.588	16928.69
825.974	16943.76
826.36	17476.51
826.746	17507.97
827.132	17874.05
827.517	17853.97
827.903	17038.67
828.289	17073.26
828.674	16261.73
829.06	16156.5
829.445	16569.94
829.83	16939.38
830.216	17436.53
830.601	17818.56
830.986	17394.23
831.371	17253.66
831.756	17835.96
832.141	17382.95
832.526	17385.35
832.911	17684.86
833.295	17565.7
833.68	18049.79
834.065	17408.2
834.449	16457.7
834.834	16378.78
835.218	16382.5
835.603	16739.37
835.987	16514.91
836.371	17377.56
836.755	17269.17
837.139	17682.24
837.524	17939.5
837.908	17767.17
838.291	17826.03
838.675	17907.11
839.059	18126.84
839.443	18110.65
839.827	17868.64
840.21	18364.81
840.594	18218.55
840.977	18438.7
841.361	18421.42
841.744	18812.24
842.127	18637
842.511	18902.18
842.894	19519.03
843.277	19920.09
843.66	20492.3
844.043	20584.16
844.426	19756.44
844.809	19434.05
845.191	19462.99
845.574	18982.26
845.957	18601.98
846.339	18500.48
846.722	17950.9
847.104	18028.49
847.487	17843.28
847.869	17856.94
848.252	18152.41
848.634	18491.72
849.016	18770.2
849.398	18906.86
849.78	19805.89
850.162	19811.85
850.544	20240.7
850.926	20897.16
851.307	20795.47
851.689	21090.39
852.071	21563.72
852.452	21904.96
852.834	21883.62
853.215	22302.58
853.597	22460.99
853.978	22753.23
854.359	23234.43
854.741	22195.15
855.122	22086.1
855.503	21786.76
855.884	21928.1
856.265	21856.28
856.646	21971.19
857.026	21569.21
857.407	21494.43
857.788	21660.76
858.169	21966.49
858.549	21068.73
858.93	21718.44
859.31	21772.89
859.69	21984.22
860.071	21561.83
860.451	21338.98
860.831	20564.87
861.211	21775.23
861.591	22347.5
861.971	22305.44
862.351	22511.62
862.731	22924.96
863.111	23196.38
863.491	23546.12
863.87	24469.71
864.25	24835.5
864.629	24425.36
865.009	24959.78
865.388	25842.93
865.768	27693.94
866.147	27600.27
866.526	26069.01
866.905	26373.23
867.284	27854.33
867.663	26432.86
868.042	25329.47
868.421	25248.59
868.8	25663.59
869.179	25908.57
869.558	24394.94
869.936	22479.01
870.315	22866.83
870.693	23418.89
871.072	25255.18
871.45	24062.75
871.828	24373.07
872.207	25617.41
872.585	25226.17
872.963	25900.41
873.341	25015
873.719	24713.98
874.097	24414.44
874.475	24883.96
874.853	25444.25
875.23	24385.29
875.608	25411.13
875.986	27485.24
876.363	26291.8
876.741	27079.69
877.118	26401.33
877.495	27692.8
877.873	28146.63
878.25	29626.23
878.627	28422.47
879.004	28813.3
879.381	28671.19
879.758	27902.85
880.135	25979.61
880.512	27469.52
880.889	26763.86
881.265	26481.27
881.642	26263.76
882.019	26706.82
882.395	26160.09
882.772	27198.23
883.148	26032.52
883.524	25933.72
883.901	25791.89
884.277	26181.16
884.653	26013.14
885.029	26745
885.405	29634.64
885.781	29402.03
886.157	28204.24
886.532	28538.98
886.908	28529.35
887.284	31710.21
887.659	32743.36
888.035	33757
888.411	34629.92
888.786	35090.03
889.161	36315.4
889.537	35644.06
889.912	36795.66
890.287	36764.91
890.662	37734.56
891.037	37049.89
891.412	34559.08
891.787	34216.9
892.162	33026.21
892.536	33798.65
892.911	32535.65
893.286	31848.31
893.66	30563.66
894.035	31344.04
894.409	34129.75
894.784	32768.6
895.158	33316.75
895.532	35312.79
895.906	36277.16
896.281	37136.28
896.655	36543.27
897.029	41763.77
897.402	43502.13
897.776	48421.37
898.15	48260.73
898.524	47728.02
898.898	48342.68
899.271	54110.68
899.645	46848.13
900.018	44994.74
900.392	46665.39
900.765	47042.4
901.138	43536.9
901.511	42880.56
901.884	39366.19
902.258	36312.44
902.631	37539.85
903.003	43220.22
903.376	39008.79
903.749	43746.78
904.122	46841.87
904.495	51585.65
904.867	52275.87
905.24	45371.47
905.612	42226.27
905.985	43206.72
906.357	45172.5
906.729	43101.68
907.102	36810.94
907.474	35386.72
907.846	35596.15
908.218	35118.22
908.59	31016.6
908.962	29966.53
909.334	32250.69
909.705	33885.52
910.077	32881.6
910.449	34196.57
910.82	35162.88
911.192	38676.08
911.563	40193.78
911.935	43001.83
912.306	43044.63
912.677	44434.48
913.048	43986.65
913.419	47754.49
913.79	48020.61
914.161	51512.9
914.532	49234.02
914.903	45230.39
915.274	42948.51
915.645	42312.11
916.015	37236.24
916.386	35493.17
916.756	37779.77
917.127	38967.98
917.497	34801.66
917.868	37857.26
918.238	35965.85
918.608	37035.96
918.978	37789.84
919.348	40007.66
919.718	41323.83
920.088	39793.92
920.458	41366.91
920.828	43528.93
921.198	41263.22
921.567	44069.22
921.937	34131.23
922.306	34434.45
922.676	37106.93
923.045	30946.44
923.415	29405.47
923.784	26783.9
924.153	27530.18
924.522	27495.47
924.891	25835.37
925.26	27684.77
925.629	27027.36
925.998	31076.36
926.367	30358.77
926.736	28904.76
927.104	34439.97
927.473	37035.26
927.842	44730.1
928.21	44330.51
928.578	46606.04
928.947	44070.78
929.315	44315.69
929.683	52001.14
930.051	52419.93
930.42	60839.66
930.788	52018.2
931.156	51613.84
931.523	48347.24
931.891	44665.19
932.259	42911.35
932.627	49735.26
932.994	70435.69
933.362	58200.93
933.729	50520.73
934.097	48363.31
934.464	40943.75
934.831	47261.77
935.199	46595.75
935.566	45206.78
935.933	45864.88
936.3	55536.68
936.667	43222.29
937.034	38931.66
937.401	38526.93
937.767	33251.12
938.134	29604.82
938.501	41725.24
938.867	44448.58
939.234	75111.43
939.6	64112.79
939.967	70542.62
940.333	47230.07
940.699	40241.28
941.065	32338.54
941.431	42360.03
941.798	40806.77
942.163	53508.78
942.529	33422.21
942.895	30762.67
943.261	19911.7
943.627	26107.88
943.992	22853.77
944.358	22883.43
944.723	22944.31
945.089	22351.13
945.454	20664.08
945.82	22100.1
946.185	21275.45
946.55	24656.76
946.915	22114.86
947.28	25965.23
947.645	22850.7
948.01	21095.81
948.375	21991.43
948.74	26352.12
949.104	30751.67
949.469	44404.97
949.834	78448.51
950.198	74232.27
950.562	44530.79
950.927	37095.23
951.291	44626.68
951.655	38070.63
952.02	35759.79
952.384	27055.69
952.748	23564.9
953.112	22984.95
953.476	20010.03
953.839	18499.95
954.203	18324.67
954.567	22896.92
954.931	36062.5
955.294	30822.84
955.658	30961.82
956.021	52615.72
956.385	89266.94
956.748	131643.12
957.111	204356.97
957.474	229605.92
957.837	258668.49
958.2	195743.54
958.563	70415.03
958.926	47628.19
959.289	72314.05
959.652	80818.91
960.015	60675.43
960.377	87038.15
960.74	99430.31
961.102	171572.24
961.465	184007.76
961.827	98591.42
962.189	189258.81
962.552	131095.3
962.914	105168.46
963.276	68287.95
963.638	56454.25
964	55905.66
964.362	37787.36
964.724	36496.98
965.085	26046.77
965.447	21377.85
965.809	24334.17
966.17	24371.18
966.532	26400.66
966.893	24200.98
967.255	22023.63
967.616	26002.87
967.977	20825.8
968.338	22752.57
968.699	18703.03
969.061	18685.1
969.421	18805.27
969.782	21105.52
970.143	17805.26
970.504	18440.13
970.865	20993.96
971.225	21455.37
971.586	20995.96
971.946	29944.72
972.307	25973.88
972.667	33965.08
973.027	34972.27
973.388	42416
973.748	28865.46
974.108	31483.11
974.468	42626.65
974.828	32821.52
975.188	25267.64
975.548	23203.86
975.907	19474.32
976.267	21845.6
976.627	18364.22
976.986	19051.02
977.346	18147.43
977.705	17451.31
978.064	15892.76
978.424	13221.24
978.783	13680.77
979.142	15611.05
979.501	14939.97
979.86	15805.29
980.219	15239.41
980.578	19641.3
980.937	21996.69
981.296	19608.97
981.654	20173.85
982.013	31389.33
982.371	40754.79
982.73	38048.42
983.088	43138.65
983.447	46059.35
983.805	65794.01
984.163	137459.06
984.521	152629.14
984.879	223780.07
985.237	-363547.87
985.595	350914.55
985.953	87208.16
986.311	50359.16
986.669	29211.69
987.026	25189.52
987.384	33899.74
987.741	35046.06
988.099	25038.47
988.456	19949.05
988.814	18644.18
989.171	16216.75
989.528	15983.84
989.885	16889.15
990.242	13378.6
990.599	16682.69
990.956	13637.14
991.313	9534.33
991.67	7823.18
992.027	8274.88
992.383	7357.84
992.74	6456.43
993.096	6771.26
993.453	7034.09
993.809	7280.72
994.165	9699.69
994.522	8881.33
994.878	9794.41
995.234	12273.32
995.59	12106.77
995.946	11511.78
996.302	13125.62
996.658	15210.31
997.013	16776.45
997.369	19869.89
997.725	25449.7
998.08	16508.29
998.436	25502.39
998.791	35161.89
999.147	35100.14
999.502	38305.79
999.857	27849.22
1000.212	45500.18
1000.567	64685.43
1000.922	37305.75
1001.277	23660.42
1001.632	17545.11
1001.987	22596.18
1002.342	16202.84
1002.696	12957.97
1003.051	10352.77
1003.406	12557.97
1003.76	12479.93
1004.114	12264.84
1004.469	10312.1
1004.823	8540.55
1005.177	9242.49
1005.531	7333.47
1005.885	6489.83
1006.239	7304.74
1006.593	9145.77
1006.947	12273.94
1007.301	9193.39
1007.655	10012.73
1008.008	7363.68
1008.362	8264.92
1008.715	11798.42
1009.069	10721.37
1009.422	16118.66
1009.776	32366.91
1010.129	21525.01
1010.482	18017.48
1010.835	15158.59
1011.188	31536.88
1011.541	29735.82
1011.894	-181683.03
1012.247	535297.53
1012.6	36389.6
1012.952	22943.94
1013.305	11853.43
1013.657	8537.69
1014.01	8091.14
1014.362	6688.81
1014.715	5945.88
1015.067	5179.64
1015.419	5060.33
1015.771	4487.49
1016.123	3991.25
1016.475	4101.97
1016.827	4364.3
1017.179	4683.07
1017.531	4730.11
1017.883	4849.46
1018.234	4682.59
1018.586	5924.43
1018.938	6285.65
1019.289	8691.91
1019.64	9955.86
1019.992	9296.4
1020.343	8520.41
1020.694	6723.21
1021.045	5949.02
1021.396	6806.53
1021.747	7267.42
1022.098	8703.23
1022.449	6324.03
1022.8	5848.49
1023.151	4075.92
1023.501	3605.28
1023.852	3897.51
1024.202	4041.53
1024.553	4455.27
1024.903	4337.83
1025.253	3682.87
1025.604	3306.82
1025.954	4116.07
1026.304	5022.29
1026.654	5893.07
1027.004	8643.87
1027.354	13979.08
1027.703	13217.45
1028.053	17481.45
1028.403	25427.61
1028.753	36867.62
1029.102	50602.98
1029.452	262756.3
1029.801	11379.65
1030.15	7349.65
1030.499	6218.32
897.758	2269.74
901.051	2206.29
904.343	2242.73
907.636	2248.35
910.928	2310.45
914.22	2227.74
917.511	2232.76
920.803	2282.44
924.094	2286.1
927.384	2283.26
930.675	2248.73
933.965	2210.57
937.255	2235.72
940.544	2199.73
943.834	2197.82
947.123	2135.13
950.411	2225.94
953.7	2204.99
956.988	2188.61
960.276	2124.79
963.563	2179.4
966.851	2187.99
970.138	2232
973.424	2233.91
976.711	2188.66
979.997	2242.51
983.283	2288.04
986.568	2214.78
989.853	2209.68
993.138	2237.22
996.423	2319.77
999.708	2272.16
1002.992	2304.08
1006.275	2209.45
1009.559	2217.71
1012.842	2318.22
1016.125	2266.15
1019.408	2245.41
1022.69	2308.7
1025.972	2341.54
1029.254	2313.68
1032.536	2271.36
1035.817	2286.02
1039.098	2255.46
1042.379	2315.61
1045.659	2344.53
1048.939	2289.56
1052.219	2301.69
1055.498	2298.36
1058.778	2292.33
1062.057	2267.97
1065.335	2292.82
1068.614	2306.69
1071.892	2300.88
1075.17	2356.26
1078.447	2360.94
1081.724	2352.58
1085.001	2380.97
1088.278	2355.28
1091.554	2362.76
1094.83	2357.7
1098.106	2393.35
1101.382	2426.27
1104.657	2427.96
1107.932	2422.24
1111.206	2400.82
1114.481	2354.29
1117.755	2354.87
1121.029	2344.73
1124.302	2406.73
1127.575	2372.38
1130.848	2366.46
1134.121	2333.39
1137.393	2294.64
1140.665	2354.8
1143.937	2334.12
1147.208	2282.77
1150.48	2337.88
1153.75	2327.51
1157.021	2335.76
1160.291	2310.5
1163.561	2361.09
1166.831	2334.12
1170.101	2361.97
1173.37	2322.91
1176.639	2275.23
1179.907	2324.48
1183.176	2345.82
1186.444	2347.21
1189.711	2373.94
1192.979	2394.84
1196.246	2347.43
1199.513	2361.67
1202.78	2366.01
1206.046	2374.69
1209.312	2401.4
1212.578	2420.84
1215.843	2385.11
1219.108	2352.57
1222.373	2378.02
1225.638	2346.77
1228.902	2337.64
1232.166	2299.69
1235.43	2285.33
1238.693	2306.61
1241.956	2299.91
1245.219	2347.83
1248.482	2330.81
1251.744	2329.5
1255.006	2455.19
1258.268	2403.17
1261.529	2357.12
1264.79	2357.86
1268.051	2456.69
1271.312	2467.85
1274.572	2439.64
1277.832	2426.32
1281.092	2410.65
1284.351	2398.73
1287.61	2381.72
1290.869	2314.26
1294.128	2307.77
1297.386	2362.14
1300.644	2355.76
1303.902	2364.11
1307.159	2233.31
1310.416	2284.42
1313.673	2313.19
1316.93	2310.59
1320.186	2342.99
1323.442	2376.1
1326.697	2377.86
1329.953	2352.74
1333.208	2386.64
1336.463	2359.47
1339.717	2317.74
1342.972	2426.57
1346.226	2400.73
1349.479	2347.01
1352.733	2322.52
1355.986	2331.12
1359.238	2312.97
1362.491	2318.65
1365.743	2318.47
1368.995	2312.98
1372.247	2326.2
1375.498	2348.15
1378.749	2385.71
1382	2336.73
1385.251	2375.89
1388.501	2330.25
1391.751	2328.97
1395	2295.04
1398.25	2320.03
1401.499	2342.85
1404.748	2287.11
1407.996	2266.43
1411.244	2254.6
1414.492	2239.23
1417.74	2222.08
1420.987	2227.97
1424.234	2285.65
1427.481	2251.47
1430.728	2310.82
1433.974	2286.25
1437.22	2285.52
1440.465	2283.74
1443.711	2277.57
1446.956	2301.53
1450.201	2276.71
1453.445	2318.47
1456.689	2305.25
1459.933	2319.45
1463.177	2357.47
1466.42	2328.36
1469.663	2309.69
1472.906	2322.36
1476.148	2372.85
1479.391	2355.08
1482.633	2328.31
1485.874	2349.63
1489.115	2354.15
1492.356	2342.08
1495.597	2320.47
1498.838	2316.47
1502.078	2299.84
1505.318	2269.41
1508.557	2302.24
1511.797	2298.78
1515.036	2337.77
1518.274	2314.74
1521.513	2271.35
1524.751	2285.2
1527.989	2307.61
1531.227	2322.78
1534.464	2333.77
1537.701	2329.79
1540.938	2344.19
1544.174	2296.02
1547.41	2287.18
1550.646	2322.77
1553.882	2371.9
1557.117	2429.15
1560.352	2436.8
1563.587	2399.09
1566.821	2364.61
1570.055	2383.11
1573.289	2365.91
1576.523	2425.62
1579.756	2436.88
1582.989	2458.53
1586.222	2420.87
1589.454	2450.09
1592.686	2434.23
1595.918	2461.3
1599.15	2454.52
1602.381	2505.97
1605.612	2482.69
1608.843	2576.13
1612.073	2498.54
1615.303	2486.4
1618.533	2481.81
1621.762	2481.01
1624.992	2457.77
1628.221	2455.02
1631.449	2444.39
1634.678	2477.57
1637.906	2443.29
1641.134	2472.04
1644.361	2435.72
1647.588	2422.97
1650.815	2444.53
1654.042	2411.31
1657.269	2438.58
1660.495	2412.99
1663.72	2407.24
1666.946	2373.36
1670.171	2342.36
1673.396	2316.03
1676.621	2298.61
1679.845	2299.56
1683.069	2309.5
1686.293	2341.98
1689.517	2328.78
1692.74	2278.28
1695.963	2299.14
1699.185	2334.6
1702.408	2307.84
1705.63	2338.33
1708.852	2353.83
1712.073	2326.57
1715.294	2332.78
1718.515	2378.75
1721.736	2334.54
1724.956	2316.26
1728.176	2337.63
1731.396	2363.24
1734.616	2347.78
1737.835	2383.93
1741.054	2356.85
1744.272	2349.35
1747.491	2387.49
1750.709	2415.18
1753.927	2356.9
1757.144	2385.6
1760.361	2441.17
1763.578	2419.53
1766.795	2366.72
1770.011	2357.48
1773.227	2386.05
1776.443	2426.88
1779.658	2470.33
1782.874	2408.99
1786.089	2400.28
1789.303	2401.68
1792.518	2402.62
1795.732	2388.97
1798.945	2403.08
1802.159	2446.52
1805.372	2383.76
1808.585	2375.73
1811.797	2375.81
1815.01	2401.52
1818.222	2422.42
1821.434	2384.35
1824.645	2429.11
1827.856	2431.17
1831.067	2463.81
1834.278	2405.56
1837.488	2388.2
1840.698	2514.41
1843.908	2452.89
1847.117	2420.84
1850.326	2339.89
1853.535	2407.37
1856.744	2440.17
1859.952	2361.62
1863.16	2363.48
1866.368	2376.8
1869.575	2488.39
1872.782	2372.01
1875.989	2306.46
1879.196	2360.35
1882.402	2351.02
1885.608	2386.78
1888.814	2319.69
1892.019	2226.53
1895.224	2277.77
1898.429	2247.24
1901.634	2231.51
1904.838	2202.91
1908.042	2259.11
1911.246	2270.6
1914.449	2228.73
1917.652	2213.57
1920.855	2192.7
1924.058	2223.27
1927.26	2264.57
1930.462	2287.8
1933.664	2322.54
1936.865	2265.2
1940.066	2281.97
1943.267	2226.6
1946.467	2237.3
1949.668	2255.76
1952.868	2326.3
1956.067	2314.71
1959.267	2253.88
1962.466	2278.03
1965.665	2260.57
1968.863	2255.83
1972.061	2258.46
1975.259	2255.1
1978.457	2328.35
1981.654	2288.79
1984.852	2293.28
1988.048	2241.45
1991.245	2233.12
1994.441	2319.46
1997.637	2283.37
2000.833	2264.89
2004.028	2301.37
2007.223	2364.74
2010.418	2348.15
2013.613	2303.02
2016.807	2293.41
2020.001	2289.19
2023.194	2313.61
2026.388	2298.97
2029.581	2242.56
2032.774	2301.81
2035.966	2314.2
2039.158	2256.31
2042.35	2277.32
2045.542	2204.48
2048.733	2290.12
2051.924	2287.54
2055.115	2307.34
2058.306	2269.92
2061.496	2324.18
2064.686	2376.73
2067.875	2286.91
2071.065	2288.08
2074.254	2309.53
2077.442	2262.8
2080.631	2346.15
2083.819	2269.8
2087.007	2258.33
2090.195	2241.25
2093.382	2262.58
2096.569	2244.22
2099.756	2203.58
2102.942	2245.8
2106.128	2260.74
2109.314	2249.22
2112.5	2229.74
2115.685	2201.98
2118.87	2209.95
2122.055	2274
2125.239	2250.06
2128.424	2234.59
2131.608	2301.46
2134.791	2286.83
2137.974	2329.29
2141.157	2317.74
2144.34	2286.52
2147.523	2279.88
2150.705	2302.29
2153.887	2273.83
2157.068	2243.12
2160.25	2228.04
2163.431	2251.2
2166.611	2218.07
2169.792	2239.16
2172.972	2146.2
2176.152	2200.99
2179.331	2228.55
2182.511	2230.81
2185.69	2252.95
2188.868	2252.9
2192.047	2292.85
2195.225	2304.6
2198.403	2255.98
2201.58	2241.7
2204.758	2232.18
2207.935	2307.5
2211.111	2217.75
2214.288	2207.48
2217.464	2239.82
2220.64	2199.84
2223.815	2253.18
2226.991	2180.5
2230.166	2198.97
2233.34	2236.71
2236.515	2253.86
2239.689	2313.76
2242.863	2263.81
2246.036	2320.09
2249.209	2303.3
2252.382	2326.74
2255.555	2330.6
2258.727	2276.56
2261.9	2308.43
2265.071	2297.99
2268.243	2297.03
2271.414	2242.12
2274.585	2225.61
2277.756	2287.97
2280.926	2239.75
2284.096	2271.56
2287.266	2197.64
2290.436	2246.49
2293.605	2269.36
2296.774	2304.94
2299.942	2310.19
2303.111	2326.95
2306.279	2378.9
2309.447	2361.84
2312.614	2332.83
2315.781	2358.9
2318.948	2336
2322.115	2371.99
2325.281	2272.84
2328.447	2280.36
2331.613	2251.25
2334.779	2240.66
2337.944	2238.47
2341.109	2237.03
2344.274	2227.27
2347.438	2195.77
2350.602	2216.84
2353.766	2226.94
2356.929	2216.21
2360.092	2253.41
2363.255	2222.15
2366.418	2183.42
2369.58	2258.29
2372.742	2117.68
2375.904	2116.83
2379.066	2099.9
2382.227	2125.25
2385.388	2088.76
2388.548	2034.62
2391.709	2077.79
2394.869	2066.41
2398.029	2127.47
2401.188	2126.76
2404.347	2084.69
2407.506	2175.2
2410.665	2210.67
2413.823	2198.82
2416.981	2175.29
2420.139	2193.56
2423.296	2237.78
2426.453	2209.92
2429.61	2229.35
2432.767	2194.96
2435.923	2234.86
2439.079	2185.45
2442.235	2220.05
2445.391	2160.97
2448.546	2203.54
2451.701	2237.76
2454.855	2231.16
2458.009	2261.09
2461.163	2253.56
2464.317	2225.6
2467.471	2250.9
2470.624	2281.68
2473.777	2266.94
2476.929	2286.41
2480.082	2307.83
2483.234	2279.11
2486.385	2220.79
2489.537	2214.53
2492.688	2201.38
2495.839	2216.89
2498.989	2230.97
2502.14	2217.79
2505.29	2206.63
2508.439	2231.87
2511.589	2167.04
2514.738	2171.12
2517.887	2194.24
2521.035	2271.15
2524.183	2235.81
2527.331	2222.2
2530.479	2213.94
2533.627	2216.59
