Data from C_2_DEC_NC_4N_Splice17_12-26-31-101.txt Node
Date: Sat Mar 14 12:26:31 EDT 2020
User: sa697716
Spectrometer: FLMS03696
Trigger mode: 0
Integration Time (sec): 3.180400E-1
Scans to average: 20
Electric dark correction enabled: true
Nonlinearity correction enabled: true
Boxcar width: 5
XAxis mode: Wavelengths
Number of Pixels in Spectrum: 2048
>>>>>Begin Spectral Data<<<<<
187.83	-294983.64
188.298	2168.64
188.766	1231.33
189.233	1112.97
189.701	1481.54
190.169	2034.84
190.636	710.29
191.104	501.27
191.571	18.28
192.039	-112.97
192.506	-78.34
192.974	432.31
193.441	-679.7
193.908	-58.19
194.375	-15.45
194.842	-2.5
195.31	104.18
195.777	169.28
196.244	403.96
196.711	482.17
197.177	607.79
197.644	836.38
198.111	1424.42
198.578	1967.28
199.045	1595.78
199.511	2595.38
199.978	3005.21
200.445	2551.94
200.911	2805.05
201.378	3099.47
201.844	2798.83
202.31	4800.64
202.777	5054.39
203.243	2798.24
203.709	2698.68
204.176	3230.27
204.642	2683.72
205.108	2532.71
205.574	2068.18
206.04	1891.26
206.506	1778.95
206.972	1684.91
207.438	1620.22
207.903	1835.92
208.369	1618.73
208.835	1593.76
209.301	1641.85
209.766	1673.99
210.232	1642.36
210.697	2009.83
211.163	2466.61
211.628	3718.32
212.094	3136.21
212.559	3809.67
213.024	2362.69
213.49	2885.33
213.955	2830.1
214.42	2771.35
214.885	2568.48
215.35	2491.56
215.815	2415.49
216.28	2567.96
216.745	2086.99
217.21	2239.17
217.675	2045.04
218.14	2278.92
218.604	2487.86
219.069	2802.67
219.534	2912.54
219.998	3353.48
220.463	3986.57
220.927	4828.71
221.392	4503.17
221.856	4520.68
222.32	5648.42
222.785	6971.19
223.249	8755.62
223.713	9781.89
224.177	9747.99
224.642	12504.55
225.106	15360.83
225.57	16800.93
226.034	12548.92
226.497	19099.98
226.961	17271.26
227.425	20135.3
227.889	22314.26
228.353	22320.72
228.816	46044.66
229.28	44197.96
229.744	37231.74
230.207	22677.89
230.671	22316.9
231.134	36815.87
231.597	42555.21
232.061	42555.59
232.524	41517.86
232.987	28649.6
233.45	25831.51
233.914	23207.33
234.377	23737.1
234.84	21759.69
235.303	25677.84
235.766	28680.36
236.229	29667.29
236.691	18699.24
237.154	21029.73
237.617	15849.01
238.08	16231.7
238.542	19007.06
239.005	13629.86
239.468	13559.08
239.93	12793.68
240.393	11642.28
240.855	10247.04
241.317	10512.23
241.78	12788.84
242.242	13257.69
242.704	14338.63
243.166	12487.88
243.629	11352.53
244.091	13084.05
244.553	14357.7
245.015	15434.58
245.477	19979.91
245.939	29252
246.4	31050.46
246.862	30212.61
247.324	28485.23
247.786	31890.04
248.247	41877.87
248.709	43245.46
249.17	32356.5
249.632	30512.83
250.093	35403.29
250.555	30576.54
251.016	18660.7
251.477	17720.1
251.939	19122.21
252.4	20041.97
252.861	23818.52
253.322	22175.61
253.783	26397.9
254.244	34255.92
254.705	26993.57
255.166	24000.73
255.627	23655.04
256.088	33411.05
256.549	35503.95
257.009	30560.46
257.47	37135.73
257.931	30267.66
258.391	22697.69
258.852	23410.66
259.312	24555.44
259.773	30370.94
260.233	25732.91
260.694	21698.83
261.154	24628.95
261.614	19794.87
262.074	17736.49
262.534	18449.28
262.994	17405.6
263.455	23204.52
263.915	19585.78
264.374	18464.31
264.834	20155.1
265.294	22346.13
265.754	23177
266.214	21943.28
266.673	20553.32
267.133	25940.15
267.593	25727.02
268.052	31487.22
268.512	27362.12
268.971	33015.33
269.431	36193.01
269.89	32468.58
270.349	48673.45
270.809	54269.92
271.268	48805.67
271.727	109578.33
272.186	71007.12
272.645	53267.83
273.104	38494.38
273.563	55810.74
274.022	43885.68
274.481	37372.5
274.94	28790.11
275.399	21409.37
275.857	24941.24
276.316	33792.78
276.775	30060.47
277.233	29634.99
277.692	27787.52
278.15	31436.39
278.609	32373.26
279.067	29976.37
279.525	27887.5
279.984	36078.93
280.442	43386.27
280.9	42871.23
281.358	28218.61
281.816	26353.08
282.274	25831.55
282.732	26709.67
283.19	26855.7
283.648	23205.09
284.106	24746.16
284.564	25173.63
285.021	23356.72
285.479	17419.11
285.937	15829.72
286.394	13925.78
286.852	14351.97
287.309	15109.1
287.767	14621.69
288.224	13920.56
288.682	15282.43
289.139	16804.78
289.596	15403.55
290.053	16040.33
290.511	20249.65
290.968	24601.39
291.425	33334.14
291.882	27770.97
292.339	24200.37
292.796	24032.03
293.252	22642.03
293.709	18006.67
294.166	16127.25
294.623	17816.2
295.079	17073.15
295.536	17185.66
295.992	15615.51
296.449	15443.8
296.905	16043.92
297.362	15387.72
297.818	16185.06
298.274	16810.71
298.731	17137.3
299.187	16961.93
299.643	18223.42
300.099	22055.4
300.555	24173.5
301.011	20200.14
301.467	19505.64
301.923	22822.47
302.379	22283.57
302.835	21897.01
303.291	21943.12
303.746	24959.6
304.202	31589.27
304.658	31726.33
305.113	21360.22
305.569	20972.24
306.024	22381.6
306.479	21321.34
306.935	18009.38
307.39	19683.68
307.845	18200.32
308.301	18323.96
308.756	17878.08
309.211	17220.84
309.666	17653.41
310.121	21914.14
310.576	22219.72
311.031	22084.36
311.486	25330.7
311.94	25357.25
312.395	33929.12
312.85	63841.73
313.305	313709.82
313.759	1626003.05
314.214	117983.01
314.668	93621.98
315.123	78809.36
315.577	28294.82
316.032	25149.54
316.486	31505.82
316.94	24845.57
317.394	17304.34
317.849	13454.55
318.303	12744.87
318.757	12018.51
319.211	13285.53
319.665	11625.2
320.119	11775.2
320.572	16894.88
321.026	15788.18
321.48	13131.56
321.934	14308.06
322.387	14335.84
322.841	15462.07
323.295	13921.67
323.748	16060.17
324.202	16295.1
324.655	19556.81
325.108	27311.78
325.562	19271.81
326.015	22917.26
326.468	17355.94
326.921	19434.47
327.374	18146.43
327.827	18910.84
328.28	21397.33
328.733	14325.18
329.186	12616.27
329.639	12048.22
330.092	10179.19
330.545	9720.89
330.997	9806.46
331.45	10704.45
331.903	12551.95
332.355	21595.26
332.808	21009.62
333.26	17346.11
333.713	18858.31
334.165	19029.19
334.617	25427.54
335.069	20517.56
335.522	37102.38
335.974	41164.08
336.426	37679.27
336.878	26113.23
337.33	13243.14
337.782	12928.73
338.234	16183.65
338.686	19350.21
339.137	22919.97
339.589	21583.17
340.041	16950.83
340.493	14578.85
340.944	14936.06
341.396	16087.69
341.847	13537.81
342.299	16000.01
342.75	19548.02
343.201	17108.33
343.653	19680.66
344.104	24143.41
344.555	18987.58
345.006	29511.1
345.457	22630.6
345.908	17925.42
346.359	16858.52
346.81	13716.83
347.261	14457.84
347.712	14230.89
348.163	15256.19
348.613	15474.71
349.064	14458.36
349.515	12699.68
349.965	13048.59
350.416	15716.9
350.866	17274.95
351.317	19539.36
351.767	32456.28
352.217	41042.7
352.668	34128.93
353.118	31319.05
353.568	30212.93
354.018	23948.75
354.468	25245.53
354.918	18083.79
355.368	15805.12
355.818	22364.95
356.268	64351.26
356.718	269492.19
357.168	67164.51
357.617	33642.14
358.067	37416.07
358.517	35105.38
358.966	41173.82
359.416	46215.48
359.865	50079.4
360.315	59653.92
360.764	27894.64
361.213	15651.48
361.663	14828.75
362.112	18303.05
362.561	29658.49
363.01	22376.54
363.459	18829.92
363.908	20388.15
364.357	17334.51
364.806	29317.63
365.255	20204.31
365.703	18513.55
366.152	18571.22
366.601	15061.26
367.05	12234.12
367.498	11126.91
367.947	11636.81
368.395	12110.18
368.844	10717.69
369.292	12912.7
369.74	8928.58
370.189	13656.76
370.637	16040.53
371.085	13844.03
371.533	16865.57
371.981	16249.86
372.429	15496.04
372.877	16141.21
373.325	13526.6
373.773	13805.85
374.221	12281.53
374.669	15226.04
375.116	13194.6
375.564	13261.44
376.012	14852.2
376.459	12263.55
376.907	14666.79
377.354	17724.58
377.801	16560.35
378.249	19061.48
378.696	24343.79
379.143	29595.46
379.591	31618.15
380.038	53590.98
380.485	38838.3
380.932	41981.64
381.379	38437.92
381.826	28363.54
382.273	20217.5
382.72	17678.1
383.166	17226.93
383.613	11212.5
384.06	10101.44
384.506	11684.34
384.953	8581.25
385.4	8636.97
385.846	7575.31
386.292	7367.34
386.739	7211.11
387.185	7136.47
387.631	7141.35
388.078	6935.34
388.524	7425.09
388.97	6870.53
389.416	5741.08
389.862	6108.48
390.308	5806.2
390.754	5897.47
391.2	6416.21
391.645	6591.31
392.091	6317.46
392.537	6122.05
392.983	6141.85
393.428	6054
393.874	6486.2
394.319	6536.74
394.765	6207.58
395.21	6389.03
395.655	6004.93
396.101	5631.89
396.546	5090.31
396.991	5136.79
397.436	4777.74
397.881	4624.46
398.326	4379.25
398.771	4148.74
399.216	3618.87
399.661	3259.1
400.106	3242.98
400.551	3322.42
400.995	2983.85
401.44	2946.3
401.885	2768.11
402.329	2793.94
402.774	2676.09
403.218	2593.73
403.663	2502.31
404.107	2575.92
404.551	2596.92
404.995	2383.57
405.44	2294.56
405.884	2332.38
406.328	2256.14
406.772	2246.39
407.216	2046.52
407.66	1980.89
408.104	1879.77
408.547	1762.04
408.991	1705.59
409.435	1642.75
409.879	1623.74
410.322	1604.61
410.766	1550.68
411.209	1476.13
411.653	1418.36
412.096	1392.01
412.54	1392.39
412.983	1385.3
413.426	1389.78
413.869	1387.85
414.312	1361.85
414.756	1310.75
415.199	1248.64
415.642	1212.38
416.085	1213.73
416.527	1208.1
416.97	1226.77
417.413	1165.13
417.856	1155.16
418.298	1141.3
418.741	1133.07
419.184	1132.11
419.626	1178.55
420.069	1181.97
420.511	1190.7
420.953	1165.51
421.396	1155.88
421.838	1127.98
422.28	1154.46
422.722	1159.07
423.164	1176.19
423.606	1160.48
424.048	1158.45
424.49	1103.21
424.932	1096.93
425.374	1081.42
425.816	1105.19
426.258	1123.34
426.699	1134.48
427.141	1115.47
427.582	1131.92
428.024	1126.78
428.465	1119.29
428.907	1092.5
429.348	1078.46
429.789	1079.97
430.231	1055.13
430.672	1063.96
431.113	1039.59
431.554	1024.34
431.995	999
432.436	965.6
432.877	945.08
433.318	928.98
433.759	924.11
434.2	926.98
434.64	915.2
435.081	920.73
435.522	876.35
435.962	846.15
436.403	829.84
436.843	842.76
437.284	823.48
437.724	801.34
438.164	803.06
438.604	786.46
439.045	755.95
439.485	727.83
439.925	711.88
440.365	692.86
440.805	683.64
441.245	676.67
441.685	654.28
442.125	649.75
442.564	655.32
443.004	641.39
443.444	640.92
443.883	642.56
444.323	638.41
444.762	640.15
445.202	650.57
445.641	664.98
446.081	661.5
446.52	668.24
446.959	664.79
447.398	650.27
447.837	644.62
448.276	635.24
448.716	642.73
449.154	648
449.593	636.52
450.032	635.07
450.471	624.49
450.91	625.71
451.349	626.22
451.787	623.31
452.226	633.48
452.664	634.82
453.103	635.68
453.541	635.81
453.98	637.84
454.418	642.19
454.856	634.12
455.295	634.07
455.733	639.78
456.171	642.98
456.609	646.08
457.047	647.18
457.485	657.12
457.923	659.46
458.361	650.84
458.798	653.32
459.236	651.58
459.674	655.92
460.111	659.06
460.549	653.23
460.987	650.44
461.424	646.23
461.862	643.25
462.299	633.79
462.736	634.56
463.173	637.07
463.611	629.51
464.048	628.38
464.485	633.31
464.922	626.58
465.359	622.84
465.796	616.75
466.233	613.55
466.67	608.56
467.106	607.26
467.543	599.53
467.98	592.48
468.416	577.19
468.853	572.3
469.29	554.88
469.726	549.81
470.162	535.11
470.599	526.98
471.035	521.77
471.471	509.12
471.907	505.64
472.344	504.62
472.78	506.6
473.216	512.24
473.652	507.05
474.088	506.36
474.523	505.44
474.959	510.46
475.395	506.2
475.831	504.5
476.266	507.22
476.702	507.11
477.138	500.22
477.573	498.43
478.008	497.52
478.444	498.64
478.879	504.02
479.314	505.9
479.75	506.41
480.185	508.58
480.62	513.28
481.055	515.49
481.49	519.23
481.925	527.64
482.36	537.93
482.795	552.88
483.229	569.37
483.664	581.31
484.099	584.22
484.534	593.79
484.968	601.11
485.403	603.11
485.837	603.31
486.271	602.79
486.706	603.46
487.14	596.41
487.574	587.98
488.009	583.25
488.443	579.24
488.877	586.29
489.311	589.04
489.745	596.87
490.179	603.47
490.613	615.9
491.046	621.65
491.48	628.31
491.914	631.13
492.348	637.64
492.781	642.88
493.215	646.18
493.648	649.23
494.082	656.13
494.515	658.31
494.948	668.51
495.382	675.24
495.815	682.54
496.248	690.71
496.681	704.68
497.114	718.68
497.547	731.48
497.98	747.86
498.413	757.74
498.846	770.85
499.279	782.53
499.711	789.29
500.144	794.74
500.577	807.42
501.009	821.24
501.442	835.61
501.874	839.78
502.306	845.74
502.739	855.67
503.171	872.77
503.603	879.12
504.036	891.77
504.468	901.23
504.9	917.61
505.332	929.06
505.764	937.09
506.196	947.58
506.627	965.37
507.059	983.13
507.491	996.27
507.923	997.58
508.354	1016.41
508.786	1031.13
509.217	1051.85
509.649	1069.41
510.08	1092.89
510.512	1113.34
510.943	1132.28
511.374	1148.61
511.805	1171.25
512.237	1194.14
512.668	1231.36
513.099	1262.66
513.53	1294.36
513.961	1319.92
514.391	1356.2
514.822	1392.99
515.253	1433.16
515.684	1461.58
516.114	1493.49
516.545	1517.85
516.975	1547.12
517.406	1566.42
517.836	1569.35
518.267	1576.05
518.697	1595.73
519.127	1600.34
519.558	1607.19
519.988	1610.86
520.418	1621.99
520.848	1640.86
521.278	1650.82
521.708	1666.25
522.138	1679.86
522.567	1713.38
522.997	1740.57
523.427	1756.45
523.857	1774.37
524.286	1786.04
524.716	1801.68
525.145	1821.08
525.575	1833.17
526.004	1847.24
526.433	1842.17
526.863	1841.6
527.292	1829.95
527.721	1835.58
528.15	1841.42
528.579	1841.06
529.008	1852.16
529.437	1876.61
529.866	1891.47
530.295	1909.23
530.724	1922.48
531.152	1951.92
531.581	1966.86
532.01	1986.57
532.438	1994.71
532.867	2009.22
533.295	2029.38
533.723	2035.86
534.152	2032.98
534.58	2032.85
535.008	2015.52
535.436	2017.21
535.865	2026.26
536.293	2043.7
536.721	2060.67
537.149	2090.15
537.576	2094.5
538.004	2108.44
538.432	2118.2
538.86	2117.52
539.287	2125.53
539.715	2142.29
540.143	2146.61
540.57	2141.58
540.998	2135.92
541.425	2110.34
541.852	2086.87
542.28	2085.7
542.707	2068.39
543.134	2052.25
543.561	2047.3
543.988	2038.25
544.415	2036.24
544.842	2029.99
545.269	2021.98
545.696	2024.28
546.123	2038.62
546.549	2026.3
546.976	2010.92
547.403	2009.92
547.829	2011.9
548.256	2014.29
548.682	2010.71
549.108	2002.74
549.535	2002.78
549.961	2005.27
550.387	1991.04
550.813	1985.33
551.24	1993.32
551.666	1995.28
552.092	1985.65
552.518	1977.88
552.943	1971.15
553.369	1980
553.795	1985.59
554.221	1986.34
554.646	1983.84
555.072	1996.5
555.498	2002.96
555.923	2012.97
556.349	2031.21
556.774	2041.29
557.199	2044.68
557.625	2051.06
558.05	2044.76
558.475	2057.41
558.9	2055.99
559.325	2047.59
559.75	2040.23
560.175	2033.36
560.6	2026.92
561.025	2024.6
561.449	2025.89
561.874	2032.88
562.299	2039.96
562.723	2048.21
563.148	2038.38
563.572	2044.52
563.997	2056.19
564.421	2064.83
564.846	2067.2
565.27	2073.15
565.694	2071.77
566.118	2086.87
566.542	2096.13
566.966	2090.59
567.39	2087.46
567.814	2076.33
568.238	2077.65
568.662	2086.39
569.086	2090.23
569.509	2099.96
569.933	2083.33
570.357	2075.96
570.78	2052.83
571.204	2039.41
571.627	2027.83
572.05	2027.03
572.474	2028.6
572.897	2015.67
573.32	2007.72
573.743	1998.48
574.166	1978.48
574.589	1980.29
575.012	1973.1
575.435	1974.56
575.858	1965.31
576.281	1954.2
576.704	1937.52
577.126	1924.01
577.549	1912.47
577.972	1900.46
578.394	1889.4
578.817	1881.49
579.239	1860.33
579.661	1846.36
580.084	1828.07
580.506	1813.44
580.928	1809.07
581.35	1797.42
581.772	1793.45
582.194	1778.77
582.616	1765.19
583.038	1748.9
583.46	1738.16
583.882	1736.5
584.303	1741.04
584.725	1736.84
585.147	1739.33
585.568	1751.74
585.99	1766.23
586.411	1774.36
586.833	1791.97
587.254	1793.68
587.675	1808.95
588.096	1823.53
588.518	1816.74
588.939	1797.58
589.36	1793.24
589.781	1782.33
590.202	1750.86
590.623	1740.19
591.043	1736.77
591.464	1721.72
591.885	1717.86
592.305	1711.91
592.726	1694.7
593.147	1696.7
593.567	1690.52
593.987	1683.08
594.408	1676.6
594.828	1674.68
595.248	1667.98
595.669	1647.25
596.089	1640.15
596.509	1632.69
596.929	1617.74
597.349	1619.66
597.769	1607.74
598.189	1600.1
598.608	1601.94
599.028	1605.41
599.448	1605.23
599.867	1590.37
600.287	1585.46
600.706	1580
601.126	1570.98
601.545	1569.07
601.965	1567.6
602.384	1561.32
602.803	1565.99
603.222	1560.63
603.641	1551.26
604.061	1546.62
604.48	1542.89
604.898	1552.73
605.317	1558.95
605.736	1559.45
606.155	1557.55
606.574	1546.89
606.992	1553.36
607.411	1547.09
607.829	1538.28
608.248	1536.89
608.666	1534.13
609.085	1534.06
609.503	1524.73
609.921	1517.61
610.339	1520.86
610.758	1519.73
611.176	1515.24
611.594	1504.2
612.012	1501.32
612.43	1505.28
612.847	1511.61
613.265	1513.62
613.683	1518.5
614.101	1519.73
614.518	1515.52
614.936	1503.8
615.353	1487.54
615.771	1484.9
616.188	1486.17
616.606	1480.99
617.023	1472.71
617.44	1456.62
617.857	1448.85
618.274	1438.58
618.691	1432.45
619.108	1422.27
619.525	1414.96
619.942	1423.18
620.359	1424.81
620.776	1419.72
621.192	1416.6
621.609	1414.49
622.026	1422.59
622.442	1429.47
622.859	1434.24
623.275	1424.67
623.691	1430.74
624.108	1445.15
624.524	1460.9
624.94	1461.2
625.356	1472.01
625.772	1487.01
626.188	1500.41
626.604	1501.69
627.02	1497.23
627.436	1493.84
627.852	1503.13
628.268	1516.37
628.683	1505.83
629.099	1496.47
629.514	1491.76
629.93	1495.75
630.345	1500.88
630.761	1496.62
631.176	1500.16
631.591	1493.16
632.007	1487.36
632.422	1484.09
632.837	1470.78
633.252	1467.68
633.667	1454.31
634.082	1442.86
634.497	1426.99
634.911	1403.2
635.326	1397.08
635.741	1375.93
636.155	1362.62
636.57	1360.88
636.984	1357.93
637.399	1358.88
637.813	1356.55
638.228	1353.12
638.642	1355.7
639.056	1341.93
639.47	1339.7
639.884	1327.89
640.298	1318.96
640.712	1315.73
641.126	1299.88
641.54	1287.89
641.954	1279.06
642.368	1262.39
642.781	1252
643.195	1230.56
643.609	1229.51
644.022	1220.99
644.436	1214.14
644.849	1199
645.262	1183.03
645.676	1181.06
646.089	1173.65
646.502	1154.47
646.915	1145.59
647.328	1124.41
647.741	1119.33
648.154	1102.2
648.567	1095.65
648.98	1079.19
649.393	1077.08
649.805	1071.15
650.218	1062.62
650.631	1044.58
651.043	1037.18
651.456	1030.78
651.868	1030.66
652.28	1047.48
652.693	1061.01
653.105	1067.28
653.517	1075.92
653.929	1074.86
654.341	1080.73
654.753	1067.14
655.165	1071.86
655.577	1067.98
655.989	1060.09
656.401	1050.44
656.813	1011.87
657.224	989.12
657.636	957.48
658.047	937.49
658.459	915.22
658.87	902.26
659.282	887.36
659.693	863.19
660.104	845.24
660.515	829.06
660.926	822.9
661.338	814.88
661.749	804.25
662.159	791.03
662.57	782.08
662.981	774.67
663.392	763
663.803	761.82
664.213	756.16
664.624	748.31
665.035	747.82
665.445	731.17
665.855	721.86
666.266	711.57
666.676	705.88
667.086	695.09
667.497	690.03
667.907	682.09
668.317	670.85
668.727	666
669.137	662.13
669.547	656.87
669.956	656.79
670.366	655.68
670.776	654.61
671.186	656.42
671.595	658.03
672.005	658.56
672.414	656.86
672.824	654.56
673.233	654.93
673.642	656.32
674.052	658.41
674.461	659.74
674.87	662.3
675.279	659.76
675.688	660.52
676.097	661.16
676.506	659.29
676.915	671.13
677.323	673.83
677.732	673.09
678.141	673.44
678.549	664.61
678.958	665.15
679.366	666.07
679.775	672.07
680.183	683.01
680.592	690.33
681	698.3
681.408	696.35
681.816	707.13
682.224	719.73
682.632	733.12
683.04	765.49
683.448	794.61
683.856	830.87
684.264	871.44
684.671	910.43
685.079	957.53
685.487	1011.88
685.894	1082.77
686.302	1144.37
686.709	1198.09
687.116	1260.49
687.524	1313.28
687.931	1360.58
688.338	1401.49
688.745	1438.72
689.152	1480.01
689.559	1533.55
689.966	1584.57
690.373	1612.19
690.78	1659.79
691.187	1732.53
691.593	1786.43
692	1834.51
692.407	1903.33
692.813	1987.28
693.22	2052.8
693.626	2123.26
694.032	2175.43
694.439	2256.88
694.845	2320.89
695.251	2401.51
695.657	2470.25
696.063	2579.57
696.469	2657.76
696.875	2729.6
697.281	2769.51
697.687	2818.51
698.093	2855.82
698.498	2935.01
698.904	2994.42
699.31	3087.41
699.715	3151.93
700.12	3249.86
700.526	3262.66
700.931	3336.03
701.337	3387.9
701.742	3419.12
702.147	3507.35
702.552	3536.59
702.957	3599.47
703.362	3618.1
703.767	3643.7
704.172	3681.52
704.577	3625.28
704.981	3675.16
705.386	3687.67
705.791	3676.58
706.195	3754.82
706.6	3760.47
707.004	3843.03
707.408	3805.08
707.813	3829.98
708.217	3813.92
708.621	3815.6
709.025	3918.02
709.43	3914.57
709.834	3976.46
710.237	4049.01
710.641	4028.94
711.045	4049.49
711.449	4041.85
711.853	4068.55
712.256	4109.93
712.66	4146.82
713.064	4220.83
713.467	4263.36
713.87	4379.21
714.274	4423.61
714.677	4534.4
715.08	4701.38
715.484	4877.45
715.887	5088.39
716.29	5297.43
716.693	5515.37
717.096	5766.72
717.499	5903.78
717.901	5922.7
718.304	5948.1
718.707	5970.6
719.109	5857.36
719.512	5821.86
719.915	5674.71
720.317	5607.22
720.719	5647.56
721.122	5610.87
721.524	5555.76
721.926	5508.24
722.328	5611.03
722.731	5596.46
723.133	5622.37
723.535	5823.93
723.937	5841.16
724.338	5891.37
724.74	5932.57
725.142	5859.54
725.544	5856.76
725.945	5880.61
726.347	5874.19
726.748	5863.25
727.15	5877.15
727.551	5838.07
727.952	5805.27
728.354	5773.23
728.755	5770.29
729.156	5723.19
729.557	5711.64
729.958	5580.07
730.359	5519.71
730.76	5496.44
731.161	5432.32
731.562	5402.11
731.962	5398.86
732.363	5329.43
732.763	5260.43
733.164	5296.31
733.564	5228.83
733.965	5128.86
734.365	5092.47
734.766	5117.39
735.166	5078.15
735.566	5021.8
735.966	4994.59
736.366	4988.84
736.766	4925.93
737.166	4957.98
737.566	4913.72
737.966	4881.99
738.365	4921
738.765	4914.88
739.165	4841.61
739.564	4814.69
739.964	4856.99
740.363	4808.13
740.763	4806.14
741.162	4793.96
741.561	4763.06
741.96	4716.68
742.36	4739.28
742.759	4746.74
743.158	4786.65
743.557	4801.89
743.955	4843.97
744.354	4798.75
744.753	4858.06
745.152	4816.68
745.55	4873.32
745.949	4865.86
746.348	4868.32
746.746	4886.45
747.144	4843.85
747.543	4819.57
747.941	4869.97
748.339	4797.62
748.737	4789.94
749.136	4781.51
749.534	4847.43
749.932	4817.03
750.33	4841.75
750.727	4898.73
751.125	4872.76
751.523	4856.87
751.921	4901.13
752.318	4862.06
752.716	4917.94
753.113	4932.02
753.511	4956.65
753.908	4955.4
754.305	4938.26
754.703	4999.32
755.1	5059.32
755.497	5122.93
755.894	5315.69
756.291	5499.38
756.688	5836.91
757.085	6288.48
757.482	6922.78
757.878	7614.42
758.275	8240.04
758.672	9098.87
759.068	9798.4
759.465	10799.55
759.861	12081.38
760.258	13581.29
760.654	14350.61
761.05	14246.7
761.447	13595.35
761.843	12656.13
762.239	11683.29
762.635	11248.09
763.031	10829.8
763.427	10221.21
763.822	9582.93
764.218	8955.01
764.614	8138.88
765.01	7594.89
765.405	7239.3
765.801	6972.55
766.196	6628.7
766.592	6440.07
766.987	6115.41
767.382	5896.94
767.778	5808.47
768.173	5677.3
768.568	5604.03
768.963	5474.4
769.358	5491.52
769.753	5445.34
770.148	5359.43
770.542	5358.34
770.937	5327.81
771.332	5422
771.726	5444.04
772.121	5381.7
772.515	5438.64
772.91	5424.4
773.304	5499.57
773.699	5433.99
774.093	5486.66
774.487	5546.49
774.881	5591.23
775.275	5588.76
775.669	5546.29
776.063	5589.86
776.457	5624.65
776.851	5545.85
777.245	5535.68
777.638	5567.58
778.032	5687.71
778.425	5649.67
778.819	5690.15
779.212	5648.05
779.606	5605.15
779.999	5625.11
780.392	5608.05
780.786	5692.69
781.179	5715.62
781.572	5756.21
781.965	5771.2
782.358	5707.54
782.751	5766.53
783.143	5717.42
783.536	5790.12
783.929	5832.06
784.322	5951.41
784.714	5986.01
785.107	5978.75
785.499	6051.12
785.891	6032.8
786.284	6012.57
786.676	6160.64
787.068	6139.42
787.46	6191.85
787.852	6212.71
788.245	6302.26
788.636	6328.24
789.028	6393.5
789.42	6436.33
789.812	6444.85
790.204	6545.55
790.595	6648.79
790.987	6446.44
791.378	6473.2
791.77	6605.54
792.161	6745.07
792.553	6802.29
792.944	6694.1
793.335	6625.69
793.726	6701.19
794.117	6795.61
794.508	6936.23
794.899	6903.12
795.29	7049.25
795.681	7107.37
796.072	6963.51
796.463	6775.19
796.853	6782.55
797.244	6941.8
797.634	6978.3
798.025	6974.4
798.415	6987.42
798.806	7078.15
799.196	7166.31
799.586	7216.17
799.976	7178.46
800.366	7414.62
800.756	7660.53
801.146	7621.45
801.536	7651.79
801.926	7725.08
802.316	7755.78
802.706	7828.09
803.095	7700.6
803.485	7805.9
803.874	7851.07
804.264	8116.77
804.653	8091.02
805.043	8243.91
805.432	8357.06
805.821	8359.13
806.21	8386.07
806.599	8507.16
806.988	8554.21
807.377	8668.42
807.766	8806.14
808.155	9096.56
808.544	8828.46
808.933	8842.07
809.321	8821.17
809.71	9125.08
810.098	9287.65
810.487	9762.39
810.875	10259.77
811.264	10285.35
811.652	10584.36
812.04	10726.01
812.428	10897.58
812.816	11677.65
813.204	12108.23
813.592	12672.72
813.98	13022.47
814.368	12927.31
814.756	13418.51
815.144	13338.67
815.531	13816.1
815.919	13734.19
816.306	14053.72
816.694	13731.55
817.081	13782.28
817.469	14137.65
817.856	14127.39
818.243	14409.99
818.63	14818.62
819.017	14388.95
819.404	14444.3
819.791	14838.13
820.178	15474.63
820.565	15735.41
820.952	16703.09
821.339	16202.67
821.725	16388.32
822.112	15632.67
822.498	15579.43
822.885	15706.53
823.271	15602.81
823.657	16040.86
824.044	16049.19
824.43	16120.2
824.816	16087.42
825.202	15626.97
825.588	16671.38
825.974	16688.97
826.36	17217.96
826.746	17248.61
827.132	17613.39
827.517	17590.24
827.903	16785.48
828.289	16826.84
828.674	16032.75
829.06	15917.7
829.445	16329.94
829.83	16695.25
830.216	17187.16
830.601	17564.71
830.986	17152.36
831.371	17016
831.756	17589.78
832.141	17143.27
832.526	17134.88
832.911	17433.03
833.295	17317.09
833.68	17805.24
834.065	17173.83
834.449	16242.55
834.834	16172.61
835.218	16175.35
835.603	16530.27
835.987	16315.95
836.371	17169.94
836.755	17060.07
837.139	17457.43
837.524	17706.27
837.908	17517.23
838.291	17579.89
838.675	17642.89
839.059	17852.54
839.443	17841.09
839.827	17596.4
840.21	18083.06
840.594	17932.69
840.977	18148.1
841.361	18131.12
841.744	18518.74
842.127	18359.3
842.511	18607.7
842.894	19229.37
843.277	19619.5
843.66	20172.35
844.043	20269.12
844.426	19450.89
844.809	19136.62
845.191	19171.79
845.574	18707.37
845.957	18335.33
846.339	18227.99
846.722	17688.58
847.104	17753.92
847.487	17571.14
847.869	17596.8
848.252	17880.53
848.634	18219.05
849.016	18494.71
849.398	18622.13
849.78	19498.56
850.162	19513.19
850.544	19939.56
850.926	20596.01
851.307	20508.95
851.689	20808.09
852.071	21265.7
852.452	21592.4
852.834	21572.84
853.215	21984.71
853.597	22140.59
853.978	22437.48
854.359	22900.85
854.741	21881.14
855.122	21773.12
855.503	21473.59
855.884	21608.27
856.265	21543.02
856.646	21671.71
857.026	21268.49
857.407	21197.02
857.788	21363.19
858.169	21663.06
858.549	20793.52
858.93	21446.2
859.31	21495.02
859.69	21710.57
860.071	21294.67
860.451	21072.06
860.831	20317.98
861.211	21510.4
861.591	22077.03
861.971	22049
862.351	22252.84
862.731	22650.39
863.111	22906.92
863.491	23247.14
863.87	24155.85
864.25	24520.12
864.629	24109.15
865.009	24631.08
865.388	25505.35
865.768	27338.86
866.147	27235.97
866.526	25720.28
866.905	26027.16
867.284	27488.94
867.663	26110.41
868.042	25021.95
868.421	24929.24
868.8	25339.79
869.179	25582.93
869.558	24098.64
869.936	22210.61
870.315	22610.63
870.693	23157.48
871.072	24973.63
871.45	23804.63
871.828	24113.24
872.207	25345.15
872.585	24972.84
872.963	25663.05
873.341	24777.49
873.719	24483.22
874.097	24184.79
874.475	24648.58
874.853	25222.89
875.23	24174.46
875.608	25180.42
875.986	27237.82
876.363	26056.62
876.741	26860.22
877.118	26183.13
877.495	27479.66
877.873	27932.58
878.25	29401.51
878.627	28187.58
879.004	28580.83
879.381	28444.61
879.758	27696.85
880.135	25783.25
880.512	27268.1
880.889	26550.55
881.265	26273.25
881.642	26045.13
882.019	26495.22
882.395	25961.39
882.772	27005.14
883.148	25840.58
883.524	25736.47
883.901	25583.91
884.277	25954.5
884.653	25784.93
885.029	26508.51
885.405	29355.38
885.781	29135.83
886.157	27929.54
886.532	28271.19
886.908	28250.82
887.284	31412.55
887.659	32438.98
888.035	33435.62
888.411	34297.06
888.786	34755.39
889.161	35964.35
889.537	35312.8
889.912	36441.69
890.287	36417.17
890.662	37339.22
891.037	36661.57
891.412	34190.19
891.787	33855.1
892.162	32697.84
892.536	33478.4
892.911	32223.5
893.286	31555.21
893.66	30269.95
894.035	31033.84
894.409	33799.56
894.784	32446.53
895.158	32995.44
895.532	34953.41
895.906	35897.37
896.281	36730.19
896.655	36134.7
897.029	41287.55
897.402	42987.07
897.776	47869.98
898.15	47718.85
898.524	47174.75
898.898	47807.56
899.271	53520.69
899.645	46336.48
900.018	44523.04
900.392	46177.52
900.765	46567.55
901.138	43091.88
901.511	42448.61
901.884	38965.6
902.258	35963.37
902.631	37168.81
903.003	42781.16
903.376	38612.59
903.749	43300.73
904.122	46351.55
904.495	51037.15
904.867	51676.85
905.24	44878.06
905.612	41771.83
905.985	42742.72
906.357	44669.86
906.729	42664.24
907.102	36456.5
907.474	35036.97
907.846	35270.05
908.218	34799.65
908.59	30763.27
908.962	29745.9
909.334	32031.07
909.705	33649.39
910.077	32656.26
910.449	33983.36
910.82	34920.69
911.192	38425
911.563	39947.23
911.935	42721.59
912.306	42770.47
912.677	44155.12
913.048	43726.32
913.419	47428.55
913.79	47697.78
914.161	51174.57
914.532	48928.33
914.903	44975.66
915.274	42705.01
915.645	42062.38
916.015	37029.2
916.386	35309.99
916.756	37584.04
917.127	38771.1
917.497	34655.82
917.868	37730.22
918.238	35832.41
918.608	36875.36
918.978	37630.87
919.348	39858.03
919.718	41212.53
920.088	39718.01
920.458	41290.81
920.828	43460.03
921.198	41213.42
921.567	44042.87
921.937	34111.2
922.306	34456.82
922.676	37173.07
923.045	31001.02
923.415	29447.74
923.784	26802.52
924.153	27569.72
924.522	27540.23
924.891	25893.86
925.26	27732.95
925.629	27062.39
925.998	31111.7
926.367	30359.89
926.736	28888.85
927.104	34425.39
927.473	37036.12
927.842	44750.82
928.21	44304.33
928.578	46570.69
928.947	44047.28
929.315	44322.26
929.683	51995.54
930.051	52418.03
930.42	60894.71
930.788	52097.26
931.156	51711.04
931.523	48413.06
931.891	44756.45
932.259	43000.18
932.627	49814.77
932.994	70468.07
933.362	58202.69
933.729	50571.16
934.097	48393.87
934.464	40956.4
934.831	47249.81
935.199	46592.41
935.566	45214.2
935.933	45761.46
936.3	55440.22
936.667	43157.03
937.034	38924.45
937.401	38538.72
937.767	33276.42
938.134	29622.04
938.501	41773.94
938.867	44492.47
939.234	75189.45
939.6	64160.55
939.967	70781.28
940.333	47335.15
940.699	40323.65
941.065	32349.7
941.431	42402.64
941.798	40824.59
942.163	53642.92
942.529	33497.23
942.895	30836.62
943.261	19951.52
943.627	26176.87
943.992	22918.67
944.358	22953.99
944.723	23032.26
945.089	22473.48
945.454	20767.58
945.82	22179.69
946.185	21317.47
946.55	24692.25
946.915	22172.98
947.28	26025.97
947.645	22902.11
948.01	21146.47
948.375	22047.64
948.74	26418.01
949.104	30814.6
949.469	44481.64
949.834	78583.6
950.198	74400.07
950.562	44594.18
950.927	37096.56
951.291	44591.96
951.655	38013.19
952.02	35663.31
952.384	26984.44
952.748	23497.17
953.112	22903.74
953.476	19905.75
953.839	18414.51
954.203	18248.34
954.567	22830.84
954.931	35961.3
955.294	30763.78
955.658	30931.5
956.021	52616.87
956.385	89196.53
956.748	131613.91
957.111	204137.17
957.474	229241.63
957.837	258247.02
958.2	195354.64
958.563	70296.72
958.926	47509.31
959.289	72211.55
959.652	80652.48
960.015	60527.73
960.377	86872.01
960.74	99195.54
961.102	171181.94
961.465	183841.86
961.827	98400.57
962.189	188787.89
962.552	130765.16
962.914	104881.72
963.276	68018.92
963.638	56205.24
964	55684.98
964.362	37669.84
964.724	36386.58
965.085	25971.62
965.447	21304.28
965.809	24291.95
966.17	24350.43
966.532	26375.91
966.893	24248.68
967.255	22073.34
967.616	26080.75
967.977	20858.75
968.338	22776.17
968.699	18735.76
969.061	18719.9
969.421	18840.02
969.782	21139.81
970.143	17853.97
970.504	18488.83
970.865	20973.59
971.225	21435.56
971.586	20976.02
971.946	29939.04
972.307	25985
972.667	33992.89
973.027	35047.7
973.388	42518.04
973.748	28915.77
974.108	31484.31
974.468	42617.93
974.828	32885.72
975.188	25310.21
975.548	23248.54
975.907	19527.14
976.267	21906.3
976.627	18385.4
976.986	19041.37
977.346	18154.44
977.705	17477.95
978.064	15921.97
978.424	13243.99
978.783	13703.49
979.142	15641.12
979.501	14956.58
979.86	15801.27
980.219	15228.1
980.578	19641.38
980.937	22006.87
981.296	19609
981.654	20177.07
982.013	31366.95
982.371	40702.11
982.73	38028.12
983.088	43042.35
983.447	46030.27
983.805	65828.3
984.163	137491.14
984.521	152658.8
984.879	223689.57
985.237	-364043.05
985.595	350553.7
985.953	87166.23
986.311	50383.25
986.669	29204.69
987.026	25229.43
987.384	33887.43
987.741	35006.63
988.099	24994.91
988.456	19926.08
988.814	18685.91
989.171	16243.73
989.528	16051.02
989.885	16945.27
990.242	13394.46
990.599	16694.23
990.956	13654.17
991.313	9570.63
991.67	7851.48
992.027	8328.44
992.383	7394.13
992.74	6488.67
993.096	6807.24
993.453	7057.85
993.809	7315.01
994.165	9751.21
994.522	8942.98
994.878	9853.04
995.234	12352.68
995.59	12197.22
995.946	11568.07
996.302	13233.77
996.658	15261.13
997.013	16823.41
997.369	19924.64
997.725	25508.16
998.08	16533.4
998.436	25520.91
998.791	35211.48
999.147	35062.06
999.502	38305.78
999.857	27826.88
1000.212	45218.15
1000.567	64590.21
1000.922	37265.76
1001.277	23709.35
1001.632	17611.09
1001.987	22718.33
1002.342	16289.98
1002.696	13049.95
1003.051	10409.29
1003.406	12592.13
1003.76	12540.57
1004.114	12380.33
1004.469	10394.41
1004.823	8607.62
1005.177	9275.35
1005.531	7338.74
1005.885	6500.15
1006.239	7344.23
1006.593	9170.54
1006.947	12293.11
1007.301	9246.24
1007.655	10077.12
1008.008	7408.13
1008.362	8299.29
1008.715	11825.07
1009.069	10744.09
1009.422	16214.26
1009.776	32552.14
1010.129	21543.66
1010.482	18055.69
1010.835	15263.86
1011.188	31613.86
1011.541	29769.57
1011.894	-181938.16
1012.247	537334.02
1012.6	36560.84
1012.952	23050.18
1013.305	11848.51
1013.657	8538.79
1014.01	8107.21
1014.362	6687.4
1014.715	5935.08
1015.067	5180.86
1015.419	5067.93
1015.771	4488.75
1016.123	3977.05
1016.475	4088.91
1016.827	4377.42
1017.179	4715.86
1017.531	4762.33
1017.883	4853.64
1018.234	4706.02
1018.586	5934.36
1018.938	6287.96
1019.289	8669.83
1019.64	9903.84
1019.992	9263.28
1020.343	8483.95
1020.694	6672.28
1021.045	5883.05
1021.396	6697.84
1021.747	7206.94
1022.098	8601.77
1022.449	6261.6
1022.8	5813.31
1023.151	4036.79
1023.501	3590.06
1023.852	3893.6
1024.202	4038.97
1024.553	4433.62
1024.903	4331.25
1025.253	3705.94
1025.604	3324.06
1025.954	4124.54
1026.304	5021.4
1026.654	5842.92
1027.004	8612.79
1027.354	13897.19
1027.703	13122.94
1028.053	17227.7
1028.403	25222.69
1028.753	36760.9
1029.102	49922.77
1029.452	256236.77
1029.801	11044.72
1030.15	7155.22
1030.499	6070.73
897.758	2625.35
901.051	2584.18
904.343	2618.21
907.636	2619.84
910.928	2683.55
914.22	2593.44
917.511	2599.87
920.803	2663.56
924.094	2680.89
927.384	2661.32
930.675	2628.62
933.965	2582.42
937.255	2593.88
940.544	2561.51
943.834	2507.7
947.123	2451.17
950.411	2546.14
953.7	2520.21
956.988	2489.41
960.276	2429.64
963.563	2508.18
966.851	2505.29
970.138	2560.27
973.424	2552.05
976.711	2503.07
979.997	2627.93
983.283	2663.03
986.568	2570.27
989.853	2587.21
993.138	2612.18
996.423	2694.6
999.708	2634.28
1002.992	2694.71
1006.275	2540.4
1009.559	2580.5
1012.842	2693.02
1016.125	2625.32
1019.408	2607.85
1022.69	2694.72
1025.972	2712.48
1029.254	2686.19
1032.536	2619.87
1035.817	2646.07
1039.098	2591.91
1042.379	2730.27
1045.659	2732.64
1048.939	2667.96
1052.219	2687.17
1055.498	2696.06
1058.778	2681.54
1062.057	2664.75
1065.335	2688.66
1068.614	2706.89
1071.892	2690.88
1075.17	2766.52
1078.447	2753.84
1081.724	2745.54
1085.001	2780.26
1088.278	2756.97
1091.554	2769.79
1094.83	2765.77
1098.106	2794.14
1101.382	2837.85
1104.657	2838.22
1107.932	2832.51
1111.206	2797.51
1114.481	2756.84
1117.755	2759.01
1121.029	2739.49
1124.302	2790.69
1127.575	2743.74
1130.848	2730.48
1134.121	2692.78
1137.393	2641.48
1140.665	2712.28
1143.937	2687.76
1147.208	2645.96
1150.48	2686.55
1153.75	2671.99
1157.021	2703.02
1160.291	2674.69
1163.561	2720.34
1166.831	2709.89
1170.101	2740.92
1173.37	2717.44
1176.639	2659.79
1179.907	2717.32
1183.176	2724.35
1186.444	2731.81
1189.711	2761.14
1192.979	2775.87
1196.246	2727.9
1199.513	2746.44
1202.78	2745.5
1206.046	2755.22
1209.312	2777.68
1212.578	2802.88
1215.843	2756.66
1219.108	2732.67
1222.373	2754.84
1225.638	2719.18
1228.902	2700.64
1232.166	2671.16
1235.43	2650.57
1238.693	2672.76
1241.956	2668.46
1245.219	2712.09
1248.482	2701
1251.744	2696.31
1255.006	2842.47
1258.268	2795.37
1261.529	2740.16
1264.79	2745.75
1268.051	2852.07
1271.312	2868.56
1274.572	2829.52
1277.832	2822.3
1281.092	2811.93
1284.351	2786.58
1287.61	2765.53
1290.869	2680.81
1294.128	2660.14
1297.386	2747.77
1300.644	2736.59
1303.902	2744.9
1307.159	2607.16
1310.416	2662.55
1313.673	2684.83
1316.93	2668.2
1320.186	2714.17
1323.442	2757.86
1326.697	2750.15
1329.953	2738.67
1333.208	2758.8
1336.463	2742.04
1339.717	2680.67
1342.972	2811.46
1346.226	2789.55
1349.479	2723.21
1352.733	2694.84
1355.986	2717.84
1359.238	2692.79
1362.491	2691.85
1365.743	2697.3
1368.995	2691.9
1372.247	2702.83
1375.498	2726.62
1378.749	2742.14
1382	2697.06
1385.251	2751.05
1388.501	2711.97
1391.751	2695.39
1395	2666.74
1398.25	2699.01
1401.499	2707.32
1404.748	2635.81
1407.996	2626.67
1411.244	2613.12
1414.492	2593.33
1417.74	2570.88
1420.987	2580.42
1424.234	2635.67
1427.481	2615.66
1430.728	2673.25
1433.974	2647.23
1437.22	2658.51
1440.465	2663.34
1443.711	2626.62
1446.956	2661.17
1450.201	2648.18
1453.445	2693.96
1456.689	2670.89
1459.933	2683.53
1463.177	2714.7
1466.42	2688.92
1469.663	2668.32
1472.906	2662.69
1476.148	2730.79
1479.391	2701.46
1482.633	2669.94
1485.874	2679.85
1489.115	2666.86
1492.356	2673.65
1495.597	2649.73
1498.838	2652.32
1502.078	2621.29
1505.318	2574.88
1508.557	2617.3
1511.797	2596.41
1515.036	2658.13
1518.274	2650.66
1521.513	2623.56
1524.751	2643.37
1527.989	2654.14
1531.227	2668.32
1534.464	2663.12
1537.701	2683.89
1540.938	2702.55
1544.174	2653.98
1547.41	2654.1
1550.646	2693.36
1553.882	2730.35
1557.117	2783.79
1560.352	2797.94
1563.587	2757.82
1566.821	2717.39
1570.055	2751.36
1573.289	2720.62
1576.523	2794.49
1579.756	2804.49
1582.989	2820.74
1586.222	2784.06
1589.454	2816.36
1592.686	2791.68
1595.918	2819.81
1599.15	2808.49
1602.381	2882.96
1605.612	2838.98
1608.843	2936.45
1612.073	2851.63
1615.303	2834.07
1618.533	2826.38
1621.762	2824.68
1624.992	2820.38
1628.221	2804.67
1631.449	2789.52
1634.678	2845.83
1637.906	2798.48
1641.134	2837.61
1644.361	2794.16
1647.588	2781.54
1650.815	2800.62
1654.042	2779.9
1657.269	2810.69
1660.495	2759.34
1663.72	2784.03
1666.946	2747.04
1670.171	2691.06
1673.396	2668.92
1676.621	2655.61
1679.845	2673.4
1683.069	2694.24
1686.293	2733.63
1689.517	2705.56
1692.74	2637.35
1695.963	2666.92
1699.185	2681.99
1702.408	2659.19
1705.63	2699.41
1708.852	2710.38
1712.073	2684.57
1715.294	2671.02
1718.515	2731.45
1721.736	2680.58
1724.956	2673.14
1728.176	2698.35
1731.396	2720.9
1734.616	2705.6
1737.835	2734
1741.054	2713.65
1744.272	2706.82
1747.491	2736.39
1750.709	2788.59
1753.927	2694.81
1757.144	2737.75
1760.361	2779.04
1763.578	2771.89
1766.795	2712.82
1770.011	2721.06
1773.227	2758.21
1776.443	2793.92
1779.658	2838.78
1782.874	2782.57
1786.089	2760.76
1789.303	2762.51
1792.518	2771.82
1795.732	2759.02
1798.945	2767.05
1802.159	2816.78
1805.372	2721.11
1808.585	2705.33
1811.797	2707.25
1815.01	2754.71
1818.222	2757.07
1821.434	2741
1824.645	2798.29
1827.856	2781.72
1831.067	2817.5
1834.278	2775.11
1837.488	2756.91
1840.698	2903.6
1843.908	2831.23
1847.117	2795.17
1850.326	2679.79
1853.535	2781.26
1856.744	2795.14
1859.952	2709.02
1863.16	2712.38
1866.368	2733.94
1869.575	2834.22
1872.782	2723.34
1875.989	2663.28
1879.196	2745.3
1882.402	2733.16
1885.608	2773.85
1888.814	2678.34
1892.019	2575.16
1895.224	2627.81
1898.429	2608.93
1901.634	2588.43
1904.838	2569.54
1908.042	2616.36
1911.246	2623.61
1914.449	2557.03
1917.652	2554.87
1920.855	2537.58
1924.058	2583.43
1927.26	2620.27
1930.462	2648.32
1933.664	2674.1
1936.865	2612.35
1940.066	2617.97
1943.267	2565.89
1946.467	2581.94
1949.668	2608.28
1952.868	2674.08
1956.067	2652.82
1959.267	2586.95
1962.466	2614.42
1965.665	2600.74
1968.863	2594.9
1972.061	2607.74
1975.259	2606.88
1978.457	2686.65
1981.654	2643.34
1984.852	2643.08
1988.048	2577.66
1991.245	2581.43
1994.441	2666.76
1997.637	2651.47
2000.833	2634.63
2004.028	2672.32
2007.223	2728.23
2010.418	2702.65
2013.613	2665.18
2016.807	2636.23
2020.001	2645.4
2023.194	2687.9
2026.388	2662.3
2029.581	2610.3
2032.774	2656.42
2035.966	2657.66
2039.158	2592.38
2042.35	2620.63
2045.542	2553.07
2048.733	2648.73
2051.924	2673.02
2055.115	2699.97
2058.306	2645.16
2061.496	2706.34
2064.686	2766.49
2067.875	2683.48
2071.065	2699.28
2074.254	2724.12
2077.442	2674.58
2080.631	2761.37
2083.819	2657.15
2087.007	2638.61
2090.195	2607.88
2093.382	2642.17
2096.569	2622
2099.756	2577.23
2102.942	2602.62
2106.128	2606.19
2109.314	2599.16
2112.5	2562.4
2115.685	2542.81
2118.87	2552.76
2122.055	2617.23
2125.239	2585.58
2128.424	2561.52
2131.608	2662.9
2134.791	2643.84
2137.974	2701.92
2141.157	2688.13
2144.34	2640.54
2147.523	2656.26
2150.705	2667.41
2153.887	2647.13
2157.068	2598.43
2160.25	2598.43
2163.431	2636.31
2166.611	2582.44
2169.792	2599.15
2172.972	2493.82
2176.152	2571.47
2179.331	2607.02
2182.511	2587.46
2185.69	2616.72
2188.868	2611.3
2192.047	2663.6
2195.225	2655.95
2198.403	2604.32
2201.58	2596.69
2204.758	2594.67
2207.935	2676.67
2211.111	2566.43
2214.288	2548.91
2217.464	2590.62
2220.64	2559.14
2223.815	2613.92
2226.991	2537.19
2230.166	2558.72
2233.34	2589.46
2236.515	2612.79
2239.689	2681.72
2242.863	2628.02
2246.036	2684.42
2249.209	2682.68
2252.382	2719
2255.555	2708.99
2258.727	2645.37
2261.9	2686.38
2265.071	2676.56
2268.243	2678.46
2271.414	2611.26
2274.585	2574.69
2277.756	2639.94
2280.926	2593.09
2284.096	2636.48
2287.266	2542.03
2290.436	2596.61
2293.605	2626.2
2296.774	2653.8
2299.942	2672.44
2303.111	2689.57
2306.279	2739.16
2309.447	2726.25
2312.614	2702.44
2315.781	2725
2318.948	2692.96
2322.115	2731.11
2325.281	2633.32
2328.447	2653.41
2331.613	2629.21
2334.779	2604.56
2337.944	2607.35
2341.109	2604.77
2344.274	2584.91
2347.438	2550.31
2350.602	2576.18
2353.766	2594.7
2356.929	2580.46
2360.092	2623.48
2363.255	2576.09
2366.418	2510.95
2369.58	2621.69
2372.742	2413.85
2375.904	2427.27
2379.066	2406.83
2382.227	2440.49
2385.388	2405.67
2388.548	2330.95
2391.709	2385.2
2394.869	2362.8
2398.029	2458.87
2401.188	2472.55
2404.347	2407.92
2407.506	2545.15
2410.665	2575.64
2413.823	2578.79
2416.981	2536.76
2420.139	2566.22
2423.296	2616.34
2426.453	2588.7
2429.61	2615.67
2432.767	2550.18
2435.923	2587.31
2439.079	2551.21
2442.235	2600.18
2445.391	2524.9
2448.546	2555.78
2451.701	2604.46
2454.855	2575.99
2458.009	2629.2
2461.163	2630.94
2464.317	2588.55
2467.471	2621.49
2470.624	2659.91
2473.777	2630.17
2476.929	2641.87
2480.082	2669.3
2483.234	2633.94
2486.385	2587.75
2489.537	2580.9
2492.688	2543.56
2495.839	2561.43
2498.989	2572.75
2502.14	2559.49
2505.29	2543.32
2508.439	2566.87
2511.589	2492.51
2514.738	2504.03
2517.887	2535.5
2521.035	2600.79
2524.183	2584
2527.331	2561.43
2530.479	2536.55
2533.627	2546.63
