Data from C_2_DIV_PA_2N_Splice17_12-40-08-846.txt Node
Date: Sat Mar 14 12:40:08 EDT 2020
User: sa697716
Spectrometer: FLMS03696
Trigger mode: 0
Integration Time (sec): 3.180400E-1
Scans to average: 20
Electric dark correction enabled: true
Nonlinearity correction enabled: true
Boxcar width: 5
XAxis mode: Wavelengths
Number of Pixels in Spectrum: 2048
>>>>>Begin Spectral Data<<<<<
187.83	-452850.31
188.298	3224.35
188.766	1718.08
189.233	1527.04
189.701	1982.78
190.169	2806.88
190.636	1012.35
191.104	797.64
191.571	109.5
192.039	-94.58
192.506	-93.24
192.974	565.96
193.441	-1002.15
193.908	-216.95
194.375	-90.14
194.842	-98.01
195.31	-31.55
195.777	125.97
196.244	352.94
196.711	365.53
197.177	465.06
197.644	645.85
198.111	1101.02
198.578	1539.82
199.045	1232.68
199.511	2003.21
199.978	2253.09
200.445	1970.11
200.911	2119.94
201.378	2313.88
201.844	2140.49
202.31	3671.43
202.777	3816.06
203.243	2148
203.709	2055.1
204.176	2441.13
204.642	2018.81
205.108	1922.08
205.574	1552.61
206.04	1420.27
206.506	1351.26
206.972	1256.88
207.438	1203.48
207.903	1387.08
208.369	1224.02
208.835	1231.9
209.301	1287.66
209.766	1311.93
210.232	1306.36
210.697	1612.05
211.163	1990.34
211.628	2969.83
212.094	2530.44
212.559	3171.44
213.024	1973.24
213.49	2414.66
213.955	2359.05
214.42	2287.39
214.885	2126.06
215.35	2045.34
215.815	2006.99
216.28	2151.34
216.745	1758.39
217.21	1907.64
217.675	1729.1
218.14	1971.32
218.604	2217.37
219.069	2563.07
219.534	2761.24
219.998	3252.77
220.463	3996.93
220.927	4930.86
221.392	4681.36
221.856	4791.39
222.32	6066
222.785	7566
223.249	9582.4
223.713	10728.06
224.177	10765.47
224.642	13815.91
225.106	17048.46
225.57	18615.46
226.034	13914.09
226.497	21229.04
226.961	19209.59
227.425	22475.92
227.889	25013.94
228.353	25032.05
228.816	51766.04
229.28	49656.75
229.744	41967.97
230.207	25579.84
230.671	25206.2
231.134	41755.18
231.597	48278.42
232.061	48321.42
232.524	47171.38
232.987	32517.1
233.45	29308.46
233.914	26374.39
234.377	27057.09
234.84	24793.19
235.303	29266.55
235.766	32778.97
236.229	33932.56
236.691	21385
237.154	24053.89
237.617	18137.66
238.08	18624.3
238.542	21827.07
239.005	15632.71
239.468	15542.41
239.93	14668.45
240.393	13352.3
240.855	11731.82
241.317	12029.66
241.78	14657.98
242.242	15202.78
242.704	16458.19
243.166	14339.97
243.629	13057.02
244.091	15070.61
244.553	16540.26
245.015	17811.49
245.477	23083.71
245.939	33896.16
246.4	36013.17
246.862	35048.99
247.324	33081.59
247.786	37022.99
248.247	48591.67
248.709	50244.28
249.17	37609.58
249.632	35506.84
250.093	41256.71
250.555	35679.32
251.016	21796.31
251.477	20716.77
251.939	22394
252.4	23521.42
252.861	28005.02
253.322	26096.64
253.783	31093.67
254.244	40321.9
254.705	31820.09
255.166	28304.22
255.627	27869.24
256.088	39356.67
256.549	41792.75
257.009	35989.18
257.47	43670.02
257.931	35547.3
258.391	26626.94
258.852	27453.55
259.312	28812.81
259.773	35588.62
260.233	30109.79
260.694	25416.51
261.154	28824.93
261.614	23160.1
262.074	20755.31
262.534	21581.65
262.994	20361.05
263.455	27142.15
263.915	22883.63
264.374	21564.05
264.834	23563.77
265.294	26122.27
265.754	27083.24
266.214	25645.69
266.673	24059.22
267.133	30337.38
267.593	30121.24
268.052	36877.97
268.512	32121.17
268.971	38779.99
269.431	42555.38
269.89	38135.43
270.349	57196.29
270.809	63850.31
271.268	57429.09
271.727	128817.25
272.186	83476.51
272.645	62661.16
273.104	45219.29
273.563	65436.2
274.022	51367.66
274.481	43720.03
274.94	33657.56
275.399	25015.54
275.857	29113.14
276.316	39365.49
276.775	35002.49
277.233	34494.88
277.692	32271.67
278.15	36516.16
278.609	37578.02
279.067	34806.15
279.525	32313.21
279.984	41769.59
280.442	50181.87
280.9	49458.02
281.358	32538.08
281.816	30337.39
282.274	29692.91
282.732	30643.28
283.19	30785.1
283.648	26542.87
284.106	28277.75
284.564	28753.66
285.021	26653.71
285.479	19855.23
285.937	18037.99
286.394	15828.07
286.852	16275.03
287.309	17081.34
287.767	16530.5
288.224	15714.78
288.682	17251.53
289.139	18939.49
289.596	17330.75
290.053	17997.03
290.511	22719.57
290.968	27601.17
291.425	37480.18
291.882	31223.91
292.339	27194.64
292.796	26988.86
293.252	25456.25
293.709	20249.3
294.166	18170.26
294.623	20103.75
295.079	19332.27
295.536	19451.6
295.992	17665.5
296.449	17476.44
296.905	18147.95
297.362	17432.92
297.818	18352.26
298.274	19059.82
298.731	19421.04
299.187	19208.52
299.643	20647.3
300.099	24947.63
300.555	27367.49
301.011	22871.55
301.467	22089.28
301.923	25910.64
302.379	25331.32
302.835	24870.68
303.291	24889.1
303.746	28321.92
304.202	35773.18
304.658	35938.17
305.113	24186.57
305.569	23696.85
306.024	25268.98
306.479	23993.07
306.935	20231.68
307.39	22068.41
307.845	20385.45
308.301	20524.66
308.756	19991.53
309.211	19276.3
309.666	19710.23
310.121	24459.46
310.576	24794.13
311.031	24591.81
311.486	28199.68
311.94	28145.39
312.395	37625.46
312.85	70671.36
313.305	346676.8
313.759	1797235.44
314.214	130177.71
314.668	103385.15
315.123	87023.93
315.577	31211.85
316.032	27739.93
316.486	34713.98
316.94	27426.9
317.394	19094.06
317.849	14867.34
318.303	14086.02
318.757	13291.83
319.211	14711.25
319.665	12857.47
320.119	13022.54
320.572	18699.02
321.026	17488.7
321.48	14601.21
321.934	15923.93
322.387	15981.04
322.841	17245.73
323.295	15529.46
323.748	17913.22
324.202	18186.74
324.655	21873
325.108	30590.36
325.562	21637.72
326.015	25716.97
326.468	19407.83
326.921	21709.53
327.374	20245.71
327.827	21092.65
328.28	23895.42
328.733	16019.87
329.186	14090.45
329.639	13447.26
330.092	11336.15
330.545	10803.03
330.997	10907.07
331.45	11935.27
331.903	13995.51
332.355	24059.13
332.808	23386.6
333.26	19278
333.713	20903.49
334.165	21020.1
334.617	28041.93
335.069	22635
335.522	40910.37
335.974	45372.92
336.426	41418.8
336.878	28675.74
337.33	14546.07
337.782	14220.71
338.234	17812.55
338.686	21280.91
339.137	25280.07
339.589	23802.64
340.041	18648.24
340.493	16042.66
340.944	16389.21
341.396	17672.24
341.847	14873.35
342.299	17598.16
342.75	21489.79
343.201	18752.03
343.653	21621.76
344.104	26577.99
344.555	20928.18
345.006	32641.53
345.457	25048.94
345.908	19934.4
346.359	18788.88
346.81	15313.51
347.261	16148.64
347.712	15899.27
348.163	17079.5
348.613	17306.84
349.064	16151.04
349.515	14142.08
349.965	14500.62
350.416	17436.74
350.866	19167.69
351.317	21634.31
351.767	35831.14
352.217	45232.25
352.668	37621.01
353.118	34479.78
353.568	33202.95
354.018	26271.22
354.468	27728.41
354.918	19899.49
355.368	17399.23
355.818	24586.54
356.268	70877.44
356.718	297080.28
357.168	73899.76
357.617	37011.73
358.067	41167.65
358.517	38640.66
358.966	45352.31
359.416	50940.59
359.865	55031.57
360.315	65510.37
360.764	30578.93
361.213	17102.71
361.663	16191.52
362.112	20022.82
362.561	32359.8
363.01	24432.83
363.459	20617.87
363.908	22344.77
364.357	18985.73
364.806	32064.99
365.255	22089.49
365.703	20232.9
366.152	20293.86
366.601	16462.33
367.05	13358.94
367.498	12140.08
367.947	12679.7
368.395	13146.54
368.844	11630.36
369.292	13996.41
369.74	9690.33
370.189	14812.03
370.637	17347.43
371.085	14987.61
371.533	18237.69
371.981	17564.95
372.429	16748.97
372.877	17415.76
373.325	14588.13
373.773	14837.49
374.221	13212.22
374.669	16344.67
375.116	14129
375.564	14236.29
376.012	15886.53
376.459	13099.27
376.907	15664.67
377.354	18907.59
377.801	17685.69
378.249	20314.3
378.696	25963.77
379.143	31382.05
379.591	33450.4
380.038	56600.84
380.485	40932.78
380.932	44102.07
381.379	40337.77
381.826	29653.37
382.273	21094.78
382.72	18376.11
383.166	17877.32
383.613	11592.41
384.06	10457.06
384.506	12091.7
384.953	8863.66
385.4	8905.08
385.846	7806.07
386.292	7588.04
386.739	7417.92
387.185	7314.88
387.631	7313.92
388.078	7096.9
388.524	7574.65
388.97	6978.64
389.416	5806.35
389.862	6159.57
390.308	5831.61
390.754	5905.55
391.2	6399.69
391.645	6538.55
392.091	6259.26
392.537	6044
392.983	6027.13
393.428	5924.31
393.874	6336.63
394.319	6363.68
394.765	6028.23
395.21	6183.63
395.655	5793.26
396.101	5423.3
396.546	4887.48
396.991	4920.24
397.436	4564.47
397.881	4417.2
398.326	4175.42
398.771	3954.64
399.216	3448.58
399.661	3110.27
400.106	3104.26
400.551	3183.6
400.995	2852.27
401.44	2822.33
401.885	2654.14
402.329	2683.17
402.774	2574.77
403.218	2503.78
403.663	2416.09
404.107	2492.53
404.551	2516.45
404.995	2307.8
405.44	2225.78
405.884	2266.31
406.328	2197.17
406.772	2193.4
407.216	2005.05
407.66	1946.61
408.104	1848.87
408.547	1734.27
408.991	1685.61
409.435	1625.04
409.879	1611.52
410.322	1591.65
410.766	1544.41
411.209	1476.09
411.653	1421.76
412.096	1398.87
412.54	1400.68
412.983	1397.24
413.426	1407.02
413.869	1408.01
414.312	1385.39
414.756	1336.23
415.199	1281.3
415.642	1246.21
416.085	1250.59
416.527	1246.4
416.97	1267.46
417.413	1205.49
417.856	1194.84
418.298	1186.03
418.741	1182.77
419.184	1185.81
419.626	1238.26
420.069	1244.52
420.511	1258.77
420.953	1237.19
421.396	1231.03
421.838	1202.96
422.28	1235.63
422.722	1248.46
423.164	1269.28
423.606	1249.25
424.048	1248.7
424.49	1191.23
424.932	1186.59
425.374	1169.42
425.816	1192.53
426.258	1218.05
426.699	1235.58
427.141	1221.26
427.582	1239.63
428.024	1236.87
428.465	1234.23
428.907	1205.49
429.348	1192.57
429.789	1194.2
430.231	1171.39
430.672	1186.21
431.113	1157.39
431.554	1141.32
431.995	1113.87
432.436	1077.37
432.877	1050.88
433.318	1032.5
433.759	1028.09
434.2	1028.65
434.64	1016.87
435.081	1020.09
435.522	965.86
435.962	929.82
436.403	907.78
436.843	919.05
437.284	897.6
437.724	874.06
438.164	874.65
438.604	857.29
439.045	823
439.485	790.77
439.925	772.71
440.365	754.18
440.805	743.64
441.245	736.12
441.685	707.34
442.125	700.46
442.564	705.3
443.004	687.67
443.444	682.3
443.883	683.68
444.323	676.55
444.762	675.73
445.202	681.86
445.641	695.42
446.081	687.82
446.52	691.86
446.959	684.37
447.398	665.58
447.837	656.75
448.276	642.66
448.716	644.77
449.154	648.36
449.593	632.1
450.032	629.67
450.471	614.52
450.91	613.3
451.349	611.53
451.787	606.93
452.226	614.24
452.664	614.28
453.103	617.39
453.541	615.9
453.98	613.8
454.418	618.74
454.856	608.96
455.295	607.96
455.733	611.96
456.171	613.95
456.609	615.85
457.047	615.77
457.485	623.37
457.923	622.69
458.361	614.24
458.798	615.59
459.236	611.94
459.674	614.83
460.111	617.28
460.549	611.21
460.987	608.45
461.424	605.98
461.862	602.32
462.299	592.72
462.736	592.63
463.173	594.49
463.611	589.76
464.048	589.67
464.485	596.27
464.922	590.89
465.359	587.42
465.796	584.12
466.233	580.45
466.67	576.58
467.106	576.01
467.543	571.57
467.98	564.19
468.416	547.87
468.853	542.35
469.29	525.34
469.726	519.43
470.162	506.44
470.599	495.96
471.035	490.05
471.471	477.62
471.907	473.16
472.344	468.04
472.78	469.23
473.216	475.12
473.652	469.57
474.088	467.7
474.523	466.21
474.959	469.95
475.395	465.83
475.831	462.57
476.266	464.68
476.702	463.95
477.138	459.11
477.573	456.92
478.008	455
478.444	457.77
478.879	462.42
479.314	463.91
479.75	463.58
480.185	464.89
480.62	468.8
481.055	471.13
481.49	474.2
481.925	480.76
482.36	490.56
482.795	503.57
483.229	515.21
483.664	525.07
484.099	526.79
484.534	534.43
484.968	539.16
485.403	539.97
485.837	538.73
486.271	537.09
486.706	537
487.14	528.42
487.574	519.22
488.009	514.2
488.443	507.49
488.877	512.01
489.311	511.55
489.745	517.07
490.179	519.95
490.613	528.19
491.046	530.69
491.48	532.67
491.914	532.66
492.348	535
492.781	535.79
493.215	535.53
493.648	533.32
494.082	535.43
494.515	532.26
494.948	536.74
495.382	536.71
495.815	537.29
496.248	538.08
496.681	543.51
497.114	547.98
497.547	551.9
497.98	559.15
498.413	560.69
498.846	565.16
499.279	568.17
499.711	566.65
500.144	564
500.577	568.73
501.009	573.19
501.442	577.11
501.874	574.78
502.306	572.01
502.739	574.09
503.171	579.24
503.603	576.28
504.036	578.17
504.468	578.12
504.9	581.7
505.332	580.39
505.764	578.29
506.196	577.21
506.627	581.35
507.059	585.89
507.491	583.73
507.923	578.69
508.354	583.57
508.786	585.39
509.217	591.2
509.649	596.38
510.08	602.75
510.512	608.88
510.943	614.38
511.374	617.13
511.805	624.45
512.237	632.8
512.668	646.44
513.099	658.28
513.53	670.36
513.961	679.97
514.391	694.79
514.822	712.79
515.253	730.4
515.684	740.72
516.114	755.13
516.545	765.06
516.975	776.89
517.406	785.82
517.836	785.09
518.267	787.75
518.697	795.96
519.127	796.8
519.558	798.07
519.988	797.89
520.418	802.87
520.848	810.88
521.278	815.42
521.708	848.78
522.138	856.18
522.567	872.7
522.997	886.1
523.427	894.19
523.857	903.64
524.286	909.75
524.716	919.26
525.145	930.6
525.575	937.97
526.004	946.15
526.433	920.28
526.863	920.12
527.292	917.02
527.721	921.46
528.15	925.38
528.579	926.86
529.008	934.09
529.437	947.05
529.866	955.99
530.295	966.29
530.724	974.78
531.152	990.09
531.581	999.88
532.01	1010.05
532.438	1015.71
532.867	1025.2
533.295	1037.28
533.723	1041.34
534.152	1042.23
534.58	1043.38
535.008	1034.89
535.436	1037.29
535.865	1042.34
536.293	1050.46
536.721	1059.8
537.149	1075.23
537.576	1077.82
538.004	1084.92
538.432	1089.63
538.86	1089.04
539.287	1093.26
539.715	1101.91
540.143	1103.04
540.57	1101.86
540.998	1099.48
541.425	1088.33
541.852	1076.16
542.28	1075.04
542.707	1066.35
543.134	1059.99
543.561	1057.97
543.988	1054.23
544.415	1053.84
544.842	1051.33
545.269	1048.28
545.696	1051.2
546.123	1058.67
546.549	1052.51
546.976	1045.8
547.403	1045.86
547.829	1046.06
548.256	1046.83
548.682	1045.04
549.108	1042.47
549.535	1043.12
549.961	1043.39
550.387	1035.68
550.813	1033.36
551.24	1037.54
551.666	1037.93
552.092	1032.3
552.518	1029.16
552.943	1025.97
553.369	1030.04
553.795	1033.09
554.221	1032.11
554.646	1031.4
555.072	1038.42
555.498	1039.6
555.923	1045.54
556.349	1054.49
556.774	1060.33
557.199	1061.13
557.625	1064.85
558.05	1060.75
558.475	1066.34
558.9	1066.51
559.325	1062.19
559.75	1057.68
560.175	1053.37
560.6	1048.93
561.025	1047.42
561.449	1048.01
561.874	1050.52
562.299	1053.15
562.723	1057.8
563.148	1050.96
563.572	1052.57
563.997	1056.91
564.421	1059.63
564.846	1060.62
565.27	1062.72
565.694	1060.97
566.118	1066.02
566.542	1071.51
566.966	1066.77
567.39	1064.29
567.814	1058.57
568.238	1057.91
568.662	1060.3
569.086	1061.46
569.509	1064.55
569.933	1055.61
570.357	1050.33
570.78	1038.57
571.204	1030.67
571.627	1025.13
572.05	1023.81
572.474	1023.27
572.897	1016.1
573.32	1012.32
573.743	1007.29
574.166	997.65
574.589	997.91
575.012	994.16
575.435	993.22
575.858	986.53
576.281	979.65
576.704	969.63
577.126	963.74
577.549	957.79
577.972	951.84
578.394	945.45
578.817	942.3
579.239	931.04
579.661	924.07
580.084	915.8
580.506	909.19
580.928	906.69
581.35	901.11
581.772	897.79
582.194	890.57
582.616	883.08
583.038	874.86
583.46	868.06
583.882	866.48
584.303	867.58
584.725	864.59
585.147	869.63
585.568	876.15
585.99	883.43
586.411	888.23
586.833	897.31
587.254	899.07
587.675	906.55
588.096	914.06
588.518	912.15
588.939	903.98
589.36	903.37
589.781	893.32
590.202	880.2
590.623	875.24
591.043	873.44
591.464	866.21
591.885	864.18
592.305	861.23
592.726	852.77
593.147	853.09
593.567	850.44
593.987	845.75
594.408	842.53
594.828	839.42
595.248	836.85
595.669	827.77
596.089	823.91
596.509	819.99
596.929	813.33
597.349	815.07
597.769	809.63
598.189	806.1
598.608	807.66
599.028	809.98
599.448	809.77
599.867	801.94
600.287	797.94
600.706	795.83
601.126	791.21
601.545	790.52
601.965	789.82
602.384	786.86
602.803	788.54
603.222	785.67
603.641	781.1
604.061	779.54
604.48	777.71
604.898	783.2
605.317	786.45
605.736	787.84
606.155	787.44
606.574	781.58
606.992	784.39
607.411	782.01
607.829	777.37
608.248	775.75
608.666	774.41
609.085	774.52
609.503	769.02
609.921	765.61
610.339	765.85
610.758	764.58
611.176	763.38
611.594	758.87
612.012	757.08
612.43	760.09
612.847	763.84
613.265	765.72
613.683	768.31
614.101	770.15
614.518	767.99
614.936	763.66
615.353	756.01
615.771	753.76
616.188	754.37
616.606	752.29
617.023	748.23
617.44	741.18
617.857	736.72
618.274	731.26
618.691	729.49
619.108	724.42
619.525	720.92
619.942	725.96
620.359	728.92
620.776	725.89
621.192	725.01
621.609	723.73
622.026	728.18
622.442	731.67
622.859	734.17
623.275	728.93
623.691	732.11
624.108	739.64
624.524	747.55
624.94	746.81
625.356	753.42
625.772	760.68
626.188	768.37
626.604	770.47
627.02	768.18
627.436	768.37
627.852	772.86
628.268	780.29
628.683	774.92
629.099	770.27
629.514	767.81
629.93	770.11
630.345	773.19
630.761	770.23
631.176	771.67
631.591	769.81
632.007	766.74
632.422	766.09
632.837	759.64
633.252	759.58
633.667	753.84
634.082	749.36
634.497	743.11
634.911	734.11
635.326	733.73
635.741	724.84
636.155	720.21
636.57	723.06
636.984	723.93
637.399	728.75
637.813	728.72
638.228	731.34
638.642	735.77
639.056	731.27
639.47	732.33
639.884	730.47
640.298	729.59
640.712	732.41
641.126	726.82
641.54	723.74
641.954	721.39
642.368	718.88
642.781	717.96
643.195	710.52
643.609	714.97
644.022	714.85
644.436	715.01
644.849	709.45
645.262	703.25
645.676	706.74
646.089	707.46
646.502	701.02
646.915	698.61
647.328	688.47
647.741	688.41
648.154	681.46
648.567	682.03
648.98	675.14
649.393	676.87
649.805	676.93
650.218	673.82
650.631	665.1
651.043	662.15
651.456	660.66
651.868	661.39
652.28	673.12
652.693	682.37
653.105	686.68
653.517	693.51
653.929	694.24
654.341	697.89
654.753	691.28
655.165	696.57
655.577	696.71
655.989	693.98
656.401	690.19
656.813	670.13
657.224	659.24
657.636	641.46
658.047	631.32
658.459	621.64
658.87	617.62
659.282	611.43
659.693	600.52
660.104	592.72
660.515	585.25
660.926	587.53
661.338	587.67
661.749	585.95
662.159	582.74
662.57	583.25
662.981	582.43
663.392	580.44
663.803	585.7
664.213	585.68
664.624	584.71
665.035	589.99
665.445	581.55
665.855	578.97
666.266	576.2
666.676	577.32
667.086	572.45
667.497	574.23
667.907	571.59
668.317	566
668.727	566.79
669.137	568.29
669.547	567.72
669.956	571.29
670.366	572.76
670.776	573.23
671.186	576.95
671.595	580.07
672.005	581.96
672.414	582.47
672.824	581.91
673.233	583.36
673.642	585.73
674.052	587.96
674.461	589.31
674.87	593.01
675.279	591.42
675.688	590.98
676.097	590.62
676.506	587.96
676.915	596.24
677.323	597.18
677.732	594.86
678.141	592.84
678.549	583.64
678.958	580.28
679.366	577.97
679.775	578.51
680.183	584.88
680.592	587.44
681	589.63
681.408	582.02
681.816	585.62
682.224	588.46
682.632	593.28
683.04	610.86
683.448	624.39
683.856	641.73
684.264	663.5
684.671	678.77
685.079	699.42
685.487	720.95
685.894	754.75
686.302	777.88
686.709	795.87
687.116	816.13
687.524	831.12
687.931	842.97
688.338	848.42
688.745	849.38
689.152	856.64
689.559	869.08
689.966	882.09
690.373	881.58
690.78	894.51
691.187	918.25
691.593	934.61
692	946.83
692.407	970.39
692.813	1006.15
693.22	1032.88
693.626	1057.7
694.032	1079.85
694.439	1117.56
694.845	1146.54
695.251	1183.41
695.657	1218.21
696.063	1270.53
696.469	1311.11
696.875	1349.53
697.281	1368.97
697.687	1397.12
698.093	1422.48
698.498	1466.8
698.904	1501.87
699.31	1554.37
699.715	1596.73
700.12	1653.67
700.526	1671.12
700.931	1717.11
701.337	1754.55
701.742	1781.63
702.147	1837.37
702.552	1863.52
702.957	1905.92
703.362	1924.97
703.767	1950.99
704.172	1981.06
704.577	1962.31
704.981	1998
705.386	2015.65
705.791	2020.33
706.195	2073.44
706.6	2086.82
707.004	2141.3
707.408	2132.2
707.813	2160.09
708.217	2161.18
708.621	2170.63
709.025	2238.83
709.43	2248.57
709.834	2296.38
710.237	2348.54
710.641	2348.23
711.045	2372.11
711.449	2381.48
711.853	2410
712.256	2443.57
712.66	2477.15
713.064	2534.87
713.467	2570.76
713.87	2652.88
714.274	2690.23
714.677	2769.12
715.08	2884.18
715.484	3003.67
715.887	3147.29
716.29	3286.48
716.693	3434.27
717.096	3601.44
717.499	3697.73
717.901	3724.47
718.304	3751.69
718.707	3777.1
719.109	3718.17
719.512	3705.41
719.915	3624.77
720.317	3592.29
720.719	3629.2
721.122	3618.55
721.524	3595.65
721.926	3578.81
722.328	3654.95
722.731	3654.78
723.133	3681.79
723.535	3823.01
723.937	3843.73
724.338	3883.78
724.74	3920.38
725.142	3913.44
725.544	3919.45
725.945	3950.55
726.347	3950.93
726.748	3952.62
727.15	3970.59
727.551	3952.22
727.952	3935.07
728.354	3918.88
728.755	3926.26
729.156	3899.77
729.557	3866.22
729.958	3780.61
730.359	3739.34
730.76	3731.8
731.161	3695.6
731.562	3680.75
731.962	3686.9
732.363	3647.8
732.763	3609.02
733.164	3637.26
733.564	3594.18
733.965	3531.9
734.365	3514.13
734.766	3536.39
735.166	3511.14
735.566	3473.47
735.966	3457.88
736.366	3455.92
736.766	3415.35
737.166	3439.99
737.566	3412.97
737.966	3397.16
738.365	3427.83
738.765	3425.44
739.165	3374.52
739.564	3355.45
739.964	3389.65
740.363	3358.66
740.763	3358.51
741.162	3352.63
741.561	3332.17
741.96	3301.28
742.36	3316.17
742.759	3320.64
743.158	3349.52
743.557	3360.35
743.955	3393.98
744.354	3362.03
744.753	3404.46
745.152	3375.43
745.55	3414.84
745.949	3410.3
746.348	3411.9
746.746	3426.58
747.144	3400.38
747.543	3385.72
747.941	3423.95
748.339	3374.08
748.737	3370.59
749.136	3365.19
749.534	3414.49
749.932	3396.54
750.33	3414.49
750.727	3455.09
751.125	3437.29
751.523	3426.78
751.921	3462.27
752.318	3437.07
752.716	3482
753.113	3493.16
753.511	3512.15
753.908	3513.54
754.305	3502.95
754.703	3549.12
755.1	3593.55
755.497	3637.96
755.894	3775.18
756.291	3902.9
756.688	4145.51
757.085	4461.32
757.482	4908.5
757.878	5402.36
758.275	5845.64
758.672	6455.44
759.068	6950.68
759.465	7659.05
759.861	8576.14
760.258	9639.04
760.654	10188.97
761.05	10113.69
761.447	9655.27
761.843	8993.57
762.239	8300.71
762.635	7994.28
763.031	7692.47
763.427	7263.6
763.822	6815.86
764.218	6366.3
764.614	5789.09
765.01	5398.31
765.405	5144.74
765.801	4957.19
766.196	4713.98
766.592	4578.12
766.987	4346.23
767.382	4192.23
767.778	4127.08
768.173	4033.14
768.568	3980.8
768.963	3889.39
769.358	3903.97
769.753	3869.94
770.148	3807.68
770.542	3805.46
770.937	3783.77
771.332	3851.46
771.726	3865.76
772.121	3825.09
772.515	3866.47
772.91	3858.27
773.304	3911.05
773.699	3864.54
774.093	3905.03
774.487	3943.7
774.881	3976.87
775.275	3974.63
775.669	3942.26
776.063	3973.6
776.457	3997.29
776.851	3938.67
777.245	3933.66
777.638	3957.71
778.032	4039.95
778.425	4013.54
778.819	4049.33
779.212	4020.94
779.606	3991.24
779.999	4007.07
780.392	3997.81
780.786	4057.46
781.179	4074.84
781.572	4105.91
781.965	4118.01
782.358	4077.45
782.751	4115.13
783.143	4077.58
783.536	4128.86
783.929	4161.85
784.322	4244.29
784.714	4264.37
785.107	4262.2
785.499	4315.08
785.891	4301.27
786.284	4281.34
786.676	4384.01
787.068	4375.09
787.46	4414.99
787.852	4426.62
788.245	4489.4
788.636	4512.91
789.028	4564.27
789.42	4594.01
789.812	4601.27
790.204	4668.32
790.595	4743.47
790.987	4596.7
791.378	4611.24
791.77	4704.65
792.161	4807.84
792.553	4849.08
792.944	4768.45
793.335	4719.16
793.726	4771.88
794.117	4838.93
794.508	4938.36
794.899	4916.74
795.29	5026.09
795.681	5069.67
796.072	4964.83
796.463	4839.36
796.853	4845.36
797.244	4960.58
797.634	4984.72
798.025	4981.76
798.415	4988.53
798.806	5055.79
799.196	5118.93
799.586	5152.5
799.976	5124.4
800.366	5291.67
800.756	5454.71
801.146	5424.85
801.536	5445.99
801.926	5499.19
802.316	5524.24
802.706	5578.99
803.095	5488.23
803.485	5563.89
803.874	5596.67
804.264	5785.4
804.653	5769
805.043	5878.13
805.432	5957.1
805.821	5958.19
806.21	5973.91
806.599	6053.04
806.988	6087.01
807.377	6164.78
807.766	6255.7
808.155	6464.35
808.544	6269.36
808.933	6279.64
809.321	6263.2
809.71	6479.04
810.098	6593.4
810.487	6928.25
810.875	7280.65
811.264	7295.62
811.652	7509
812.04	7616.74
812.428	7731.95
812.816	8288.48
813.204	8587.29
813.592	8987.28
813.98	9238.81
814.368	9172.53
814.756	9518.91
815.144	9457.92
815.531	9797.85
815.919	9739.57
816.306	9961.02
816.694	9736.53
817.081	9771.44
817.469	10025.84
817.856	10022.19
818.243	10206.58
818.63	10486.71
819.017	10185.69
819.404	10237.42
819.791	10510.07
820.178	10957.3
820.565	11137.69
820.952	11811.42
821.339	11462.16
821.725	11599.95
822.112	11065.56
822.498	11041.49
822.885	11142.84
823.271	11071.48
823.657	11373.35
824.044	11379.24
824.43	11426.61
824.816	11415.51
825.202	11101.49
825.588	11838.7
825.974	11848.96
826.36	12216.87
826.746	12235.08
827.132	12492.41
827.517	12476.5
827.903	11905.03
828.289	11937.96
828.674	11382.79
829.06	11295.04
829.445	11578.64
829.83	11835.03
830.216	12180.1
830.601	12454.23
830.986	12164.59
831.371	12058.65
831.756	12465.28
832.141	12156.59
832.526	12147.26
832.911	12345.64
833.295	12263.15
833.68	12608.68
834.065	12164.51
834.449	11495.04
834.834	11438.03
835.218	11434.34
835.603	11685.14
835.987	11527
836.371	12125.65
836.755	12050.79
837.139	12340.92
837.524	12514.74
837.908	12386.96
838.291	12427.64
838.675	12482.66
839.059	12628.69
839.443	12621
839.827	12450.24
840.21	12794.33
840.594	12691.39
840.977	12841.09
841.361	12830.41
841.744	13108.42
842.127	12991.38
842.511	13170.16
842.894	13598.13
843.277	13879.7
843.66	14274.37
844.043	14346.13
844.426	13768.11
844.809	13536.48
845.191	13562.96
845.574	13220.38
845.957	12952.89
846.339	12876.1
846.722	12495.54
847.104	12549.88
847.487	12420.01
847.869	12431.28
848.252	12626.3
848.634	12869.54
849.016	13066.98
849.398	13153.8
849.78	13773.99
850.162	13778.61
850.544	14077.69
850.926	14531.76
851.307	14463.62
851.689	14675.69
852.071	15003.63
852.452	15244.84
852.834	15232.03
853.215	15520.53
853.597	15628.93
853.978	15850.61
854.359	16186.99
854.741	15466.54
855.122	15389.22
855.503	15182.04
855.884	15274.9
856.265	15227.77
856.646	15302.24
857.026	15021.14
857.407	14979.84
857.788	15104.2
858.169	15306.57
858.549	14687.97
858.93	15135.14
859.31	15173.97
859.69	15335
860.071	15042.92
860.451	14884.47
860.831	14354.9
861.211	15187.03
861.591	15575.18
861.971	15553.4
862.351	15698
862.731	15972.87
863.111	16167.68
863.491	16409.86
863.87	17046.89
864.25	17293.42
864.629	17005.71
865.009	17371.61
865.388	17994.43
865.768	19279.86
866.147	19209.22
866.526	18148.93
866.905	18376.99
867.284	19410.86
867.663	18432.44
868.042	17663.17
868.421	17605.83
868.8	17895.52
869.179	18076.5
869.558	17018.07
869.936	15692.23
870.315	15956.05
870.693	16343.89
871.072	17608.51
871.45	16773.14
871.828	16987.22
872.207	17856.44
872.585	17595.26
872.963	18063.85
873.341	17444.24
873.719	17247.1
874.097	17038.94
874.475	17370.62
874.853	17767.02
875.23	17041.15
875.608	17751.04
875.986	19206.91
876.363	18369.14
876.741	18938.23
877.118	18477.95
877.495	19388.01
877.873	19703.87
878.25	20734.91
878.627	19885.51
879.004	20163.94
879.381	20070
879.758	19547.86
880.135	18198.31
880.512	19235.33
880.889	18711.48
881.265	18516.92
881.642	18361.59
882.019	18674.71
882.395	18298.37
882.772	19025.46
883.148	18198.51
883.524	18125.01
883.901	18025.65
884.277	18295.21
884.653	18180.27
885.029	18710.02
885.405	20715.66
885.781	20550.36
886.157	19707.79
886.532	19948.74
886.908	19945.85
887.284	22179.75
887.659	22894
888.035	23595.06
888.411	24196.27
888.786	24528.11
889.161	25377.78
889.537	24908.75
889.912	25717.63
890.287	25700.41
890.662	26360.54
891.037	25884.48
891.412	24145.49
891.787	23921.89
892.162	23104.47
892.536	23651.09
892.911	22762.31
893.286	22284.05
893.66	21387.18
894.035	21933.32
894.409	23874.2
894.784	22924.82
895.158	23310.86
895.532	24692.05
895.906	25363.37
896.281	25954.87
896.655	25555.97
897.029	29204.7
897.402	30419.49
897.776	33875.18
898.15	33747.41
898.524	33387.25
898.898	33825.9
899.271	37867.07
899.645	32793.2
900.018	31503.01
900.392	32657.33
900.765	32911.76
901.138	30462.44
901.511	29995.56
901.884	27538.23
902.258	25405.73
902.631	26250.36
903.003	30204.1
903.376	27251.82
903.749	30556.18
904.122	32682.64
904.495	35985.26
904.867	36430.23
905.24	31615.47
905.612	29430.39
905.985	30098.23
906.357	31469.06
906.729	30034.87
907.102	25649.5
907.474	24664.31
907.846	24820.33
908.218	24505.35
908.59	21673.07
908.962	20965.84
909.334	22573.87
909.705	23718.16
910.077	23038.33
910.449	23977.9
910.82	24643.13
911.192	27118.38
911.563	28202.16
911.935	30182.82
912.306	30208.83
912.677	31196.63
913.048	30897.16
913.419	33534.5
913.79	33704.09
914.161	36127.03
914.532	34531.72
914.903	31748.8
915.274	30144.97
915.645	29691.9
916.015	26133.39
916.386	24921.26
916.756	26521.33
917.127	27334.76
917.497	24434.67
917.868	26609.15
918.238	25277.96
918.608	26007.46
918.978	26535.79
919.348	28111.8
919.718	29049.21
920.088	27982.32
920.458	29069.96
920.828	30569
921.198	29011.18
921.567	30964.44
921.937	23984.22
922.306	24218.55
922.676	26136
923.045	21829.11
923.415	20754.44
923.784	18895.19
924.153	19439.61
924.522	19435.62
924.891	18289.33
925.26	19585.48
925.629	19140.12
925.998	22003.48
926.367	21478.92
926.736	20457.6
927.104	24348.18
927.473	26157.15
927.842	31599.62
928.21	31285.85
928.578	32863.48
928.947	31074.05
929.315	31254.63
929.683	36668.51
930.051	36963.59
930.42	42941.22
930.788	36714.55
931.156	36443.79
931.523	34203.94
931.891	31607.45
932.259	30387.22
932.627	35229.63
932.994	49880.07
933.362	41262.55
933.729	35811.62
934.097	34308.67
934.464	29048.1
934.831	33509.02
935.199	33031.73
935.566	32037.93
935.933	32566.6
936.3	39488.41
936.667	30770.55
937.034	27815.76
937.401	27538.93
937.767	23796.91
938.134	21206
938.501	29949.71
938.867	31947.5
939.234	54080.2
939.6	46160.23
939.967	50713.54
940.333	33904.12
940.699	28905.89
941.065	23122.47
941.431	30308.98
941.798	29257.89
942.163	38384.88
942.529	23959.07
942.895	22047.34
943.261	14280.54
943.627	18724.58
943.992	16394.83
944.358	16427.48
944.723	16484.78
945.089	16061.23
945.454	14829.45
945.82	15800.28
946.185	15168.69
946.55	17561.82
946.915	15732.73
947.28	18437.02
947.645	16219.35
948.01	14986.58
948.375	15597.72
948.74	18678.3
949.104	21783.71
949.469	31430.5
949.834	55581.33
950.198	52781.59
950.562	31620.43
950.927	26353.66
951.291	31716.34
951.655	27037.89
952.02	25312.36
952.384	19151.56
952.748	16676.04
953.112	16278.46
953.476	14166.74
953.839	13092.17
954.203	12963.22
954.567	16217
954.931	25510.18
955.294	21822.97
955.658	21938.96
956.021	37369.8
956.385	63446.52
956.748	93612.03
957.111	145215.19
957.474	162867.37
957.837	183401.89
958.2	138585.58
958.563	49820.27
958.926	33759.09
959.289	51221.17
959.652	57187.12
960.015	42898.06
960.377	61429.27
960.74	70031.05
961.102	120675.39
961.465	129594.23
961.827	69515.3
962.189	133283.35
962.552	92394.69
962.914	74004.58
963.276	48043.81
963.638	39722.84
964	39328.54
964.362	26602.66
964.724	25725.34
965.085	18352.72
965.447	15065.92
965.809	17138.74
966.17	17162.58
966.532	18544.13
966.893	17020.31
967.255	15462.2
967.616	18226.04
967.977	14591.5
968.338	15931.65
968.699	13090.33
969.061	13095.47
969.421	13182.57
969.782	14793.31
970.143	12509.72
970.504	12994.89
970.865	14764.97
971.225	15131.75
971.586	14822.96
971.946	21109.24
972.307	18330.48
972.667	23952.18
973.027	24650.5
973.388	29847.93
973.748	20333.82
974.108	22157.98
974.468	29926.51
974.828	23103.63
975.188	17737.96
975.548	16294.22
975.907	13709.11
976.267	15379.67
976.627	12955.43
976.986	13429.41
977.346	12814.85
977.705	12316.61
978.064	11202.5
978.424	9345.05
978.783	9662.47
979.142	11052.43
979.501	10595.29
979.86	11201.61
980.219	10796.13
980.578	13895.07
980.937	15597.58
981.296	13893.24
981.654	14304.97
982.013	22287.26
982.371	28930.85
982.73	26987.02
983.088	30552.38
983.447	32611.78
983.805	46584.46
984.163	97400.23
984.521	108179.12
984.879	158286.37
985.237	-257532.26
985.595	248331.43
985.953	61582.44
986.311	35512.27
986.669	20668.27
987.026	17846.07
987.384	23983.13
987.741	24810.93
988.099	17758.57
988.456	14168.63
988.814	13292.54
989.171	11549.49
989.528	11385.96
989.885	12042.12
990.242	9553.67
990.599	11886.87
990.956	9717.23
991.313	6797.63
991.67	5577.52
992.027	5929.7
992.383	5268.89
992.74	4618.1
993.096	4856.8
993.453	5031.94
993.809	5216.09
994.165	6939.95
994.522	6380.19
994.878	7037.06
995.234	8838.84
995.59	8718.89
995.946	8215.53
996.302	9355.01
996.658	10832.12
997.013	11917.55
997.369	14153.34
997.725	18140.1
998.08	11731.53
998.436	18024.62
998.791	24855.18
999.147	24863.9
999.502	27184.76
999.857	19773.4
1000.212	32306.27
1000.567	45864.82
1000.922	26474.13
1001.277	16813.18
1001.632	12481.67
1001.987	16143.69
1002.342	11558.6
1002.696	9255.89
1003.051	7373.6
1003.406	8910.63
1003.76	8861.26
1004.114	8746.26
1004.469	7382.08
1004.823	6106.53
1005.177	6605.54
1005.531	5218.55
1005.885	4624.03
1006.239	5236.79
1006.593	6561.42
1006.947	8799.62
1007.301	6598.02
1007.655	7206.83
1008.008	5281.14
1008.362	5942.76
1008.715	8487.82
1009.069	7692.39
1009.422	11662.82
1009.776	23329.31
1010.129	15468.92
1010.482	12920.84
1010.835	10901.57
1011.188	22730.33
1011.541	21355.36
1011.894	-130804.15
1012.247	382962.24
1012.6	26025.31
1012.952	16385.37
1013.305	8379.7
1013.657	6080
1014.01	5753.37
1014.362	4734.73
1014.715	4229.73
1015.067	3694.45
1015.419	3613.97
1015.771	3204.43
1016.123	2862.86
1016.475	2956.81
1016.827	3163.13
1017.179	3426.51
1017.531	3445.89
1017.883	3526.1
1018.234	3439.66
1018.586	4329.62
1018.938	4602.97
1019.289	6363.67
1019.64	7242.38
1019.992	6716.5
1020.343	6141.89
1020.694	4869.84
1021.045	4286.24
1021.396	4874.64
1021.747	5224.31
1022.098	6209.65
1022.449	4507.95
1022.8	4173.53
1023.151	2901.65
1023.501	2591.22
1023.852	2802.92
1024.202	2905.38
1024.553	3177.25
1024.903	3112.25
1025.253	2688.22
1025.604	2412.01
1025.954	2991.87
1026.304	3615.23
1026.654	4210.51
1027.004	6148.07
1027.354	9859.19
1027.703	9406.81
1028.053	12351.54
1028.403	17917.76
1028.753	25694.14
1029.102	34381.88
1029.452	175973.42
1029.801	7550.82
1030.15	4882.75
1030.499	4092.24
897.758	3080.02
901.051	3068.41
904.343	3105.15
907.636	3098.53
910.928	3164.18
914.22	3067.59
917.511	3079.39
920.803	3157.38
924.094	3198.26
927.384	3153.4
930.675	3122.85
933.965	3068.85
937.255	3056.96
940.544	3023.79
943.834	2905.6
947.123	2860.89
950.411	2962.73
953.7	2927.74
956.988	2877.44
960.276	2824.38
963.563	2936.67
966.851	2919.04
970.138	2990.21
973.424	2970.86
976.711	2917.6
979.997	3133.65
983.283	3154.4
986.568	3033.61
989.853	3076.5
993.138	3105.43
996.423	3180.8
999.708	3098.07
1002.992	3200.78
1006.275	2965.03
1009.559	3055.94
1012.842	3187.34
1016.125	3101.14
1019.408	3077.05
1022.69	3192.43
1025.972	3194.46
1029.254	3166
1032.536	3069.83
1035.817	3112.32
1039.098	3026.34
1042.379	3255.68
1045.659	3218.26
1048.939	3139.55
1052.219	3170.61
1055.498	3202
1058.778	3175.08
1062.057	3169.69
1065.335	3186.14
1068.614	3213.41
1071.892	3178.27
1075.17	3273.13
1078.447	3250.33
1081.724	3234.64
1085.001	3277.26
1088.278	3251.69
1091.554	3270.19
1094.83	3267.3
1098.106	3285.92
1101.382	3346.52
1104.657	3346.6
1107.932	3341.75
1111.206	3292.14
1114.481	3255.41
1117.755	3265.31
1121.029	3231.33
1124.302	3271.55
1127.575	3204.55
1130.848	3184.02
1134.121	3135.85
1137.393	3071.21
1140.665	3151.38
1143.937	3122.61
1147.208	3065.58
1150.48	3081.76
1153.75	3062.63
1157.021	3128.86
1160.291	3091.43
1163.561	3126.78
1166.831	3144.26
1170.101	3181.26
1173.37	3176.23
1176.639	3101.07
1179.907	3177.51
1183.176	3194.15
1186.444	3208.37
1189.711	3241.03
1192.979	3239.25
1196.246	3196.8
1199.513	3224.32
1202.78	3212.77
1206.046	3217.4
1209.312	3243.39
1212.578	3274.54
1215.843	3208.66
1219.108	3195.27
1222.373	3216.56
1225.638	3169.65
1228.902	3141.84
1232.166	3121.61
1235.43	3094.2
1238.693	3116.28
1241.956	3122.48
1245.219	3147.07
1248.482	3153.63
1251.744	3143.35
1255.006	3317.94
1258.268	3281.38
1261.529	3214.76
1264.79	3233.65
1268.051	3344.52
1271.312	3365.18
1274.572	3318.98
1277.832	3311.39
1281.092	3311.74
1284.351	3263.67
1287.61	3238.5
1290.869	3132.05
1294.128	3086.63
1297.386	3217.68
1300.644	3196.97
1303.902	3207.88
1307.159	3064.35
1310.416	3121.55
1313.673	3135.39
1316.93	3111.58
1320.186	3173.24
1323.442	3227.93
1326.697	3204.96
1329.953	3214.43
1333.208	3222.99
1336.463	3215.46
1339.717	3135.1
1342.972	3252.55
1346.226	3246.37
1349.479	3165.44
1352.733	3119.84
1355.986	3164.41
1359.238	3134.39
1362.491	3132.9
1365.743	3142.38
1368.995	3144.8
1372.247	3153.96
1375.498	3178.51
1378.749	3203.66
1382	3160.51
1385.251	3234.15
1388.501	3208.18
1391.751	3172.63
1395	3152.16
1398.25	3190.38
1401.499	3184.06
1404.748	3089.57
1407.996	3046.37
1411.244	3032.64
1414.492	3010.56
1417.74	2980.94
1420.987	2999.62
1424.234	3047.66
1427.481	3050.16
1430.728	3106.75
1433.974	3079.62
1437.22	3110.57
1440.465	3121.42
1443.711	3094.16
1446.956	3135.94
1450.201	3142.6
1453.445	3189.95
1456.689	3150.89
1459.933	3169.13
1463.177	3192.71
1466.42	3162.64
1469.663	3140.4
1472.906	3109.65
1476.148	3232.77
1479.391	3144.44
1482.633	3127.37
1485.874	3125.59
1489.115	3089.78
1492.356	3120.91
1495.597	3087.77
1498.838	3100.93
1502.078	3051.66
1505.318	2981.47
1508.557	3027.74
1511.797	2953.95
1515.036	3094.4
1518.274	3081.95
1521.513	3066.82
1524.751	3099.15
1527.989	3098.19
1531.227	3105.92
1534.464	3072.64
1537.701	3123.77
1540.938	3148.45
1544.174	3114.84
1547.41	3123.49
1550.646	3158.93
1553.882	3179.66
1557.117	3229.88
1560.352	3251.62
1563.587	3203.64
1566.821	3156.22
1570.055	3217.05
1573.289	3174.86
1576.523	3267.65
1579.756	3261.32
1582.989	3277.12
1586.222	3239.37
1589.454	3286.01
1592.686	3252.98
1595.918	3270.07
1599.15	3250.15
1602.381	3354.84
1605.612	3278.92
1608.843	3378.81
1612.073	3285.9
1615.303	3267.52
1618.533	3250.55
1621.762	3256.31
1624.992	3258.95
1628.221	3220.06
1631.449	3208.77
1634.678	3300.02
1637.906	3242.43
1641.134	3294.27
1644.361	3238.82
1647.588	3223.59
1650.815	3234.41
1654.042	3232.15
1657.269	3265.81
1660.495	3207.03
1663.72	3185.84
1666.946	3165.21
1670.171	3070.26
1673.396	3050.12
1676.621	3051.16
1679.845	3098.63
1683.069	3132.18
1686.293	3187.08
1689.517	3139.64
1692.74	3044.14
1695.963	3066.61
1699.185	3134.19
1702.408	3091.67
1705.63	3146.5
1708.852	3147.85
1712.073	3121.05
1715.294	3079.29
1718.515	3144.42
1721.736	3079.92
1724.956	3079.17
1728.176	3109.75
1731.396	3132.6
1734.616	3122.63
1737.835	3136.85
1741.054	3133.04
1744.272	3132.76
1747.491	3145.86
1750.709	3231.4
1753.927	3105.26
1757.144	3174.61
1760.361	3203.64
1763.578	3218.44
1766.795	3150.05
1770.011	3176.29
1773.227	3236.82
1776.443	3256.54
1779.658	3296.87
1782.874	3251.19
1786.089	3212.39
1789.303	3215.81
1792.518	3226.94
1795.732	3220.24
1798.945	3220.04
1802.159	3282.3
1805.372	3145.5
1808.585	3115.19
1811.797	3120.85
1815.01	3200.61
1818.222	3195.12
1821.434	3106.35
1824.645	3202.61
1827.856	3158.37
1831.067	3198.32
1834.278	3159.59
1837.488	3140.34
1840.698	3314.72
1843.908	3222.86
1847.117	3182.82
1850.326	3020.82
1853.535	3157.5
1856.744	3252.3
1859.952	3139.14
1863.16	3143.5
1866.368	3171.94
1869.575	3287.74
1872.782	3181.74
1875.989	3125.79
1879.196	3252.45
1882.402	3246.35
1885.608	3294.91
1888.814	3159.72
1892.019	3043.96
1895.224	3098.22
1898.429	3095.01
1901.634	3067.68
1904.838	3050.31
1908.042	3093.3
1911.246	3098.74
1914.449	2992.71
1917.652	3007.37
1920.855	2996.99
1924.058	3072.85
1927.26	3099.46
1930.462	3135.11
1933.664	3149.39
1936.865	3081.84
1940.066	3079.48
1943.267	3027.27
1946.467	3050.19
1949.668	3083.95
1952.868	3149.68
1956.067	3111.02
1959.267	3033.74
1962.466	3067.28
1965.665	3052.2
1968.863	3051.28
1972.061	3079.92
1975.259	3084.19
1978.457	3167.34
1981.654	3122.77
1984.852	3119.81
1988.048	3031.64
1991.245	3047.67
1994.441	3127.86
1997.637	3141.07
2000.833	3124.8
2004.028	3162.86
2007.223	3209.66
2010.418	3173.31
2013.613	3146.22
2016.807	3088.24
2020.001	3111.68
2023.194	3181.64
2026.388	3148.07
2029.581	3098.6
2032.774	3128.66
2035.966	3123.24
2039.158	3043.61
2042.35	3077.05
2045.542	3008.17
2048.733	3129.24
2051.924	3185.35
2055.115	3227.11
2058.306	3144.66
2061.496	3207.62
2064.686	3287.95
2067.875	3210.54
2071.065	3241.64
2074.254	3277.67
2077.442	3227.57
2080.631	3326.23
2083.819	3172.74
2087.007	3143
2090.195	3097.14
2093.382	3153.21
2096.569	3132.14
2099.756	3071.13
2102.942	3075.49
2106.128	3065.75
2109.314	3061.9
2112.5	3002.71
2115.685	2985.95
2118.87	2999.74
2122.055	3070.64
2125.239	3021.67
2128.424	2978.28
2131.608	3126.8
2134.791	3112.59
2137.974	3191.85
2141.157	3172.74
2144.34	3101.21
2147.523	3143.48
2150.705	3144.24
2153.887	3137.78
2157.068	3063.48
2160.25	3089.66
2163.431	3148.61
2166.611	3064.02
2169.792	3073.29
2172.972	2950.54
2176.152	3062.5
2179.331	3106.55
2182.511	3061.99
2185.69	3096.57
2188.868	3080.68
2192.047	3158.58
2195.225	3121.38
2198.403	3068.56
2201.58	3072.83
2204.758	3078.6
2207.935	3164.95
2211.111	3025
2214.288	3003.6
2217.464	3050.96
2220.64	3044.94
2223.815	3103.16
2226.991	3012.12
2230.166	3036.1
2233.34	3048.73
2236.515	3086.2
2239.689	3165.25
2242.863	3106.88
2246.036	3167.3
2249.209	3185.83
2252.382	3240.11
2255.555	3199.98
2258.727	3125.21
2261.9	3176.8
2265.071	3167.14
2268.243	3177.97
2271.414	3093.53
2274.585	3030.44
2277.756	3105.19
2280.926	3062.57
2284.096	3118.37
2287.266	3000.03
2290.436	3066.68
2293.605	3102.2
2296.774	3122.76
2299.942	3163.91
2303.111	3181.35
2306.279	3224.89
2309.447	3217.36
2312.614	3195.28
2315.781	3209.06
2318.948	3169.16
2322.115	3209.04
2325.281	3112.39
2328.447	3150.03
2331.613	3129.53
2334.779	3082.27
2337.944	3093.11
2341.109	3085.31
2344.274	3059.18
2347.438	3025.92
2350.602	3054.62
2353.766	3080.12
2356.929	3063
2360.092	3109.71
2363.255	3038.92
2366.418	2939.56
2369.58	3100.36
2372.742	2804.1
2375.904	2836.65
2379.066	2803.83
2382.227	2848.71
2385.388	2813.39
2388.548	2710.89
2391.709	2779.89
2394.869	2749.68
2398.029	2896.88
2401.188	2928.49
2404.347	2831.68
2407.506	3029.31
2410.665	3051.93
2413.823	3079.82
2416.981	3012.52
2420.139	3059.42
2423.296	3118.92
2426.453	3091.27
2429.61	3119.85
2432.767	3014.38
2435.923	3059.13
2439.079	2966.01
2442.235	3046.81
2445.391	2957.69
2448.546	2964.77
2451.701	3037.34
2454.855	2978.08
2458.009	3056.8
2461.163	3076.68
2464.317	3020.72
2467.471	3060.91
2470.624	3105.12
2473.777	3130.94
2476.929	3126.15
2480.082	3155.52
2483.234	3120.78
2486.385	3017.83
2489.537	3016.72
2492.688	2946.02
2495.839	2968.99
2498.989	2970.07
2502.14	2950.49
2505.29	2920.11
2508.439	2952.3
2511.589	2858.05
2514.738	2885.27
2517.887	2915.4
2521.035	3040.84
2524.183	3041.33
2527.331	3011.73
2530.479	2959.42
2533.627	2981.78
