Data from C_2_DIV_WI_4N_Splice17_12-19-10-355.txt Node
Date: Sat Mar 14 12:19:10 EDT 2020
User: sa697716
Spectrometer: FLMS03696
Trigger mode: 0
Integration Time (sec): 3.180400E-1
Scans to average: 20
Electric dark correction enabled: true
Nonlinearity correction enabled: true
Boxcar width: 5
XAxis mode: Wavelengths
Number of Pixels in Spectrum: 2048
>>>>>Begin Spectral Data<<<<<
187.83	-244111.96
188.298	1952.16
188.766	1116.67
189.233	971.55
189.701	1322.85
190.169	1860.68
190.636	672.93
191.104	558
191.571	94.27
192.039	-45.54
192.506	-39.74
192.974	518.2
193.441	-543.9
193.908	42.15
194.375	-8.47
194.842	28.8
195.31	118.7
195.777	170.45
196.244	398.72
196.711	485.18
197.177	589.58
197.644	835.27
198.111	1449.14
198.578	2030
199.045	1635.12
199.511	2692.69
199.978	3160.94
200.445	2700.33
200.911	3002.91
201.378	3363.21
201.844	3075.9
202.31	5273.53
202.777	5493.25
203.243	3085.62
203.709	2931.47
204.176	3479.35
204.642	2883.07
205.108	2688.53
205.574	2188.1
206.04	1988.26
206.506	1853.17
206.972	1744.71
207.438	1699.5
207.903	1930.81
208.369	1682.78
208.835	1686.24
209.301	1778.89
209.766	1832.39
210.232	1818.1
210.697	2254.87
211.163	2804.37
211.628	4253.89
212.094	3584.81
212.559	4365.28
213.024	2736.15
213.49	3332.36
213.955	3252.24
214.42	3190.02
214.885	2959.47
215.35	2853.35
215.815	2758.1
216.28	2926.46
216.745	2389.37
217.21	2590.97
217.675	2416.45
218.14	2735.35
218.604	3088.9
219.069	3557.56
219.534	3744.89
219.998	4368.68
220.463	5300.43
220.927	6555.15
221.392	6202.72
221.856	6301.11
222.32	7956.37
222.785	9815.09
223.249	12377.54
223.713	13821.19
224.177	13838.01
224.642	17812.33
225.106	21973.78
225.57	24075.1
226.034	17932.4
226.497	27276.84
226.961	24650.5
227.425	28729.01
227.889	31924.41
228.353	31908.77
228.816	65954.68
229.28	63052.77
229.744	53188.28
230.207	32320.11
230.671	31802.19
231.134	52595.75
231.597	60719.96
232.061	60749.22
232.524	59286.67
232.987	40775.36
233.45	36677.14
233.914	32888.5
234.377	33733.01
234.84	30844.83
235.303	36379.86
235.766	40553.97
236.229	41867.22
236.691	26352.12
237.154	29583.12
237.617	22242.59
238.08	22780.75
238.542	26682.88
239.005	19085.9
239.468	18907.72
239.93	17813.28
240.393	16176.77
240.855	14204.34
241.317	14551.52
241.78	17692.9
242.242	18290.69
242.704	19722.54
243.166	17175.28
243.629	15554.5
244.091	17888.43
244.553	19585.62
245.015	21019.5
245.477	27147.12
245.939	39733.44
246.4	42106.55
246.862	40867.49
247.324	38464.65
247.786	43065.12
248.247	56428.02
248.709	58305.56
249.17	43619.96
249.632	41072.93
250.093	47548.32
250.555	41043.91
251.016	25003.95
251.477	23702.28
251.939	25561.48
252.4	26811.1
252.861	31819.18
253.322	29526.5
253.783	35128.68
254.244	45480.97
254.705	35869.52
255.166	31915.29
255.627	31419.75
256.088	44303.47
256.549	46991.28
257.009	40466.42
257.47	49081.01
257.931	39971.97
258.391	29967.44
258.852	30882.67
259.312	32384.99
259.773	39933.72
260.233	33681.35
260.694	28379.45
261.154	32176.18
261.614	25840.43
262.074	23077.19
262.534	23953.02
262.994	22551.66
263.455	30035.56
263.915	25259.56
264.374	23766.74
264.834	25948.99
265.294	28768.84
265.754	29785.32
266.214	28187.06
266.673	26366.35
267.133	33248.95
267.593	32960.31
268.052	40326.88
268.512	35058.37
268.971	42242.59
269.431	46303.47
269.89	41440.83
270.349	62076.85
270.809	69198.77
271.268	62150.09
271.727	139434.22
272.186	90377.52
272.645	67749.17
273.104	48830.26
273.563	70639.74
274.022	55580.59
274.481	47221.73
274.94	36357.13
275.399	27016.27
275.857	31440.49
276.316	42512.47
276.775	37833.99
277.233	37205.81
277.692	34842.73
278.15	39423.79
278.609	40547.48
279.067	37482.98
279.525	34825.38
279.984	44940.49
280.442	53976.35
280.9	53145.71
281.358	34942.46
281.816	32519.84
282.274	31881.03
282.732	32888.9
283.19	33027.8
283.648	28508.44
284.106	30369.73
284.564	30868.32
285.021	28617.37
285.479	21318.72
285.937	19388.09
286.394	17020.02
286.852	17515.08
287.309	18383
287.767	17765.74
288.224	16865.51
288.682	18479.21
289.139	20289.63
289.596	18547.87
290.053	19272.78
290.511	24323.92
290.968	29477.62
291.425	39907.64
291.882	33152.2
292.339	28804.35
292.796	28564.47
293.252	26918.33
293.709	21356.03
294.166	19096.17
294.623	21067.39
295.079	20198.58
295.536	20261.85
295.992	18381.55
296.449	18178.39
296.905	18897.76
297.362	18107.31
297.818	19021.15
298.274	19723.28
298.731	20085.83
299.187	19885.12
299.643	21354.93
300.099	25810.26
300.555	28286.62
301.011	23643.41
301.467	22770.1
301.923	26606.34
302.379	25960.54
302.835	25496.88
303.291	25496.42
303.746	29025.99
304.202	36613.33
304.658	36718.45
305.113	24675.89
305.569	24177.5
306.024	25743.77
306.479	24509.26
306.935	20677.21
307.39	22575.68
307.845	20831.16
308.301	20970.89
308.756	20413.94
309.211	19672.98
309.666	20164.86
310.121	25054.14
310.576	25388.54
311.031	25179.69
311.486	28815.16
311.94	28776.82
312.395	38510.24
312.85	72440.29
313.305	355616.75
313.759	1840532.59
314.214	133219.57
314.668	105439.13
315.123	88490.87
315.577	31720.51
316.032	28227.07
316.486	35325.52
316.94	27822.22
317.394	19360.78
317.849	15012.35
318.303	14185.73
318.757	13367.33
319.211	14760.71
319.665	12921.25
320.119	13081.02
320.572	18763.9
321.026	17491.7
321.48	14566.74
321.934	15886.59
322.387	15901.12
322.841	17165.18
323.295	15449.18
323.748	17791.3
324.202	18043.15
324.655	21649.97
325.108	30207.23
325.562	21322.57
326.015	25314.54
326.468	19105.12
326.921	21355.82
327.374	19925.68
327.827	20742.1
328.28	23430.27
328.733	15682.81
329.186	13802.29
329.639	13141.47
330.092	11074.75
330.545	10551.99
330.997	10658.66
331.45	11652.76
331.903	13659.26
332.355	23476.13
332.808	22789.52
333.26	18811.51
333.713	20421.07
334.165	20534.76
334.617	27399.16
335.069	22130.3
335.522	40023
335.974	44343.37
336.426	40511.57
336.878	28038.03
337.33	14198.07
337.782	13862.78
338.234	17351.2
338.686	20752.4
339.137	24658.54
339.589	23232.1
340.041	18198.06
340.493	15620.68
340.944	15952.08
341.396	17162.09
341.847	14417.15
342.299	17021.83
342.75	20776.21
343.201	18147.39
343.653	20843.01
344.104	25558.08
344.555	20113.47
345.006	31267.79
345.457	23917.61
345.908	19002.35
346.359	17849.13
346.81	14533.86
347.261	15270.58
347.712	15016.54
348.163	16077.36
348.613	16286.06
349.064	15182.19
349.515	13289.3
349.965	13623.7
350.416	16357.72
350.866	17933.48
351.317	20307.76
351.767	33594.28
352.217	42427.93
352.668	35238.19
353.118	32272.35
353.568	31143.08
354.018	24634.42
354.468	25928.31
354.918	18608.82
355.368	16331.49
355.818	23075.94
356.268	66240.08
356.718	277487.05
357.168	69210.11
357.617	34723.12
358.067	38659.82
358.517	36104.64
358.966	42286.29
359.416	47539.12
359.865	51367.94
360.315	61038.25
360.764	28466.67
361.213	15969.57
361.663	15128.46
362.112	18662.69
362.561	30167.48
363.01	22763.88
363.459	19184.94
363.908	20759.35
364.357	17629.96
364.806	29793.53
365.255	20508.04
365.703	18820.36
366.152	18852.82
366.601	15283.58
367.05	12412.57
367.498	11284.56
367.947	11766.95
368.395	12256.9
368.844	10867.51
369.292	13089.77
369.74	9056.27
370.189	13857.51
370.637	16265.8
371.085	14050.69
371.533	17132.34
371.981	16531.13
372.429	15782.25
372.877	16487.55
373.325	13826.37
373.773	14125.23
374.221	12596.62
374.669	15646.52
375.116	13615.04
375.564	13747.88
376.012	15407.85
376.459	12742.23
376.907	15288.13
377.354	18509.54
377.801	17340.45
378.249	20025.08
378.696	25653.26
379.143	31214.69
379.591	33426.77
380.038	56651
380.485	41125.52
380.932	44503.07
381.379	40794.9
381.826	30115.16
382.273	21449.24
382.72	18808.43
383.166	18329.66
383.613	11947.51
384.06	10815.81
384.506	12547.98
384.953	9243.84
385.4	9343.04
385.846	8227.53
386.292	8056.49
386.739	7910.17
387.185	7858.82
387.631	7884.28
388.078	7689.85
388.524	8252.1
388.97	7627.58
389.416	6374.4
389.862	6789.46
390.308	6442.79
390.754	6552.77
391.2	7134.08
391.645	7316.75
392.091	7005.35
392.537	6789.92
392.983	6807.35
393.428	6699.09
393.874	7188.64
394.319	7230.9
394.765	6866.47
395.21	7057.67
395.655	6622.05
396.101	6192.26
396.546	5586.85
396.991	5643.66
397.436	5239.79
397.881	5060.15
398.326	4790.24
398.771	4528.42
399.216	3948.28
399.661	3550.55
400.106	3537.55
400.551	3617.21
400.995	3239.44
401.44	3198.71
401.885	2996.61
402.329	3012.15
402.774	2876.14
403.218	2773.41
403.663	2666.69
404.107	2742.27
404.551	2754.05
404.995	2513.62
405.44	2413.44
405.884	2441.8
406.328	2356.32
406.772	2344.76
407.216	2135.76
407.66	2064.19
408.104	1956.63
408.547	1826.9
408.991	1758.16
409.435	1687.66
409.879	1661.2
410.322	1634.25
410.766	1575.71
411.209	1492.05
411.653	1429.09
412.096	1394.99
412.54	1389.7
412.983	1376.38
413.426	1378.38
413.869	1374.63
414.312	1344.92
414.756	1291.53
415.199	1230.12
415.642	1192.49
416.085	1192.11
416.527	1180.46
416.97	1194
417.413	1130.91
417.856	1113.84
418.298	1098.97
418.741	1086.78
419.184	1082.41
419.626	1125.64
420.069	1123.67
420.511	1126.11
420.953	1103.33
421.396	1090.63
421.838	1064.4
422.28	1089.03
422.722	1098.6
423.164	1111.57
423.606	1094.83
424.048	1091.33
424.49	1036.48
424.932	1028.58
425.374	1015.65
425.816	1029.22
426.258	1049.79
426.699	1059
427.141	1040.4
427.582	1052.48
428.024	1046.2
428.465	1037.76
428.907	1012.08
429.348	998.32
429.789	999.01
430.231	975.14
430.672	985.79
431.113	961.12
431.554	943.6
431.995	919.41
432.436	886.24
432.877	865.7
433.318	851.37
433.759	847.45
434.2	848.55
434.64	838.98
435.081	843.74
435.522	800.92
435.962	773.03
436.403	759.89
436.843	769.9
437.284	753.46
437.724	735.06
438.164	736.42
438.604	720.74
439.045	694.22
439.485	666.73
439.925	651.02
440.365	635.47
440.805	626.54
441.245	619.85
441.685	597.57
442.125	594.73
442.564	598.36
443.004	587.24
443.444	585.08
443.883	585.42
444.323	582.8
444.762	583.62
445.202	592.71
445.641	606.16
446.081	602.23
446.52	609.17
446.959	604.43
447.398	590.78
447.837	583.86
448.276	576.33
448.716	582.47
449.154	587.91
449.593	577.82
450.032	575.58
450.471	563.2
450.91	564.56
451.349	565.11
451.787	563.5
452.226	571.63
452.664	573.32
453.103	574.29
453.541	574.66
453.98	574.43
454.418	579.44
454.856	573.05
455.295	573.91
455.733	579.73
456.171	582.83
456.609	584.25
457.047	586.15
457.485	594.35
457.923	596.15
458.361	589.45
458.798	590.4
459.236	588.26
459.674	591.36
460.111	593.15
460.549	587.89
460.987	584.9
461.424	582.36
461.862	579.56
462.299	570.12
462.736	568.95
463.173	569.99
463.611	565.27
464.048	562.84
464.485	566.95
464.922	562.24
465.359	558.48
465.796	553.94
466.233	550.25
466.67	544.09
467.106	544.07
467.543	538.28
467.98	532.01
468.416	517.96
468.853	514.17
469.29	499.64
469.726	493.69
470.162	480.43
470.599	472.51
471.035	467.25
471.471	457.08
471.907	453.25
472.344	451.31
472.78	451.29
473.216	457.02
473.652	451.91
474.088	450.16
474.523	449
474.959	452.53
475.395	447.77
475.831	445.53
476.266	447.57
476.702	447.01
477.138	442.42
477.573	441.06
478.008	438.79
478.444	440.27
478.879	443.56
479.314	445.24
479.75	445.21
480.185	446.24
480.62	449.47
481.055	451.14
481.49	453.47
481.925	458.8
482.36	466.48
482.795	478.55
483.229	491.41
483.664	502.05
484.099	504.19
484.534	511.43
484.968	517.13
485.403	519.63
485.837	519.49
486.271	519.39
486.706	520.46
487.14	516.08
487.574	509.22
488.009	505.03
488.443	501.5
488.877	507.56
489.311	510.18
489.745	518.52
490.179	523.66
490.613	534.54
491.046	539.29
491.48	544.17
491.914	545.29
492.348	550.78
492.781	555.46
493.215	558.65
493.648	560.74
494.082	567.29
494.515	568.9
494.948	577.62
495.382	583.83
495.815	590.63
496.248	598.6
496.681	612.52
497.114	624.81
497.547	636.48
497.98	650.4
498.413	659.63
498.846	671.2
499.279	682.49
499.711	690.27
500.144	696.39
500.577	709.98
501.009	724.1
501.442	737.03
501.874	742.55
502.306	749.37
502.739	761.02
503.171	779.42
503.603	787.78
504.036	800
504.468	809.5
504.9	824.08
505.332	834.12
505.764	842.67
506.196	853.33
506.627	871.44
507.059	888.01
507.491	900.49
507.923	902.65
508.354	920.6
508.786	936.23
509.217	957.92
509.649	977.53
510.08	1000.82
510.512	1021.04
510.943	1040.51
511.374	1056.19
511.805	1080.26
512.237	1103.83
512.668	1141.18
513.099	1173.08
513.53	1204.8
513.961	1229.04
514.391	1264.61
514.822	1302.16
515.253	1343.07
515.684	1372.5
516.114	1406.43
516.545	1433.15
516.975	1463.97
517.406	1485.25
517.836	1491.53
518.267	1501.04
518.697	1524.11
519.127	1530.85
519.558	1541.4
519.988	1547.95
520.418	1561.68
520.848	1583.34
521.278	1594.18
521.708	1600.49
522.138	1616.12
522.567	1650.49
522.997	1679.52
523.427	1697.82
523.857	1719.45
524.286	1733.02
524.716	1751.06
525.145	1772.78
525.575	1785.92
526.004	1803.03
526.433	1812.28
526.863	1813.52
527.292	1804.09
527.721	1811.65
528.15	1818.97
528.579	1819.63
529.008	1831.37
529.437	1857.24
529.866	1872.59
530.295	1892.29
530.724	1907.61
531.152	1938.1
531.581	1955.04
532.01	1974.35
532.438	1983.15
532.867	2000.01
533.295	2020.78
533.723	2028.53
534.152	2026.44
534.58	2027.66
535.008	2010.06
535.436	2011.58
535.865	2020.91
536.293	2037.03
536.721	2055.26
537.149	2084.29
537.576	2086.95
538.004	2101.06
538.432	2110.93
538.86	2109.5
539.287	2117.33
539.715	2132.91
540.143	2137.18
540.57	2132.41
540.998	2128.4
541.425	2103.41
541.852	2079.36
542.28	2078.3
542.707	2060.23
543.134	2043.28
543.561	2037.9
543.988	2029.43
544.415	2028.45
544.842	2021.06
545.269	2013.59
545.696	2014.58
546.123	2029.2
546.549	2017.96
546.976	2002.96
547.403	2002.15
547.829	2005.48
548.256	2009.05
548.682	2005.7
549.108	1998.26
549.535	1998.37
549.961	1999.24
550.387	1984.85
550.813	1977.98
551.24	1984.64
551.666	1985.56
552.092	1974.19
552.518	1965.54
552.943	1956.77
553.369	1963.9
553.795	1969.17
554.221	1969.19
554.646	1966.11
555.072	1977.7
555.498	1982.17
555.923	1992.59
556.349	2008.78
556.774	2016.81
557.199	2017.73
557.625	2024.25
558.05	2017.84
558.475	2027.8
558.9	2025.98
559.325	2016.43
559.75	2009.07
560.175	2002.01
560.6	1993.88
561.025	1990.07
561.449	1992.85
561.874	1998.63
562.299	2001.27
562.723	2007.29
563.148	1996.07
563.572	1999.74
563.997	2009.67
564.421	2014.15
564.846	2012.86
565.27	2015.33
565.694	2011.31
566.118	2022.77
566.542	2029.42
566.966	2021.77
567.39	2015.68
567.814	2002.21
568.238	1999.64
568.662	2003.65
569.086	2006.06
569.509	2012.93
569.933	1994.49
570.357	1986.38
570.78	1961.65
571.204	1946.18
571.627	1933.8
572.05	1930.42
572.474	1929.28
572.897	1915.69
573.32	1906.36
573.743	1894.15
574.166	1873.05
574.589	1873.19
575.012	1864.28
575.435	1862.03
575.858	1851.59
576.281	1838.33
576.704	1820.53
577.126	1806.77
577.549	1793.89
577.972	1781.93
578.394	1768.53
578.817	1759.4
579.239	1737.16
579.661	1721.31
580.084	1702.95
580.506	1687.68
580.928	1683.4
581.35	1670.71
581.772	1665.05
582.194	1649.83
582.616	1635.32
583.038	1620.07
583.46	1608.92
583.882	1605.47
584.303	1608.45
584.725	1603.97
585.147	1604.77
585.568	1613.89
585.99	1625.89
586.411	1631.76
586.833	1646.18
587.254	1646.88
587.675	1660.54
588.096	1673.44
588.518	1666.4
588.939	1648.49
589.36	1645.12
589.781	1633.17
590.202	1603.57
590.623	1593.1
591.043	1589.02
591.464	1574.9
591.885	1570.4
592.305	1564.16
592.726	1548.27
593.147	1549.8
593.567	1543.84
593.987	1535.46
594.408	1529.79
594.828	1528.13
595.248	1521.99
595.669	1502.51
596.089	1494.56
596.509	1487.37
596.929	1473.25
597.349	1473.69
597.769	1462.36
598.189	1455.49
598.608	1456.62
599.028	1458.58
599.448	1457.3
599.867	1443.56
600.287	1438.51
600.706	1434.16
601.126	1423.72
601.545	1421.25
601.965	1420.07
602.384	1414.08
602.803	1415.59
603.222	1409.71
603.641	1402.5
604.061	1398.34
604.48	1393.44
604.898	1401.16
605.317	1405.24
605.736	1406.33
606.155	1403.16
606.574	1392.24
606.992	1396.75
607.411	1391.52
607.829	1382.04
608.248	1376.67
608.666	1373.17
609.085	1371.3
609.503	1361.57
609.921	1354.08
610.339	1355.51
610.758	1353.28
611.176	1347.5
611.594	1337.52
612.012	1332.59
612.43	1335.23
612.847	1341.59
613.265	1341.41
613.683	1345.66
614.101	1346.28
614.518	1341.46
614.936	1330.11
615.353	1313.83
615.771	1310.31
616.188	1309.26
616.606	1306.29
617.023	1298.24
617.44	1282.51
617.857	1274.54
618.274	1264.48
618.691	1256.95
619.108	1246.97
619.525	1239.79
619.942	1246.85
620.359	1247.43
620.776	1241.08
621.192	1236.14
621.609	1233.82
622.026	1239.68
622.442	1244.76
622.859	1247.57
623.275	1240.26
623.691	1244.5
624.108	1255.88
624.524	1269.09
624.94	1268.92
625.356	1279.22
625.772	1290.49
626.188	1301.02
626.604	1302.01
627.02	1297.97
627.436	1296.28
627.852	1302.87
628.268	1314.55
628.683	1304.61
629.099	1295.5
629.514	1290.66
629.93	1294.05
630.345	1297.94
630.761	1293.83
631.176	1297.32
631.591	1290.81
632.007	1283.28
632.422	1280.18
632.837	1269.06
633.252	1265.52
633.667	1254.84
634.082	1244.41
634.497	1228.97
634.911	1209.02
635.326	1203
635.741	1184.12
636.155	1171.94
636.57	1171.86
636.984	1169.54
637.399	1168.4
637.813	1166.13
638.228	1161.41
638.642	1163.75
639.056	1151.68
639.47	1149.11
639.884	1138.8
640.298	1129.59
640.712	1125.9
641.126	1109.95
641.54	1098.08
641.954	1089.82
642.368	1075.02
642.781	1064.36
643.195	1043.8
643.609	1041.62
644.022	1032.25
644.436	1026.22
644.849	1012.37
645.262	997.38
645.676	995.41
646.089	988.33
646.502	971.65
646.915	963.2
647.328	945.99
647.741	941.44
648.154	927.57
648.567	922.77
648.98	908.16
649.393	905.95
649.805	901.45
650.218	893.55
650.631	877.57
651.043	869.29
651.456	863.28
651.868	862.51
652.28	876.27
652.693	885.48
653.105	889.01
653.517	894.12
653.929	892.87
654.341	896.22
654.753	883.53
655.165	887.58
655.577	884.35
655.989	879.14
656.401	869.14
656.813	837.12
657.224	818.48
657.636	792.76
658.047	776.87
658.459	758.72
658.87	747.31
659.282	734.23
659.693	714
660.104	699.22
660.515	684.3
660.926	680.01
661.338	673.33
661.749	664.54
662.159	653.25
662.57	645.51
662.981	638.45
663.392	630.23
663.803	631.16
664.213	625.49
664.624	619.96
665.035	619.92
665.445	606.91
665.855	599.64
666.266	591.81
666.676	587.8
667.086	578.77
667.497	576
667.907	569.23
668.317	560.07
668.727	558.01
669.137	555.44
669.547	551.46
669.956	551.56
670.366	551
670.776	551.97
671.186	553.79
671.595	556.41
672.005	558.04
672.414	558.51
672.824	558.89
673.233	561.31
673.642	563.67
674.052	566.06
674.461	569.01
674.87	573.3
675.279	572.03
675.688	574.32
676.097	576.12
676.506	575.2
676.915	585.83
677.323	587.82
677.732	588.05
678.141	590.06
678.549	584.94
678.958	585.7
679.366	586.16
679.775	591.13
680.183	601.64
680.592	608.14
681	615.47
681.408	613.83
681.816	623.06
682.224	633.12
682.632	645.12
683.04	673.05
683.448	697.56
683.856	728.63
684.264	763.47
684.671	795.45
685.079	835.04
685.487	879.18
685.894	939.03
686.302	990.24
686.709	1036.15
687.116	1086.99
687.524	1131.42
687.931	1171.14
688.338	1206.85
688.745	1238.13
689.152	1276.09
689.559	1324.71
689.966	1371.98
690.373	1399.41
690.78	1445.11
691.187	1510.85
691.593	1565.31
692	1613.6
692.407	1680.68
692.813	1762.74
693.22	1830.33
693.626	1898.78
694.032	1953.74
694.439	2035.8
694.845	2101.42
695.251	2183.79
695.657	2256.75
696.063	2364.82
696.469	2445.75
696.875	2523.55
697.281	2569.93
697.687	2625.93
698.093	2673.3
698.498	2759.48
698.904	2827.13
699.31	2925.43
699.715	2999.03
700.12	3102.24
700.526	3126.84
700.931	3206.53
701.337	3266.86
701.742	3308.48
702.147	3402.84
702.552	3442.08
702.957	3510.78
703.362	3537.81
703.767	3575.87
704.172	3623.5
704.577	3578.8
704.981	3634.88
705.386	3657.03
705.791	3654.26
706.195	3739.31
706.6	3755.31
707.004	3846.07
707.408	3818.35
707.813	3850.59
708.217	3841.25
708.621	3849.89
709.025	3961.26
709.43	3964.33
709.834	4035.41
710.237	4115.72
710.641	4104.36
711.045	4130.8
711.449	4126.65
711.853	4161.27
712.256	4211.93
712.66	4256.76
713.064	4339.86
713.467	4386.31
713.87	4514.63
714.274	4569.23
714.677	4693.25
715.08	4872.82
715.484	5062.19
715.887	5291
716.29	5514.5
716.693	5748.25
717.096	6018.35
717.499	6169.92
717.901	6202.48
718.304	6237.42
718.707	6266.56
719.109	6155.91
719.512	6124.47
719.915	5977.84
720.317	5915.98
720.719	5965.91
721.122	5936.94
721.524	5882.14
721.926	5833.89
722.328	5949.58
722.731	5937.72
723.133	5970.19
723.535	6187.97
723.937	6211.49
724.338	6270
724.74	6318.03
725.142	6241.55
725.544	6239.32
725.945	6268.39
726.347	6270.64
726.748	6263.5
727.15	6281.64
727.551	6237.4
727.952	6206.84
728.354	6176.28
728.755	6177.07
729.156	6133.53
729.557	6130.1
729.958	5993.12
730.359	5933.45
730.76	5912.3
731.161	5845.54
731.562	5816.74
731.962	5826.2
732.363	5753.92
732.763	5683.66
733.164	5725.08
733.564	5649.59
733.965	5542.35
734.365	5504.98
734.766	5537.22
735.166	5491.84
735.566	5428.79
735.966	5399.99
736.366	5391.41
736.766	5322
737.166	5357.35
737.566	5310.28
737.966	5279.89
738.365	5323.85
738.765	5319.37
739.165	5232.94
739.564	5205.03
739.964	5257.15
740.363	5207.83
740.763	5206.04
741.162	5195.16
741.561	5159.13
741.96	5106.96
742.36	5129.04
742.759	5133.11
743.158	5172.8
743.557	5191.64
743.955	5235.05
744.354	5182.95
744.753	5244.36
745.152	5198.65
745.55	5261.45
745.949	5254.42
746.348	5260.24
746.746	5281.95
747.144	5239.12
747.543	5218.87
747.941	5275.65
748.339	5199.05
748.737	5193.08
749.136	5183.15
749.534	5256.38
749.932	5221.87
750.33	5249.05
750.727	5309.84
751.125	5278.95
751.523	5261.5
751.921	5307.44
752.318	5269.29
752.716	5332.95
753.113	5348.98
753.511	5381.39
753.908	5381.8
754.305	5362.69
754.703	5430.95
755.1	5498.02
755.497	5567.17
755.894	5778.58
756.291	5981.41
756.688	6346.25
757.085	6835.85
757.482	7520.61
757.878	8264.88
758.275	8943.84
758.672	9883.97
759.068	10645.36
759.465	11727.17
759.861	13121.29
760.258	14744.24
760.654	15572.47
761.05	15457.54
761.447	14753.17
761.843	13729.49
762.239	12679.8
762.635	12201.78
763.031	11742.44
763.427	11081.88
763.822	10389.14
764.218	9710.59
764.614	8822.12
765.01	8226.6
765.405	7836.07
765.801	7544.3
766.196	7176.9
766.592	6969.45
766.987	6616.34
767.382	6379.92
767.778	6280.84
768.173	6141.44
768.568	6058.16
768.963	5920.41
769.358	5944.29
769.753	5892.71
770.148	5798.79
770.542	5797.23
770.937	5763.89
771.332	5867.69
771.726	5886.74
772.121	5818.01
772.515	5873.19
772.91	5856.21
773.304	5936.33
773.699	5859.64
774.093	5921.12
774.487	5981.03
774.881	6027.9
775.275	6024.52
775.669	5976.86
776.063	6027.66
776.457	6067.11
776.851	5987.63
777.245	5981.96
777.638	6019.24
778.032	6150.6
778.425	6111.45
778.819	6159.58
779.212	6112.39
779.606	6064.71
779.999	6087.21
780.392	6070.26
780.786	6160.78
781.179	6185.12
781.572	6232.87
781.965	6247.38
782.358	6179.26
782.751	6242.12
783.143	6187.94
783.536	6270.21
783.929	6319.03
784.322	6448.29
784.714	6479.9
785.107	6476.79
785.499	6556.44
785.891	6531.87
786.284	6509.29
786.676	6670.17
787.068	6646.43
787.46	6706.29
787.852	6727.94
788.245	6824.06
788.636	6854.5
789.028	6927.65
789.42	6973.53
789.812	6981.29
790.204	7090.03
790.595	7199.42
790.987	6981.62
791.378	7007.33
791.77	7150.33
792.161	7299.63
792.553	7358.74
792.944	7237.31
793.335	7162.66
793.726	7239.52
794.117	7340.22
794.508	7491.72
794.899	7456.96
795.29	7611.42
795.681	7673.16
796.072	7513.92
796.463	7305.87
796.853	7315.67
797.244	7485.2
797.634	7523.35
798.025	7524.44
798.415	7538.44
798.806	7634.26
799.196	7729.61
799.586	7783.75
799.976	7742.18
800.366	7995.81
800.756	8265.55
801.146	8224.05
801.536	8258.44
801.926	8334.64
802.316	8361.47
802.706	8437.5
803.095	8301.6
803.485	8416.72
803.874	8467.25
804.264	8754.61
804.653	8727.78
805.043	8888.21
805.432	9008.49
805.821	9012.05
806.21	9041.98
806.599	9169.81
806.988	9220.8
807.377	9340.74
807.766	9481.27
808.155	9789.7
808.544	9501.29
808.933	9519.48
809.321	9496.85
809.71	9824.77
810.098	10001.13
810.487	10509.26
810.875	11049.14
811.264	11074.26
811.652	11393.69
812.04	11556.63
812.428	11736.59
812.816	12576.98
813.204	13036.49
813.592	13646.49
813.98	14019.48
814.368	13915.88
814.756	14449.84
815.144	14354.59
815.531	14871.36
815.919	14790.32
816.306	15130.54
816.694	14793.09
817.081	14856.57
817.469	15244.27
817.856	15242.16
818.243	15536.09
818.63	15969.25
819.017	15503.71
819.404	15578.96
819.791	16003.23
820.178	16683.48
820.565	16963.46
820.952	17990.85
821.339	17447.66
821.725	17649.88
822.112	16829.7
822.498	16792.92
822.885	16934.48
823.271	16829.86
823.657	17289.74
824.044	17289.7
824.43	17369.57
824.816	17329.79
825.202	16854.16
825.588	17975.29
825.974	17992.71
826.36	18562.87
826.746	18598.99
827.132	18996.59
827.517	18965.93
827.903	18089.88
828.289	18135.25
828.674	17282.55
829.06	17170.17
829.445	17610.39
829.83	18008.23
830.216	18533.44
830.601	18938.88
830.986	18485.82
831.371	18335.67
831.756	18949.24
832.141	18477.65
832.526	18470.86
832.911	18778.84
833.295	18652.03
833.68	19158.32
834.065	18464.68
834.449	17452.18
834.834	17378.08
835.218	17367.63
835.603	17737.49
835.987	17510.03
836.371	18429.78
836.755	18312.01
837.139	18748.2
837.524	19008.68
837.908	18813.28
838.291	18883.87
838.675	18963.3
839.059	19191.44
839.443	19182.19
839.827	18931.52
840.21	19454.43
840.594	19288.63
840.977	19514.33
841.361	19497.04
841.744	19912.16
842.127	19748.3
842.511	20023.87
842.894	20685.51
843.277	21092.5
843.66	21690
844.043	21794.01
844.426	20910.71
844.809	20568.58
845.191	20610.95
845.574	20105.22
845.957	19697.19
846.339	19570.96
846.722	18992.76
847.104	19067.02
847.487	18885.34
847.869	18901.83
848.252	19195.66
848.634	19560.51
849.016	19864.55
849.398	20008.88
849.78	20947
850.162	20967.06
850.544	21424.28
850.926	22115.16
851.307	22021.6
851.689	22326.95
852.071	22826.97
852.452	23197.43
852.834	23170.85
853.215	23605.4
853.597	23767.1
853.978	24091.87
854.359	24590.91
854.741	23510.58
855.122	23404.17
855.503	23091.35
855.884	23246
856.265	23184
856.646	23310.46
857.026	22882.9
857.407	22806.53
857.788	22984.19
858.169	23304.35
858.549	22364.73
858.93	23051.59
859.31	23117.16
859.69	23347.99
860.071	22900.87
860.451	22657.74
860.831	21838.18
861.211	23121.14
861.591	23733.98
861.971	23711.89
862.351	23926.19
862.731	24356.86
863.111	24643.73
863.491	24997.01
863.87	25962.76
864.25	26354.13
864.629	25920.46
865.009	26487.97
865.388	27432.76
865.768	29399.39
866.147	29273.9
866.526	27642.03
866.905	27974.18
867.284	29532.26
867.663	28037.03
868.042	26874.32
868.421	26774.04
868.8	27210.96
869.179	27480.44
869.558	25873.81
869.936	23839.74
870.315	24269.97
870.693	24867.7
871.072	26816.45
871.45	25559.03
871.828	25886.81
872.207	27204.81
872.585	26789.64
872.963	27502.47
873.341	26550.31
873.719	26233.22
874.097	25921.15
874.475	26406.73
874.853	27012.02
875.23	25877.06
875.608	26950.58
875.986	29145.94
876.363	27862.24
876.741	28708.54
877.118	27996.81
877.495	29360.33
877.873	29859.92
878.25	31417.47
878.627	30141.13
879.004	30555.42
879.381	30407.16
879.758	29612.42
880.135	27572.9
880.512	29167.43
880.889	28397.8
881.265	28115.56
881.642	27894.26
882.019	28350.29
882.395	27767.55
882.772	28859.82
883.148	27606.15
883.524	27498.1
883.901	27343.66
884.277	27759.23
884.653	27580.94
885.029	28378.31
885.405	31422.97
885.781	31171.27
886.157	29900.47
886.532	30281.29
886.908	30263.71
887.284	33660.99
887.659	34784.58
888.035	35874.11
888.411	36790.77
888.786	37281.06
889.161	38586.67
889.537	37884.1
889.912	39122.94
890.287	39089.77
890.662	40116.06
891.037	39394.92
891.412	36747.11
891.787	36361.05
892.162	35088.56
892.536	35923.47
892.911	34582.23
893.286	33859.76
893.66	32493.34
894.035	33312.81
894.409	36265.16
894.784	34796.21
895.158	35386.19
895.532	37490.92
895.906	38518.43
896.281	39432.21
896.655	38799.21
897.029	44331.33
897.402	46162.81
897.776	51398.76
898.15	51230.64
898.524	50690.01
898.898	51361.39
899.271	57505.16
899.645	49773.93
900.018	47819.69
900.392	49569.73
900.765	49963.17
901.138	46251.55
901.511	45548.89
901.884	41820.44
902.258	38567.29
902.631	39853.88
903.003	45858.05
903.376	41382.25
903.749	46435.36
904.122	49709.2
904.495	54750.37
904.867	55454.19
905.24	48146.65
905.612	44828.79
905.985	45829.7
906.357	47911.09
906.729	45731.33
907.102	39065.87
907.474	37560.91
907.846	37794.68
908.218	37298.72
908.59	32974.18
908.962	31892.24
909.334	34337
909.705	36045.69
910.077	35012.07
910.449	36447.46
910.82	37467.42
911.192	41232.13
911.563	42830.15
911.935	45831.36
912.306	45872.48
912.677	47364.41
913.048	46876.29
913.419	50852.76
913.79	51149.68
914.161	54824.48
914.532	52379.3
914.903	48137.44
915.274	45705.61
915.645	45044.84
916.015	39627.03
916.386	37788
916.756	40198.68
917.127	41468.05
917.497	37036.11
917.868	40293.01
918.238	38273.55
918.608	39397.74
918.978	40206.54
919.348	42577.97
919.718	43988.2
920.088	42377.58
920.458	44018.6
920.828	46324.67
921.198	43914.5
921.567	46938.63
921.937	36372.25
922.306	36750.06
922.676	39626.25
923.045	33037.95
923.415	31379.99
923.784	28574.13
924.153	29362.91
924.522	29339.92
924.891	27587.11
925.26	29545.51
925.629	28844.01
925.998	33153.76
926.367	32341.85
926.736	30803.33
927.104	36714.71
927.473	39492.28
927.842	47716.82
928.21	47281.04
928.578	49707.37
928.947	46999.05
929.315	47295.49
929.683	55465.75
930.051	55906.44
930.42	64923.43
930.788	55505.63
931.156	55093.9
931.523	51617.7
931.891	47714.08
932.259	45846.21
932.627	53134.17
932.994	75194.77
933.362	62178.31
933.729	53997.69
934.097	51678.35
934.464	43744.2
934.831	50478.73
935.199	49766.47
935.566	48265.91
935.933	48943.59
936.3	59256.41
936.667	46107.7
937.034	41570.73
937.401	41110.86
937.767	35470.58
938.134	31582.32
938.501	44568.13
938.867	47502.7
939.234	80315.66
939.6	68595.02
939.967	75449.62
940.333	50490.76
940.699	43043.99
941.065	34552.79
941.431	45342.31
941.798	43731.91
942.163	57442.48
942.529	35824.79
942.895	32971.61
943.261	21324.37
943.627	27973.1
943.992	24507.36
944.358	24583.3
944.723	24639.39
945.089	24023.98
945.454	22185.46
945.82	23703.38
946.185	22770.55
946.55	26400.11
946.915	23671.02
947.28	27782.29
947.645	24454.59
948.01	22553.14
948.375	23532.8
948.74	28235
949.104	32935.26
949.469	47580.01
949.834	84035.59
950.198	79655.7
950.562	47780.15
950.927	39811.61
951.291	47897.55
951.655	40827.97
952.02	38368.16
952.384	28976.06
952.748	25214.31
953.112	24574.92
953.476	21367.37
953.839	19779.7
954.203	19603.52
954.567	24524.99
954.931	38635.08
955.294	33076.37
955.658	33253.37
956.021	56535.35
956.385	95873.88
956.748	141449.65
957.111	219776.4
957.474	246678.95
957.837	277690.39
958.2	210019.65
958.563	75571.14
958.926	51085.35
959.289	77554.07
959.652	86627.16
960.015	65025.13
960.377	93343.49
960.74	106544.16
961.102	183722.24
961.465	197247.91
961.827	105628.32
962.189	202813.22
962.552	140424.22
962.914	112638.27
963.276	73022.43
963.638	60394.23
964	59836.93
964.362	40458.12
964.724	39132.26
965.085	27926.5
965.447	22923.01
965.809	26157
966.17	26184.51
966.532	28386.7
966.893	26048.18
967.255	23698.71
967.616	27965.9
967.977	22400.44
968.338	24450.43
968.699	20071.15
969.061	20065.39
969.421	20199.64
969.782	22648.75
970.143	19137.2
970.504	19799.19
970.865	22507.62
971.225	23018.49
971.586	22510.01
971.946	32076.51
972.307	27849.41
972.667	36457.14
973.027	37508.23
973.388	45460.35
973.748	30904.44
974.108	33635.11
974.468	45538.17
974.828	35083.52
975.188	27021.12
975.548	24821.17
975.907	20838.34
976.267	23380.91
976.627	19629.93
976.986	20389.11
977.346	19440.47
977.705	18698.96
978.064	17031.5
978.424	14173.3
978.783	14657.85
979.142	16733.66
979.501	16013.27
979.86	16939.24
980.219	16326.67
980.578	21078.5
980.937	23601.01
981.296	21024.8
981.654	21635.36
982.013	33687.73
982.371	43646.63
982.73	40743.74
983.088	46088.84
983.447	49228.64
983.805	70325.81
984.163	147061.38
984.521	163144.68
984.879	239171.56
985.237	-388905.74
985.595	375422.8
985.953	93386.44
986.311	54007.24
986.669	31389.16
987.026	27080.88
987.384	36453.8
987.741	37682.35
988.099	26915.39
988.456	21445.94
988.814	20028.23
989.171	17403.2
989.528	17147.12
989.885	18102.63
990.242	14328.69
990.599	17855.04
990.956	14606.12
991.313	10213.44
991.67	8380.88
992.027	8869.74
992.383	7892.55
992.74	6932.19
993.096	7275.55
993.453	7544.57
993.809	7812.66
994.165	10409.18
994.522	9526.2
994.878	10505.76
995.234	13172.74
995.59	13007.73
995.946	12329.33
996.302	14049.98
996.658	16244.96
997.013	17908.62
997.369	21227.28
997.725	27163.72
998.08	17580.6
998.436	27144.01
998.791	37454.35
999.147	37391.53
999.502	40773.14
999.857	29657.53
1000.212	48380.72
1000.567	68910.45
1000.922	39703.56
1001.277	25230.61
1001.632	18732.25
1001.987	24136.11
1002.342	17320.12
1002.696	13837.35
1003.051	11039.18
1003.406	13366.42
1003.76	13295.33
1004.114	13065.56
1004.469	10994.59
1004.823	9102.39
1005.177	9841.38
1005.531	7813.3
1005.885	6941.17
1006.239	7821.41
1006.593	9821.04
1006.947	13120.84
1007.301	9859.29
1007.655	10756.6
1008.008	7917.27
1008.362	8864.56
1008.715	12645.72
1009.069	11506.51
1009.422	17239.77
1009.776	34511.35
1010.129	22883.66
1010.482	19078.55
1010.835	16180.1
1011.188	33642.84
1011.541	31670.39
1011.894	-193561.84
1012.247	569836.26
1012.6	38837.75
1012.952	24400.57
1013.305	12583.08
1013.657	9071.32
1014.01	8603.34
1014.362	7117.7
1014.715	6293.06
1015.067	5461.55
1015.419	5342.24
1015.771	4731.45
1016.123	4206.36
1016.475	4322.48
1016.827	4613.55
1017.179	4961.29
1017.531	4996.16
1017.883	5105.13
1018.234	4907.36
1018.586	6213.02
1018.938	6588.41
1019.289	9060.7
1019.64	10386.19
1019.992	9683.24
1020.343	8862.62
1020.694	6973.05
1021.045	6162.47
1021.396	7062.64
1021.747	7569.49
1022.098	9096.45
1022.449	6616.08
1022.8	6158.64
1023.151	4305.58
1023.501	3800.41
1023.852	4157.7
1024.202	4300.92
1024.553	4733.34
1024.903	4623.15
1025.253	3945.83
1025.604	3556.53
1025.954	4422.28
1026.304	5377.26
1026.654	6257.23
1027.004	9141.51
1027.354	14840.87
1027.703	13917.43
1028.053	18442.38
1028.403	26916.84
1028.753	39095.21
1029.102	53243.87
1029.452	273972.11
1029.801	11854.69
1030.15	7679.82
1030.499	6522.58
897.758	2501.91
901.051	2457.34
904.343	2490.45
907.636	2492.22
910.928	2555.12
914.22	2468.24
917.511	2476.24
920.803	2533.64
924.094	2547.19
927.384	2534.63
930.675	2502.33
933.965	2459.84
937.255	2471.85
940.544	2437.87
943.834	2402.7
947.123	2342.87
950.411	2434.98
953.7	2409.25
956.988	2381.76
960.276	2324.27
963.563	2394.85
966.851	2392.8
970.138	2445.98
973.424	2441.96
976.711	2396.46
979.997	2495.54
983.283	2535.92
986.568	2451.35
989.853	2460.58
993.138	2488.63
996.423	2568.4
999.708	2510.75
1002.992	2563.66
1006.275	2427.61
1009.559	2457.49
1012.842	2566.74
1016.125	2507.79
1019.408	2486.35
1022.69	2564.81
1025.972	2587.42
1029.254	2561.59
1032.536	2502.8
1035.817	2528.42
1039.098	2481.19
1042.379	2593.45
1045.659	2604.65
1048.939	2541.24
1052.219	2556.49
1055.498	2565.03
1058.778	2553.31
1062.057	2536.05
1065.335	2558.63
1068.614	2574.32
1071.892	2557.92
1075.17	2628.84
1078.447	2620.49
1081.724	2615.16
1085.001	2648.28
1088.278	2625.86
1091.554	2637.18
1094.83	2632.45
1098.106	2659.71
1101.382	2701.37
1104.657	2705.83
1107.932	2704.06
1111.206	2672.4
1114.481	2632.66
1117.755	2632.24
1121.029	2617.37
1124.302	2668.92
1127.575	2627.13
1130.848	2618.65
1134.121	2582.36
1137.393	2534.2
1140.665	2596.89
1143.937	2574.71
1147.208	2530.67
1150.48	2573.69
1153.75	2559.58
1157.021	2584.49
1160.291	2558.27
1163.561	2602.6
1166.831	2588.77
1170.101	2621.73
1173.37	2593.95
1176.639	2541.88
1179.907	2594.89
1183.176	2605.89
1186.444	2611.36
1189.711	2642.23
1192.979	2654.05
1196.246	2611.15
1199.513	2627.57
1202.78	2624.17
1206.046	2633.1
1209.312	2655.99
1212.578	2679.2
1215.843	2636.94
1219.108	2610.46
1222.373	2634.67
1225.638	2597.96
1228.902	2586.31
1232.166	2551.57
1235.43	2533.54
1238.693	2557.61
1241.956	2553.02
1245.219	2597.83
1248.482	2584.82
1251.744	2578.64
1255.006	2718.97
1258.268	2672.68
1261.529	2620.46
1264.79	2624.87
1268.051	2726.63
1271.312	2740.95
1274.572	2707.17
1277.832	2696.76
1281.092	2685.69
1284.351	2665.26
1287.61	2647.65
1290.869	2569.27
1294.128	2549.51
1297.386	2628.92
1300.644	2618.15
1303.902	2627.09
1307.159	2490.91
1310.416	2544.85
1313.673	2569.71
1316.93	2556.16
1320.186	2599.12
1323.442	2639.85
1326.697	2633.21
1329.953	2618.55
1333.208	2643.46
1336.463	2622.91
1339.717	2567.33
1342.972	2696.74
1346.226	2669.81
1349.479	2606.56
1352.733	2579.83
1355.986	2596.88
1359.238	2573.75
1362.491	2573.84
1365.743	2576.41
1368.995	2572.02
1372.247	2585.23
1375.498	2608.82
1378.749	2626.53
1382	2584.17
1385.251	2633.28
1388.501	2592.04
1391.751	2581.09
1395	2549.08
1398.25	2582.02
1401.499	2594.55
1404.748	2525.38
1407.996	2511.43
1411.244	2499.31
1414.492	2481.81
1417.74	2459.91
1420.987	2469.1
1424.234	2525.53
1427.481	2499.36
1430.728	2557.08
1433.974	2530.93
1437.22	2542.5
1440.465	2542.93
1443.711	2516.69
1446.956	2547.34
1450.201	2532.41
1453.445	2575.1
1456.689	2554.39
1459.933	2567.58
1463.177	2601.97
1466.42	2575.5
1469.663	2556.36
1472.906	2554.48
1476.148	2615.85
1479.391	2599.67
1482.633	2566.4
1485.874	2578.44
1489.115	2571.6
1492.356	2574.09
1495.597	2550.49
1498.838	2552.98
1502.078	2526.33
1505.318	2483.08
1508.557	2523.55
1511.797	2511.35
1515.036	2555.82
1518.274	2547.77
1521.513	2518.12
1524.751	2535.87
1527.989	2552.2
1531.227	2566.66
1534.464	2565.78
1537.701	2578.73
1540.938	2597.28
1544.174	2549.3
1547.41	2545.81
1550.646	2585.25
1553.882	2626.22
1557.117	2680.86
1560.352	2692.54
1563.587	2650.99
1566.821	2613.93
1570.055	2644.13
1573.289	2618.14
1576.523	2688.58
1579.756	2695.62
1582.989	2717.09
1586.222	2677.33
1589.454	2711.84
1592.686	2687.86
1595.918	2716.7
1599.15	2707.16
1602.381	2773.82
1605.612	2735.97
1608.843	2833.78
1612.073	2747.43
1615.303	2734.37
1618.533	2725.84
1621.762	2729.13
1624.992	2713.53
1628.221	2703.74
1631.449	2688.08
1634.678	2738.53
1637.906	2695.77
1641.134	2731.84
1644.361	2691.83
1647.588	2679.63
1650.815	2698.27
1654.042	2673.94
1657.269	2702.25
1660.495	2660.41
1663.72	2675.7
1666.946	2641.11
1670.171	2591.64
1673.396	2569.19
1676.621	2553.05
1679.845	2566.22
1683.069	2583.33
1686.293	2622.24
1689.517	2596.49
1692.74	2533.27
1695.963	2561.13
1699.185	2581.78
1702.408	2555.73
1705.63	2594.78
1708.852	2605.88
1712.073	2582.17
1715.294	2572.13
1718.515	2628.81
1721.736	2580.56
1724.956	2572.13
1728.176	2594.91
1731.396	2617.12
1734.616	2603.51
1737.835	2635.34
1741.054	2611.56
1744.272	2604.56
1747.491	2634.18
1750.709	2679.83
1753.927	2597.95
1757.144	2636.05
1760.361	2682.09
1763.578	2670.84
1766.795	2614.83
1770.011	2617.91
1773.227	2654.87
1776.443	2690.98
1779.658	2734.72
1782.874	2675.47
1786.089	2658.14
1789.303	2659.58
1792.518	2661.44
1795.732	2648.97
1798.945	2659.61
1802.159	2707.55
1805.372	2618.75
1808.585	2605.03
1811.797	2607.41
1815.01	2646.77
1818.222	2655.47
1821.434	2632.99
1824.645	2687.08
1827.856	2678.73
1831.067	2712.96
1834.278	2664.76
1837.488	2648.15
1840.698	2790.21
1843.908	2719.67
1847.117	2682.34
1850.326	2581.48
1853.535	2670.65
1856.744	2687.46
1859.952	2603.58
1863.16	2606.6
1866.368	2624.26
1869.575	2728.48
1872.782	2614.34
1875.989	2550.66
1879.196	2622.69
1882.402	2612.52
1885.608	2650.94
1888.814	2564.19
1892.019	2465.54
1895.224	2517.16
1898.429	2494.03
1901.634	2473.38
1904.838	2448.48
1908.042	2495.62
1911.246	2506.6
1914.449	2448.58
1917.652	2441.64
1920.855	2422.38
1924.058	2464.33
1927.26	2501.45
1930.462	2527.1
1933.664	2554.76
1936.865	2496.2
1940.066	2506.88
1943.267	2454.66
1946.467	2465.83
1949.668	2489.76
1952.868	2556.85
1956.067	2538.26
1959.267	2474.41
1962.466	2500.55
1965.665	2485.63
1968.863	2478.68
1972.061	2491.95
1975.259	2489.77
1978.457	2568.34
1981.654	2528.26
1984.852	2529.28
1988.048	2469.91
1991.245	2469.76
1994.441	2554.16
1997.637	2533.9
2000.833	2514.21
2004.028	2555.67
2007.223	2607.68
2010.418	2588.23
2013.613	2546.83
2016.807	2522.52
2020.001	2527
2023.194	2565.73
2026.388	2543.08
2029.581	2489.44
2032.774	2539.5
2035.966	2547.93
2039.158	2483.59
2042.35	2511.85
2045.542	2436.15
2048.733	2533.34
2051.924	2550.82
2055.115	2573.06
2058.306	2521.83
2061.496	2581.26
2064.686	2639.73
2067.875	2553.32
2071.065	2565.98
2074.254	2589.96
2077.442	2542.35
2080.631	2632.43
2083.819	2533.08
2087.007	2517.86
2090.195	2495.66
2093.382	2523.69
2096.569	2504.41
2099.756	2462.57
2102.942	2493.99
2106.128	2499.5
2109.314	2489.83
2112.5	2459.47
2115.685	2434.55
2118.87	2443.25
2122.055	2505.18
2125.239	2475.51
2128.424	2458.38
2131.608	2544.06
2134.791	2527.33
2137.974	2579.6
2141.157	2566.66
2144.34	2523.77
2147.523	2535.04
2150.705	2550.32
2153.887	2527.71
2157.068	2483.33
2160.25	2480.85
2163.431	2509.4
2166.611	2465.69
2169.792	2480.71
2172.972	2379.59
2176.152	2450.93
2179.331	2484.11
2182.511	2466.62
2185.69	2494.95
2188.868	2490.76
2192.047	2538.66
2195.225	2533.93
2198.403	2486.25
2201.58	2475.36
2204.758	2474
2207.935	2553.32
2211.111	2446.61
2214.288	2432.87
2217.464	2472.37
2220.64	2438.69
2223.815	2491.41
2226.991	2420.23
2230.166	2438.17
2233.34	2471.72
2236.515	2495.75
2239.689	2558.25
2242.863	2504.28
2246.036	2563.15
2249.209	2558.24
2252.382	2587.13
2255.555	2581.69
2258.727	2524.1
2261.9	2557.19
2265.071	2550.3
2268.243	2548.63
2271.414	2484.23
2274.585	2453.32
2277.756	2519.22
2280.926	2475.99
2284.096	2513.01
2287.266	2428.25
2290.436	2479.79
2293.605	2507.83
2296.774	2537.82
2299.942	2555.25
2303.111	2571.17
2306.279	2621.18
2309.447	2608.42
2312.614	2582.44
2315.781	2600.98
2318.948	2572.74
2322.115	2609.25
2325.281	2512.77
2328.447	2526.64
2331.613	2502.22
2334.779	2478.64
2337.944	2480.47
2341.109	2479.28
2344.274	2465.06
2347.438	2429.97
2350.602	2455.42
2353.766	2470.45
2356.929	2459.16
2360.092	2497.65
2363.255	2455.74
2366.418	2400.91
2369.58	2499.28
2372.742	2315.61
2375.904	2323.34
2379.066	2300.9
2382.227	2334.1
2385.388	2295.03
2388.548	2227.77
2391.709	2278.13
2394.869	2261.24
2398.029	2348.11
2401.188	2354.47
2404.347	2298.86
2407.506	2418.89
2410.665	2451.2
2413.823	2452.54
2416.981	2416.4
2420.139	2442.27
2423.296	2492.6
2426.453	2463.34
2429.61	2487.13
2432.767	2429.78
2435.923	2468.73
2439.079	2427.02
2442.235	2473.48
2445.391	2404.27
2448.546	2435.35
2451.701	2481.88
2454.855	2461.6
2458.009	2503.03
2461.163	2503.72
2464.317	2464.59
2467.471	2495.5
2470.624	2531.02
2473.777	2506.5
2476.929	2521.3
2480.082	2545.4
2483.234	2512.65
2486.385	2462
2489.537	2455.62
2492.688	2425.86
2495.839	2443.98
2498.989	2457.58
2502.14	2442.74
2505.29	2429.17
2508.439	2450.86
2511.589	2378.45
2514.738	2387.24
2517.887	2414.93
2521.035	2482.33
2524.183	2462.19
2527.331	2442.65
2530.479	2420.54
2533.627	2428.08
