Data from C_2_HIR_IL_4N_Splice17_12-12-06-068.txt Node
Date: Sat Mar 14 12:12:06 EDT 2020
User: sa697716
Spectrometer: FLMS03696
Trigger mode: 0
Integration Time (sec): 3.180400E-1
Scans to average: 20
Electric dark correction enabled: true
Nonlinearity correction enabled: true
Boxcar width: 5
XAxis mode: Wavelengths
Number of Pixels in Spectrum: 2048
>>>>>Begin Spectral Data<<<<<
187.83	-287611.47
188.298	2120.62
188.766	1118.53
189.233	968.03
189.701	1431.47
190.169	2058.01
190.636	783.51
191.104	664.34
191.571	114.77
192.039	-57.11
192.506	-30.91
192.974	400.11
193.441	-566.94
193.908	-155.08
194.375	-39.49
194.842	47.54
195.31	158.41
195.777	163.91
196.244	405.41
196.711	439.84
197.177	526.26
197.644	728.59
198.111	1249.7
198.578	1749.53
199.045	1402.81
199.511	2262.31
199.978	2628.73
200.445	2221.8
200.911	2472.23
201.378	2731.18
201.844	2475.51
202.31	4234.46
202.777	4447.44
203.243	2515.05
203.709	2399.74
204.176	2867.96
204.642	2378.99
205.108	2227.73
205.574	1837.25
206.04	1675.63
206.506	1571.64
206.972	1487.35
207.438	1437.15
207.903	1625.32
208.369	1400.17
208.835	1392.68
209.301	1450.09
209.766	1488.28
210.232	1460.67
210.697	1817.77
211.163	2241.65
211.628	3364.12
212.094	2838.57
212.559	3518.24
213.024	2184.17
213.49	2652.31
213.955	2586.93
214.42	2517.66
214.885	2347.13
215.35	2295.99
215.815	2195.29
216.28	2336.59
216.745	1916.04
217.21	2063.07
217.675	1864.4
218.14	2086.11
218.604	2326.54
219.069	2638.11
219.534	2776.02
219.998	3195.9
220.463	3835.09
220.927	4708.58
221.392	4405.66
221.856	4433.04
222.32	5565.62
222.785	6878.93
223.249	8649.37
223.713	9628.44
224.177	9643.97
224.642	12353.31
225.106	15214.27
225.57	16604.05
226.034	12335.4
226.497	18787.13
226.961	17011.73
227.425	19826.91
227.889	22012.88
228.353	21997.52
228.816	45494.07
229.28	43508.7
229.744	36725.79
230.207	22322.8
230.671	21987.63
231.134	36366.76
231.597	41986.34
232.061	41960.27
232.524	40944.44
232.987	28248.63
233.45	25451.02
233.914	22826.71
234.377	23366.71
234.84	21379.27
235.303	25235.84
235.766	28198.5
236.229	29200.85
236.691	18413.07
237.154	20711.02
237.617	15608.16
238.08	15988.86
238.542	18746.63
239.005	13447.49
239.468	13390.35
239.93	12632.73
240.393	11506.38
240.855	10129.53
241.317	10374.38
241.78	12628.7
242.242	13063.67
242.704	14118.45
243.166	12298.14
243.629	11186.52
244.091	12890.16
244.553	14135.8
245.015	15221.04
245.477	19678.48
245.939	28807.71
246.4	30609
246.862	29763.87
247.324	28095.83
247.786	31468.06
248.247	41277.75
248.709	42642.02
249.17	31898.27
249.632	30086.85
250.093	34930.72
250.555	30173.25
251.016	18433.15
251.477	17475.13
251.939	18853.99
252.4	19800.68
252.861	23575.03
253.322	21926.76
253.783	26065.19
254.244	33793.27
254.705	26613.9
255.166	23635.89
255.627	23281.03
256.088	32837.1
256.549	34894.16
257.009	30069.27
257.47	36410.24
257.931	29623.19
258.391	22230.56
258.852	22934.63
259.312	24073.2
259.773	29736.96
260.233	25144.01
260.694	21213.98
261.154	24051.56
261.614	19308.75
262.074	17259.29
262.534	17943.76
262.994	16902.75
263.455	22487.35
263.915	18931.28
264.374	17795.31
264.834	19421.23
265.294	21511.87
265.754	22261.1
266.214	21042.65
266.673	19704.23
267.133	24844.1
267.593	24628.55
268.052	30107.37
268.512	26175.64
268.971	31536.21
269.431	34558.07
269.89	30924.22
270.349	46357.83
270.809	51651.25
271.268	46392.14
271.727	103809.34
272.186	67154.84
272.645	50323.64
273.104	36210.4
273.563	52344.12
274.022	41113.14
274.481	34951.48
274.94	26921.75
275.399	19957.45
275.857	23210.04
276.316	31381.49
276.775	27918.32
277.233	27493.04
277.692	25718.75
278.15	29117.8
278.609	29957.77
279.067	27730.97
279.525	25760.47
279.984	33208.16
280.442	39883.17
280.9	39361.08
281.358	25857.56
281.816	24109.77
282.274	23585.88
282.732	24325.35
283.19	24420.64
283.648	21057.02
284.106	22399.7
284.564	22759.36
285.021	21119.32
285.479	15729.92
285.937	14261.26
286.394	12529.47
286.852	12884.12
287.309	13544.5
287.767	13108.6
288.224	12469.41
288.682	13672.35
289.139	15009.66
289.596	13741.03
290.053	14276.03
290.511	18005.99
290.968	21856.56
291.425	29662.26
291.882	24726.67
292.339	21501.59
292.796	21281.75
293.252	20040.78
293.709	15920
294.166	14267.35
294.623	15740.24
295.079	15078.3
295.536	15159.5
295.992	13754.12
296.449	13566.99
296.905	14059.82
297.362	13497.85
297.818	14211.54
298.274	14754.07
298.731	15012.98
299.187	14835.76
299.643	15942.32
300.099	19274.52
300.555	21115.2
301.011	17654.64
301.467	17043.21
301.923	19928.68
302.379	19437.6
302.835	19090.81
303.291	19104.35
303.746	21791.06
304.202	27562.22
304.658	27666.94
305.113	18629.44
305.569	18246.06
306.024	19442.48
306.479	18518.42
306.935	15637.06
307.39	17075.43
307.845	15775.15
308.301	15882.23
308.756	15430.75
309.211	14851.42
309.666	15195.07
310.121	18862.16
310.576	19166.84
311.031	19023.52
311.486	21751.19
311.94	21741.12
312.395	29079.27
312.85	54586.22
313.305	267686
313.759	1388634.07
314.214	100820.03
314.668	80057.53
315.123	67405.21
315.577	24171.02
316.032	21473.03
316.486	26950.65
316.94	21234.09
317.394	14815.88
317.849	11528.01
318.303	10927.63
318.757	10339.86
319.211	11420.59
319.665	9986.51
320.119	10102.27
320.572	14478.2
321.026	13545.22
321.48	11254.86
321.934	12299.09
322.387	12304.35
322.841	13295.64
323.295	11974.52
323.748	13744.16
324.202	13955.6
324.655	16806.25
325.108	23495.14
325.562	16613.69
326.015	19742.19
326.468	14928.29
326.921	16699.03
327.374	15605.62
327.827	16238.39
328.28	18362.53
328.733	12324.46
329.186	10832.06
329.639	10305.36
330.092	8678.8
330.545	8268.16
330.997	8350.63
331.45	9142.47
331.903	10719.37
332.355	18410.93
332.808	17903.48
333.26	14785.01
333.713	16055.64
334.165	16204.22
334.617	21618.69
335.069	17487.49
335.522	31641.41
335.974	35066.18
336.426	31985.18
336.878	22125.22
337.33	11233.62
337.782	10986.22
338.234	13747.18
338.686	16460.52
339.137	19499.83
339.589	18392.47
340.041	14411.49
340.493	12382.96
340.944	12672.02
341.396	13675.73
341.847	11518.45
342.299	13597.61
342.75	16558.59
343.201	14452.55
343.653	16609.85
344.104	20378.06
344.555	16007.05
345.006	24855.25
345.457	19080.18
345.908	15127.47
346.359	14228.1
346.81	11571.4
347.261	12163.34
347.712	11979.7
348.163	12813.56
348.613	12957.82
349.064	12092.79
349.515	10595.81
349.965	10880.44
350.416	13055.24
350.866	14332.3
351.317	16190.03
351.767	26780.05
352.217	33876.92
352.668	28151.17
353.118	25857.73
353.568	24929.24
354.018	19744.59
354.468	20831.15
354.918	14972.99
355.368	13113.82
355.818	18513.35
356.268	53212.58
356.718	223015.65
357.168	55507.52
357.617	27795.22
358.067	30905.03
358.517	28991.28
358.966	34011.89
359.416	38079.24
359.865	41039.76
360.315	48711.55
360.764	22760.95
361.213	12744.48
361.663	12033.37
362.112	14828.07
362.561	23957.79
363.01	18050.06
363.459	15180.62
363.908	16379.04
364.357	13943.76
364.806	23562.46
365.255	16245.76
365.703	14883.41
366.152	14909.01
366.601	12112.92
367.05	9839.9
367.498	8939.21
367.947	9344.24
368.395	9683.28
368.844	8579.67
369.292	10319.11
369.74	7132.63
370.189	10884.09
370.637	12745.44
371.085	10978.59
371.533	13375.92
371.981	12861.64
372.429	12275.2
372.877	12760.35
373.325	10707.07
373.773	10869.08
374.221	9655.41
374.669	11941.25
375.116	10313.77
375.564	10373.21
376.012	11603.7
376.459	9565.19
376.907	11403.01
377.354	13767.17
377.801	12830.63
378.249	14727.8
378.696	18833.35
379.143	22835.33
379.591	24335.91
380.038	41246.19
380.485	29841.13
380.932	32176.42
381.379	29381.13
381.826	21634.38
382.273	15333.34
382.72	13391.49
383.166	13036.53
383.613	8464.45
384.06	7624.17
384.506	8794.69
384.953	6430.65
385.4	6472.14
385.846	5649.03
386.292	5483.41
386.739	5359.48
387.185	5283.2
387.631	5271.78
388.078	5110.13
388.524	5452.48
388.97	5015.46
389.416	4179.79
389.862	4442.88
390.308	4186.35
390.754	4251.39
391.2	4618.97
391.645	4706.33
392.091	4512.39
392.537	4361.75
392.983	4359.37
393.428	4302.19
393.874	4605.93
394.319	4627.25
394.765	4405.95
395.21	4530.26
395.655	4239.45
396.101	3961.83
396.546	3581.31
396.991	3606.27
397.436	3340.55
397.881	3221.64
398.326	3036.76
398.771	2869.16
399.216	2504.96
399.661	2240.65
400.106	2238.28
400.551	2298.4
400.995	2063.58
401.44	2045.06
401.885	1922.23
402.329	1947.82
402.774	1870.05
403.218	1815.59
403.663	1751.74
404.107	1804.76
404.551	1830.09
404.995	1676.14
405.44	1616.52
405.884	1639.64
406.328	1582.44
406.772	1573.55
407.216	1434.87
407.66	1386.46
408.104	1311.01
408.547	1228.64
408.991	1187.63
409.435	1138.02
409.879	1120.26
410.322	1105.39
410.766	1069.8
411.209	1022.19
411.653	983.88
412.096	965.52
412.54	967.71
412.983	962.29
413.426	967.99
413.869	965.74
414.312	952.98
414.756	922.47
415.199	879.5
415.642	854.19
416.085	855.43
416.527	850.39
416.97	863.56
417.413	819.42
417.856	810.47
418.298	800.1
418.741	795.17
419.184	790.44
419.626	818.44
420.069	818.42
420.511	825.51
420.953	807.95
421.396	800.09
421.838	778.39
422.28	796.46
422.722	803.78
423.164	814.68
423.606	802.76
424.048	802.28
424.49	766.2
424.932	761.91
425.374	748.03
425.816	758.96
426.258	774.48
426.699	780.73
427.141	769.27
427.582	777.75
428.024	776.75
428.465	769.16
428.907	748.69
429.348	741.74
429.789	743.91
430.231	732.69
430.672	743.15
431.113	723.6
431.554	713.91
431.995	697.57
432.436	673.36
432.877	659.01
433.318	651.2
433.759	648.83
434.2	645.99
434.64	639.7
435.081	639.97
435.522	608.26
435.962	589.35
436.403	580
436.843	584.86
437.284	573.24
437.724	554.61
438.164	554.21
438.604	542.17
439.045	523.61
439.485	502.1
439.925	490.54
440.365	477.37
440.805	469.5
441.245	463.53
441.685	447.99
442.125	445.95
442.564	450.45
443.004	440.98
443.444	440.78
443.883	442.03
444.323	437.18
444.762	436.97
445.202	444.68
445.641	454.08
446.081	450.99
446.52	455.29
446.959	452.34
447.398	442.42
447.837	437.92
448.276	430.56
448.716	435.1
449.154	439.76
449.593	431.34
450.032	429.21
450.471	420.3
450.91	420.84
451.349	421.61
451.787	418.73
452.226	424.72
452.664	426.54
453.103	428.41
453.541	426.71
453.98	427.4
454.418	429.95
454.856	424.61
455.295	424.99
455.733	429.17
456.171	432.23
456.609	435.24
457.047	434.97
457.485	441.78
457.923	442.25
458.361	436.9
458.798	437.96
459.236	437.24
459.674	439.44
460.111	441.97
460.549	437.99
460.987	433.98
461.424	429.24
461.862	428.45
462.299	420.84
462.736	421.25
463.173	422.18
463.611	419.01
464.048	418.46
464.485	423
464.922	418.88
465.359	415.27
465.796	415.5
466.233	414.98
466.67	412.18
467.106	411.88
467.543	406.93
467.98	401.68
468.416	390.18
468.853	387.15
469.29	374.54
469.726	369.71
470.162	359.8
470.599	351.68
471.035	346.9
471.471	338.21
471.907	334.57
472.344	332.14
472.78	333.48
473.216	336.57
473.652	332.42
474.088	330.95
474.523	329.75
474.959	333.54
475.395	329.91
475.831	328.73
476.266	329.28
476.702	328.43
477.138	325.4
477.573	324.2
478.008	324.06
478.444	325.67
478.879	329.51
479.314	331.99
479.75	331.92
480.185	332.67
480.62	334.91
481.055	336.63
481.49	339.01
481.925	343.1
482.36	349.48
482.795	357.96
483.229	367.69
483.664	375.18
484.099	375.93
484.534	381.73
484.968	387.29
485.403	387.94
485.837	387.4
486.271	387.63
486.706	388.15
487.14	384.31
487.574	379.75
488.009	376.79
488.443	373.99
488.877	379.29
489.311	381.11
489.745	386.1
490.179	392.06
490.613	401.57
491.046	405.88
491.48	410.85
491.914	413.23
492.348	417.99
492.781	422.15
493.215	425.08
493.648	427.39
494.082	432.92
494.515	435.96
494.948	442.41
495.382	447
495.815	452.72
496.248	459.48
496.681	470.3
497.114	481.25
497.547	491.93
497.98	505.43
498.413	514.49
498.846	525.2
499.279	534.88
499.711	543.15
500.144	549.79
500.577	562.55
501.009	574.93
501.442	587.42
501.874	593.31
502.306	599.47
502.739	610.04
503.171	625.08
503.603	633.11
504.036	645.5
504.468	655.06
504.9	669.29
505.332	680.42
505.764	690.4
506.196	701.18
506.627	719.14
507.059	736.28
507.491	749.11
507.923	753.39
508.354	771.39
508.786	786.42
509.217	807.12
509.649	826.13
510.08	847.35
510.512	867.23
510.943	885.78
511.374	900.53
511.805	922.84
512.237	945.26
512.668	979.58
513.099	1009
513.53	1038.68
513.961	1061.92
514.391	1094.57
514.822	1129.2
515.253	1165.69
515.684	1193.7
516.114	1225.59
516.545	1249.82
516.975	1278.12
517.406	1298.82
517.836	1305.73
518.267	1315.55
518.697	1337.46
519.127	1345.14
519.558	1355.33
519.988	1361.9
520.418	1375
520.848	1394.38
521.278	1405.42
521.708	1425.35
522.138	1439.75
522.567	1471.4
522.997	1497.32
523.427	1513.35
523.857	1532.9
524.286	1544.49
524.716	1560.74
525.145	1581.01
525.575	1593.39
526.004	1608.82
526.433	1603.9
526.863	1606.57
527.292	1598.3
527.721	1604.56
528.15	1611.08
528.579	1612.27
529.008	1624.42
529.437	1646.65
529.866	1660.02
530.295	1677.26
530.724	1689.98
531.152	1716.66
531.581	1730.77
532.01	1749.68
532.438	1758.58
532.867	1773.73
533.295	1792.1
533.723	1798.44
534.152	1798.58
534.58	1797.96
535.008	1783.11
535.436	1785.43
535.865	1793.92
536.293	1807.75
536.721	1822.6
537.149	1849.51
537.576	1853.08
538.004	1866.01
538.432	1873.98
538.86	1872.58
539.287	1881.98
539.715	1894.88
540.143	1898.68
540.57	1895.53
540.998	1892.89
541.425	1870.3
541.852	1849.08
542.28	1846.99
542.707	1830.27
543.134	1816.8
543.561	1812.92
543.988	1804.81
544.415	1804.43
544.842	1798.34
545.269	1791.36
545.696	1793.31
546.123	1806.59
546.549	1795.76
546.976	1783.63
547.403	1784.05
547.829	1785.47
548.256	1785.8
548.682	1781.89
549.108	1774.49
549.535	1774.03
549.961	1774.72
550.387	1760.28
550.813	1754.07
551.24	1760.19
551.666	1760.24
552.092	1749.29
552.518	1742.43
552.943	1737.08
553.369	1743.33
553.795	1748.71
554.221	1748.99
554.646	1745.41
555.072	1756.46
555.498	1760.92
555.923	1769.58
556.349	1784.57
556.774	1793.64
557.199	1794.68
557.625	1799.51
558.05	1793.9
558.475	1803.92
558.9	1804.41
559.325	1796.73
559.75	1790.44
560.175	1783.23
560.6	1776.37
561.025	1773.7
561.449	1774
561.874	1779.34
562.299	1783.82
562.723	1790.1
563.148	1780.04
563.572	1782.46
563.997	1791.44
564.421	1795.4
564.846	1795.78
565.27	1797.69
565.694	1793.52
566.118	1804.43
566.542	1810.58
566.966	1803.94
567.39	1799.23
567.814	1788.02
568.238	1786.71
568.662	1791.3
569.086	1793.68
569.509	1800.23
569.933	1785.71
570.357	1778.67
570.78	1757.87
571.204	1745.16
571.627	1734.03
572.05	1731.54
572.474	1730.61
572.897	1717.45
573.32	1708.84
573.743	1698.31
574.166	1678.9
574.589	1678.4
575.012	1670.26
575.435	1667.71
575.858	1658.41
576.281	1646.51
576.704	1629.36
577.126	1616.44
577.549	1604.34
577.972	1593.99
578.394	1582.37
578.817	1575.14
579.239	1555.52
579.661	1542.12
580.084	1526.9
580.506	1512.21
580.928	1507.32
581.35	1496.94
581.772	1491.07
582.194	1478.59
582.616	1464.9
583.038	1451.49
583.46	1440.49
583.882	1436.42
584.303	1438.37
584.725	1432.41
585.147	1433.86
585.568	1442.84
585.99	1453.42
586.411	1459.06
586.833	1472.03
587.254	1472.96
587.675	1485.24
588.096	1497.01
588.518	1491.84
588.939	1475.05
589.36	1472.3
589.781	1462.36
590.202	1435.37
590.623	1425.71
591.043	1423.22
591.464	1409.96
591.885	1406.2
592.305	1399.35
592.726	1384.88
593.147	1385.33
593.567	1381.11
593.987	1373.64
594.408	1367.52
594.828	1365.31
595.248	1359.29
595.669	1341.33
596.089	1333.87
596.509	1327.24
596.929	1315.74
597.349	1316.5
597.769	1306.98
598.189	1301.04
598.608	1302.6
599.028	1304.36
599.448	1302.96
599.867	1290.74
600.287	1286
600.706	1281.8
601.126	1272.12
601.545	1269.63
601.965	1267.85
602.384	1262.13
602.803	1264.11
603.222	1258.61
603.641	1251.23
604.061	1248.42
604.48	1244.51
604.898	1251.43
605.317	1255.77
605.736	1257.31
606.155	1254.05
606.574	1244.99
606.992	1249.28
607.411	1243.23
607.829	1233.75
608.248	1230.09
608.666	1226.8
609.085	1224.99
609.503	1215.48
609.921	1209.11
610.339	1210.01
610.758	1208.4
611.176	1202.91
611.594	1192.87
612.012	1188.56
612.43	1191.33
612.847	1195.9
613.265	1195.03
613.683	1198.43
614.101	1198.54
614.518	1193.56
614.936	1182.85
615.353	1168.92
615.771	1165.1
616.188	1165.39
616.606	1161.1
617.023	1153.4
617.44	1139.6
617.857	1131.83
618.274	1122.68
618.691	1117.02
619.108	1107.36
619.525	1100.99
619.942	1104.61
620.359	1105.67
620.776	1099.91
621.192	1095.7
621.609	1093.45
622.026	1098
622.442	1102.58
622.859	1104.5
623.275	1096.53
623.691	1100.78
624.108	1110.13
624.524	1122.2
624.94	1122.02
625.356	1128.98
625.772	1140.39
626.188	1150.63
626.604	1151.58
627.02	1148.35
627.436	1147.25
627.852	1155.16
628.268	1165.56
628.683	1157.27
629.099	1149.77
629.514	1145.17
629.93	1149.06
630.345	1152.7
630.761	1148.8
631.176	1151.73
631.591	1144.97
632.007	1137.51
632.422	1134.08
632.837	1121.94
633.252	1119
633.667	1108.22
634.082	1098.44
634.497	1085.44
634.911	1065.64
635.326	1059.45
635.741	1042.23
636.155	1031.92
636.57	1030.86
636.984	1027
637.399	1025.97
637.813	1021.93
638.228	1018.5
638.642	1018.24
639.056	1005.86
639.47	1001.64
639.884	990.33
640.298	980.63
640.712	976.02
641.126	961.06
641.54	949.62
641.954	939.91
642.368	925.59
642.781	913.82
643.195	895.62
643.609	890.95
644.022	882.76
644.436	875.82
644.849	863.05
645.262	848.5
645.676	846.04
646.089	838.11
646.502	824.27
646.915	816.54
647.328	801.09
647.741	796.11
648.154	784.48
648.567	780.51
648.98	767.57
649.393	764.53
649.805	759.7
650.218	751.8
650.631	738.07
651.043	731.54
651.456	724.42
651.868	722.49
652.28	733.49
652.693	740.13
653.105	741.69
653.517	746.85
653.929	745.96
654.341	748.58
654.753	738.7
655.165	741.34
655.577	737.99
655.989	733.31
656.401	725.1
656.813	696.31
657.224	679.25
657.636	656.51
658.047	640.64
658.459	622.74
658.87	612.81
659.282	600.63
659.693	583.67
660.104	568.79
660.515	556.77
660.926	550.04
661.338	544.68
661.749	536.18
662.159	526.43
662.57	518.79
662.981	513.22
663.392	504.33
663.803	502.32
664.213	495.82
664.624	490.31
665.035	487.48
665.445	477.6
665.855	470.19
666.266	464.18
666.676	459.84
667.086	451.76
667.497	448.03
667.907	442.86
668.317	435.86
668.727	434.64
669.137	433.05
669.547	431.03
669.956	430.16
670.366	429.91
670.776	430.07
671.186	431.54
671.595	433.95
672.005	435.94
672.414	435.56
672.824	435.01
673.233	435.94
673.642	437.02
674.052	438.96
674.461	441.72
674.87	445.95
675.279	444.65
675.688	445.39
676.097	448.43
676.506	447.92
676.915	456.38
677.323	459.58
677.732	459.47
678.141	461.18
678.549	455.68
678.958	456.19
679.366	457.11
679.775	462.87
680.183	472.99
680.592	478.7
681	484.87
681.408	484.39
681.816	492.66
682.224	501.9
682.632	513.18
683.04	537.18
683.448	559.84
683.856	585.92
684.264	616.69
684.671	644.44
685.079	679.67
685.487	719.63
685.894	772.35
686.302	819.15
686.709	860.84
687.116	907.72
687.524	952.06
687.931	990.69
688.338	1027.65
688.745	1060.73
689.152	1099.36
689.559	1145.3
689.966	1191.98
690.373	1221.49
690.78	1266.34
691.187	1328.87
691.593	1382.38
692	1429.08
692.407	1493.1
692.813	1568.2
693.22	1629.72
693.626	1693.11
694.032	1745.94
694.439	1819.75
694.845	1880.15
695.251	1954.28
695.657	2025.1
696.063	2120.88
696.469	2192.76
696.875	2262.84
697.281	2304.03
697.687	2353.7
698.093	2395.33
698.498	2469.22
698.904	2528.42
699.31	2616.74
699.715	2678.7
700.12	2765.17
700.526	2786.84
700.931	2856.1
701.337	2906.59
701.742	2940.37
702.147	3021.26
702.552	3052.45
702.957	3112.1
703.362	3133.66
703.767	3161.42
704.172	3203.39
704.577	3162.24
704.981	3208
705.386	3224.4
705.791	3217.57
706.195	3288.98
706.6	3296.66
707.004	3373.17
707.408	3343.23
707.813	3368.31
708.217	3356.69
708.621	3357.2
709.025	3447.06
709.43	3446.92
709.834	3503.98
710.237	3569.08
710.641	3555.9
711.045	3578.14
711.449	3571.32
711.853	3599.05
712.256	3639.1
712.66	3675.11
713.064	3745.75
713.467	3786.24
713.87	3892.3
714.274	3936.36
714.677	4042.09
715.08	4193.78
715.484	4353.36
715.887	4547.48
716.29	4735.47
716.693	4930.74
717.096	5158.77
717.499	5282.45
717.901	5306.72
718.304	5332.38
718.707	5354.23
719.109	5254.53
719.512	5225.56
719.915	5096.47
720.317	5042.15
720.719	5082.32
721.122	5055.12
721.524	5005.97
721.926	4965.22
722.328	5059.41
722.731	5050.6
723.133	5075.67
723.535	5259.92
723.937	5279
724.338	5328.02
724.74	5365.05
725.142	5303.52
725.544	5302.22
725.945	5326.28
726.347	5322.88
726.748	5314.25
727.15	5323.53
727.551	5288.79
727.952	5259.86
728.354	5230.53
728.755	5230.26
729.156	5187.94
729.557	5180.02
729.958	5064.92
730.359	5011.61
730.76	4995.25
731.161	4936.91
731.562	4914.78
731.962	4917.1
732.363	4856.82
732.763	4797.65
733.164	4829.6
733.564	4768.45
733.965	4676.04
734.365	4643.18
734.766	4668.8
735.166	4629.01
735.566	4577.96
735.966	4552.71
736.366	4546.58
736.766	4487.18
737.166	4513.55
737.566	4475.13
737.966	4449.31
738.365	4485.71
738.765	4481.16
739.165	4409.56
739.564	4384.02
739.964	4424.25
740.363	4380.74
740.763	4377.18
741.162	4365.23
741.561	4337.1
741.96	4294.12
742.36	4312
742.759	4314.74
743.158	4349.25
743.557	4364.44
743.955	4402.04
744.354	4360.78
744.753	4416
745.152	4376.95
745.55	4428.02
745.949	4419.24
746.348	4421.21
746.746	4435.89
747.144	4397.44
747.543	4375.07
747.941	4419.46
748.339	4355
748.737	4346.7
749.136	4337.52
749.534	4398.84
749.932	4372.51
750.33	4395.8
750.727	4445.44
751.125	4424.43
751.523	4408.37
751.921	4449.39
752.318	4417.14
752.716	4471.69
753.113	4485.59
753.511	4507.22
753.908	4506.89
754.305	4490.95
754.703	4548.78
755.1	4607.84
755.497	4664.28
755.894	4846.24
756.291	5014.14
756.688	5323.06
757.085	5734.08
757.482	6308.41
757.878	6939.56
758.275	7510.62
758.672	8298.19
759.068	8933.69
759.465	9839.05
759.861	11014.04
760.258	12370.16
760.654	13066.18
761.05	12962.78
761.447	12367.66
761.843	11518.35
762.239	10630.64
762.635	10227.31
763.031	9844.08
763.427	9297.04
763.822	8719.09
764.218	8145.19
764.614	7405.8
765.01	6911.69
765.405	6586.32
765.801	6343.2
766.196	6028.33
766.592	5856.35
766.987	5562.29
767.382	5361.9
767.778	5276.33
768.173	5154.12
768.568	5083.75
768.963	4965.09
769.358	4978.26
769.753	4935.25
770.148	4853.52
770.542	4852.66
770.937	4821.26
771.332	4907.51
771.726	4924.18
772.121	4865.34
772.515	4912.16
772.91	4898.59
773.304	4962.25
773.699	4900.56
774.093	4948.9
774.487	5001.62
774.881	5040.71
775.275	5038.6
775.669	4998.22
776.063	5038.7
776.457	5072.73
776.851	5004.53
777.245	5000.05
777.638	5033.28
778.032	5140.2
778.425	5104.83
778.819	5145.6
779.212	5104.25
779.606	5065.09
779.999	5082.23
780.392	5066.66
780.786	5141.94
781.179	5163.43
781.572	5201
781.965	5210.74
782.358	5159.44
782.751	5213.87
783.143	5166.33
783.536	5234.16
783.929	5272.86
784.322	5378.69
784.714	5407.17
785.107	5403.76
785.499	5468.81
785.891	5451.04
786.284	5431.82
786.676	5560.69
787.068	5547.65
787.46	5596.47
787.852	5616.94
788.245	5698.89
788.636	5726.14
789.028	5791.33
789.42	5828.2
789.812	5838.22
790.204	5922.61
790.595	6017.34
790.987	5836.06
791.378	5854.11
791.77	5976.82
792.161	6104.62
792.553	6155.04
792.944	6051.17
793.335	5985.76
793.726	6051.72
794.117	6134.44
794.508	6264.18
794.899	6234.34
795.29	6366.8
795.681	6422.1
796.072	6287.97
796.463	6113.6
796.853	6122.74
797.244	6271.88
797.634	6304.28
798.025	6301.65
798.415	6310.09
798.806	6391.56
799.196	6469.58
799.586	6514.45
799.976	6472.76
800.366	6687.17
800.756	6910.65
801.146	6875.57
801.536	6901.54
801.926	6970.46
802.316	6993.42
802.706	7060.12
803.095	6945.84
803.485	7041.06
803.874	7079.85
804.264	7321.83
804.653	7294.57
805.043	7431.04
805.432	7530.76
805.821	7531.37
806.21	7547.6
806.599	7656.53
806.988	7699.76
807.377	7794.73
807.766	7912.42
808.155	8170.59
808.544	7928.13
808.933	7943.89
809.321	7924.26
809.71	8192.42
810.098	8332.65
810.487	8762.62
810.875	9210.01
811.264	9227.37
811.652	9495.27
812.04	9629.8
812.428	9779.41
812.816	10480.87
813.204	10861.08
813.592	11365.97
813.98	11672.92
814.368	11589.26
814.756	12018.96
815.144	11943.52
815.531	12370.46
815.919	12299.47
816.306	12583.2
816.694	12298.64
817.081	12344.25
817.469	12661.03
817.856	12654.07
818.243	12905.29
818.63	13262.65
819.017	12881.97
819.404	12927.64
819.791	13285
820.178	13851.21
820.565	14081.05
820.952	14945.45
821.339	14494.3
821.725	14664.53
822.112	13987.89
822.498	13952.29
822.885	14081.75
823.271	13994.32
823.657	14391.43
824.044	14399.87
824.43	14477.26
824.816	14446.99
825.202	14045.15
825.588	14983.4
825.974	15002.55
826.36	15480.77
826.746	15512.16
827.132	15841.89
827.517	15827.64
827.903	15099.74
828.289	15130.14
828.674	14410.12
829.06	14319.19
829.445	14679.81
829.83	15015.71
830.216	15462.02
830.601	15802.57
830.986	15436.43
831.371	15312.06
831.756	15821.98
832.141	15429.74
832.526	15432.46
832.911	15694.77
833.295	15588.16
833.68	16020.31
834.065	15450.52
834.449	14600.93
834.834	14531.96
835.218	14523.55
835.603	14841.56
835.987	14649.87
836.371	15424.82
836.755	15328.91
837.139	15697.63
837.524	15916.94
837.908	15756.79
838.291	15814.93
838.675	15885.87
839.059	16077.98
839.443	16069.43
839.827	15854.76
840.21	16299.77
840.594	16159.86
840.977	16346.51
841.361	16324.09
841.744	16675.96
842.127	16533.13
842.511	16756.11
842.894	17296.8
843.277	17645.41
843.66	18150.95
844.043	18220.62
844.426	17474.47
844.809	17185.17
845.191	17217.91
845.574	16803.88
845.957	16468.91
846.339	16365.88
846.722	15883.97
847.104	15948.08
847.487	15789.94
847.869	15794.13
848.252	16051.36
848.634	16357.21
849.016	16608.41
849.398	16721.98
849.78	17499.49
850.162	17507.28
850.544	17895.95
850.926	18476.01
851.307	18397.32
851.689	18655.06
852.071	19074.68
852.452	19380.31
852.834	19361.4
853.215	19721.13
853.597	19849.74
853.978	20122.91
854.359	20530.95
854.741	19613.36
855.122	19518.05
855.503	19247.82
855.884	19364.53
856.265	19305.74
856.646	19397.76
857.026	19038.19
857.407	18975.9
857.788	19130.97
858.169	19389.23
858.549	18612.68
858.93	19189.21
859.31	19238.02
859.69	19434.27
860.071	19069.88
860.451	18872.1
860.831	18201.57
861.211	19265.95
861.591	19775.18
861.971	19754.23
862.351	19935.02
862.731	20297.67
863.111	20528.44
863.491	20827.81
863.87	21632.34
864.25	21949.98
864.629	21583.18
865.009	22058.59
865.388	22845.86
865.768	24485.93
866.147	24391.49
866.526	23038.31
866.905	23300.1
867.284	24616.95
867.663	23371.24
868.042	22412.14
868.421	22344.41
868.8	22714.81
869.179	22928.12
869.558	21586.12
869.936	19892.36
870.315	20242.49
870.693	20740.01
871.072	22368.68
871.45	21318.54
871.828	21591.75
872.207	22688.61
872.585	22351.07
872.963	22961.75
873.341	22180.31
873.719	21921.4
874.097	21660.31
874.475	22075.87
874.853	22584.72
875.23	21644.98
875.608	22545.96
875.986	24390.66
876.363	23329.58
876.741	24044.33
877.118	23434.21
877.495	24579.58
877.873	24989.36
878.25	26293.86
878.627	25217.34
879.004	25557.68
879.381	25433.92
879.758	24762.07
880.135	23054.99
880.512	24378
880.889	23718.07
881.265	23476.15
881.642	23281.14
882.019	23679.03
882.395	23193.72
882.772	24114.75
883.148	23074.95
883.524	22986.19
883.901	22855.09
884.277	23189.26
884.653	23043.37
885.029	23699.64
885.405	26241.65
885.781	26034.12
886.157	24954.82
886.532	25262.73
886.908	25250.84
887.284	28071.6
887.659	28978.87
888.035	29876.3
888.411	30653.02
888.786	31046.85
889.161	32125
889.537	31526.77
889.912	32534.03
890.287	32498.38
890.662	33329.3
891.037	32724.82
891.412	30523.98
891.787	30239.56
892.162	29177.02
892.536	29845.63
892.911	28727.45
893.286	28119.53
893.66	26981.44
894.035	27666.37
894.409	30128.43
894.784	28916.97
895.158	29396.06
895.532	31131.49
895.906	31952.66
896.281	32705.09
896.655	32190.86
897.029	36789.21
897.402	38319.79
897.776	42666.51
898.15	42534.96
898.524	42071.8
898.898	42620.59
899.271	47712.42
899.645	41332.29
900.018	39718.08
900.392	41189.86
900.765	41515.42
901.138	38401.52
901.511	37805.48
901.884	34705.04
902.258	31999.6
902.631	33073.52
903.003	38060.16
903.376	34342.56
903.749	38494.15
904.122	41198.21
904.495	45344.86
904.867	45921.15
905.24	39867.11
905.612	37117.75
905.985	37971.54
906.357	39713.71
906.729	37908.19
907.102	32383.54
907.474	31144.28
907.846	31332.35
908.218	30911.86
908.59	27333.25
908.962	26433.56
909.334	28478.33
909.705	29920.43
910.077	29045.3
910.449	30217.73
910.82	31076.19
911.192	34202.25
911.563	35525.83
911.935	38017.05
912.306	38072.76
912.677	39293.44
913.048	38895
913.419	42192.76
913.79	42416.96
914.161	45481.12
914.532	43472.77
914.903	39930.54
915.274	37914.7
915.645	37371.9
916.015	32926.32
916.386	31398.25
916.756	33430.24
917.127	34510.35
917.497	30828.8
917.868	33558.06
918.238	31886.62
918.608	32824.7
918.978	33495.38
919.348	35486.42
919.718	36675.59
920.088	35324.76
920.458	36691.27
920.828	38618.06
921.198	36607.16
921.567	39109.29
921.937	30306.31
922.306	30591.35
922.676	32996.1
923.045	27528.23
923.415	26157.79
923.784	23817.62
924.153	24468.26
924.522	24446.71
924.891	22979.33
925.26	24615.44
925.629	24033.31
925.998	27612.68
926.367	26961.32
926.736	25640.98
927.104	30553.22
927.473	32804.15
927.842	39585.33
928.21	39224.11
928.578	41217.17
928.947	38967.56
929.315	39167.36
929.683	45935.52
930.051	46291.71
930.42	53732.43
930.788	45965.99
931.156	45592.15
931.523	42759.48
931.891	39519.92
932.259	37918.03
932.627	43945.34
932.994	62179.78
933.362	51385.85
933.729	44624.83
934.097	42694.49
934.464	36119.51
934.831	41665.15
935.199	41081.33
935.566	39846.11
935.933	40346.64
936.3	48899.11
936.667	38072.28
937.034	34325.66
937.401	33970.43
937.767	29325.58
938.134	26136.51
938.501	36896.6
938.867	39344.37
939.234	66533.13
939.6	56818.69
939.967	62700.07
940.333	41991.3
940.699	35759.73
941.065	28693.05
941.431	37621.07
941.798	36275.67
942.163	47584.62
942.529	29711.32
942.895	27340.02
943.261	17670.35
943.627	23163.09
943.992	20292.4
944.358	20329.64
944.723	20425.67
945.089	19922.28
945.454	18414.09
945.82	19641.26
946.185	18902.32
946.55	21893.96
946.915	19644.65
947.28	23031.17
947.645	20303.27
948.01	18707.51
948.375	19503.8
948.74	23349.94
949.104	27247.75
949.469	39338.25
949.834	69541.31
950.198	65830.47
950.562	39463.26
950.927	32847.92
951.291	39539.81
951.655	33637.72
952.02	31621.54
952.384	23900.35
952.748	20802.11
953.112	20287.88
953.476	17648.42
953.839	16310.56
954.203	16154.5
954.567	20225.71
954.931	31868.85
955.294	27250.83
955.658	27380.71
956.021	46562.49
956.385	79017.82
956.748	116693.26
957.111	181064.51
957.474	203236.11
957.837	228912.49
958.2	173175.93
958.563	62271.25
958.926	42097.69
959.289	63907.73
959.652	71447.45
960.015	53583.49
960.377	76789.76
960.74	87599.56
961.102	151138.74
961.465	162258.08
961.827	86875.31
962.189	166764.32
962.552	115630.34
962.914	92760.3
963.276	60231.19
963.638	49809.07
964	49383.2
964.362	33388.18
964.724	32302.14
965.085	23031.06
965.447	18900.79
965.809	21565.72
966.17	21584.27
966.532	23339.19
966.893	21418.09
967.255	19494.17
967.616	23015.53
967.977	18396.3
968.338	20107.16
968.699	16510.19
969.061	16501.55
969.421	16586.79
969.782	18603.57
970.143	15715.78
970.504	16269.92
970.865	18486.43
971.225	18893.38
971.586	18482.79
971.946	26369.5
972.307	22894.24
972.667	29966.62
973.027	30893.13
973.388	37484.76
973.748	25481.97
974.108	27755.44
974.468	37620.13
974.828	28973.67
975.188	22297.92
975.548	20483.65
975.907	17210.41
976.267	19278.51
976.627	16189.84
976.986	16787.56
977.346	15992.58
977.705	15400.21
978.064	14034.13
978.424	11676.16
978.783	12077.18
979.142	13793.96
979.501	13204.84
979.86	13951.46
980.219	13456.02
980.578	17346.09
980.937	19410.62
981.296	17323.33
981.654	17805.6
982.013	27717.95
982.371	35920.45
982.73	33585.45
983.088	38000.7
983.447	40551.84
983.805	57943
984.163	121199.27
984.521	134461.6
984.879	197318.97
985.237	-320832.04
985.595	309554.77
985.953	76909.26
986.311	44420.61
986.669	25803.81
987.026	22270.94
987.384	29930.99
987.741	30936.97
988.099	22074.62
988.456	17593.84
988.814	16453.78
989.171	14297.11
989.528	14106.98
989.885	14887.75
990.242	11813.58
990.599	14694.67
990.956	12009.83
991.313	8405.73
991.67	6899.71
992.027	7322.76
992.383	6507.72
992.74	5702.12
993.096	5974.25
993.453	6176.26
993.809	6403.78
994.165	8509.23
994.522	7793.44
994.878	8601.17
995.234	10789.44
995.59	10654.86
995.946	10076.33
996.302	11486.26
996.658	13276.22
997.013	14638.89
997.369	17410.27
997.725	22290.19
998.08	14446.12
998.436	22289.78
998.791	30762.34
999.147	30726.44
999.502	33477.4
999.857	24283.54
1000.212	39549.12
1000.567	56418.78
1000.922	32612.16
1001.277	20736.21
1001.632	15385.67
1001.987	19807.62
1002.342	14212.81
1002.696	11350.34
1003.051	9050.1
1003.406	10962.39
1003.76	10914.76
1004.114	10784.86
1004.469	9057.27
1004.823	7488.62
1005.177	8061.57
1005.531	6373.15
1005.885	5638.13
1006.239	6349.14
1006.593	7951.41
1006.947	10619.96
1007.301	7962.03
1007.655	8710.35
1008.008	6381.27
1008.362	7155.64
1008.715	10198.51
1009.069	9284.94
1009.422	14001.04
1009.776	28192.49
1010.129	18735.62
1010.482	15647.41
1010.835	13236.85
1011.188	27552.07
1011.541	25904.76
1011.894	-158432.66
1012.247	467382.12
1012.6	31879.29
1012.952	20052.14
1013.305	10338.26
1013.657	7463.02
1014.01	7055.21
1014.362	5815.18
1014.715	5166.96
1015.067	4500.25
1015.419	4408.49
1015.771	3917.35
1016.123	3483.21
1016.475	3574.44
1016.827	3821.82
1017.179	4094.8
1017.531	4104.81
1017.883	4199.36
1018.234	4069.55
1018.586	5144.52
1018.938	5446.05
1019.289	7505.68
1019.64	8574.62
1019.992	7975.21
1020.343	7288.94
1020.694	5752.85
1021.045	5099.77
1021.396	5837.41
1021.747	6297.09
1022.098	7552.19
1022.449	5481
1022.8	5088.01
1023.151	3529.98
1023.501	3121.26
1023.852	3402.71
1024.202	3537.41
1024.553	3895.54
1024.903	3799.61
1025.253	3263.53
1025.604	2933.64
1025.954	3640.87
1026.304	4461.73
1026.654	5231.61
1027.004	7688.75
1027.354	12435.6
1027.703	11699.71
1028.053	15429.53
1028.403	22522.49
1028.753	32657.82
1029.102	44213.14
1029.452	226272.54
1029.801	9750.75
1030.15	6261.31
1030.499	5269.03
897.758	2362.29
901.051	2304.9
904.343	2342.14
907.636	2348.04
910.928	2409.23
914.22	2324.85
917.511	2330.15
920.803	2384.31
924.094	2392.72
927.384	2383.98
930.675	2348.4
933.965	2309.54
937.255	2330.45
940.544	2290.63
943.834	2274.35
947.123	2210.51
950.411	2301.19
953.7	2278.92
956.988	2257.19
960.276	2197.93
963.563	2258.45
966.851	2263.62
970.138	2308.82
973.424	2305.62
976.711	2266.72
979.997	2339.18
983.283	2386.19
986.568	2307.56
989.853	2310
993.138	2336.51
996.423	2416.64
999.708	2364.63
1002.992	2401.73
1006.275	2294.17
1009.559	2313.48
1012.842	2413.82
1016.125	2358.18
1019.408	2337.73
1022.69	2406.16
1025.972	2431.66
1029.254	2406.16
1032.536	2356.52
1035.817	2377.69
1039.098	2340.6
1042.379	2423.71
1045.659	2443.94
1048.939	2385.13
1052.219	2396.99
1055.498	2400.62
1058.778	2391.34
1062.057	2371.53
1065.335	2395.24
1068.614	2407.38
1071.892	2397.26
1075.17	2460.31
1078.447	2457.49
1081.724	2450.71
1085.001	2482.08
1088.278	2458.96
1091.554	2466.29
1094.83	2462.24
1098.106	2494.32
1101.382	2530.31
1104.657	2531.85
1107.932	2528.55
1111.206	2501
1114.481	2456.41
1117.755	2457.46
1121.029	2444.38
1124.302	2501.35
1127.575	2462.33
1130.848	2455.93
1134.121	2420.83
1137.393	2377.32
1140.665	2441.58
1143.937	2418.26
1147.208	2374.02
1150.48	2422.87
1153.75	2410.3
1157.021	2425.93
1160.291	2401.04
1163.561	2448.41
1166.831	2427.59
1170.101	2455.15
1173.37	2425.23
1176.639	2374.84
1179.907	2424.86
1183.176	2440.73
1186.444	2442.8
1189.711	2469.85
1192.979	2488.27
1196.246	2443.47
1199.513	2457.46
1202.78	2457.96
1206.046	2469.37
1209.312	2490.86
1212.578	2512.76
1215.843	2473.79
1219.108	2444.21
1222.373	2468.75
1225.638	2438.16
1228.902	2427.19
1232.166	2390.18
1235.43	2377.18
1238.693	2397.43
1241.956	2392.07
1245.219	2437.69
1248.482	2423.12
1251.744	2421.77
1255.006	2552.58
1258.268	2504.95
1261.529	2454.25
1264.79	2457.3
1268.051	2554.54
1271.312	2565.77
1274.572	2539.46
1277.832	2524.42
1281.092	2513.45
1284.351	2496.86
1287.61	2477.69
1290.869	2407.26
1294.128	2395.62
1297.386	2462.45
1300.644	2449.69
1303.902	2464.53
1307.159	2330.83
1310.416	2380.6
1313.673	2410.95
1316.93	2400.65
1320.186	2435.41
1323.442	2473.75
1326.697	2468.44
1329.953	2449.53
1333.208	2477.23
1336.463	2458.05
1339.717	2407.57
1342.972	2524.44
1346.226	2497.87
1349.479	2440.52
1352.733	2415.48
1355.986	2431.49
1359.238	2411.5
1362.491	2415.23
1365.743	2417.27
1368.995	2408.04
1372.247	2425.97
1375.498	2446.29
1378.749	2474.12
1382	2431.83
1385.251	2474.6
1388.501	2431.92
1391.751	2425.81
1395	2392.1
1398.25	2419.87
1401.499	2436.06
1404.748	2379.96
1407.996	2357.75
1411.244	2346.64
1414.492	2330.79
1417.74	2311.45
1420.987	2316.6
1424.234	2373.53
1427.481	2345.5
1430.728	2403.3
1433.974	2377.03
1437.22	2381.22
1440.465	2379.5
1443.711	2362.51
1446.956	2389.77
1450.201	2371.21
1453.445	2413.04
1456.689	2397.52
1459.933	2409.06
1463.177	2443.83
1466.42	2416.28
1469.663	2398.91
1472.906	2403.25
1476.148	2458.72
1479.391	2452.32
1482.633	2422.8
1485.874	2439.82
1489.115	2437.17
1492.356	2430.51
1495.597	2409.73
1498.838	2406.65
1502.078	2385.43
1505.318	2350.61
1508.557	2387.82
1511.797	2380.74
1515.036	2408.54
1518.274	2393.43
1521.513	2356.8
1524.751	2372.81
1527.989	2391.17
1531.227	2405.43
1534.464	2408.78
1537.701	2414.36
1540.938	2428.63
1544.174	2381.83
1547.41	2375.87
1550.646	2414.11
1553.882	2456.62
1557.117	2509.27
1560.352	2520.07
1563.587	2484.49
1566.821	2448.75
1570.055	2472.99
1573.289	2451.86
1576.523	2516.73
1579.756	2525.2
1582.989	2545.55
1586.222	2506.21
1589.454	2538.17
1592.686	2519.31
1595.918	2545.53
1599.15	2535.35
1602.381	2596.03
1605.612	2565.25
1608.843	2657.78
1612.073	2576.88
1615.303	2562.97
1618.533	2557.44
1621.762	2559.64
1624.992	2540.37
1628.221	2535.94
1631.449	2522.71
1634.678	2562.21
1637.906	2523.71
1641.134	2556.26
1644.361	2517.48
1647.588	2506.17
1650.815	2527.16
1654.042	2497.4
1657.269	2523.74
1660.495	2492.29
1663.72	2495.5
1666.946	2461.85
1670.171	2423.41
1673.396	2396.54
1676.621	2381.06
1679.845	2388.51
1683.069	2402.43
1686.293	2436.77
1689.517	2420.69
1692.74	2364.6
1695.963	2388.7
1699.185	2417.64
1702.408	2392.42
1705.63	2427.41
1708.852	2442.39
1712.073	2415.44
1715.294	2415.83
1718.515	2465.53
1721.736	2420.6
1724.956	2405.27
1728.176	2429.23
1731.396	2452.46
1734.616	2437.03
1737.835	2470.97
1741.054	2445.96
1744.272	2437.47
1747.491	2472.61
1750.709	2508.91
1753.927	2439.93
1757.144	2474.8
1760.361	2522.6
1763.578	2505.95
1766.795	2450.17
1770.011	2450.16
1773.227	2480.78
1776.443	2518.32
1779.658	2561.51
1782.874	2503.83
1786.089	2489.42
1789.303	2492.15
1792.518	2489.64
1795.732	2479.87
1798.945	2492.27
1802.159	2537.51
1805.372	2460.25
1808.585	2449.85
1811.797	2451.37
1815.01	2484.89
1818.222	2498.56
1821.434	2468.74
1824.645	2515.17
1827.856	2517.35
1831.067	2549.75
1834.278	2496.3
1837.488	2481.37
1840.698	2613.07
1843.908	2549.54
1847.117	2517.83
1850.326	2426.73
1853.535	2502.52
1856.744	2527.53
1859.952	2448.12
1863.16	2447.68
1866.368	2464.41
1869.575	2569.62
1872.782	2456.84
1875.989	2396.11
1879.196	2457.59
1882.402	2445.88
1885.608	2483.51
1888.814	2409.75
1892.019	2313.46
1895.224	2365.42
1898.429	2338.02
1901.634	2318.65
1904.838	2296.94
1908.042	2347.17
1911.246	2356.06
1914.449	2307.83
1917.652	2295.57
1920.855	2277.34
1924.058	2314.53
1927.26	2356.33
1930.462	2381.24
1933.664	2413.02
1936.865	2356.52
1940.066	2368.55
1943.267	2314.93
1946.467	2324.09
1949.668	2345.84
1952.868	2417.14
1956.067	2401.71
1959.267	2338.57
1962.466	2363.12
1965.665	2344.39
1968.863	2342.6
1972.061	2349.55
1975.259	2343.67
1978.457	2419.97
1981.654	2382.79
1984.852	2385.6
1988.048	2328.44
1991.245	2323.11
1994.441	2406.69
1997.637	2377.53
2000.833	2362.66
2004.028	2397.54
2007.223	2455.82
2010.418	2440.55
2013.613	2398.13
2016.807	2382.67
2020.001	2381.92
2023.194	2414.48
2026.388	2397.01
2029.581	2341.8
2032.774	2397.7
2035.966	2406.82
2039.158	2346.02
2042.35	2368.2
2045.542	2294.99
2048.733	2383.92
2051.924	2389.09
2055.115	2410.17
2058.306	2364.97
2061.496	2420.66
2064.686	2477.68
2067.875	2386.8
2071.065	2393.87
2074.254	2417.13
2077.442	2370.06
2080.631	2455.33
2083.819	2368.31
2087.007	2358.5
2090.195	2338.59
2093.382	2361.52
2096.569	2343.24
2099.756	2302.54
2102.942	2342.53
2106.128	2352.45
2109.314	2342.31
2112.5	2319.44
2115.685	2291.19
2118.87	2301.29
2122.055	2362.33
2125.239	2334.75
2128.424	2319.67
2131.608	2397.32
2134.791	2378.77
2137.974	2425.35
2141.157	2411.7
2144.34	2374.98
2147.523	2375.69
2150.705	2396.87
2153.887	2370.44
2157.068	2333.13
2160.25	2325.93
2163.431	2352.6
2166.611	2312.41
2169.792	2333.61
2172.972	2237.11
2176.152	2300.48
2179.331	2331.27
2182.511	2324.9
2185.69	2349.26
2188.868	2348.32
2192.047	2390.94
2195.225	2394.39
2198.403	2346.64
2201.58	2335.17
2204.758	2324.84
2207.935	2402.57
2211.111	2307.44
2214.288	2292.66
2217.464	2330.66
2220.64	2294.51
2223.815	2346.5
2226.991	2275.3
2230.166	2292.72
2233.34	2328.36
2236.515	2344.11
2239.689	2411.06
2242.863	2360.03
2246.036	2412.12
2249.209	2407.05
2252.382	2429.88
2255.555	2429.96
2258.727	2375.01
2261.9	2408.79
2265.071	2399.1
2268.243	2397.79
2271.414	2342.09
2274.585	2315.81
2277.756	2378.54
2280.926	2336.16
2284.096	2367.48
2287.266	2289.85
2290.436	2338.96
2293.605	2364.31
2296.774	2396.66
2299.942	2408.69
2303.111	2426.87
2306.279	2476.5
2309.447	2460.85
2312.614	2431.9
2315.781	2456.59
2318.948	2429.63
2322.115	2466.94
2325.281	2367.93
2328.447	2378.65
2331.613	2353.09
2334.779	2338.4
2337.944	2334.09
2341.109	2334.32
2344.274	2323.59
2347.438	2292.52
2350.602	2311.33
2353.766	2326.11
2356.929	2314.25
2360.092	2355.27
2363.255	2317.54
2366.418	2269.92
2369.58	2353.55
2372.742	2197.7
2375.904	2200.46
2379.066	2181.34
2382.227	2211.72
2385.388	2175.13
2388.548	2113.68
2391.709	2160.88
2394.869	2144.08
2398.029	2216.31
2401.188	2220.46
2404.347	2170.67
2407.506	2273.06
2410.665	2306.19
2413.823	2301.84
2416.981	2270.23
2420.139	2293.68
2423.296	2339.93
2426.453	2310.29
2429.61	2334.49
2432.767	2290.59
2435.923	2328.01
2439.079	2286
2442.235	2322.75
2445.391	2261.15
2448.546	2295.62
2451.701	2336.2
2454.855	2321.13
2458.009	2358.5
2461.163	2355.37
2464.317	2321.32
2467.471	2350.76
2470.624	2383.26
2473.777	2364.05
2476.929	2380.54
2480.082	2403.94
2483.234	2373.38
2486.385	2322.2
2489.537	2318.04
2492.688	2294.74
2495.839	2313.36
2498.989	2324.18
2502.14	2309.18
2505.29	2297.97
2508.439	2322.53
2511.589	2256.96
2514.738	2262.64
2517.887	2290.17
2521.035	2359.03
2524.183	2327.54
2527.331	2313.24
2530.479	2297.16
2533.627	2304.51
