Data from C_2_DIV_WI_4N_Splice17_12-19-13-323.txt Node
Date: Sat Mar 14 12:19:13 EDT 2020
User: sa697716
Spectrometer: FLMS03696
Trigger mode: 0
Integration Time (sec): 3.180400E-1
Scans to average: 20
Electric dark correction enabled: true
Nonlinearity correction enabled: true
Boxcar width: 5
XAxis mode: Wavelengths
Number of Pixels in Spectrum: 2048
>>>>>Begin Spectral Data<<<<<
187.83	-267369.34
188.298	1858.59
188.766	1082.98
189.233	1008.97
189.701	1467.9
190.169	2023.39
190.636	704.41
191.104	570.61
191.571	71.5
192.039	-33.41
192.506	-52.29
192.974	416.57
193.441	-796.01
193.908	-95.42
194.375	28.66
194.842	94.7
195.31	216.63
195.777	193.98
196.244	401.53
196.711	488.47
197.177	611.79
197.644	869.85
198.111	1520.64
198.578	2124.31
199.045	1689.3
199.511	2756.78
199.978	3216.97
200.445	2708.66
200.911	2964.11
201.378	3331.04
201.844	3008.68
202.31	5174.51
202.777	5361.22
203.243	2940.54
203.709	2801.92
204.176	3346.27
204.642	2755.28
205.108	2581.43
205.574	2102.49
206.04	1915.76
206.506	1803.64
206.972	1707.91
207.438	1648.8
207.903	1893.84
208.369	1678.71
208.835	1663.8
209.301	1745.63
209.766	1790.22
210.232	1773.83
210.697	2209.59
211.163	2748.75
211.628	4166.23
212.094	3487.57
212.559	4261.69
213.024	2653.91
213.49	3255.43
213.955	3202.58
214.42	3146.58
214.885	2931.25
215.35	2813.94
215.815	2702.24
216.28	2874.48
216.745	2343.79
217.21	2558.87
217.675	2390.38
218.14	2692.31
218.604	3015.53
219.069	3466.28
219.534	3650.59
219.998	4285.06
220.463	5227.12
220.927	6484.17
221.392	6139.7
221.856	6231.35
222.32	7881.63
222.785	9708.51
223.249	12264.5
223.713	13705.98
224.177	13731.62
224.642	17646.43
225.106	21725.84
225.57	23799.79
226.034	17711.41
226.497	26998.57
226.961	24360.56
227.425	28369.3
227.889	31557.48
228.353	31547.19
228.816	65245.41
229.28	62452.23
229.744	52763.66
230.207	32082.02
230.671	31570.01
231.134	52229.88
231.597	60153.82
232.061	60177.44
232.524	58743.66
232.987	40408.1
233.45	36366.91
233.914	32605.6
234.377	33335.47
234.84	30461.7
235.303	35911.91
235.766	40038.48
236.229	41407.17
236.691	26102.28
237.154	29353.89
237.617	22057.6
238.08	22580.55
238.542	26418.66
239.005	18881
239.468	18763.62
239.93	17670.19
240.393	16062.05
240.855	14103.29
241.317	14425.68
241.78	17535.12
242.242	18108.35
242.704	19537.44
243.166	17001.97
243.629	15425.1
244.091	17735.51
244.553	19422.64
245.015	20885.47
245.477	26967.39
245.939	39447.15
246.4	41843.42
246.862	40656.82
247.324	38311.42
247.786	42827.46
248.247	56124.4
248.709	57886.83
249.17	43280.36
249.632	40755.04
250.093	47164.7
250.555	40679.63
251.016	24776.02
251.477	23441.94
251.939	25239.35
252.4	26431.93
252.861	31413.73
253.322	29162.48
253.783	34725.71
254.244	45038.52
254.705	35489.37
255.166	31526.46
255.627	31043.96
256.088	43787.44
256.549	46537.61
257.009	40100.58
257.47	48669.8
257.931	39626.41
258.391	29698.28
258.852	30590.15
259.312	32044.85
259.773	39538.22
260.233	33392.59
260.694	28169.59
261.154	31964.45
261.614	25637.51
262.074	22910.12
262.534	23779.43
262.994	22421.54
263.455	29881.5
263.915	25127.32
264.374	23644.94
264.834	25795.94
265.294	28600.04
265.754	29582.45
266.214	27966.12
266.673	26187.94
267.133	33028
267.593	32749.52
268.052	39990.87
268.512	34742.28
268.971	41926.12
269.431	45963.96
269.89	41122.09
270.349	61592.97
270.809	68654.21
271.268	61732.92
271.727	138485.86
272.186	89628.03
272.645	67246.25
273.104	48532.15
273.563	70242.31
274.022	55190.56
274.481	46923.35
274.94	36144.54
275.399	26875.76
275.857	31281.07
276.316	42252.97
276.775	37566.95
277.233	36996.6
277.692	34592.93
278.15	39079.65
278.609	40156.97
279.067	37145.48
279.525	34486.77
279.984	44547.16
280.442	53484.92
280.9	52700.14
281.358	34670.8
281.816	32296.12
282.274	31600.4
282.732	32626.31
283.19	32795.5
283.648	28318.12
284.106	30147.02
284.564	30649.81
285.021	28421.17
285.479	21162.85
285.937	19253.37
286.394	16894.12
286.852	17377.19
287.309	18266.97
287.767	17640.44
288.224	16750.57
288.682	18382.34
289.139	20179.02
289.596	18454.52
290.053	19154.15
290.511	24149.75
290.968	29240.61
291.425	39624.18
291.882	32941.81
292.339	28649.24
292.796	28420.6
293.252	26792.37
293.709	21236.99
294.166	19007.74
294.623	21004.58
295.079	20146.78
295.536	20232.2
295.992	18363.92
296.449	18135.61
296.905	18834.67
297.362	18030.99
297.818	18950.63
298.274	19634.58
298.731	20003.9
299.187	19804.52
299.643	21226.06
300.099	25642.82
300.555	28082.46
301.011	23440.39
301.467	22592.5
301.923	26460.22
302.379	25840.75
302.835	25347.21
303.291	25369.27
303.746	28850.25
304.202	36388.54
304.658	36536.14
305.113	24545.78
305.569	24044.45
306.024	25633.25
306.479	24401.26
306.935	20528.72
307.39	22425.78
307.845	20720.12
308.301	20844.46
308.756	20325.02
309.211	19571.74
309.666	20035.75
310.121	24895.13
310.576	25263.65
311.031	25040.6
311.486	28675.3
311.94	28694.66
312.395	38337.87
312.85	72049.75
313.305	353470.13
313.759	1827864.72
314.214	132467.97
314.668	105079.16
315.123	88333.4
315.577	31634.39
316.032	28118.4
316.486	35233.85
316.94	27750.04
317.394	19295.47
317.849	14972.85
318.303	14171.55
318.757	13359.87
319.211	14762.32
319.665	12911.78
320.119	13032.44
320.572	18682.16
321.026	17431.9
321.48	14476.41
321.934	15770.2
322.387	15791.85
322.841	17034.08
323.295	15296.5
323.748	17594.62
324.202	17840.08
324.655	21372.3
325.108	29898.61
325.562	21111.07
326.015	25078.55
326.468	18966.01
326.921	21200.12
327.374	19749.58
327.827	20570.3
328.28	23284.34
328.733	15612.09
329.186	13705.98
329.639	13067.07
330.092	11009
330.545	10491.77
330.997	10593.65
331.45	11555.4
331.903	13547.18
332.355	23268.04
332.808	22606.82
333.26	18660.5
333.713	20242.51
334.165	20389.01
334.617	27196.71
335.069	21953.12
335.522	39646.76
335.974	43749.63
336.426	39981.62
336.878	27676.69
337.33	14040.26
337.782	13716.85
338.234	17170.5
338.686	20550
339.137	24373.64
339.589	22939.74
340.041	17966.25
340.493	15450.8
340.944	15835
341.396	17040.35
341.847	14315.05
342.299	16919.64
342.75	20612.54
343.201	18004.41
343.653	20657.09
344.104	25338.67
344.555	19943.59
345.006	31003.84
345.457	23720.39
345.908	18849.19
346.359	17732.26
346.81	14423.29
347.261	15169.21
347.712	14927.96
348.163	15975.8
348.613	16155.08
349.064	15087.12
349.515	13213.16
349.965	13548.5
350.416	16304.14
350.866	17870.24
351.317	20171.67
351.767	33358.67
352.217	42078.54
352.668	34895.1
353.118	31964.93
353.568	30841.24
354.018	24348.83
354.468	25639.38
354.918	18385.49
355.368	16069.37
355.818	22717.18
356.268	65345.06
356.718	273930.33
357.168	68236
357.617	34252.81
358.067	38094.41
358.517	35653.54
358.966	41802.07
359.416	46876.28
359.865	50677.26
360.315	60230.67
360.764	28140.14
361.213	15792.87
361.663	14936.89
362.112	18453.37
362.561	29814.54
363.01	22461.44
363.459	18949.54
363.908	20509.61
364.357	17443.13
364.806	29474.41
365.255	20310.11
365.703	18625.83
366.152	18675.34
366.601	15169.52
367.05	12326.56
367.498	11211.37
367.947	11717.77
368.395	12195.59
368.844	10852.02
369.292	13095.66
369.74	9049.57
370.189	13856.26
370.637	16226.31
371.085	14002.1
371.533	17066.84
371.981	16443.64
372.429	15695.98
372.877	16423.62
373.325	13738.01
373.773	13975.37
374.221	12463.46
374.669	15505.87
375.116	13462.86
375.564	13595.83
376.012	15265.41
376.459	12633.72
376.907	15161.23
377.354	18383.74
377.801	17188.21
378.249	19847.14
378.696	25458.44
379.143	30914.39
379.591	33027.73
380.038	56098.59
380.485	40816.49
380.932	44147.76
381.379	40554.64
381.826	29953.12
382.273	21372.11
382.72	18754.55
383.166	18344.71
383.613	11931.94
384.06	10801.21
384.506	12546.28
384.953	9240.48
385.4	9327.23
385.846	8200.42
386.292	7997.32
386.739	7855.1
387.185	7794.12
387.631	7813.4
388.078	7612.28
388.524	8172.05
388.97	7571.01
389.416	6331.31
389.862	6748.11
390.308	6409.61
390.754	6515.54
391.2	7101.69
391.645	7272.4
392.091	6959.18
392.537	6732.26
392.983	6737.38
393.428	6636.19
393.874	7115
394.319	7147.88
394.765	6779.88
395.21	6954.05
395.655	6533.61
396.101	6115.13
396.546	5527.67
396.991	5583.16
397.436	5185.42
397.881	5018.71
398.326	4752.36
398.771	4488.75
399.216	3924.73
399.661	3534.54
400.106	3518.16
400.551	3592.12
400.995	3210.45
401.44	3160.71
401.885	2960.27
402.329	2981.77
402.774	2847.72
403.218	2743.67
403.663	2636.43
404.107	2695.49
404.551	2706.73
404.995	2479.23
405.44	2379.4
405.884	2411.73
406.328	2329.47
406.772	2314.88
407.216	2103.28
407.66	2030.88
408.104	1924.37
408.547	1796.86
408.991	1737.85
409.435	1664.58
409.879	1634.95
410.322	1611.01
410.766	1551.76
411.209	1473.78
411.653	1413.71
412.096	1383.65
412.54	1376.68
412.983	1364.17
413.426	1366.09
413.869	1363.91
414.312	1336.93
414.756	1286.61
415.199	1223.06
415.642	1185.98
416.085	1186.19
416.527	1174.18
416.97	1187.71
417.413	1126.97
417.856	1114.11
418.298	1096.83
418.741	1086.06
419.184	1081.02
419.626	1124.85
420.069	1126.2
420.511	1131.63
420.953	1104.62
421.396	1092.54
421.838	1063.92
422.28	1085.15
422.722	1088.45
423.164	1106.07
423.606	1084.65
424.048	1079.99
424.49	1025.07
424.932	1017.31
425.374	999.51
425.816	1014.15
426.258	1032.49
426.699	1042.05
427.141	1027.2
427.582	1038.92
428.024	1030.39
428.465	1021.24
428.907	997.05
429.348	983.92
429.789	982.44
430.231	961.2
430.672	972.84
431.113	949.32
431.554	935.18
431.995	911.76
432.436	879.96
432.877	860.39
433.318	847.79
433.759	845.74
434.2	846.3
434.64	837.44
435.081	839.53
435.522	796.62
435.962	767.39
436.403	753.04
436.843	763.23
437.284	748.41
437.724	729.13
438.164	730
438.604	713.31
439.045	686.72
439.485	660
439.925	647.66
440.365	632.8
440.805	625.64
441.245	618.25
441.685	594.8
442.125	590.24
442.564	594.45
443.004	583.15
443.444	582.34
443.883	583.07
444.323	578.15
444.762	578.76
445.202	586.63
445.641	598.82
446.081	594.87
446.52	601.3
446.959	598.07
447.398	586.19
447.837	579.95
448.276	571.45
448.716	578.83
449.154	585.97
449.593	573.17
450.032	571.59
450.471	560.97
450.91	562.5
451.349	563.22
451.787	561.06
452.226	569.55
452.664	569.1
453.103	570.64
453.541	569.79
453.98	569.59
454.418	575.45
454.856	568.39
455.295	568.38
455.733	573.99
456.171	577.84
456.609	580.34
457.047	580.76
457.485	591.07
457.923	591.85
458.361	583.57
458.798	585.29
459.236	584.12
459.674	588.24
460.111	591.77
460.549	585.96
460.987	583.55
461.424	581.11
461.862	577.36
462.299	568.57
462.736	567.87
463.173	570.76
463.611	565.6
464.048	564.68
464.485	569.03
464.922	562.92
465.359	559.57
465.796	553.5
466.233	549.09
466.67	546.14
467.106	544.23
467.543	539.13
467.98	532.1
468.416	517.42
468.853	512.21
469.29	496.94
469.726	491.31
470.162	478.59
470.599	470.78
471.035	466.35
471.471	454.88
471.907	452.55
472.344	448.95
472.78	449.77
473.216	454.95
473.652	448.69
474.088	447.29
474.523	445.65
474.959	449.69
475.395	445.37
475.831	442.01
476.266	442.98
476.702	441.01
477.138	435.96
477.573	434.16
478.008	432.88
478.444	436.4
478.879	440.97
479.314	443.33
479.75	442.54
480.185	444.17
480.62	447.95
481.055	450.38
481.49	454.05
481.925	461.44
482.36	470.83
482.795	483.45
483.229	495.4
483.664	505.7
484.099	507.13
484.534	514.43
484.968	519.83
485.403	521.92
485.837	521.49
486.271	519.95
486.706	520.93
487.14	514.82
487.574	507.18
488.009	503.06
488.443	498.32
488.877	504.5
489.311	507.83
489.745	515.45
490.179	521.28
490.613	531.91
491.046	537.38
491.48	541.84
491.914	543.91
492.348	549.75
492.781	554.74
493.215	558.92
493.648	561.67
494.082	567.56
494.515	570.17
494.948	579.09
495.382	585.92
495.815	592.81
496.248	600.9
496.681	614.23
497.114	626.43
497.547	638.13
497.98	651.99
498.413	660.4
498.846	671.98
499.279	682.11
499.711	689.17
500.144	694.83
500.577	708.33
501.009	721.09
501.442	734.14
501.874	739.35
502.306	745.52
502.739	756.52
503.171	773.75
503.603	781.16
504.036	793.81
504.468	803.13
504.9	818.33
505.332	828.95
505.764	837.65
506.196	848.12
506.627	867.12
507.059	884.79
507.491	896.74
507.923	900.33
508.354	919.4
508.786	934.03
509.217	955.65
509.649	974.26
510.08	997.78
510.512	1018.22
510.943	1037.3
511.374	1053.49
511.805	1077.04
512.237	1101.74
512.668	1137.89
513.099	1169.95
513.53	1201.82
513.961	1227.09
514.391	1262.98
514.822	1299.54
515.253	1340.02
515.684	1369.92
516.114	1402.75
516.545	1427.2
516.975	1456.09
517.406	1477.57
517.836	1483.06
518.267	1492.48
518.697	1514.57
519.127	1521.48
519.558	1531.28
519.988	1538.13
520.418	1551.84
520.848	1571.63
521.278	1584.46
521.708	1591.1
522.138	1607.59
522.567	1641.85
522.997	1671.25
523.427	1688.49
523.857	1709.02
524.286	1722.89
524.716	1741.02
525.145	1762.56
525.575	1776.43
526.004	1792.47
526.433	1801.99
526.863	1802.6
527.292	1792.79
527.721	1799.17
528.15	1807.05
528.579	1809.12
529.008	1821.25
529.437	1846.25
529.866	1860.82
530.295	1880.38
530.724	1895.3
531.152	1925.29
531.581	1941.74
532.01	1962.15
532.438	1972.46
532.867	1989.03
533.295	2009.04
533.723	2015.29
534.152	2012.57
534.58	2013.22
535.008	1996.49
535.436	1998.38
535.865	2007.19
536.293	2024.11
536.721	2041.08
537.149	2069.02
537.576	2072.11
538.004	2086.84
538.432	2095.62
538.86	2095.2
539.287	2104.08
539.715	2119.42
540.143	2123.4
540.57	2118.6
540.998	2113.6
541.425	2088.72
541.852	2065.77
542.28	2063.22
542.707	2044.51
543.134	2030.6
543.561	2025.58
543.988	2017.29
544.415	2016.33
544.842	2010.03
545.269	2002.65
545.696	2004.3
546.123	2017.6
546.549	2007.07
546.976	1993.46
547.403	1992.3
547.829	1993.53
548.256	1994.96
548.682	1990.37
549.108	1982.18
549.535	1981.83
549.961	1983.21
550.387	1968.33
550.813	1962.05
551.24	1968.12
551.666	1968.86
552.092	1958.28
552.518	1950.33
552.943	1942.99
553.369	1949.98
553.795	1955.65
554.221	1956.88
554.646	1953.74
555.072	1965.64
555.498	1970.96
555.923	1981.09
556.349	1996.3
556.774	2006.58
557.199	2009.1
557.625	2016.76
558.05	2011.1
558.475	2021.81
558.9	2019.15
559.325	2009.59
559.75	2001.13
560.175	1993.06
560.6	1984.57
561.025	1982.37
561.449	1981.23
561.874	1985.14
562.299	1988.45
562.723	1994.6
563.148	1982.76
563.572	1985.59
563.997	1995.35
564.421	2000.44
564.846	1999.82
565.27	2002.36
565.694	1997.73
566.118	2009.68
566.542	2017.4
566.966	2008.86
567.39	2002.14
567.814	1988.75
568.238	1987.47
568.662	1992.49
569.086	1993.9
569.509	2001.55
569.933	1983.09
570.357	1974.52
570.78	1950.07
571.204	1934.11
571.627	1921.63
572.05	1919.11
572.474	1917.81
572.897	1902.56
573.32	1892.81
573.743	1881.38
574.166	1860.5
574.589	1860.67
575.012	1852
575.435	1850.45
575.858	1840.01
576.281	1826.95
576.704	1808.38
577.126	1794.62
577.549	1782.04
577.972	1771
578.394	1758.59
578.817	1748.91
579.239	1727.37
579.661	1711.19
580.084	1693.31
580.506	1677.75
580.928	1672.31
581.35	1660.36
581.772	1654.35
582.194	1639.27
582.616	1623.36
583.038	1607.71
583.46	1596.15
583.882	1591.95
584.303	1596.55
584.725	1591.32
585.147	1592.99
585.568	1604.01
585.99	1615.32
586.411	1621.76
586.833	1636.27
587.254	1638.54
587.675	1652.81
588.096	1665.23
588.518	1658.11
588.939	1640.48
589.36	1638.85
589.781	1627.32
590.202	1596.34
590.623	1586.29
591.043	1582.53
591.464	1569.75
591.885	1564.45
592.305	1557.1
592.726	1543.22
593.147	1545.69
593.567	1539.09
593.987	1529.06
594.408	1522.94
594.828	1521.32
595.248	1515.5
595.669	1496.03
596.089	1487.15
596.509	1479.95
596.929	1465.3
597.349	1465.39
597.769	1454.44
598.189	1446.5
598.608	1447.93
599.028	1449.18
599.448	1448.26
599.867	1434.63
600.287	1430.43
600.706	1425.93
601.126	1416.23
601.545	1415.17
601.965	1412.83
602.384	1406.03
602.803	1409.33
603.222	1403.36
603.641	1395.58
604.061	1391.06
604.48	1386.36
604.898	1393.41
605.317	1397.73
605.736	1397.47
606.155	1393.45
606.574	1384.23
606.992	1389.18
607.411	1383.31
607.829	1373.9
608.248	1370.27
608.666	1366.98
609.085	1365.69
609.503	1356.9
609.921	1349.45
610.339	1351.89
610.758	1350.23
611.176	1343.72
611.594	1333.69
612.012	1328.3
612.43	1331.56
612.847	1336.99
613.265	1336.93
613.683	1339.88
614.101	1339.06
614.518	1334.28
614.936	1322.12
615.353	1306.09
615.771	1302.28
616.188	1301.35
616.606	1297.35
617.023	1288.51
617.44	1272.99
617.857	1264.83
618.274	1255.23
618.691	1248.13
619.108	1237.71
619.525	1231.34
619.942	1237.77
620.359	1238.75
620.776	1233.4
621.192	1228.85
621.609	1225.47
622.026	1231.78
622.442	1237.21
622.859	1238.77
623.275	1231.36
623.691	1237.15
624.108	1248.09
624.524	1261.75
624.94	1261.98
625.356	1269.92
625.772	1281.78
626.188	1293.61
626.604	1294.88
627.02	1290.16
627.436	1289.07
627.852	1295.86
628.268	1307.38
628.683	1298.06
629.099	1288.72
629.514	1283.89
629.93	1288.18
630.345	1291.85
630.761	1287.57
631.176	1289.73
631.591	1284.15
632.007	1277.91
632.422	1273.81
632.837	1261.07
633.252	1257.35
633.667	1246.89
634.082	1236.03
634.497	1220.65
634.911	1201.47
635.326	1196.88
635.741	1178.98
636.155	1166.36
636.57	1166.3
636.984	1164.24
637.399	1164.12
637.813	1161.29
638.228	1158.18
638.642	1160.23
639.056	1148.94
639.47	1145.16
639.884	1134
640.298	1125.24
640.712	1121.47
641.126	1105.56
641.54	1095.76
641.954	1087.93
642.368	1074.39
642.781	1062.47
643.195	1042.93
643.609	1039.69
644.022	1031.89
644.436	1024.49
644.849	1009.92
645.262	996.68
645.676	994.65
646.089	986.94
646.502	970.33
646.915	961.67
647.328	943.41
647.741	938.55
648.154	925.44
648.567	920.59
648.98	907.24
649.393	905.2
649.805	900.2
650.218	891.38
650.631	874.82
651.043	867.24
651.456	861.54
651.868	861.14
652.28	874.99
652.693	885.01
653.105	888.24
653.517	894.04
653.929	893.21
654.341	896.27
654.753	884.24
655.165	888.28
655.577	884.5
655.989	878.9
656.401	870.35
656.813	838.11
657.224	818.68
657.636	791.8
658.047	775.03
658.459	755.47
658.87	744.2
659.282	731.35
659.693	712
660.104	697.36
660.515	682.52
660.926	677.22
661.338	670.92
661.749	662.68
662.159	653.12
662.57	645.37
662.981	639.9
663.392	631.87
663.803	632.13
664.213	625.66
664.624	618.92
665.035	617.02
665.445	603.93
665.855	596.59
666.266	587.6
666.676	583.27
667.086	573.64
667.497	570.99
667.907	564.64
668.317	556.21
668.727	554.76
669.137	553.71
669.547	551.62
669.956	552.91
670.366	552.49
670.776	553.84
671.186	555.32
671.595	557.9
672.005	559.04
672.414	557.74
672.824	556.97
673.233	557.99
673.642	559.51
674.052	561.7
674.461	565.1
674.87	568.93
675.279	567.43
675.688	569.53
676.097	571.9
676.506	571.44
676.915	583.65
677.323	587.56
677.732	588.52
678.141	589.84
678.549	583.99
678.958	582.92
679.366	584.95
679.775	590.55
680.183	600.99
680.592	607.43
681	614.5
681.408	612.11
681.816	621.24
682.224	631.5
682.632	644.73
683.04	673.69
683.448	699.05
683.856	728.42
684.264	762.46
684.671	795.37
685.079	835.69
685.487	879.17
685.894	938.72
686.302	988.75
686.709	1032.5
687.116	1083.36
687.524	1127.36
687.931	1167.98
688.338	1204.1
688.745	1235.88
689.152	1272.72
689.559	1320.62
689.966	1368.31
690.373	1395.41
690.78	1442.3
691.187	1509.6
691.593	1561.82
692	1607.51
692.407	1674.14
692.813	1755.12
693.22	1822.47
693.626	1889.08
694.032	1942.19
694.439	2023.83
694.845	2090.22
695.251	2171.48
695.657	2244.86
696.063	2350.63
696.469	2434.07
696.875	2509.75
697.281	2555.51
697.687	2610
698.093	2658.06
698.498	2743.62
698.904	2810.31
699.31	2907.21
699.715	2977.54
700.12	3079.01
700.526	3104.84
700.931	3182.1
701.337	3244.85
701.742	3286.87
702.147	3379.32
702.552	3417.8
702.957	3490.21
703.362	3517.48
703.767	3554.66
704.172	3604.39
704.577	3559.52
704.981	3616.82
705.386	3641.43
705.791	3634.22
706.195	3719.24
706.6	3736.34
707.004	3827.84
707.408	3797.29
707.813	3830.78
708.217	3823.03
708.621	3830.36
709.025	3941.33
709.43	3943.94
709.834	4013.63
710.237	4096.49
710.641	4082.44
711.045	4111.39
711.449	4107.39
711.853	4140.39
712.256	4189.48
712.66	4232.78
713.064	4315.63
713.467	4361.03
713.87	4487.47
714.274	4539.54
714.677	4661.29
715.08	4843.11
715.484	5029.41
715.887	5256.07
716.29	5480.72
716.693	5712.93
717.096	5979.6
717.499	6128.16
717.901	6160.88
718.304	6194.72
718.707	6225.23
719.109	6117.01
719.512	6083.55
719.915	5937.68
720.317	5876.49
720.719	5927.81
721.122	5899.55
721.524	5847.74
721.926	5804.45
722.328	5919.27
722.731	5912.46
723.133	5945.83
723.535	6161.46
723.937	6186.98
724.338	6244.46
724.74	6291.95
725.142	6208.2
725.544	6202.87
725.945	6228.94
726.347	6225.79
726.748	6218.66
727.15	6234.88
727.551	6192.56
727.952	6162.79
728.354	6131.33
728.755	6132.49
729.156	6086.96
729.557	6087.16
729.958	5955.38
730.359	5899.89
730.76	5880.16
731.161	5815.24
731.562	5788.88
731.962	5793.11
732.363	5722.02
732.763	5652.76
733.164	5691.19
733.564	5616.55
733.965	5510.66
734.365	5472.9
734.766	5502.58
735.166	5460.65
735.566	5399.09
735.966	5369.03
736.366	5365.3
736.766	5296.32
737.166	5332.73
737.566	5289.62
737.966	5260.59
738.365	5304.03
738.765	5295.6
739.165	5211.84
739.564	5182.62
739.964	5232.06
740.363	5178.55
740.763	5172.97
741.162	5157.79
741.561	5119.88
741.96	5068.28
742.36	5092.12
742.759	5097.6
743.158	5142.03
743.557	5160.23
743.955	5202.96
744.354	5153.4
744.753	5219.41
745.152	5174.8
745.55	5238.38
745.949	5231.78
746.348	5233.21
746.746	5250.38
747.144	5208.05
747.543	5184.89
747.941	5236.52
748.339	5160.97
748.737	5153.36
749.136	5141.18
749.534	5214.56
749.932	5184.23
750.33	5209.39
750.727	5272.27
751.125	5246.78
751.523	5227.45
751.921	5271.69
752.318	5234.96
752.716	5300.96
753.113	5316.08
753.511	5346.58
753.908	5345.93
754.305	5326.47
754.703	5396.48
755.1	5462.87
755.497	5528.2
755.894	5739.8
756.291	5939.53
756.688	6304.92
757.085	6789.09
757.482	7471.14
757.878	8218.34
758.275	8890.98
758.672	9818.89
759.068	10574.73
759.465	11654.48
759.861	13046.69
760.258	14662.61
760.654	15500.3
761.05	15373.97
761.447	14671.81
761.843	13658.63
762.239	12610.85
762.635	12138.67
763.031	11689.91
763.427	11032.8
763.822	10345.33
764.218	9665.52
764.614	8779.57
765.01	8185.33
765.405	7808.51
765.801	7513.63
766.196	7142.52
766.592	6930.32
766.987	6584.95
767.382	6350.49
767.778	6250.29
768.173	6104.35
768.568	6022.2
768.963	5883.44
769.358	5902.72
769.753	5849.1
770.148	5757.16
770.542	5755.46
770.937	5722.28
771.332	5820.49
771.726	5836.75
772.121	5766.59
772.515	5828.98
772.91	5814.62
773.304	5894.81
773.699	5825.55
774.093	5884.67
774.487	5949.16
774.881	5996.26
775.275	5994.92
775.669	5949.37
776.063	5999.91
776.457	6042.08
776.851	5958.41
777.245	5950.35
777.638	5985.44
778.032	6112.83
778.425	6072.2
778.819	6115.69
779.212	6067.45
779.606	6023.92
779.999	6046.07
780.392	6028.66
780.786	6120.55
781.179	6142.63
781.572	6190.65
781.965	6207.03
782.358	6142.38
782.751	6203.37
783.143	6150.29
783.536	6236.11
783.929	6282.72
784.322	6410.46
784.714	6443.68
785.107	6439.77
785.499	6519.84
785.891	6495.19
786.284	6474.15
786.676	6628.21
787.068	6609.07
787.46	6672.91
787.852	6694.63
788.245	6791.31
788.636	6820.06
789.028	6897.07
789.42	6937.55
789.812	6948.14
790.204	7053.73
790.595	7161.6
790.987	6947.59
791.378	6972.53
791.77	7113.38
792.161	7258.95
792.553	7316.71
792.944	7194.18
793.335	7116
793.726	7196.26
794.117	7295.02
794.508	7445.71
794.899	7411.54
795.29	7565.24
795.681	7624.67
796.072	7461.27
796.463	7257.16
796.853	7266.62
797.244	7442.53
797.634	7476.41
798.025	7474.98
798.415	7486.62
798.806	7584.11
799.196	7678.2
799.586	7730.72
799.976	7691.22
800.366	7947.36
800.756	8209.84
801.146	8163.88
801.536	8193.87
801.926	8273.93
802.316	8298.79
802.706	8377.01
803.095	8239.21
803.485	8351.38
803.874	8401.39
804.264	8685.49
804.653	8655.44
805.043	8815.25
805.432	8935.62
805.821	8940.86
806.21	8970.11
806.599	9102.68
806.988	9156.77
807.377	9276.55
807.766	9418.98
808.155	9727.37
808.544	9440.5
808.933	9457.99
809.321	9440.2
809.71	9767.47
810.098	9936.63
810.487	10439.73
810.875	10968.65
811.264	10989.75
811.652	11309.61
812.04	11471.25
812.428	11655.23
812.816	12494.9
813.204	12961.74
813.592	13569.7
813.98	13948.61
814.368	13845.94
814.756	14378.46
815.144	14294.49
815.531	14816.35
815.919	14731.89
816.306	15065.49
816.694	14725.86
817.081	14783.35
817.469	15153.43
817.856	15152.19
818.243	15444.1
818.63	15876.07
819.017	15418.07
819.404	15487.16
819.791	15896.55
820.178	16574.41
820.565	16857.23
820.952	17885.65
821.339	17346.31
821.725	17551.35
822.112	16728.03
822.498	16683.7
822.885	16829.76
823.271	16723.79
823.657	17186.03
824.044	17190.27
824.43	17271.81
824.816	17233.8
825.202	16750.94
825.588	17869.24
825.974	17893.58
826.36	18462.38
826.746	18494.21
827.132	18892.18
827.517	18860.02
827.903	17990.2
828.289	18035.78
828.674	17173.85
829.06	17062.98
829.445	17497.35
829.83	17882.13
830.216	18405.61
830.601	18813.71
830.986	18368.42
831.371	18215.16
831.756	18825.06
832.141	18361.11
832.526	18346.34
832.911	18666.85
833.295	18537.9
833.68	19048.62
834.065	18371.41
834.449	17374.06
834.834	17289.17
835.218	17281.46
835.603	17655.41
835.987	17429.15
836.371	18336.54
836.755	18233.9
837.139	18671.41
837.524	18935.09
837.908	18739.12
838.291	18802.14
838.675	18872.34
839.059	19101.3
839.443	19094.24
839.827	18834.31
840.21	19359.84
840.594	19201.71
840.977	19424.68
841.361	19395.6
841.744	19800.95
842.127	19633.4
842.511	19908.52
842.894	20562.88
843.277	20985.08
843.66	21579.41
844.043	21677.03
844.426	20789.07
844.809	20446.3
845.191	20482.09
845.574	19994.8
845.957	19598.22
846.339	19483.03
846.722	18895.66
847.104	18965.58
847.487	18776.45
847.869	18793.43
848.252	19098.72
848.634	19465.64
849.016	19761.82
849.398	19903.08
849.78	20828.71
850.162	20839.32
850.544	21295.41
850.926	21999.34
851.307	21905.27
851.689	22215.95
852.071	22713.7
852.452	23074.41
852.834	23050.33
853.215	23490.05
853.597	23658.09
853.978	23987.05
854.359	24482.57
854.741	23390.77
855.122	23287.34
855.503	22976.71
855.884	23123.27
856.265	23055.52
856.646	23182.7
857.026	22748.27
857.407	22674.98
857.788	22851.95
858.169	23172.01
858.549	22242.87
858.93	22931.34
859.31	22984.23
859.69	23211.85
860.071	22765.23
860.451	22527.64
860.831	21716.78
861.211	22996.1
861.591	23597.3
861.971	23569.24
862.351	23777.9
862.731	24205.21
863.111	24493.04
863.491	24854.53
863.87	25816.02
864.25	26199.45
864.629	25752.37
865.009	26310.02
865.388	27247.89
865.768	29201.56
866.147	29095.62
866.526	27478.18
866.905	27807.32
867.284	29377.89
867.663	27892.12
868.042	26735.28
868.421	26643
868.8	27094.64
869.179	27362.17
869.558	25769.23
869.936	23745.84
870.315	24159.78
870.693	24739.83
871.072	26676.02
871.45	25399.95
871.828	25728.84
872.207	27034.85
872.585	26625.77
872.963	27339.61
873.341	26390.31
873.719	26060.63
874.097	25735.76
874.475	26218.24
874.853	26817.29
875.23	25700.46
875.608	26774.83
875.986	28953.1
876.363	27690.64
876.741	28541.66
877.118	27828.66
877.495	29203.69
877.873	29700.35
878.25	31262.54
878.627	29992.16
879.004	30420.47
879.381	30274.03
879.758	29480.14
880.135	27453.84
880.512	29037.63
880.889	28251.32
881.265	27955.05
881.642	27722.57
882.019	28195.85
882.395	27626.14
882.772	28718.92
883.148	27477.46
883.524	27374.48
883.901	27219.96
884.277	27629.85
884.653	27455.7
885.029	28248.74
885.405	31293.81
885.781	31051.96
886.157	29774.51
886.532	30148.22
886.908	30149.43
887.284	33527.9
887.659	34615.12
888.035	35694.56
888.411	36617.45
888.786	37110.52
889.161	38421.45
889.537	37722.23
889.912	38931.34
890.287	38895.4
890.662	39888.87
891.037	39161.3
891.412	36511.9
891.787	36162.86
892.162	34904.49
892.536	35706.69
892.911	34361.84
893.286	33635.45
893.66	32277.01
894.035	33106.07
894.409	36058.49
894.784	34613.58
895.158	35187.97
895.532	37279.53
895.906	38282.43
896.281	39180.4
896.655	38556.14
897.029	44082.02
897.402	45897.65
897.776	51077
898.15	50906.11
898.524	50345.15
898.898	50999.97
899.271	57091.03
899.645	49451.9
900.018	47519.55
900.392	49270.9
900.765	49687.87
901.138	45966.76
901.511	45294.82
901.884	41604.59
902.258	38371.24
902.631	39642.68
903.003	45657.83
903.376	41196.23
903.749	46208.73
904.122	49473.33
904.495	54486.53
904.867	55189.58
905.24	47910.76
905.612	44584.64
905.985	45598.68
906.357	47673.7
906.729	45528.17
907.102	38864.7
907.474	37373.94
907.846	37606.91
908.218	37095.35
908.59	32780.36
908.962	31696.79
909.334	34120.7
909.705	35841.13
910.077	34792.29
910.449	36213.9
910.82	37213.64
911.192	40941.86
911.563	42550.49
911.935	45520.68
912.306	45575.94
912.677	47055.37
913.048	46575.5
913.419	50537.48
913.79	50815.64
914.161	54489.9
914.532	52069.07
914.903	47864.58
915.274	45460.15
915.645	44781.31
916.015	39416.63
916.386	37585.34
916.756	39982.8
917.127	41240.92
917.497	36846.14
917.868	40095.07
918.238	38074.62
918.608	39164.76
918.978	39959.53
919.348	42315.87
919.718	43728.41
920.088	42100.11
920.458	43705.49
920.828	46008.32
921.198	43630.78
921.567	46625.18
921.937	36114.88
922.306	36469.61
922.676	39324.33
923.045	32821.95
923.415	31189.43
923.784	28408.25
924.153	29225.36
924.522	29205.38
924.891	27444.99
925.26	29378.57
925.629	28675.83
925.998	32967.4
926.367	32181.36
926.736	30648.55
927.104	36510.16
927.473	39245.34
927.842	47390.34
928.21	46940.31
928.578	49349.89
928.947	46691.71
929.315	46977.82
929.683	55089.72
930.051	55538.67
930.42	64521.47
930.788	55177.28
931.156	54708.5
931.523	51277.03
931.891	47376.68
932.259	45490.68
932.627	52721.21
932.994	74633.51
933.362	61701.31
933.729	53587.72
934.097	51282.28
934.464	43386.97
934.831	50065.49
935.199	49366.1
935.566	47914.08
935.933	48621.79
936.3	58898.89
936.667	45877.83
937.034	41331.29
937.401	40879.75
937.767	35283.93
938.134	31431.34
938.501	44336.04
938.867	47249.43
939.234	80004.75
939.6	68251.03
939.967	75089.85
940.333	50250.84
940.699	42791.37
941.065	34419.19
941.431	45178.09
941.798	43588.05
942.163	57207.83
942.529	35719.25
942.895	32899.14
943.261	21268.64
943.627	27876.88
943.992	24402.37
944.358	24444.61
944.723	24517.36
945.089	23880.07
945.454	22025.53
945.82	23501.55
946.185	22594.76
946.55	26198.01
946.915	23505.89
947.28	27547.34
947.645	24261.11
948.01	22414.69
948.375	23380.87
948.74	28048.13
949.104	32713.92
949.469	47316.21
949.834	83615.78
950.198	79257.07
950.562	47518.28
950.927	39532.87
951.291	47626.1
951.655	40613.98
952.02	38156.89
952.384	28857.11
952.748	25109.72
953.112	24482.81
953.476	21289.68
953.839	19705.64
954.203	19511.91
954.567	24408.29
954.931	38490.47
955.294	32893.73
955.658	33077.06
956.021	56214.1
956.385	95385.11
956.748	140768.04
957.111	218291.03
957.474	245139.54
957.837	275916.35
958.2	208749.81
958.563	75130.03
958.926	50798.91
959.289	77173.98
959.652	86177.7
960.015	64681.85
960.377	92774.82
960.74	105821.89
961.102	182826.79
961.465	196352.85
961.827	105019.04
962.189	201652.2
962.552	139712.89
962.914	111983.98
963.276	72661.11
963.638	60137.58
964	59568.28
964.362	40236.69
964.724	38955.1
965.085	27765.66
965.447	22742.24
965.809	25967.28
966.17	25989.51
966.532	28121.57
966.893	25806.81
967.255	23501.79
967.616	27734.83
967.977	22201.95
968.338	24280.65
968.699	19937.45
969.061	19940.25
969.421	20091.28
969.782	22539.28
970.143	19041.32
970.504	19709.16
970.865	22398.65
971.225	22879.74
971.586	22371.83
971.946	31913.06
972.307	27691.63
972.667	36206.72
973.027	37290.05
973.388	45234.01
973.748	30774.95
974.108	33528.47
974.468	45407.34
974.828	34993.31
975.188	26932.13
975.548	24728.15
975.907	20747.41
976.267	23279.83
976.627	19547.42
976.986	20272.11
977.346	19314.77
977.705	18564.61
978.064	16892.6
978.424	14052.55
978.783	14545.4
979.142	16588.39
979.501	15888.88
979.86	16778.84
980.219	16159.5
980.578	20849.88
980.937	23350.99
981.296	20808.55
981.654	21419.84
982.013	33333.1
982.371	43208.23
982.73	40361.26
983.088	45756.16
983.447	48809.54
983.805	69857.28
984.163	146037.93
984.521	162057.53
984.879	237691.37
985.237	-386421.9
985.595	372301.54
985.953	92363.69
986.311	53461.42
986.669	31045.36
987.026	26791.17
987.384	36039.19
987.741	37248.68
988.099	26596.59
988.456	21216.21
988.814	19827.61
989.171	17221.51
989.528	17020.36
989.885	18025.09
990.242	14267.48
990.599	17767.87
990.956	14529.94
991.313	10164.27
991.67	8340.27
992.027	8832.33
992.383	7843.78
992.74	6890.44
993.096	7239.86
993.453	7494.87
993.809	7775.9
994.165	10350.41
994.522	9473.45
994.878	10445.95
995.234	13111.37
995.59	12952.16
995.946	12278.66
996.302	14017.99
996.658	16221.6
997.013	17855.87
997.369	21159.24
997.725	27038.48
998.08	17491.82
998.436	27044.08
998.791	37313.86
999.147	37267.55
999.502	40636.16
999.857	29545.6
1000.212	48139.5
1000.567	68386.95
1000.922	39543.55
1001.277	25204.4
1001.632	18702.24
1001.987	24140.47
1002.342	17273.65
1002.696	13808.33
1003.051	11014.98
1003.406	13313.15
1003.76	13253.35
1004.114	13046.97
1004.469	10963.98
1004.823	9045.7
1005.177	9751.02
1005.531	7722.27
1005.885	6844.72
1006.239	7736.83
1006.593	9694.01
1006.947	12990.32
1007.301	9760.87
1007.655	10658.46
1008.008	7839.63
1008.362	8804.19
1008.715	12562.13
1009.069	11402.45
1009.422	17148.87
1009.776	34422.51
1010.129	22861.1
1010.482	19097.01
1010.835	16113.42
1011.188	33560.63
1011.541	31621.36
1011.894	-193262.42
1012.247	569378.64
1012.6	38788.15
1012.952	24496.95
1013.305	12661.54
1013.657	9136.14
1014.01	8622.34
1014.362	7105.69
1014.715	6305.45
1015.067	5488.13
1015.419	5346.84
1015.771	4731.04
1016.123	4197.94
1016.475	4308.59
1016.827	4580.63
1017.179	4907.14
1017.531	4939.74
1017.883	5044.25
1018.234	4858
1018.586	6158.28
1018.938	6517.44
1019.289	8994.22
1019.64	10309.79
1019.992	9622.52
1020.343	8830.8
1020.694	6971.64
1021.045	6169.29
1021.396	7034.62
1021.747	7566.9
1022.098	9128.14
1022.449	6584.81
1022.8	6108.13
1023.151	4249.18
1023.501	3747.1
1023.852	4070.79
1024.202	4225.19
1024.553	4656.74
1024.903	4536.44
1025.253	3870.42
1025.604	3477.42
1025.954	4310.82
1026.304	5251.2
1026.654	6124.68
1027.004	8993.6
1027.354	14591.45
1027.703	13715.05
1028.053	18011.35
1028.403	26028.87
1028.753	37775.13
1029.102	51573.81
1029.452	265118.81
1029.801	11448.87
1030.15	7413.22
1030.499	6269.01
897.758	2505.21
901.051	2458.6
904.343	2491.51
907.636	2493.36
910.928	2556.4
914.22	2467.93
917.511	2475.9
920.803	2535.52
924.094	2547.58
927.384	2534.47
930.675	2500.73
933.965	2456.76
937.255	2470.15
940.544	2436.15
943.834	2400.99
947.123	2340.66
950.411	2432.84
953.7	2407.28
956.988	2378.07
960.276	2322.67
963.563	2393.64
966.851	2391.25
970.138	2445.11
973.424	2440.26
976.711	2395.42
979.997	2494.94
983.283	2535.54
986.568	2452.26
989.853	2462.1
993.138	2489.83
996.423	2569.14
999.708	2511.73
1002.992	2565.98
1006.275	2429.21
1009.559	2459.09
1012.842	2568.46
1016.125	2508.76
1019.408	2487.62
1022.69	2565.18
1025.972	2587.45
1029.254	2562.63
1032.536	2503.94
1035.817	2528.92
1039.098	2482.11
1042.379	2594.12
1045.659	2606.01
1048.939	2542.01
1052.219	2557.9
1055.498	2566.28
1058.778	2555.61
1062.057	2538.28
1065.335	2560.37
1068.614	2576.11
1071.892	2559.1
1075.17	2629.71
1078.447	2622.31
1081.724	2614.51
1085.001	2648.42
1088.278	2626.53
1091.554	2636.44
1094.83	2632.08
1098.106	2659.58
1101.382	2701.24
1104.657	2705.52
1107.932	2703.82
1111.206	2672.62
1114.481	2632.71
1117.755	2634.33
1121.029	2618.99
1124.302	2669.13
1127.575	2628.79
1130.848	2619.63
1134.121	2582.72
1137.393	2535.64
1140.665	2598.46
1143.937	2576.96
1147.208	2532.55
1150.48	2575.05
1153.75	2560.73
1157.021	2584.78
1160.291	2559.12
1163.561	2604.38
1166.831	2590.19
1170.101	2623.71
1173.37	2594.87
1176.639	2542.49
1179.907	2596.46
1183.176	2607.13
1186.444	2613.6
1189.711	2643.89
1192.979	2656.77
1196.246	2612.82
1199.513	2628.38
1202.78	2626.44
1206.046	2633.79
1209.312	2656.94
1212.578	2681.22
1215.843	2636.71
1219.108	2610.1
1222.373	2634.35
1225.638	2597.48
1228.902	2585.12
1232.166	2551.73
1235.43	2534.17
1238.693	2556.86
1241.956	2553.57
1245.219	2598.29
1248.482	2584.31
1251.744	2579.5
1255.006	2720.3
1258.268	2673.47
1261.529	2621.76
1264.79	2626.39
1268.051	2727.96
1271.312	2741.46
1274.572	2708.77
1277.832	2695.74
1281.092	2685.64
1284.351	2665.31
1287.61	2646.68
1290.869	2567.68
1294.128	2546.88
1297.386	2627.24
1300.644	2616.69
1303.902	2626.18
1307.159	2491.3
1310.416	2544.27
1313.673	2570.86
1316.93	2556.56
1320.186	2600.73
1323.442	2641.19
1326.697	2635.24
1329.953	2620.4
1333.208	2645.4
1336.463	2623.95
1339.717	2568.03
1342.972	2694.98
1346.226	2669.94
1349.479	2607.11
1352.733	2579.99
1355.986	2597.17
1359.238	2574.22
1362.491	2573.82
1365.743	2578.14
1368.995	2572.8
1372.247	2585.37
1375.498	2608.73
1378.749	2628.32
1382	2584.47
1385.251	2633.13
1388.501	2593.03
1391.751	2580.78
1395	2549.15
1398.25	2583.03
1401.499	2593.62
1404.748	2524.44
1407.996	2512.01
1411.244	2499.55
1414.492	2481.8
1417.74	2459.62
1420.987	2469.14
1424.234	2525.39
1427.481	2499.14
1430.728	2556.69
1433.974	2531.99
1437.22	2543.54
1440.465	2544.27
1443.711	2517.71
1446.956	2548
1450.201	2532.06
1453.445	2576.02
1456.689	2554.12
1459.933	2567.93
1463.177	2603.73
1466.42	2577.14
1469.663	2556.26
1472.906	2555.12
1476.148	2615.33
1479.391	2599.39
1482.633	2566.48
1485.874	2578.69
1489.115	2570.67
1492.356	2575.3
1495.597	2551.24
1498.838	2552.28
1502.078	2526.23
1505.318	2482.68
1508.557	2522.43
1511.797	2513.34
1515.036	2556.49
1518.274	2549.19
1521.513	2519.26
1524.751	2537.06
1527.989	2553.08
1531.227	2567.55
1534.464	2566.6
1537.701	2580.06
1540.938	2598.33
1544.174	2550
1547.41	2545.34
1550.646	2586.17
1553.882	2627.11
1557.117	2681.98
1560.352	2694.93
1563.587	2651.27
1566.821	2613.45
1570.055	2645.77
1573.289	2617.95
1576.523	2687.62
1579.756	2696.24
1582.989	2718.14
1586.222	2677.02
1589.454	2710.3
1592.686	2687.79
1595.918	2715.76
1599.15	2707.89
1602.381	2774.64
1605.612	2734.33
1608.843	2834.18
1612.073	2748.68
1615.303	2735.12
1618.533	2725.52
1621.762	2729.61
1624.992	2715.16
1628.221	2704.22
1631.449	2688.63
1634.678	2738.41
1637.906	2696.22
1641.134	2733.68
1644.361	2692.69
1647.588	2681.54
1650.815	2699.93
1654.042	2674.81
1657.269	2704.39
1660.495	2662.63
1663.72	2676.58
1666.946	2642.1
1670.171	2593.24
1673.396	2569.75
1676.621	2552.59
1679.845	2565.8
1683.069	2581.81
1686.293	2621.18
1689.517	2596.7
1692.74	2532.73
1695.963	2560.59
1699.185	2582
1702.408	2554.52
1705.63	2593.54
1708.852	2606.19
1712.073	2581.94
1715.294	2572.56
1718.515	2630.49
1721.736	2581.31
1724.956	2572.03
1728.176	2594.8
1731.396	2617.28
1734.616	2604.98
1737.835	2637.67
1741.054	2612.7
1744.272	2606.06
1747.491	2634.58
1750.709	2681.01
1753.927	2598.15
1757.144	2637.58
1760.361	2684.07
1763.578	2672.41
1766.795	2615.96
1770.011	2618.28
1773.227	2652.58
1776.443	2690.22
1779.658	2733.25
1782.874	2676.64
1786.089	2657.09
1789.303	2658.3
1792.518	2660.41
1795.732	2648.66
1798.945	2659.29
1802.159	2706.55
1805.372	2617.06
1808.585	2606.23
1811.797	2609.07
1815.01	2646.81
1818.222	2654.99
1821.434	2633.72
1824.645	2688.8
1827.856	2680.48
1831.067	2714.29
1834.278	2667.01
1837.488	2650.79
1840.698	2792.61
1843.908	2722.04
1847.117	2684.13
1850.326	2583.28
1853.535	2673.1
1856.744	2689.41
1859.952	2604.64
1863.16	2607.68
1866.368	2624.69
1869.575	2729
1872.782	2614
1875.989	2552.32
1879.196	2623.94
1882.402	2614.37
1885.608	2654.07
1888.814	2566.49
1892.019	2466.52
1895.224	2518.37
1898.429	2493.44
1901.634	2474.26
1904.838	2449.17
1908.042	2497.7
1911.246	2507.14
1914.449	2449.38
1917.652	2443.73
1920.855	2423.42
1924.058	2464.73
1927.26	2503.51
1930.462	2528.55
1933.664	2557.33
1936.865	2497.61
1940.066	2507.79
1943.267	2454.61
1946.467	2466.79
1949.668	2491.98
1952.868	2556.71
1956.067	2538.55
1959.267	2475.07
1962.466	2501.07
1965.665	2487.02
1968.863	2479.83
1972.061	2493.04
1975.259	2489.96
1978.457	2570.52
1981.654	2530.05
1984.852	2529.99
1988.048	2470.84
1991.245	2470.22
1994.441	2555.45
1997.637	2533.1
2000.833	2513.64
2004.028	2553.82
2007.223	2606.64
2010.418	2588.55
2013.613	2545.16
2016.807	2520.54
2020.001	2525.54
2023.194	2564.28
2026.388	2542.27
2029.581	2489.39
2032.774	2541.49
2035.966	2549.03
2039.158	2486.15
2042.35	2512.39
2045.542	2436.53
2048.733	2534.81
2051.924	2551.8
2055.115	2573.59
2058.306	2521.6
2061.496	2580.36
2064.686	2637.48
2067.875	2551.53
2071.065	2564.7
2074.254	2588.65
2077.442	2540.78
2080.631	2630.53
2083.819	2530.82
2087.007	2515.84
2090.195	2494.4
2093.382	2522.77
2096.569	2503.76
2099.756	2462.08
2102.942	2493.47
2106.128	2498.76
2109.314	2489.42
2112.5	2459.37
2115.685	2434.56
2118.87	2443.39
2122.055	2504.92
2125.239	2474.44
2128.424	2455.96
2131.608	2544.81
2134.791	2525.7
2137.974	2578.44
2141.157	2565.67
2144.34	2522.83
2147.523	2534.47
2150.705	2549.96
2153.887	2525.54
2157.068	2481.77
2160.25	2480.75
2163.431	2509.88
2166.611	2464.44
2169.792	2480.83
2172.972	2380.15
2176.152	2451.06
2179.331	2483.81
2182.511	2466.47
2185.69	2494.14
2188.868	2492.41
2192.047	2540.29
2195.225	2533.65
2198.403	2487.62
2201.58	2476.35
2204.758	2475.53
2207.935	2554.12
2211.111	2448.6
2214.288	2434.72
2217.464	2474.55
2220.64	2440.88
2223.815	2493.45
2226.991	2422.35
2230.166	2440.07
2233.34	2472.89
2236.515	2497.37
2239.689	2560.83
2242.863	2506.97
2246.036	2565.49
2249.209	2560.59
2252.382	2589.79
2255.555	2585.34
2258.727	2527.35
2261.9	2559.54
2265.071	2553.48
2268.243	2552.98
2271.414	2486.76
2274.585	2456.47
2277.756	2520.74
2280.926	2476.32
2284.096	2514.39
2287.266	2428.34
2290.436	2480.6
2293.605	2507.6
2296.774	2539.1
2299.942	2554.72
2303.111	2571
2306.279	2621.57
2309.447	2607.45
2312.614	2583.02
2315.781	2601.54
2318.948	2573.05
2322.115	2610.81
2325.281	2512.28
2328.447	2527.56
2331.613	2502.6
2334.779	2480.82
2337.944	2481.34
2341.109	2480.37
2344.274	2466.19
2347.438	2431.22
2350.602	2457.48
2353.766	2471.25
2356.929	2459.54
2360.092	2498.71
2363.255	2456.12
2366.418	2400.64
2369.58	2499.19
2372.742	2315.36
2375.904	2323.15
2379.066	2301.08
2382.227	2333.37
2385.388	2294.95
2388.548	2227.84
2391.709	2277.79
2394.869	2261.09
2398.029	2348.15
2401.188	2355.15
2404.347	2299.48
2407.506	2419.51
2410.665	2450.07
2413.823	2452.97
2416.981	2417.91
2420.139	2442.02
2423.296	2493.85
2426.453	2464.27
2429.61	2487.21
2432.767	2429.83
2435.923	2469.02
2439.079	2428.19
2442.235	2473.47
2445.391	2405.72
2448.546	2435.6
2451.701	2481.45
2454.855	2462.89
2458.009	2503.26
2461.163	2504.03
2464.317	2465.08
2467.471	2496.46
2470.624	2530.11
2473.777	2505.87
2476.929	2522.01
2480.082	2544.96
2483.234	2511.98
2486.385	2462.55
2489.537	2455.24
2492.688	2425.27
2495.839	2444.41
2498.989	2458.15
2502.14	2443.12
2505.29	2432.12
2508.439	2451.47
2511.589	2378.97
2514.738	2389.21
2517.887	2416.85
2521.035	2482.87
2524.183	2462
2527.331	2442.71
2530.479	2420.34
2533.627	2427.85
