Data from C_2_DIV_IL_4N_Splice17_12-36-35-148.txt Node
Date: Sat Mar 14 12:36:35 EDT 2020
User: sa697716
Spectrometer: FLMS03696
Trigger mode: 0
Integration Time (sec): 3.180400E-1
Scans to average: 20
Electric dark correction enabled: true
Nonlinearity correction enabled: true
Boxcar width: 5
XAxis mode: Wavelengths
Number of Pixels in Spectrum: 2048
>>>>>Begin Spectral Data<<<<<
187.83	-360018.3
188.298	2481.88
188.766	1354.36
189.233	1199.82
189.701	1569.79
190.169	2175.55
190.636	817.27
191.104	637.09
191.571	49.33
192.039	-147.71
192.506	-136.33
192.974	526.74
193.441	-1129.54
193.908	-357.61
194.375	-136.49
194.842	-122.28
195.31	-51.46
195.777	125.01
196.244	399.73
196.711	513.04
197.177	668.38
197.644	988.2
198.111	1716.98
198.578	2408.13
199.045	1927.88
199.511	3165.23
199.978	3694.05
200.445	3116.53
200.911	3456.55
201.378	3837.12
201.844	3470.7
202.31	5911.79
202.777	6135.19
203.243	3412.49
203.709	3243.89
204.176	3865.76
204.642	3200.36
205.108	2976.87
205.574	2430.99
206.04	2229.23
206.506	2105.17
206.972	2008.58
207.438	1944.04
207.903	2225.23
208.369	1966.7
208.835	1969.59
209.301	2074.99
209.766	2130.36
210.232	2133.43
210.697	2665.79
211.163	3316.34
211.628	5059.96
212.094	4249.86
212.559	5274.29
213.024	3317.44
213.49	4076.1
213.955	4033.04
214.42	4009.58
214.885	3764.42
215.35	3628.55
215.815	3521.68
216.28	3785.84
216.745	3154.47
217.21	3498.73
217.675	3312.3
218.14	3854.86
218.604	4473.19
219.069	5273.17
219.534	5684.14
219.998	6834.89
220.463	8525.43
220.927	10813.93
221.392	10389.79
221.856	10684.98
222.32	13721.08
222.785	17158.25
223.249	21841.04
223.713	24598.11
224.177	24813.98
224.642	32122.2
225.106	39706.47
225.57	43582.55
226.034	32466.98
226.497	49579.26
226.961	44826.04
227.425	52271.75
227.889	58129.16
228.353	58192.9
228.816	120376.3
229.28	115082.28
229.744	97130.17
230.207	58988.99
230.671	58068.12
231.134	96287.58
231.597	110987.53
232.061	111157.99
232.524	108517.48
232.987	74693.65
233.45	67139.14
233.914	60181.53
234.377	61734.93
234.84	56456.5
235.303	66591.62
235.766	74274.55
236.229	76707.82
236.691	48290.11
237.154	54147.68
237.617	40666.27
238.08	41634.47
238.542	48712.7
239.005	34765.05
239.468	34452.84
239.93	32415.25
240.393	29427.47
240.855	25785.53
241.317	26393.44
241.78	32106.74
242.242	33181.62
242.704	35709.54
243.166	31037.32
243.629	28103.12
244.091	32354.28
244.553	35403.9
245.015	38014.34
245.477	49121.8
245.939	71981.25
246.4	76242.79
246.862	74005.42
247.324	69668.57
247.786	77973.52
248.247	102194.21
248.709	105708.19
249.17	78965.7
249.632	74249.33
250.093	85898.26
250.555	74067.54
251.016	45079
251.477	42678.01
251.939	45965.53
252.4	48148.67
252.861	57254.6
253.322	53138.46
253.783	63144.28
254.244	81791.85
254.705	64468.04
255.166	57284.86
255.627	56354.16
256.088	79313.2
256.549	84110.2
257.009	72337.48
257.47	87737.21
257.931	71298.67
258.391	53349.06
258.852	54925
259.312	57543.7
259.773	71022.98
260.233	59899.36
260.694	50448.2
261.154	57184.66
261.614	45823.53
262.074	40966.95
262.534	42470.72
262.994	39990.07
263.455	53281.3
263.915	44810.17
264.374	42141.89
264.834	45971.07
265.294	50970.76
265.754	52737.79
266.214	49903.96
266.673	46753.65
267.133	58957.31
267.593	58503.89
268.052	71498.28
268.512	62124.94
268.971	74785.43
269.431	81963.99
269.89	73304.88
270.349	109744.27
270.809	122264.85
271.268	109869.23
271.727	246365.2
272.186	159536.45
272.645	119578.12
273.104	86262.17
273.563	124820.08
274.022	98229.36
274.481	83475.23
274.94	64261.51
275.399	47772.39
275.857	55613.41
276.316	75156.43
276.775	66806.3
277.233	65704.74
277.692	61401.55
278.15	69389.07
278.609	71281.78
279.067	65875.46
279.525	61108.53
279.984	78917.71
280.442	94668.42
280.9	93171.98
281.358	61257.04
281.816	57056.22
282.274	55854.34
282.732	57703.45
283.19	57965.48
283.648	50013.37
284.106	53252.96
284.564	54148.47
285.021	50135.52
285.479	37334.15
285.937	33974.92
286.394	29747.52
286.852	30575.48
287.309	32056.97
287.767	30912.67
288.224	29334.25
288.682	32147.62
289.139	35195.52
289.596	32129.89
290.053	33381
290.511	42086.26
290.968	50956.12
291.425	69116.92
291.882	57389.17
292.339	49932.35
292.796	49516.88
293.252	46660.37
293.709	36997.04
294.166	33157.25
294.623	36651.06
295.079	35115.26
295.536	35244.22
295.992	31956.9
296.449	31574.01
296.905	32785.95
297.362	31374.36
297.818	32982.89
298.274	34151.49
298.731	34801.91
299.187	34435.28
299.643	36986.23
300.099	44735.83
300.555	48996.86
301.011	40915.85
301.467	39383.73
301.923	46160.03
302.379	45070.8
302.835	44234.41
303.291	44245.35
303.746	50284.62
304.202	63420.96
304.658	63548.69
305.113	42662.97
305.569	41797.89
306.024	44537.67
306.479	42415.71
306.935	35683.54
307.39	38953.85
307.845	35960.52
308.301	36152.84
308.756	35221.54
309.211	33900.58
309.666	34722.72
310.121	43025.19
310.576	43645.82
311.031	43294.64
311.486	49536.4
311.94	49491.49
312.395	66167.8
312.85	124021.42
313.305	609786.99
313.759	3148700.79
314.214	227918.4
314.668	180363.71
315.123	151640.38
315.577	54309.06
316.032	48229.42
316.486	60370.95
316.94	47496.83
317.394	33002.72
317.849	25658.63
318.303	24279.86
318.757	22907.39
319.211	25327.45
319.665	22155.05
320.119	22430.25
320.572	32141.04
321.026	29978.83
321.48	24944.16
321.934	27212.02
322.387	27276.68
322.841	29439.13
323.295	26410.56
323.748	30426.17
324.202	30817.62
324.655	36944.4
325.108	51458.8
325.562	36314.49
326.015	43162.35
326.468	32572.28
326.921	36438.29
327.374	33924.8
327.827	35241.19
328.28	39856.78
328.733	26659.52
329.186	23456.15
329.639	22370.05
330.092	18873.81
330.545	17978.76
330.997	18117.44
331.45	19778.31
331.903	23142.59
332.355	39794.02
332.808	38712.63
333.26	31947.63
333.713	34691.88
334.165	34923.44
334.617	46565.14
335.069	37614.48
335.522	67944.66
335.974	75156.96
336.426	68655.68
336.878	47573.4
337.33	24092.91
337.782	23498.68
338.234	29378.45
338.686	35119.5
339.137	41590.01
339.589	39136.61
340.041	30645.43
340.493	26332.1
340.944	26945.82
341.396	29026.61
341.847	24384.25
342.299	28756.13
342.75	35064.69
343.201	30663.86
343.653	35205.54
344.104	43242.38
344.555	34065.16
345.006	53013.02
345.457	40504.39
345.908	32202.62
346.359	30274.68
346.81	24630.9
347.261	25948.81
347.712	25545.4
348.163	27318.57
348.613	27657.32
349.064	25802.03
349.515	22559.38
349.965	23109.3
350.416	27862.14
350.866	30556.78
351.317	34512.4
351.767	57112.99
352.217	72217.19
352.668	59962.62
353.118	55008.84
353.568	53066.48
354.018	41908.1
354.468	44184.67
354.918	31681.88
355.368	27687.12
355.818	39087.75
356.268	112542.56
356.718	470276.18
357.168	116828.93
357.617	58517.14
358.067	64972.91
358.517	60835
358.966	71269.81
359.416	79781.41
359.865	86195.23
360.315	102572.87
360.764	47841.95
361.213	26761.72
361.663	25370.58
362.112	31315.86
362.561	50587.95
363.01	38171.62
363.459	32098.44
363.908	34721.95
364.357	29463.66
364.806	49760.89
365.255	34175.68
365.703	31242.8
366.152	31219.77
366.601	25278.35
367.05	20500.81
367.498	18614.56
367.947	19427.12
368.395	20206.69
368.844	17878.57
369.292	21561.42
369.74	14890.23
370.189	22787.14
370.637	26688.19
371.085	23053.16
371.533	28073.81
371.981	27042.13
372.429	25731.38
372.877	26760.3
373.325	22375.69
373.773	22803.66
374.221	20262.76
374.669	25096.59
375.116	21712.51
375.564	21911.32
376.012	24469.3
376.459	20128.15
376.907	24033.5
377.354	29072.78
377.801	27081.92
378.249	31069.32
378.696	39606.96
379.143	47955.69
379.591	51042.73
380.038	86194.92
380.485	62237.33
380.932	67207.71
381.379	61370.62
381.826	45165.99
382.273	32056.57
382.72	28062.02
383.166	27301.38
383.613	17695.81
384.06	15923.39
384.506	18413.63
384.953	13507.16
385.4	13581.82
385.846	11875.17
386.292	11589.73
386.739	11325.49
387.185	11198.41
387.631	11182.65
388.078	10839.11
388.524	11588.83
388.97	10701.15
389.416	8917.61
389.862	9462.29
390.308	8950.47
390.754	9084.21
391.2	9858.46
391.645	10088.49
392.091	9621.88
392.537	9290.15
392.983	9308.8
393.428	9153.12
393.874	9820.18
394.319	9853.47
394.765	9330.63
395.21	9586.88
395.655	8977.44
396.101	8391.33
396.546	7553.33
396.991	7618.06
397.436	7073.18
397.881	6825.14
398.326	6455.32
398.771	6090.9
399.216	5312.53
399.661	4783.53
400.106	4754.95
400.551	4861.35
400.995	4351.73
401.44	4304.22
401.885	4036.71
402.329	4072.38
402.774	3901.37
403.218	3770.31
403.663	3630.18
404.107	3734.97
404.551	3760.2
404.995	3447.33
405.44	3317.13
405.884	3368.15
406.328	3259.67
406.772	3250.55
407.216	2958.99
407.66	2861.44
408.104	2717.08
408.547	2542.71
408.991	2454.59
409.435	2360.07
409.879	2327.7
410.322	2298.98
410.766	2218.62
411.209	2105.63
411.653	2022.12
412.096	1977.67
412.54	1976.39
412.983	1963.13
413.426	1967.13
413.869	1966.94
414.312	1929.41
414.756	1860.62
415.199	1771.62
415.642	1719.21
416.085	1719.51
416.527	1705.29
416.97	1732.46
417.413	1641.09
417.856	1623.38
418.298	1605.14
418.741	1591.06
419.184	1587.07
419.626	1653.59
420.069	1655.06
420.511	1663.33
420.953	1627.55
421.396	1612.79
421.838	1571.43
422.28	1607.13
422.722	1615.49
423.164	1639.59
423.606	1613.74
424.048	1610.08
424.49	1527.21
424.932	1517.44
425.374	1495.87
425.816	1521.79
426.258	1549.59
426.699	1566.05
427.141	1541.33
427.582	1563.34
428.024	1554.3
428.465	1546.92
428.907	1511.59
429.348	1494.28
429.789	1497.18
430.231	1463.47
430.672	1481.74
431.113	1446.11
431.554	1424.43
431.995	1390.09
432.436	1342.18
432.877	1311.73
433.318	1286.81
433.759	1280.6
434.2	1278.55
434.64	1263.35
435.081	1268.28
435.522	1201.81
435.962	1159.03
436.403	1136.67
436.843	1153.81
437.284	1128.49
437.724	1098.74
438.164	1103.43
438.604	1077.12
439.045	1036.03
439.485	994.41
439.925	971.75
440.365	949.26
440.805	936.94
441.245	922.85
441.685	887.34
442.125	880.51
442.564	886.34
443.004	864.76
443.444	863.29
443.883	864.31
444.323	858.39
444.762	860.25
445.202	871.71
445.641	886.08
446.081	881.23
446.52	889.29
446.959	879.12
447.398	856.92
447.837	845.03
448.276	830.76
448.716	838.07
449.154	844.53
449.593	825.97
450.032	823.27
450.471	808.71
450.91	807.91
451.349	805.07
451.787	801.66
452.226	812.89
452.664	814.31
453.103	814.29
453.541	813.37
453.98	810.64
454.418	816.68
454.856	803.27
455.295	801.75
455.733	808.31
456.171	812.56
456.609	814.36
457.047	814.75
457.485	825.21
457.923	826.48
458.361	815.75
458.798	818.92
459.236	815.26
459.674	820.85
460.111	823.77
460.549	815.42
460.987	812.38
461.424	808.45
461.862	803.72
462.299	791.64
462.736	790.33
463.173	792.42
463.611	781.57
464.048	779.08
464.485	784.69
464.922	777.54
465.359	773.96
465.796	763.01
466.233	758.35
466.67	750.99
467.106	749.03
467.543	741.1
467.98	731.54
468.416	713.52
468.853	708.26
469.29	686.65
469.726	678.96
470.162	660.74
470.599	652.04
471.035	646.14
471.471	630.14
471.907	627.22
472.344	623.8
472.78	624.68
473.216	632.78
473.652	625.3
474.088	623.82
474.523	622.01
474.959	626.8
475.395	621.75
475.831	616.41
476.266	619.39
476.702	617.64
477.138	610.83
477.573	608
478.008	605.38
478.444	606.79
478.879	611.85
479.314	613.86
479.75	613.89
480.185	615.55
480.62	621.24
481.055	624.91
481.49	627.98
481.925	636.63
482.36	648.71
482.795	666
483.229	684.83
483.664	699.13
484.099	702.78
484.534	713.36
484.968	719.93
485.403	721.67
485.837	719.84
486.271	718.22
486.706	718.53
487.14	709.25
487.574	697.37
488.009	690.13
488.443	683.11
488.877	688.71
489.311	689.68
489.745	697.2
490.179	702.71
490.613	715.06
491.046	720.67
491.48	725.53
491.914	725.14
492.348	729.64
492.781	732.69
493.215	733.65
493.648	733.75
494.082	739.24
494.515	738.62
494.948	745.72
495.382	748.69
495.815	752.91
496.248	757.75
496.681	770.16
497.114	781.01
497.547	791.07
497.98	804.18
498.413	809.59
498.846	817.45
499.279	825.87
499.711	829.67
500.144	832.46
500.577	842.14
501.009	852.13
501.442	862.56
501.874	863.71
502.306	865.52
502.739	873.12
503.171	888.62
503.603	892.53
504.036	901.49
504.468	906.84
504.9	918.36
505.332	924.76
505.764	930.15
506.196	936.98
506.627	952.8
507.059	966.19
507.491	974.79
507.923	972.65
508.354	988.95
508.786	1001.07
509.217	1020.36
509.649	1035.92
510.08	1056.71
510.512	1073.4
510.943	1089.87
511.374	1101.28
511.805	1122.71
512.237	1143.09
512.668	1176.19
513.099	1204.94
513.53	1234.05
513.961	1255.69
514.391	1289.62
514.822	1325.03
515.253	1363.95
515.684	1391.21
516.114	1423.82
516.545	1448.54
516.975	1477.91
517.406	1500.14
517.836	1504.43
518.267	1512.57
518.697	1534.31
519.127	1541.04
519.558	1550
519.988	1554.56
520.418	1567.63
520.848	1587.77
521.278	1598.94
521.708	1606.76
522.138	1621.73
522.567	1656.76
522.997	1685.71
523.427	1703.18
523.857	1722.67
524.286	1734.83
524.716	1754.32
525.145	1775.45
525.575	1789.9
526.004	1805.78
526.433	1813.55
526.863	1815.78
527.292	1806.66
527.721	1814.21
528.15	1821.58
528.579	1824.36
529.008	1838.55
529.437	1864.61
529.866	1881.63
530.295	1900.67
530.724	1916.91
531.152	1947.07
531.581	1962.5
532.01	1981.94
532.438	1991.91
532.867	2010.71
533.295	2031.99
533.723	2040.04
534.152	2038.85
534.58	2039.09
535.008	2023.97
535.436	2026.52
535.865	2036.49
536.293	2054.57
536.721	2074.64
537.149	2104.49
537.576	2108.4
538.004	2123.39
538.432	2131.43
538.86	2129.97
539.287	2139.34
539.715	2154.32
540.143	2156.93
540.57	2153.21
540.998	2148.42
541.425	2122.02
541.852	2098.1
542.28	2095.24
542.707	2077.27
543.134	2062.35
543.561	2058.03
543.988	2049.55
544.415	2048.97
544.842	2044.34
545.269	2035.81
545.696	2038.4
546.123	2052.44
546.549	2041.32
546.976	2027.17
547.403	2027.07
547.829	2030.69
548.256	2033.58
548.682	2030.25
549.108	2021.52
549.535	2021.47
549.961	2024.92
550.387	2010.19
550.813	2004.69
551.24	2012.11
551.666	2013.39
552.092	2002.48
552.518	1993.85
552.943	1985.32
553.369	1992.83
553.795	1999.52
554.221	1999.58
554.646	1994.68
555.072	2006.19
555.498	2012.43
555.923	2023.29
556.349	2040.29
556.774	2049.43
557.199	2051.48
557.625	2059.42
558.05	2051.71
558.475	2062.7
558.9	2061.67
559.325	2053.18
559.75	2047.04
560.175	2038.29
560.6	2029.36
561.025	2026.66
561.449	2027.62
561.874	2033.17
562.299	2037.03
562.723	2046.12
563.148	2034.14
563.572	2038.3
563.997	2048.64
564.421	2053.42
564.846	2053.15
565.27	2056.65
565.694	2052.82
566.118	2066.44
566.542	2074.39
566.966	2066.68
567.39	2060.62
567.814	2048.35
568.238	2046.49
568.662	2052.43
569.086	2055.1
569.509	2063.6
569.933	2046.15
570.357	2037.93
570.78	2012.93
571.204	1998.26
571.627	1985.79
572.05	1982.91
572.474	1981.49
572.897	1966.94
573.32	1957.39
573.743	1945.86
574.166	1924.85
574.589	1925.6
575.012	1917.4
575.435	1915.42
575.858	1904.21
576.281	1891.77
576.704	1873.15
577.126	1860.5
577.549	1849.02
577.972	1837.79
578.394	1825.16
578.817	1816.73
579.239	1794.53
579.661	1778.86
580.084	1760.86
580.506	1745.7
580.928	1741.32
581.35	1729.95
581.772	1724.79
582.194	1709.21
582.616	1694.44
583.038	1679.61
583.46	1666.91
583.882	1663.35
584.303	1666.64
584.725	1661.48
585.147	1663.28
585.568	1674.42
585.99	1687.54
586.411	1692.93
586.833	1709.78
587.254	1711.65
587.675	1726.81
588.096	1741.82
588.518	1735.01
588.939	1717.88
589.36	1716.04
589.781	1704.23
590.202	1672.43
590.623	1662.88
591.043	1661.33
591.464	1646.71
591.885	1642.28
592.305	1635.32
592.726	1619.64
593.147	1621.78
593.567	1614.9
593.987	1607.13
594.408	1602.2
594.828	1600.21
595.248	1592.74
595.669	1572.71
596.089	1563.82
596.509	1556.61
596.929	1542.12
597.349	1542.63
597.769	1530.61
598.189	1523.79
598.608	1524.02
599.028	1525.39
599.448	1525.23
599.867	1511.82
600.287	1505.91
600.706	1501.75
601.126	1490.9
601.545	1488.53
601.965	1486.39
602.384	1480.98
602.803	1483.08
603.222	1478.51
603.641	1471.23
604.061	1466.83
604.48	1462.21
604.898	1471.21
605.317	1476.6
605.736	1478.5
606.155	1475.66
606.574	1465.83
606.992	1471.37
607.411	1466.38
607.829	1456.42
608.248	1453.54
608.666	1450.54
609.085	1448.57
609.503	1438.88
609.921	1431.47
610.339	1433.15
610.758	1432.22
611.176	1426.19
611.594	1415.05
612.012	1410.82
612.43	1413.8
612.847	1418.58
613.265	1418.56
613.683	1424.14
614.101	1425.42
614.518	1420.56
614.936	1409.59
615.353	1392.47
615.771	1388.84
616.188	1389.87
616.606	1384.67
617.023	1376.56
617.44	1362.32
617.857	1354.5
618.274	1344.37
618.691	1335.94
619.108	1326.09
619.525	1319.44
619.942	1326.01
620.359	1329.15
620.776	1323.22
621.192	1319.7
621.609	1317.13
622.026	1323.58
622.442	1330.51
622.859	1334
623.275	1327.46
623.691	1332.11
624.108	1343.62
624.524	1359.48
624.94	1358.94
625.356	1369.26
625.772	1383.08
626.188	1395.46
626.604	1395.75
627.02	1391.04
627.436	1388.9
627.852	1396.27
628.268	1409.55
628.683	1401.02
629.099	1391.45
629.514	1386.12
629.93	1389.1
630.345	1393.1
630.761	1389.16
631.176	1393.49
631.591	1387.11
632.007	1379.65
632.422	1376.37
632.837	1364.63
633.252	1360.98
633.667	1349.76
634.082	1339.51
634.497	1326.17
634.911	1305.87
635.326	1301.94
635.741	1284.2
636.155	1273.52
636.57	1275.63
636.984	1275.46
637.399	1277.47
637.813	1276.33
638.228	1274.86
638.642	1279.74
639.056	1269.37
639.47	1270.07
639.884	1261.6
640.298	1254.79
640.712	1253.33
641.126	1239.5
641.54	1230.15
641.954	1223.68
642.368	1211.23
642.781	1203.84
643.195	1185.03
643.609	1185.58
644.022	1179.26
644.436	1174.35
644.849	1161.54
645.262	1149.42
645.676	1151.71
646.089	1147.5
646.502	1131.63
646.915	1125.74
647.328	1108.14
647.741	1106.43
648.154	1092.6
648.567	1090.45
648.98	1075.57
649.393	1076.09
649.805	1071.11
650.218	1062.97
650.631	1045.69
651.043	1039.12
651.456	1032.17
651.868	1031.45
652.28	1048.8
652.693	1062.04
653.105	1066.04
653.517	1074.98
653.929	1074.22
654.341	1080
654.753	1065.76
655.165	1071.59
655.577	1068.57
655.989	1063.67
656.401	1053.96
656.813	1015.77
657.224	994.32
657.636	964.63
658.047	946.77
658.459	925.38
658.87	914.81
659.282	902.6
659.693	881.42
660.104	866.03
660.515	851.57
660.926	851.17
661.338	847.61
661.749	840.38
662.159	830.86
662.57	826.17
662.981	821.76
663.392	814.71
663.803	818.2
664.213	815.78
664.624	811.55
665.035	814.1
665.445	799.9
665.855	793.01
666.266	786.3
666.676	784.69
667.086	774.95
667.497	773.86
667.907	767.3
668.317	758.74
668.727	755.85
669.137	755.83
669.547	754.12
669.956	756.4
670.366	757.94
670.776	758.91
671.186	761.62
671.595	765.36
672.005	768.93
672.414	769.03
672.824	767.47
673.233	771.1
673.642	773.72
674.052	776.41
674.461	778.75
674.87	784.4
675.279	782.14
675.688	784.83
676.097	786.23
676.506	782.72
676.915	796.2
677.323	798.86
677.732	796.98
678.141	795.79
678.549	785.15
678.958	783.16
679.366	781.22
679.775	785.49
680.183	794.97
680.592	800.56
681	806.34
681.408	799.2
681.816	806.01
682.224	813.77
682.632	823.53
683.04	853.37
683.448	877.98
683.856	908.21
684.264	943.1
684.671	974.41
685.079	1013.84
685.487	1056.77
685.894	1118.82
686.302	1168.52
686.709	1208.52
687.116	1256.31
687.524	1294.45
687.931	1327.94
688.338	1355.82
688.745	1378.66
689.152	1406.59
689.559	1446.76
689.966	1487.5
690.373	1504.88
690.78	1543.68
691.187	1605.28
691.593	1651.27
692	1691.62
692.407	1752.8
692.813	1829.02
693.22	1890.13
693.626	1953.63
694.032	2003.88
694.439	2080.92
694.845	2141.19
695.251	2217.42
695.657	2287.6
696.063	2390.78
696.469	2468.63
696.875	2541.1
697.281	2584.57
697.687	2637.41
698.093	2681.58
698.498	2763.61
698.904	2826.57
699.31	2924.64
699.715	2994.09
700.12	3095.2
700.526	3120.31
700.931	3198.7
701.337	3259.31
701.742	3299.11
702.147	3393.88
702.552	3433.27
702.957	3503.35
703.362	3530.82
703.767	3565.7
704.172	3614.02
704.577	3567.72
704.981	3623.11
705.386	3646.23
705.791	3641.24
706.195	3726.34
706.6	3739.45
707.004	3828.77
707.408	3798.73
707.813	3834.76
708.217	3829.01
708.621	3836.17
709.025	3948.4
709.43	3953.34
709.834	4023.22
710.237	4105.83
710.641	4095.23
711.045	4124.5
711.449	4124.45
711.853	4163.08
712.256	4214.95
712.66	4259.95
713.064	4349.28
713.467	4397.29
713.87	4525.23
714.274	4581.48
714.677	4706.83
715.08	4889.78
715.484	5083.18
715.887	5312.16
716.29	5535.15
716.693	5767.03
717.096	6037.62
717.499	6186.88
717.901	6220.5
718.304	6259.6
718.707	6292.42
719.109	6180.77
719.512	6150.42
719.915	6000.71
720.317	5939.45
720.719	5991.42
721.122	5962.2
721.524	5908.4
721.926	5866.18
722.328	5983.34
722.731	5974.24
723.133	6007.43
723.535	6230.08
723.937	6254.01
724.338	6317.22
724.74	6370.96
725.142	6294.29
725.544	6296.75
725.945	6329.96
726.347	6326.91
726.748	6321.06
727.15	6339.79
727.551	6297.85
727.952	6265.19
728.354	6234.55
728.755	6234.32
729.156	6183.22
729.557	6178.72
729.958	6041.57
730.359	5980.17
730.76	5959.67
731.161	5891.84
731.562	5863.67
731.962	5870.88
732.363	5801.19
732.763	5732.08
733.164	5774.52
733.564	5699.41
733.965	5594.38
734.365	5559.02
734.766	5592.98
735.166	5551.42
735.566	5489.6
735.966	5459.48
736.366	5452.77
736.766	5384.29
737.166	5419.22
737.566	5374.46
737.966	5349.7
738.365	5393.99
738.765	5385.4
739.165	5299.84
739.564	5270.59
739.964	5322.82
740.363	5273.16
740.763	5270.19
741.162	5255.88
741.561	5221.54
741.96	5170.51
742.36	5189.62
742.759	5195.85
743.158	5240.49
743.557	5259.54
743.955	5304.01
744.354	5253.93
744.753	5319.8
745.152	5276.23
745.55	5341.43
745.949	5333.43
746.348	5335.07
746.746	5359.12
747.144	5315.52
747.543	5291.34
747.941	5346.06
748.339	5268.63
748.737	5259.69
749.136	5248.51
749.534	5320.43
749.932	5285.5
750.33	5312.47
750.727	5373.82
751.125	5344.54
751.523	5325.72
751.921	5372.01
752.318	5334.41
752.716	5400.12
753.113	5415.88
753.511	5443.96
753.908	5445.76
754.305	5428.36
754.703	5497.83
755.1	5567.18
755.497	5633.97
755.894	5850.22
756.291	6054.05
756.688	6425.96
757.085	6920.2
757.482	7616.34
757.878	8372.07
758.275	9058.49
758.672	10003.3
759.068	10775.14
759.465	11878.94
759.861	13300.11
760.258	14942.42
760.654	15795.92
761.05	15674.66
761.447	14963.35
761.843	13926.14
762.239	12874
762.635	12394.09
763.031	11934.79
763.427	11266.23
763.822	10559.49
764.218	9866.29
764.614	8969.58
765.01	8364.77
765.405	7972.22
765.801	7675.4
766.196	7300.74
766.592	7088.29
766.987	6730.78
767.382	6490.35
767.778	6391.43
768.173	6247.66
768.568	6165.06
768.963	6023.34
769.358	6046.45
769.753	5993.22
770.148	5899.65
770.542	5899.1
770.937	5861.36
771.332	5965.98
771.726	5989.24
772.121	5915.96
772.515	5975.27
772.91	5959.13
773.304	6037.94
773.699	5961.77
774.093	6022.55
774.487	6084.61
774.881	6135.24
775.275	6130.87
775.669	6080.78
776.063	6127.92
776.457	6167.85
776.851	6083.46
777.245	6078.25
777.638	6114.95
778.032	6244.02
778.425	6203.15
778.819	6248.48
779.212	6198.89
779.606	6155.23
779.999	6180.01
780.392	6162.94
780.786	6256.31
781.179	6279.64
781.572	6326.39
781.965	6340.89
782.358	6276.65
782.751	6339.09
783.143	6285.8
783.536	6366.5
783.929	6414.87
784.322	6542.26
784.714	6574.74
785.107	6568.65
785.499	6650.28
785.891	6625.29
786.284	6605.06
786.676	6762.9
787.068	6745.17
787.46	6807.22
787.852	6831.86
788.245	6929.77
788.636	6964.19
789.028	7042.19
789.42	7089.98
789.812	7101.18
790.204	7208.97
790.595	7320.95
790.987	7101.97
791.378	7128.36
791.77	7273.27
792.161	7425.24
792.553	7489.62
792.944	7364.57
793.335	7287.52
793.726	7368.35
794.117	7468.57
794.508	7620.79
794.899	7586.52
795.29	7747.83
795.681	7811.7
796.072	7647.52
796.463	7442.09
796.853	7452.91
797.244	7628.76
797.634	7673.04
798.025	7671.93
798.415	7686.31
798.806	7791.72
799.196	7889
799.586	7943.45
799.976	7897.97
800.366	8160.16
800.756	8430.16
801.146	8382.92
801.536	8418.91
801.926	8496.13
802.316	8526.21
802.706	8602.91
803.095	8463.28
803.485	8574.62
803.874	8622.95
804.264	8920.79
804.653	8893.61
805.043	9052.78
805.432	9176.17
805.821	9173.95
806.21	9198.2
806.599	9329.97
806.988	9383.89
807.377	9505.23
807.766	9655.31
808.155	9971.32
808.544	9671.27
808.933	9689.74
809.321	9668.93
809.71	9998.33
810.098	10182.93
810.487	10703.76
810.875	11248.78
811.264	11278.61
811.652	11607.18
812.04	11762.89
812.428	11951.67
812.816	12812.52
813.204	13284.74
813.592	13904.55
813.98	14292.39
814.368	14182.6
814.756	14731.94
815.144	14641.73
815.531	15162.42
815.919	15077.44
816.306	15433.49
816.694	15085.18
817.081	15144.68
817.469	15530.28
817.856	15536.74
818.243	15832.74
818.63	16275.37
819.017	15795.05
819.404	15866.48
819.791	16300.18
820.178	16995.49
820.565	17272.24
820.952	18317.74
821.339	17765.5
821.725	17971.56
822.112	17126.67
822.498	17087.28
822.885	17229.35
823.271	17123.11
823.657	17594.29
824.044	17597.01
824.43	17669.98
824.816	17630.52
825.202	17140.45
825.588	18285.12
825.974	18306.64
826.36	18889.72
826.746	18918.59
827.132	19316.33
827.517	19283.09
827.903	18388.06
828.289	18430.77
828.674	17564.58
829.06	17452.77
829.445	17902.93
829.83	18292.48
830.216	18826.33
830.601	19237.23
830.986	18781.02
831.371	18637.39
831.756	19264.5
832.141	18795.48
832.526	18793.58
832.911	19112.84
833.295	18978.6
833.68	19507.14
834.065	18812.31
834.449	17779.75
834.834	17696.46
835.218	17707.28
835.603	18088.77
835.987	17853.33
836.371	18787.35
836.755	18669.93
837.139	19108.68
837.524	19384.78
837.908	19182.12
838.291	19248.26
838.675	19326.52
839.059	19562.59
839.443	19533.84
839.827	19274.27
840.21	19805.3
840.594	19644.11
840.977	19875.3
841.361	19857.98
841.744	20278.7
842.127	20101.52
842.511	20382.86
842.894	21056.76
843.277	21485.6
843.66	22096.59
844.043	22190.19
844.426	21291.72
844.809	20941.57
845.191	20980.63
845.574	20466.83
845.957	20060.21
846.339	19933.53
846.722	19337.69
847.104	19415.92
847.487	19217.95
847.869	19239.79
848.252	19550.75
848.634	19931.2
849.016	20230.45
849.398	20370.86
849.78	21327.48
850.162	21335.65
850.544	21806.29
850.926	22515.99
851.307	22419.08
851.689	22727.59
852.071	23229.14
852.452	23594.2
852.834	23561.34
853.215	23989.97
853.597	24153.98
853.978	24473.67
854.359	24980.26
854.741	23869.17
855.122	23768.09
855.503	23445.05
855.884	23602.21
856.265	23528.85
856.646	23658.54
857.026	23213.83
857.407	23144.61
857.788	23327.81
858.169	23660.14
858.549	22707.14
858.93	23405.59
859.31	23454.71
859.69	23680.79
860.071	23227.04
860.451	22986.63
860.831	22143.16
861.211	23446.78
861.591	24058.71
861.971	24029.18
862.351	24236.51
862.731	24667.56
863.111	24967.82
863.491	25340.46
863.87	26321.98
864.25	26706.72
864.629	26257.64
865.009	26848.99
865.388	27804.38
865.768	29810.31
866.147	29684.45
866.526	28055.03
866.905	28384.72
867.284	29967.32
867.663	28460.35
868.042	27280.97
868.421	27207.96
868.8	27657.98
869.179	27927.71
869.558	26300.15
869.936	24230.13
870.315	24666.18
870.693	25257.51
871.072	27250.46
871.45	25960.12
871.828	26283.48
872.207	27630.99
872.585	27211.3
872.963	27963.9
873.341	27002.08
873.719	26682.5
874.097	26365.86
874.475	26862.63
874.853	27485.93
875.23	26330.83
875.608	27428.51
875.986	29671.18
876.363	28376.64
876.741	29247.39
877.118	28504.65
877.495	29903.82
877.873	30400.61
878.25	32005.49
878.627	30695.24
879.004	31110.74
879.381	30972.32
879.758	30167.7
880.135	28078.25
880.512	29690.85
880.889	28894.46
881.265	28590.31
881.642	28348.42
882.019	28823.86
882.395	28231.06
882.772	29370.4
883.148	28098.21
883.524	27986.66
883.901	27833.09
884.277	28252.59
884.653	28079.19
885.029	28888.05
885.405	31998.77
885.781	31755.49
886.157	30458.84
886.532	30839.4
886.908	30807.77
887.284	34264.05
887.659	35386.15
888.035	36482.73
888.411	37429.85
888.786	37908.24
889.161	39217.53
889.537	38489.21
889.912	39718.7
890.287	39685.29
890.662	40698.39
891.037	39958.14
891.412	37255.77
891.787	36865.25
892.162	35579.68
892.536	36413.51
892.911	35053.78
893.286	34325.85
893.66	32950.94
894.035	33804.1
894.409	36804.91
894.784	35315.64
895.158	35910.05
895.532	38046.21
895.906	39102.08
896.281	40013.7
896.655	39376.73
897.029	45010.29
897.402	46872.55
897.776	52184.08
898.15	51977.97
898.524	51398.83
898.898	52106.15
899.271	58345.03
899.645	50538.18
900.018	48535.96
900.392	50337.7
900.765	50730.65
901.138	46937.33
901.511	46227.49
901.884	42432.66
902.258	39156.64
902.631	40464.39
903.003	46559.84
903.376	42008.33
903.749	47112.81
904.122	50442.57
904.495	55559.39
904.867	56290.24
905.24	48880.98
905.612	45498.48
905.985	46530.02
906.357	48626.23
906.729	46426.6
907.102	39668.89
907.474	38149.45
907.846	38373.58
908.218	37857.43
908.59	33447.46
908.962	32328.12
909.334	34812.39
909.705	36559.59
910.077	35497.32
910.449	36956.06
910.82	37977.83
911.192	41767.23
911.563	43394.25
911.935	46451.88
912.306	46522.16
912.677	48024.35
913.048	47549.46
913.419	51581.98
913.79	51868.95
914.161	55603.54
914.532	53161.86
914.903	48867.35
915.274	46435.03
915.645	45761.72
916.015	40257.66
916.386	38381.81
916.756	40854.19
917.127	42169.73
917.497	37657.19
917.868	41000.65
918.238	38948.93
918.608	40070.33
918.978	40903.62
919.348	43300.2
919.718	44743.87
920.088	43113.29
920.458	44789.54
920.828	47128.72
921.198	44639.65
921.567	47697.04
921.937	36937.65
922.306	37311.04
922.676	40223.61
923.045	33542.25
923.415	31852.06
923.784	29001.3
924.153	29834.68
924.522	29822.01
924.891	28043.14
925.26	30058.65
925.629	29351.6
925.998	33740.44
926.367	32932.13
926.736	31350.97
927.104	37361.2
927.473	40166.41
927.842	48520.3
928.21	48010.7
928.578	50454.28
928.947	47721.83
929.315	48012.61
929.683	56300.97
930.051	56764.42
930.42	65924.06
930.788	56398.78
931.156	55942.06
931.523	52439.24
931.891	48455.56
932.259	46539.41
932.627	53938.13
932.994	76295.07
933.362	63051.96
933.729	54820.45
934.097	52467.54
934.464	44402.41
934.831	51219.25
935.199	50514.12
935.566	49053.08
935.933	49715.73
936.3	60243.81
936.667	46903.78
937.034	42306.92
937.401	41840.51
937.767	36086.19
938.134	32120.12
938.501	45300.18
938.867	48275.2
939.234	81710.77
939.6	69663.76
939.967	76796.7
940.333	51431.26
940.699	43760.41
941.065	35112.79
941.431	46055.82
941.798	44398.13
942.163	58318.45
942.529	36453.63
942.895	33555.03
943.261	21674.98
943.627	28436.32
943.992	24915.36
944.358	24944.24
944.723	25016.33
945.089	24374.25
945.454	22516.2
945.82	24051.12
946.185	23118.85
946.55	26765.99
946.915	24038.6
947.28	28212.51
947.645	24843.64
948.01	22894.73
948.375	23868.24
948.74	28650.89
949.104	33430.85
949.469	48269.29
949.834	85209.27
950.198	80676.21
950.562	48361.85
950.927	40267.24
951.291	48469.54
951.655	41310.26
952.02	38830.4
952.384	29364.3
952.748	25544.62
953.112	24922.27
953.476	21683.53
953.839	20055.34
954.203	19876.17
954.567	24871.92
954.931	39171.89
955.294	33490
955.658	33655.16
956.021	57165.99
956.385	96900.01
956.748	142980.99
957.111	221877.19
957.474	249109.2
957.837	280835.55
958.2	212442.07
958.563	76383.54
958.926	51638.6
959.289	78431.67
959.652	87663.51
960.015	65835.67
960.377	94562.37
960.74	107982.39
961.102	186224.82
961.465	199972.55
961.827	106942.17
962.189	205273.83
962.552	142423.03
962.914	114204.57
963.276	74054.09
963.638	61263.2
964	60604.56
964.362	40967.58
964.724	39610.48
965.085	28282.38
965.447	23181.1
965.809	26440.19
966.17	26455.35
966.532	28580.59
966.893	26232.92
967.255	23888.89
967.616	28170.02
967.977	22551.44
968.338	24635.03
968.699	20240.69
969.061	20227.44
969.421	20357.82
969.782	22849.57
970.143	19304.2
970.504	20018.03
970.865	22748.88
971.225	23231.74
971.586	22737.37
971.946	32437.48
972.307	28125.83
972.667	36739.61
973.027	37835.4
973.388	45868.77
973.748	31201.84
974.108	33973.89
974.468	45969.97
974.828	35439.2
975.188	27333.53
975.548	25083.47
975.907	21081.98
976.267	23659.73
976.627	19914.81
976.986	20639.98
977.346	19709.32
977.705	18956.56
978.064	17275.65
978.424	14386.27
978.783	14883.66
979.142	16967.97
979.501	16252.7
979.86	17177.72
980.219	16561.97
980.578	21345.78
980.937	23939.67
981.296	21322.55
981.654	21945.95
982.013	34154.94
982.371	44352.52
982.73	41404.69
983.088	46869.55
983.447	50092.79
983.805	71615.07
984.163	149777.4
984.521	166241.15
984.879	243557.95
985.237	-396316.72
985.595	381822.54
985.953	94934.94
986.311	54699.78
986.669	31808.16
987.026	27471.06
987.384	36889.91
987.741	38088.81
988.099	27194.07
988.456	21681.73
988.814	20289.3
989.171	17627.17
989.528	17429.06
989.885	18393.9
990.242	14584.04
990.599	18141.76
990.956	14834.74
991.313	10379.39
991.67	8522.48
992.027	9027.17
992.383	8011.1
992.74	7027.91
993.096	7371.6
993.453	7628.47
993.809	7920.78
994.165	10562.89
994.522	9689.02
994.878	10679.34
995.234	13400.3
995.59	13240.42
995.946	12540.2
996.302	14309.33
996.658	16531.35
997.013	18230.42
997.369	21646.83
997.725	27689.53
998.08	17921.35
998.436	27614.58
998.791	38093.34
999.147	38061.1
999.502	41423.69
999.857	30140.31
1000.212	49197.84
1000.567	70050.14
1000.922	40378.79
1001.277	25618.44
1001.632	19002.88
1001.987	24475.09
1002.342	17581.6
1002.696	14071.05
1003.051	11235.1
1003.406	13641.96
1003.76	13582.54
1004.114	13380.78
1004.469	11265.23
1004.823	9321.79
1005.177	10061.91
1005.531	7974.59
1005.885	7074.36
1006.239	7976.32
1006.593	9992.96
1006.947	13377.34
1007.301	10014.28
1007.655	10913.75
1008.008	8024.95
1008.362	9016.76
1008.715	12884.14
1009.069	11718.6
1009.422	17641.25
1009.776	35405.99
1010.129	23481.99
1010.482	19642.56
1010.835	16598.59
1011.188	34669.22
1011.541	32639.96
1011.894	-199259.96
1012.247	586375.6
1012.6	39841.08
1012.952	25101.13
1013.305	12910.93
1013.657	9318.81
1014.01	8833.46
1014.362	7270.21
1014.715	6455.31
1015.067	5601.74
1015.419	5474.76
1015.771	4856.94
1016.123	4326.52
1016.475	4452.78
1016.827	4731.93
1017.179	5098.66
1017.531	5116.92
1017.883	5232.2
1018.234	5065.37
1018.586	6402.49
1018.938	6807.98
1019.289	9380.18
1019.64	10744.38
1019.992	9987.84
1020.343	9122.48
1020.694	7213.47
1021.045	6357.57
1021.396	7275.69
1021.747	7780.37
1022.098	9323.06
1022.449	6759.15
1022.8	6257.74
1023.151	4364.94
1023.501	3848.62
1023.852	4177.94
1024.202	4348.9
1024.553	4798.23
1024.903	4693.15
1025.253	4016.03
1025.604	3618.06
1025.954	4498.13
1026.304	5487.07
1026.654	6408.51
1027.004	9418.91
1027.354	15343.57
1027.703	14449.35
1028.053	18977.17
1028.403	27593.46
1028.753	39988.05
1029.102	54480.74
1029.452	280579.8
1029.801	12103.61
1030.15	7808.31
1030.499	6606.83
897.758	2901.33
901.051	2874.22
904.343	2912.77
907.636	2905.31
910.928	2970.56
914.22	2874.47
917.511	2885.88
920.803	2958.1
924.094	2988.48
927.384	2955.36
930.675	2924.14
933.965	2871.94
937.255	2869.56
940.544	2836.08
943.834	2746.89
947.123	2697.36
950.411	2798.66
953.7	2767.51
956.988	2721.81
960.276	2669.33
963.563	2766.54
966.851	2752.56
970.138	2821.33
973.424	2808.43
976.711	2753.01
979.997	2933.45
983.283	2961.75
986.568	2853.43
989.853	2885.21
993.138	2915.77
996.423	2989.96
999.708	2918.35
1002.992	3009.1
1006.275	2800.83
1009.559	2871.12
1012.842	2998.96
1016.125	2918.77
1019.408	2892.94
1022.69	2996.25
1025.972	3003.66
1029.254	2978.97
1032.536	2897.57
1035.817	2933.42
1039.098	2856.09
1042.379	3050.33
1045.659	3031.05
1048.939	2955.91
1052.219	2983.62
1055.498	3011.93
1058.778	2989.4
1062.057	2980.49
1065.335	3000.14
1068.614	3022.32
1071.892	2997.59
1075.17	3086.35
1078.447	3070.14
1081.724	3058.16
1085.001	3099.16
1088.278	3073.07
1091.554	3088.02
1094.83	3088.83
1098.106	3111.79
1101.382	3163.46
1104.657	3166.1
1107.932	3159.72
1111.206	3116.82
1114.481	3074.77
1117.755	3082.84
1121.029	3054.72
1124.302	3105.58
1127.575	3046.13
1130.848	3027.15
1134.121	2983.62
1137.393	2927.25
1140.665	3002.57
1143.937	2976.44
1147.208	2940.66
1150.48	2973.13
1153.75	2954.18
1157.021	3006.27
1160.291	2970.31
1163.561	3012.19
1166.831	3014.31
1170.101	3049.55
1173.37	3032.21
1176.639	2966.56
1179.907	3033.45
1183.176	3034.18
1186.444	3043.65
1189.711	3073.63
1192.979	3074.66
1196.246	3033.65
1199.513	3055.62
1202.78	3051.67
1206.046	3059.28
1209.312	3085.11
1212.578	3113.85
1215.843	3058.41
1219.108	3037.82
1222.373	3060.02
1225.638	3018.32
1228.902	2999.67
1232.166	2968.36
1235.43	2946.88
1238.693	2968.15
1241.956	2969.05
1245.219	3003.65
1248.482	3003.98
1251.744	2994.31
1255.006	3158.22
1258.268	3117.16
1261.529	3055.57
1264.79	3065
1268.051	3176.09
1271.312	3196.96
1274.572	3151.41
1277.832	3143.7
1281.092	3139.93
1284.351	3098.96
1287.61	3075.74
1290.869	2979.38
1294.128	2944.58
1297.386	3057
1300.644	3043.36
1303.902	3055.19
1307.159	2908.63
1310.416	2966.72
1313.673	2987.1
1316.93	2965.43
1320.186	3020.56
1323.442	3071.86
1326.697	3052.34
1329.953	3053.72
1333.208	3069.24
1336.463	3054.55
1339.717	2978.51
1342.972	3121.55
1346.226	3103.7
1349.479	3026.79
1352.733	2990.61
1355.986	3024.11
1359.238	2993.98
1362.491	2995.25
1365.743	2998.88
1368.995	2997.62
1372.247	3011.42
1375.498	3039.07
1378.749	3042.73
1382	3000.86
1385.251	3065.29
1388.501	3030.38
1391.751	3003.88
1395	2978.24
1398.25	3013.36
1401.499	3014.16
1404.748	2925.35
1407.996	2909.33
1411.244	2890.62
1414.492	2870.58
1417.74	2839.98
1420.987	2854.96
1424.234	2907.95
1427.481	2898.92
1430.728	2958.27
1433.974	2930.98
1437.22	2953.25
1440.465	2962.02
1443.711	2915.75
1446.956	2959.11
1450.201	2957.65
1453.445	3006.86
1456.689	2976.82
1459.933	2994.05
1463.177	3022.55
1466.42	2993.46
1469.663	2973.59
1472.906	2956.16
1476.148	3063.1
1479.391	2992.69
1482.633	2971.27
1485.874	2974.04
1489.115	2951.75
1492.356	2969.87
1495.597	2940.61
1498.838	2949.68
1502.078	2908.63
1505.318	2847.53
1508.557	2895.22
1511.797	2842.79
1515.036	2955.18
1518.274	2941.88
1521.513	2922.74
1524.751	2949.97
1527.989	2959.6
1531.227	2970.82
1534.464	2953.4
1537.701	2990.55
1540.938	3014.12
1544.174	2969.9
1547.41	2974.54
1550.646	3015.75
1553.882	3047.1
1557.117	3100.78
1560.352	3121.96
1563.587	3073.64
1566.821	3029.68
1570.055	3076.52
1573.289	3042.23
1576.523	3129.95
1579.756	3132.88
1582.989	3151.17
1586.222	3110.3
1589.454	3150.8
1592.686	3121.33
1595.918	3143.67
1599.15	3128.85
1602.381	3220.09
1605.612	3159.82
1608.843	3261.07
1612.073	3164.61
1615.303	3147.19
1618.533	3135.38
1621.762	3139.3
1624.992	3138.75
1628.221	3114.77
1631.449	3097.76
1634.678	3172.12
1637.906	3122.48
1641.134	3170.85
1644.361	3118.17
1647.588	3107.5
1650.815	3123
1654.042	3105.92
1657.269	3141.59
1660.495	3084.51
1663.72	3072.07
1666.946	3044.9
1670.171	2966.67
1673.396	2941.24
1676.621	2934.74
1679.845	2970.73
1683.069	2996.74
1686.293	3047.67
1689.517	3011.16
1692.74	2924.28
1695.963	2952.53
1699.185	3003.1
1702.408	2969.04
1705.63	3019.73
1708.852	3027.39
1712.073	2999.59
1715.294	2969.67
1718.515	3040.93
1721.736	2979.33
1724.956	2977.25
1728.176	3006.27
1731.396	3027.62
1734.616	3016.77
1737.835	3037.95
1741.054	3022.31
1744.272	3019.45
1747.491	3041.47
1750.709	3112.36
1753.927	2991.88
1757.144	3048
1760.361	3081.34
1763.578	3085.87
1766.795	3022.6
1770.011	3036.19
1773.227	3089.49
1776.443	3118.39
1779.658	3161.99
1782.874	3106.94
1786.089	3077.86
1789.303	3080.77
1792.518	3093.68
1795.732	3080.23
1798.945	3082.48
1802.159	3141.89
1805.372	3021.66
1808.585	2995.93
1811.797	3000.18
1815.01	3061.36
1818.222	3061.31
1821.434	2992.08
1824.645	3071.26
1827.856	3034.96
1831.067	3075.51
1834.278	3046.28
1837.488	3025.32
1840.698	3192.7
1843.908	3106.49
1847.117	3065.86
1850.326	2923.93
1853.535	3044.69
1856.744	3113.76
1859.952	3008.84
1863.16	3013.25
1866.368	3034.63
1869.575	3134.92
1872.782	3020.06
1875.989	2956.5
1879.196	3063.66
1882.402	3055.48
1885.608	3100.56
1888.814	2982.64
1892.019	2866.74
1895.224	2918.91
1898.429	2907.15
1901.634	2881.71
1904.838	2860.28
1908.042	2904.92
1911.246	2910.69
1914.449	2820.33
1917.652	2826.07
1920.855	2809.74
1924.058	2873.09
1927.26	2904.23
1930.462	2937.86
1933.664	2956.66
1936.865	2895.62
1940.066	2894.95
1943.267	2843.61
1946.467	2864.88
1949.668	2896.79
1952.868	2964.29
1956.067	2934.32
1959.267	2857.15
1962.466	2887.94
1965.665	2872.37
1968.863	2871.69
1972.061	2890.3
1975.259	2896.41
1978.457	2976.37
1981.654	2931.51
1984.852	2930.7
1988.048	2851.38
1991.245	2863.63
1994.441	2948.32
1997.637	2949.45
2000.833	2934.48
2004.028	2973.28
2007.223	3027.11
2010.418	2993.93
2013.613	2963.59
2016.807	2922.01
2020.001	2933.96
2023.194	2992.31
2026.388	2963.71
2029.581	2911.09
2032.774	2949.85
2035.966	2950.68
2039.158	2872.88
2042.35	2901.83
2045.542	2829.91
2048.733	2941.99
2051.924	2984.03
2055.115	3021.18
2058.306	2948.75
2061.496	3010.84
2064.686	3086.27
2067.875	3003.91
2071.065	3028.1
2074.254	3059.92
2077.442	3008.92
2080.631	3105.75
2083.819	2971.7
2087.007	2948.93
2090.195	2908.46
2093.382	2955.33
2096.569	2932.48
2099.756	2878.78
2102.942	2893.1
2106.128	2887.63
2109.314	2883.98
2112.5	2835.34
2115.685	2815.9
2118.87	2828.77
2122.055	2891.8
2125.239	2854.25
2128.424	2817.8
2131.608	2947.39
2134.791	2931.15
2137.974	3000.82
2141.157	2984.97
2144.34	2922.83
2147.523	2954.5
2150.705	2960.75
2153.887	2944.99
2157.068	2883.58
2160.25	2897.84
2163.431	2948.05
2166.611	2877.32
2169.792	2886.72
2172.972	2770.82
2176.152	2866.95
2179.331	2907.84
2182.511	2874.84
2185.69	2905.24
2188.868	2893.51
2192.047	2963.44
2195.225	2936.51
2198.403	2883.87
2201.58	2880.47
2204.758	2885.74
2207.935	2972.56
2211.111	2843.24
2214.288	2824.62
2217.464	2868.19
2220.64	2852.91
2223.815	2913.12
2226.991	2824.82
2230.166	2846.41
2233.34	2871.17
2236.515	2904.24
2239.689	2976.12
2242.863	2915.95
2246.036	2978.73
2249.209	2986.06
2252.382	3030.24
2255.555	3004.31
2258.727	2933.36
2261.9	2978.64
2265.071	2972.11
2268.243	2973.65
2271.414	2897.63
2274.585	2846.28
2277.756	2920.17
2280.926	2872.37
2284.096	2923.25
2287.266	2816.43
2290.436	2875.8
2293.605	2910.33
2296.774	2936.83
2299.942	2968.86
2303.111	2985.94
2306.279	3031.28
2309.447	3022.06
2312.614	2998
2315.781	3014.99
2318.948	2979.58
2322.115	3016.97
2325.281	2922.85
2328.447	2949.27
2331.613	2926.05
2334.779	2886.86
2337.944	2897.6
2341.109	2889.18
2344.274	2867.64
2347.438	2833.02
2350.602	2861.27
2353.766	2879.72
2356.929	2865.13
2360.092	2905.74
2363.255	2846.79
2366.418	2761.42
2369.58	2899.31
2372.742	2638.13
2375.904	2663.68
2379.066	2633.22
2382.227	2675.14
2385.388	2638.2
2388.548	2549.78
2391.709	2616.35
2394.869	2587.82
2398.029	2713.28
2401.188	2737.17
2404.347	2654.37
2407.506	2828.71
2410.665	2857.66
2413.823	2875.33
2416.981	2817.48
2420.139	2858.21
2423.296	2913.99
2426.453	2882.83
2429.61	2916.22
2432.767	2826.11
2435.923	2861.62
2439.079	2800.48
2442.235	2859.52
2445.391	2776.21
2448.546	2792.33
2451.701	2853.33
2454.855	2808.13
2458.009	2874.58
2461.163	2886.48
2464.317	2835.55
2467.471	2875.09
2470.624	2921.07
2473.777	2916.74
2476.929	2927
2480.082	2951.47
2483.234	2913.26
2486.385	2850.26
2489.537	2842.89
2492.688	2788.79
2495.839	2809.24
2498.989	2812.03
2502.14	2793.68
2505.29	2771.12
2508.439	2799.37
2511.589	2711.86
2514.738	2733.25
2517.887	2768.43
2521.035	2853
2524.183	2848.92
2527.331	2821.92
2530.479	2781.26
2533.627	2799.22
