Data from C_2_DEC_OH_4N_Splice17_12-04-55-557.txt Node
Date: Sat Mar 14 12:04:55 EDT 2020
User: sa697716
Spectrometer: FLMS03696
Trigger mode: 0
Integration Time (sec): 3.180400E-1
Scans to average: 20
Electric dark correction enabled: true
Nonlinearity correction enabled: true
Boxcar width: 5
XAxis mode: Wavelengths
Number of Pixels in Spectrum: 2048
>>>>>Begin Spectral Data<<<<<
187.83	-221633.56
188.298	1555.72
188.766	876.36
189.233	750.07
189.701	1092.84
190.169	1570.61
190.636	597.26
191.104	470.63
191.571	33.37
192.039	-102.18
192.506	-181.22
192.974	231.75
193.441	-530.77
193.908	-73.98
194.375	-59.46
194.842	-64.67
195.31	-45.88
195.777	128.6
196.244	301.78
196.711	347.3
197.177	437.95
197.644	617.25
198.111	1057.56
198.578	1471.19
199.045	1184.31
199.511	1950.04
199.978	2303.54
200.445	1954.92
200.911	2146.45
201.378	2388.76
201.844	2170.11
202.31	3671.74
202.777	3853.98
203.243	2128.36
203.709	2047.7
204.176	2456.64
204.642	2050.99
205.108	1910.49
205.574	1582.78
206.04	1429.83
206.506	1333.55
206.972	1246.7
207.438	1211.87
207.903	1352.36
208.369	1194.67
208.835	1194.98
209.301	1243.98
209.766	1260.35
210.232	1249.95
210.697	1535.72
211.163	1894.45
211.628	2869.26
212.094	2428.86
212.559	2979.43
213.024	1879.43
213.49	2299.32
213.955	2217.75
214.42	2141.77
214.885	1994.23
215.35	1907.77
215.815	1840.81
216.28	1947.31
216.745	1566.1
217.21	1676.02
217.675	1510.89
218.14	1667.58
218.604	1825.69
219.069	2070.37
219.534	2165.52
219.998	2474.98
220.463	2977.68
220.927	3599.31
221.392	3361.05
221.856	3395.62
222.32	4238.46
222.785	5224.34
223.249	6559.5
223.713	7295.88
224.177	7282.37
224.642	9277.22
225.106	11402.79
225.57	12382.34
226.034	9223.99
226.497	13996.35
226.961	12631.99
227.425	14701.8
227.889	16277.09
228.353	16210.4
228.816	33389.1
229.28	31973.96
229.744	26986.49
230.207	16390.68
230.671	16156.96
231.134	26649.55
231.597	30800.08
232.061	30766.87
232.524	30021.22
232.987	20687.6
233.45	18638.86
233.914	16737.26
234.377	17094.41
234.84	15633.45
235.303	18429.17
235.766	20579.74
236.229	21244.49
236.691	13357
237.154	15004.67
237.617	11292.83
238.08	11576.93
238.542	13559.13
239.005	9715.95
239.468	9648.2
239.93	9112.56
240.393	8283.96
240.855	7257.13
241.317	7428.95
241.78	9028.71
242.242	9346.12
242.704	10138.63
243.166	8816.5
243.629	8043.06
244.091	9268.97
244.553	10157.02
245.015	10941.4
245.477	14161.49
245.939	20812.27
246.4	22153.83
246.862	21579.8
247.324	20366.29
247.786	22717.01
248.247	29803.92
248.709	30695.2
249.17	22986.91
249.632	21749.85
250.093	25240.66
250.555	21822.04
251.016	13323.64
251.477	12660.48
251.939	13681.7
252.4	14355.71
252.861	17101.49
253.322	15958.64
253.783	18999.27
254.244	24641.97
254.705	19399.89
255.166	17245.65
255.627	16999.77
256.088	24014.15
256.549	25553.53
257.009	22030.79
257.47	26788.66
257.931	21822.05
258.391	16363.51
258.852	16903.65
259.312	17739.79
259.773	21956.67
260.233	18632.95
260.694	15756.83
261.154	17912.68
261.614	14402.75
262.074	12900.6
262.534	13424.32
262.994	12685.33
263.455	16925.1
263.915	14280.41
264.374	13465.43
264.834	14739.89
265.294	16317.65
265.754	16945.93
266.214	16080.12
266.673	15091.77
267.133	19066.28
267.593	18945.4
268.052	23242.65
268.512	20259.46
268.971	24534.54
269.431	26989.02
269.89	24226.83
270.349	36463.02
270.809	40706.47
271.268	36623.27
271.727	82276.66
272.186	53426.81
272.645	40162.61
273.104	28976.63
273.563	41992.27
274.022	33000.31
274.481	28121.74
274.94	21710.94
275.399	16145.71
275.857	18837.62
276.316	25523.59
276.775	22724.11
277.233	22426.73
277.692	21032.25
278.15	23859.64
278.609	24610.74
279.067	22824.34
279.525	21260.29
279.984	27470.86
280.442	33077.67
280.9	32684.47
281.358	21531.03
281.816	20130.65
282.274	19716.36
282.732	20377.38
283.19	20489.57
283.648	17688.23
284.106	18860.42
284.564	19193.77
285.021	17842.22
285.479	13295.45
285.937	12103.71
286.394	10634.36
286.852	10954.7
287.309	11532.01
287.767	11178.88
288.224	10667.98
288.682	11716.52
289.139	12886.48
289.596	11813.34
290.053	12261.73
290.511	15499.58
290.968	18800.8
291.425	25552.85
291.882	21325.66
292.339	18597.61
292.796	18482.61
293.252	17431.46
293.709	13897.31
294.166	12484.6
294.623	13803.17
295.079	13257.1
295.536	13351.6
295.992	12138.75
296.449	12016.22
296.905	12473.53
297.362	11989.52
297.818	12614.78
298.274	13098.51
298.731	13331.05
299.187	13199.03
299.643	14170.54
300.099	17178.88
300.555	18816.82
301.011	15729.95
301.467	15202.43
301.923	17813.72
302.379	17402.86
302.835	17076.03
303.291	17116.13
303.746	19515.97
304.202	24645.53
304.658	24777.54
305.113	16659.51
305.569	16354.68
306.024	17436.74
306.479	16593.57
306.935	14020.66
307.39	15318.69
307.845	14170.66
308.301	14260.16
308.756	13907.57
309.211	13413.36
309.666	13767.43
310.121	17159.04
310.576	17442.34
311.031	17333.96
311.486	19854.8
311.94	19808.22
312.395	26482.77
312.85	49800.31
313.305	244279.65
313.759	1264823.82
314.214	91841.56
314.668	72834.51
315.123	61133.67
315.577	21959.11
316.032	19551.36
316.486	24484.5
316.94	19370.62
317.394	13510.35
317.849	10517.85
318.303	9981.67
318.757	9438.94
319.211	10436.63
319.665	9132.53
320.119	9256.05
320.572	13258.76
321.026	12398.01
321.48	10335.23
321.934	11273.97
322.387	11324.24
322.841	12258.98
323.295	11059.26
323.748	12734.55
324.202	12941.15
324.655	15561.11
325.108	21780.31
325.562	15413.21
326.015	18345.78
326.468	13898.41
326.921	15572.14
327.374	14522.58
327.827	15126.91
328.28	17114.01
328.733	11492.44
329.186	10099.84
329.639	9660.49
330.092	8151.89
330.545	7772.38
330.997	7856.01
331.45	8598.95
331.903	10066.14
332.355	17296.24
332.808	16837.99
333.26	13893.98
333.713	15093.05
334.165	15249.09
334.617	20327.55
335.069	16395.24
335.522	29605.34
335.974	32762.82
336.426	29911.63
336.878	20749.22
337.33	10537.94
337.782	10273.17
338.234	12920.02
338.686	15437.08
339.137	18281.37
339.589	17203.56
340.041	13512.92
340.493	11640.31
340.944	11906.14
341.396	12842.56
341.847	10812.9
342.299	12784.02
342.75	15609.6
343.201	13598.12
343.653	15642.03
344.104	19219.55
344.555	15152.08
345.006	23610.49
345.457	18111.5
345.908	14422.31
346.359	13586.71
346.81	11062.18
347.261	11634.72
347.712	11471.45
348.163	12301.62
348.613	12500.27
349.064	11666.46
349.515	10230.17
349.965	10495.43
350.416	12626.86
350.866	13869.12
351.317	15679.99
351.767	25950.95
352.217	32840.32
352.668	27286.88
353.118	25000.27
353.568	24096.5
354.018	19096.52
354.468	20143.57
354.918	14457.13
355.368	12665.78
355.818	17906.25
356.268	51503.15
356.718	216482.61
357.168	53941.56
357.617	27081.81
358.067	30091.24
358.517	28155.31
358.966	33032.65
359.416	37075.64
359.865	40095.86
360.315	47788.45
360.764	22274.86
361.213	12493.71
361.663	11814.71
362.112	14579.29
362.561	23574.5
363.01	17825.18
363.459	15023.51
363.908	16233.35
364.357	13799.37
364.806	23275.34
365.255	15972.51
365.703	14689.17
366.152	14729.87
366.601	11947.16
367.05	9719.45
367.498	8828.35
367.947	9242.31
368.395	9593.13
368.844	8508.98
369.292	10253
369.74	7092.08
370.189	10865.08
370.637	12684.39
371.085	10923.55
371.533	13311.9
371.981	12810
372.429	12210.71
372.877	12664.77
373.325	10619.88
373.773	10819.29
374.221	9620.14
374.669	11924.92
375.116	10314.31
375.564	10414.92
376.012	11635.07
376.459	9596.25
376.907	11450.63
377.354	13828.96
377.801	12937.45
378.249	14879.27
378.696	18992.65
379.143	22971.47
379.591	24483.03
380.038	41367.77
380.485	29865.16
380.932	32231.06
381.379	29431.82
381.826	21689.44
382.273	15408.33
382.72	13454.91
383.166	13101.46
383.613	8491.79
384.06	7645.62
384.506	8858.17
384.953	6501.27
385.4	6551.62
385.846	5742.85
386.292	5594.5
386.739	5461.66
387.185	5406.09
387.631	5401.15
388.078	5247.78
388.524	5616.74
388.97	5198.84
389.416	4322.65
389.862	4594.93
390.308	4352.62
390.754	4429.16
391.2	4808.99
391.645	4932.23
392.091	4718.19
392.537	4566.3
392.983	4564.05
393.428	4497.21
393.874	4819.07
394.319	4864.71
394.765	4623.89
395.21	4753.22
395.655	4447.82
396.101	4163.19
396.546	3763.97
396.991	3803.74
397.436	3540.95
397.881	3425.23
398.326	3241.64
398.771	3072.54
399.216	2683.51
399.661	2415.73
400.106	2410.33
400.551	2475.48
400.995	2227.41
401.44	2204.87
401.885	2069.85
402.329	2093.33
402.774	2013.77
403.218	1961.69
403.663	1893.35
404.107	1948.6
404.551	1969.81
404.995	1809.93
405.44	1746.24
405.884	1773.95
406.328	1720.24
406.772	1717.74
407.216	1566.5
407.66	1515.22
408.104	1437.09
408.547	1347.17
408.991	1305.5
409.435	1259.35
409.879	1242.89
410.322	1227.02
410.766	1187.98
411.209	1132.4
411.653	1091.75
412.096	1074.13
412.54	1076.01
412.983	1069.25
413.426	1073.92
413.869	1072.4
414.312	1054.25
414.756	1017.76
415.199	972.6
415.642	947.81
416.085	950.09
416.527	943.64
416.97	957.79
417.413	909.09
417.856	900.15
418.298	890
418.741	886.56
419.184	884.11
419.626	921.55
420.069	921.56
420.511	926.24
420.953	907.14
421.396	898.51
421.838	875.62
422.28	896.1
422.722	902.38
423.164	917.67
423.606	902.98
424.048	900.85
424.49	856.94
424.932	853.23
425.374	840.83
425.816	856.04
426.258	871.2
426.699	880.14
427.141	868.6
427.582	881.81
428.024	875.56
428.465	869.87
428.907	845.69
429.348	835.73
429.789	835.84
430.231	820.6
430.672	830.72
431.113	810.64
431.554	799.27
431.995	778.52
432.436	751.3
432.877	734.17
433.318	722.77
433.759	718.55
434.2	719.44
434.64	711.55
435.081	710.45
435.522	673.68
435.962	648.63
436.403	635.22
436.843	643.42
437.284	627.19
437.724	609.58
438.164	608.96
438.604	598.03
439.045	573.34
439.485	550.71
439.925	538.59
440.365	523.3
440.805	517.33
441.245	508.67
441.685	489.42
442.125	485.28
442.564	486.99
443.004	474.28
443.444	472.62
443.883	472.51
444.323	467.35
444.762	466.47
445.202	471.74
445.641	480.15
446.081	476.04
446.52	478.85
446.959	472.95
447.398	462.51
447.837	457.53
448.276	448.25
448.716	452.62
449.154	455.24
449.593	445.6
450.032	442.93
450.471	431.52
450.91	432.07
451.349	432.02
451.787	430
452.226	434.11
452.664	432.62
453.103	432.67
453.541	429.28
453.98	429.49
454.418	431.84
454.856	425.88
455.295	425.98
455.733	428.14
456.171	429.77
456.609	431.87
457.047	432.5
457.485	440.41
457.923	441.73
458.361	436.15
458.798	436.11
459.236	435.52
459.674	438.47
460.111	441.57
460.549	437.28
460.987	434.76
461.424	432.14
461.862	430.68
462.299	423.58
462.736	423.96
463.173	426.77
463.611	424.48
464.048	423.87
464.485	427.6
464.922	423.12
465.359	421.91
465.796	421.36
466.233	418.8
466.67	417.06
467.106	417.81
467.543	414.26
467.98	408.61
468.416	397.86
468.853	393.45
469.29	381.42
469.726	377.71
470.162	367.76
470.599	360
471.035	356.93
471.471	347.36
471.907	344.01
472.344	341.18
472.78	342.77
473.216	346.48
473.652	343.31
474.088	342.69
474.523	342.21
474.959	345.7
475.395	342.35
475.831	339.88
476.266	341.02
476.702	339.13
477.138	335.78
477.573	334.14
478.008	333.16
478.444	334.99
478.879	338.19
479.314	339.44
479.75	338.96
480.185	339.97
480.62	342.88
481.055	345.17
481.49	348.93
481.925	354.01
482.36	361.14
482.795	370.51
483.229	378.94
483.664	387.16
484.099	388.33
484.534	394.93
484.968	399.53
485.403	400.82
485.837	400.49
486.271	400.05
486.706	400.41
487.14	395.35
487.574	389.42
488.009	386.47
488.443	383.28
488.877	387.2
489.311	388.87
489.745	393.71
490.179	398.07
490.613	406.32
491.046	409.14
491.48	412.26
491.914	414
492.348	417.51
492.781	421.32
493.215	422.56
493.648	424.29
494.082	428.34
494.515	429.66
494.948	436.37
495.382	440.22
495.815	444.59
496.248	449.46
496.681	457.73
497.114	465.81
497.547	473.62
497.98	484.1
498.413	490.67
498.846	499
499.279	506.24
499.711	510.1
500.144	513.38
500.577	522.67
501.009	531.74
501.442	541.68
501.874	545.78
502.306	548.85
502.739	556.71
503.171	568.3
503.603	572.73
504.036	581.94
504.468	587.93
504.9	598.15
505.332	605.33
505.764	611.41
506.196	618.75
506.627	631.51
507.059	644.48
507.491	652.8
507.923	654.85
508.354	668.72
508.786	679.09
509.217	695.24
509.649	708.59
510.08	724.81
510.512	740.14
510.943	754.11
511.374	765.75
511.805	783.22
512.237	800.3
512.668	826.07
513.099	847.94
513.53	871.06
513.961	888.77
514.391	914.81
514.822	942.94
515.253	971.99
515.684	993.82
516.114	1018.35
516.545	1037.26
516.975	1060.07
517.406	1076.17
517.836	1080.64
518.267	1087.28
518.697	1103.27
519.127	1109.16
519.558	1116.23
519.988	1120.95
520.418	1129.37
520.848	1144.52
521.278	1151.79
521.708	1173.87
522.138	1185.81
522.567	1210.25
522.997	1231.55
523.427	1245.39
523.857	1260.26
524.286	1269.54
524.716	1282.85
525.145	1299.2
525.575	1308.88
526.004	1320.92
526.433	1309.28
526.863	1309.88
527.292	1303.93
527.721	1309.61
528.15	1315.16
528.579	1315
529.008	1323.58
529.437	1341.67
529.866	1352.53
530.295	1366.36
530.724	1377.78
531.152	1399.24
531.581	1410.66
532.01	1425.52
532.438	1432.06
532.867	1443.23
533.295	1459.27
533.723	1465.82
534.152	1464.67
534.58	1465.49
535.008	1453.61
535.436	1456.56
535.865	1465.05
536.293	1478.62
536.721	1491.8
537.149	1513.25
537.576	1516.84
538.004	1527.45
538.432	1533.95
538.86	1534.05
539.287	1541.25
539.715	1553.49
540.143	1556.38
540.57	1553.69
540.998	1551.04
541.425	1533.97
541.852	1517.93
542.28	1517.28
542.707	1505.08
543.134	1494.35
543.561	1490.64
543.988	1485.28
544.415	1484.67
544.842	1479.82
545.269	1473.94
545.696	1476.13
546.123	1486.27
546.549	1477.27
546.976	1467.42
547.403	1468.46
547.829	1470.78
548.256	1473.55
548.682	1470.13
549.108	1463.93
549.535	1464.14
549.961	1465.85
550.387	1454.79
550.813	1449.57
551.24	1454.95
551.666	1455.21
552.092	1446.06
552.518	1439.8
552.943	1434.87
553.369	1440.34
553.795	1445.94
554.221	1445.88
554.646	1443.43
555.072	1452.03
555.498	1456.19
555.923	1462.81
556.349	1475.81
556.774	1483.13
557.199	1484.29
557.625	1489.25
558.05	1484.09
558.475	1491.27
558.9	1491.28
559.325	1483.8
559.75	1477.39
560.175	1472.91
560.6	1467.33
561.025	1463.75
561.449	1463.79
561.874	1469.02
562.299	1472.48
562.723	1478.5
563.148	1470.92
563.572	1473.56
563.997	1481.33
564.421	1485.79
564.846	1485.43
565.27	1488.76
565.694	1487.19
566.118	1496.99
566.542	1502.98
566.966	1497.29
567.39	1493.86
567.814	1485.49
568.238	1485.22
568.662	1490.02
569.086	1493.25
569.509	1499.65
569.933	1488.12
570.357	1482.96
570.78	1466.8
571.204	1456.6
571.627	1447.94
572.05	1446.44
572.474	1446.12
572.897	1435.94
573.32	1430.44
573.743	1421.84
574.166	1407.13
574.589	1407.5
575.012	1401.42
575.435	1399.46
575.858	1392.52
576.281	1383.9
576.704	1370.22
577.126	1359.74
577.549	1349.93
577.972	1341.12
578.394	1333.01
578.817	1326.87
579.239	1310.92
579.661	1299.41
580.084	1286.96
580.506	1274.95
580.928	1270.95
581.35	1262.73
581.772	1258.86
582.194	1248.93
582.616	1238.74
583.038	1225.92
583.46	1216.56
583.882	1213.24
584.303	1215.42
584.725	1211.33
585.147	1213.95
585.568	1222.02
585.99	1231.46
586.411	1236.98
586.833	1248.09
587.254	1248.73
587.675	1259.5
588.096	1269.6
588.518	1265.77
588.939	1253.34
589.36	1251.7
589.781	1241.04
590.202	1219.19
590.623	1211.8
591.043	1208.78
591.464	1198.06
591.885	1195.72
592.305	1191.98
592.726	1181.02
593.147	1181.7
593.567	1177.72
593.987	1171.17
594.408	1166.65
594.828	1163.7
595.248	1158.12
595.669	1143.12
596.089	1138.28
596.509	1132.82
596.929	1121.6
597.349	1122.06
597.769	1114.4
598.189	1109
598.608	1109.86
599.028	1111.97
599.448	1111.54
599.867	1102.62
600.287	1099.67
600.706	1096.06
601.126	1087.16
601.545	1086.94
601.965	1085.25
602.384	1079.75
602.803	1081.33
603.222	1077.29
603.641	1070.61
604.061	1068.05
604.48	1064.24
604.898	1070.47
605.317	1073.65
605.736	1074.35
606.155	1070.45
606.574	1062.44
606.992	1066.35
607.411	1062.4
607.829	1055.82
608.248	1053.45
608.666	1050.65
609.085	1049.26
609.503	1041.76
609.921	1036.34
610.339	1038.74
610.758	1037.7
611.176	1033.77
611.594	1026.91
612.012	1022.49
612.43	1024.73
612.847	1029.35
613.265	1029.37
613.683	1032.57
614.101	1033.41
614.518	1029.74
614.936	1020.93
615.353	1010.02
615.771	1007.39
616.188	1006.85
616.606	1004.72
617.023	998.05
617.44	987.91
617.857	982.26
618.274	975.44
618.691	970.36
619.108	963.41
619.525	958.67
619.942	963.08
620.359	964.81
620.776	961.05
621.192	957.88
621.609	956.58
622.026	960.87
622.442	965.15
622.859	967.57
623.275	960.99
623.691	964.18
624.108	972.35
624.524	982.77
624.94	983.89
625.356	991.13
625.772	1001.65
626.188	1010.96
626.604	1011.21
627.02	1008.15
627.436	1007.14
627.852	1013.85
628.268	1024.01
628.683	1017.7
629.099	1011.38
629.514	1007.2
629.93	1010.32
630.345	1013.18
630.761	1009.92
631.176	1013.91
631.591	1009.76
632.007	1004.13
632.422	1001.87
632.837	992.93
633.252	991.17
633.667	983.38
634.082	975.5
634.497	964.76
634.911	949.49
635.326	946.09
635.741	931.56
636.155	923.29
636.57	923.53
636.984	921.9
637.399	921.8
637.813	920.12
638.228	918.56
638.642	920.81
639.056	911.53
639.47	909.5
639.884	901.51
640.298	894.77
640.712	892.76
641.126	881.76
641.54	873.38
641.954	867.08
642.368	856.11
642.781	848.6
643.195	833.49
643.609	832.04
644.022	826.36
644.436	820
644.849	809.19
645.262	798.43
645.676	796.58
646.089	791.35
646.502	779.89
646.915	774.2
647.328	759.14
647.741	756.12
648.154	745.02
648.567	740.81
648.98	730.74
649.393	729.33
649.805	724.62
650.218	718.6
650.631	706.36
651.043	700.54
651.456	694.82
651.868	694.32
652.28	704.55
652.693	713.51
653.105	716.85
653.517	722.4
653.929	721.35
654.341	724.9
654.753	715.99
655.165	719.27
655.577	715.62
655.989	711.47
656.401	704.7
656.813	679.58
657.224	663.79
657.636	642.63
658.047	629.51
658.459	615.05
658.87	606.82
659.282	596.93
659.693	581.65
660.104	570.69
660.515	560.26
660.926	557.11
661.338	553.42
661.749	547.72
662.159	541.26
662.57	536.65
662.981	532.49
663.392	526.1
663.803	526.84
664.213	523.54
664.624	518.85
665.035	518.35
665.445	508.35
665.855	502.73
666.266	496.55
666.676	494.06
667.086	487.06
667.497	485.72
667.907	480.25
668.317	473.71
668.727	471.05
669.137	470.8
669.547	469.24
669.956	470
670.366	470.13
670.776	470.59
671.186	471.89
671.595	473.08
672.005	473.34
672.414	474.18
672.824	473.39
673.233	475.55
673.642	477.26
674.052	480.15
674.461	481.78
674.87	485.2
675.279	484.29
675.688	485.05
676.097	487.72
676.506	486.92
676.915	495.31
677.323	497.8
677.732	498.07
678.141	497.51
678.549	491.46
678.958	491.37
679.366	490.57
679.775	494.43
680.183	502.69
680.592	506.51
681	510.99
681.408	508.77
681.816	515.61
682.224	522.73
682.632	532.41
683.04	553.46
683.448	572.61
683.856	596.73
684.264	623.48
684.671	649.26
685.079	680.51
685.487	715.17
685.894	761.83
686.302	802.2
686.709	836.78
687.116	877.22
687.524	913.26
687.931	946.02
688.338	973.3
688.745	998.85
689.152	1027.13
689.559	1065.08
689.966	1103.83
690.373	1125.04
690.78	1161.73
691.187	1214.24
691.593	1253.92
692	1289.84
692.407	1339.92
692.813	1403.77
693.22	1453.83
693.626	1504.93
694.032	1546.87
694.439	1608.3
694.845	1657.75
695.251	1718.98
695.657	1774.34
696.063	1856.75
696.469	1916.45
696.875	1973.36
697.281	2005.52
697.687	2045.28
698.093	2078.1
698.498	2139.81
698.904	2188.35
699.31	2260.74
699.715	2310.91
700.12	2384.79
700.526	2400.23
700.931	2456.45
701.337	2500.46
701.742	2527.27
702.147	2595.15
702.552	2620.2
702.957	2668.99
703.362	2685.2
703.767	2708.52
704.172	2741.05
704.577	2701.6
704.981	2738.56
705.386	2752.3
705.791	2744.39
706.195	2803.42
706.6	2809.34
707.004	2873.61
707.408	2848.16
707.813	2868.99
708.217	2858.59
708.621	2859.43
709.025	2937.05
709.43	2937.8
709.834	2984.82
710.237	3040.37
710.641	3027.88
711.045	3045.02
711.449	3039.44
711.853	3061.66
712.256	3093.47
712.66	3120.71
713.064	3180.24
713.467	3213.1
713.87	3302.07
714.274	3339.64
714.677	3426.17
715.08	3555.48
715.484	3690.06
715.887	3853.12
716.29	4012.92
716.693	4181.14
717.096	4374.71
717.499	4478.55
717.901	4499.32
718.304	4518.88
718.707	4537.39
719.109	4452.51
719.512	4425.25
719.915	4315.98
720.317	4267.9
720.719	4301.8
721.122	4274.87
721.524	4233.43
721.926	4199.73
722.328	4277.91
722.731	4268.51
723.133	4287.27
723.535	4441.42
723.937	4456.27
724.338	4492.45
724.74	4523.25
725.142	4482.26
725.544	4482.09
725.945	4504.08
726.347	4500.2
726.748	4493.43
727.15	4503.26
727.551	4473.11
727.952	4449.16
728.354	4423.62
728.755	4426.43
729.156	4392.38
729.557	4371.49
729.958	4274
730.359	4228.37
730.76	4211.85
731.161	4163.04
731.562	4142.52
731.962	4144.43
732.363	4093.1
732.763	4044.46
733.164	4071.88
733.564	4016.82
733.965	3938.51
734.365	3909.74
734.766	3931.04
735.166	3899.39
735.566	3856.87
735.966	3836.26
736.366	3831.15
736.766	3781.66
737.166	3805.97
737.566	3771.18
737.966	3752.48
738.365	3783.73
738.765	3778.07
739.165	3716.84
739.564	3696.17
739.964	3732.74
740.363	3695.42
740.763	3692.98
741.162	3685.44
741.561	3658.82
741.96	3624.49
742.36	3639.86
742.759	3643.35
743.158	3673.65
743.557	3686.72
743.955	3717.82
744.354	3678.86
744.753	3724.4
745.152	3692.95
745.55	3735.48
745.949	3732.04
746.348	3732.81
746.746	3743.79
747.144	3711.63
747.543	3694.91
747.941	3730.75
748.339	3676.47
748.737	3669.93
749.136	3662.46
749.534	3715.11
749.932	3693.82
750.33	3710.46
750.727	3755.78
751.125	3736.48
751.523	3723.7
751.921	3755.82
752.318	3728.2
752.716	3773.61
753.113	3784.59
753.511	3804.31
753.908	3802.68
754.305	3788.71
754.703	3837.11
755.1	3881.87
755.497	3929.53
755.894	4079.29
756.291	4220.41
756.688	4480.34
757.085	4822.99
757.482	5308.84
757.878	5836.75
758.275	6315.9
758.672	6972.28
759.068	7507.61
759.465	8273.71
759.861	9261.33
760.258	10404.52
760.654	10997.84
761.05	10910.64
761.447	10410.29
761.843	9688.06
762.239	8949.38
762.635	8608.85
763.031	8288.69
763.427	7827.87
763.822	7343.85
764.218	6859.04
764.614	6232.04
765.01	5810.91
765.405	5539.81
765.801	5336.88
766.196	5077.17
766.592	4930.36
766.987	4684.02
767.382	4515.68
767.778	4443.54
768.173	4339.69
768.568	4283.95
768.963	4186.49
769.358	4199.73
769.753	4166.07
770.148	4097.48
770.542	4096.09
770.937	4070.94
771.332	4142.87
771.726	4158.84
772.121	4111.67
772.515	4155.5
772.91	4142.94
773.304	4200.77
773.699	4151.46
774.093	4190.33
774.487	4235.44
774.881	4268.52
775.275	4264.71
775.669	4230.97
776.063	4264.57
776.457	4294.22
776.851	4234.33
777.245	4227.97
777.638	4251.46
778.032	4341.5
778.425	4315.78
778.819	4351.38
779.212	4319.71
779.606	4290.84
779.999	4305.14
780.392	4292.84
780.786	4354.04
781.179	4370.35
781.572	4406.23
781.965	4416.45
782.358	4371.35
782.751	4412.74
783.143	4375.84
783.536	4430.48
783.929	4462.17
784.322	4555.41
784.714	4578.04
785.107	4575.28
785.499	4632.22
785.891	4614.75
786.284	4601.73
786.676	4712.69
787.068	4700.22
787.46	4736.83
787.852	4753.36
788.245	4824.43
788.636	4845.91
789.028	4902.87
789.42	4934.65
789.812	4941.65
790.204	5018.62
790.595	5096.23
790.987	4940.78
791.378	4959.23
791.77	5063.42
792.161	5171.11
792.553	5210.22
792.944	5121.93
793.335	5063.55
793.726	5120.11
794.117	5191.68
794.508	5296
794.899	5271.56
795.29	5384.31
795.681	5427.57
796.072	5314.35
796.463	5171.89
796.853	5178.27
797.244	5302.28
797.634	5329.44
798.025	5327.15
798.415	5330.14
798.806	5402.88
799.196	5470.27
799.586	5506.57
799.976	5476.91
800.366	5655.61
800.756	5836.29
801.146	5806.1
801.536	5826.48
801.926	5884.81
802.316	5904.67
802.706	5964.34
803.095	5867.63
803.485	5945.33
803.874	5977.39
804.264	6179.24
804.653	6157.88
805.043	6275.43
805.432	6361.7
805.821	6365.18
806.21	6382.06
806.599	6474.41
806.988	6509.29
807.377	6589.53
807.766	6688.29
808.155	6911.09
808.544	6705.13
808.933	6714.54
809.321	6694.59
809.71	6922.54
810.098	7042.86
810.487	7401.71
810.875	7779.26
811.264	7797.17
811.652	8025.02
812.04	8137.05
812.428	8261.17
812.816	8851.38
813.204	9179.23
813.592	9606.45
813.98	9864.65
814.368	9794.33
814.756	10161.14
815.144	10093.18
815.531	10457.38
815.919	10396.31
816.306	10635.31
816.694	10396.87
817.081	10436.85
817.469	10706.36
817.856	10709.7
818.243	10924.41
818.63	11222.74
819.017	10900.41
819.404	10946
819.791	11237.04
820.178	11713.36
820.565	11907.45
820.952	12626.54
821.339	12245.74
821.725	12383.79
822.112	11801.74
822.498	11770.29
822.885	11870.96
823.271	11796.41
823.657	12123.11
824.044	12133.1
824.43	12183.45
824.816	12158.51
825.202	11825.23
825.588	12609.06
825.974	12624.9
826.36	13031.72
826.746	13053.96
827.132	13336.29
827.517	13317.51
827.903	12702.88
828.289	12727.53
828.674	12126
829.06	12043.87
829.445	12349.4
829.83	12630.01
830.216	13002.12
830.601	13279.02
830.986	12967.26
831.371	12858
831.756	13286.68
832.141	12963.67
832.526	12962.86
832.911	13182.76
833.295	13096.81
833.68	13457.28
834.065	12978.2
834.449	12268.52
834.834	12215.23
835.218	12215.9
835.603	12483.59
835.987	12328.6
836.371	12971.02
836.755	12890.83
837.139	13207.57
837.524	13392.82
837.908	13262.25
838.291	13312.58
838.675	13371.12
839.059	13533.18
839.443	13521.63
839.827	13348.91
840.21	13722.15
840.594	13614.08
840.977	13784.01
841.361	13769.75
841.744	14068.52
842.127	13950.79
842.511	14149.71
842.894	14619.59
843.277	14917.9
843.66	15350.2
844.043	15412.11
844.426	14782.46
844.809	14539.59
845.191	14560.16
845.574	14202.42
845.957	13921.74
846.339	13831.54
846.722	13418.06
847.104	13467.66
847.487	13335.87
847.869	13344.26
848.252	13556.34
848.634	13815.44
849.016	14019.36
849.398	14114.6
849.78	14779.55
850.162	14778.81
850.544	15102.06
850.926	15592.47
851.307	15526.01
851.689	15748.28
852.071	16095.6
852.452	16354.19
852.834	16332.88
853.215	16642.03
853.597	16765.42
853.978	16998.76
854.359	17349.62
854.741	16574.23
855.122	16495.4
855.503	16270.41
855.884	16373.73
856.265	16323.21
856.646	16405.86
857.026	16105.48
857.407	16059.65
857.788	16173.81
858.169	16388.66
858.549	15737.05
858.93	16228.57
859.31	16265.14
859.69	16429.1
860.071	16113.15
860.451	15951.28
860.831	15380.97
861.211	16282.64
861.591	16698.33
861.971	16684.54
862.351	16838.62
862.731	17141.19
863.111	17346.19
863.491	17609.14
863.87	18280.73
864.25	18549.21
864.629	18239.54
865.009	18637.69
865.388	19298.79
865.768	20684.29
866.147	20606.43
866.526	19474.64
866.905	19698.55
867.284	20797.87
867.663	19740.54
868.042	18920.98
868.421	18851.12
868.8	19156.42
869.179	19333.15
869.558	18193.5
869.936	16764.64
870.315	17059.37
870.693	17458.68
871.072	18822.47
871.45	17932.65
871.828	18160.09
872.207	19092.58
872.585	18808.89
872.963	19311.98
873.341	18661.78
873.719	18452.54
874.097	18235.57
874.475	18565.37
874.853	18991.4
875.23	18200.75
875.608	18962.32
875.986	20505.52
876.363	19606.57
876.741	20213.98
877.118	19706.45
877.495	20664.89
877.873	21006.87
878.25	22105.49
878.627	21216.34
879.004	21507.35
879.381	21411.55
879.758	20836.35
880.135	19403.38
880.512	20530.44
880.889	19976.78
881.265	19775.03
881.642	19622.13
882.019	19960.9
882.395	19563.51
882.772	20344.76
883.148	19472.15
883.524	19389.91
883.901	19283.69
884.277	19576.12
884.653	19448.45
885.029	20012.05
885.405	22172.25
885.781	21996.76
886.157	21091.11
886.532	21359.18
886.908	21350.27
887.284	23743.77
887.659	24533.74
888.035	25312.14
888.411	25958.87
888.786	26302.62
889.161	27213.98
889.537	26715.49
889.912	27561.28
890.287	27524.03
890.662	28209.39
891.037	27689.27
891.412	25822.5
891.787	25562
892.162	24661.55
892.536	25250.9
892.911	24296.46
893.286	23782.7
893.66	22815.75
894.035	23405.3
894.409	25491.28
894.784	24475
895.158	24890.21
895.532	26371.26
895.906	27083.53
896.281	27713.5
896.655	27261.44
897.029	31156.31
897.402	32447.89
897.776	36122.65
898.15	36000.06
898.524	35608.41
898.898	36068.66
899.271	40352.34
899.645	34933.15
900.018	33543.59
900.392	34785.15
900.765	35070.74
901.138	32454.04
901.511	31940.42
901.884	29308.85
902.258	27037.17
902.631	27936.39
903.003	32151.33
903.376	29017.69
903.749	32539.4
904.122	34834.12
904.495	38379.84
904.867	38844.66
905.24	33725.58
905.612	31401.93
905.985	32131.92
906.357	33575.23
906.729	32058.96
907.102	27394.25
907.474	26356.05
907.846	26515.32
908.218	26165.32
908.59	23098.05
908.962	22348.93
909.334	24069.68
909.705	25292.19
910.077	24551.79
910.449	25554.71
910.82	26260.65
911.192	28879.15
911.563	29997.73
911.935	32105.91
912.306	32150.72
912.677	33215.71
913.048	32884.69
913.419	35676.57
913.79	35904.43
914.161	38514.35
914.532	36801.71
914.903	33815.93
915.274	32105.26
915.645	31634.45
916.015	27831.52
916.386	26531.4
916.756	28224.82
917.127	29107.53
917.497	25995.73
917.868	28273.7
918.238	26852.08
918.608	27647.25
918.978	28217.38
919.348	29899.56
919.718	30909.05
920.088	29779.34
920.458	30945.59
920.828	32571.51
921.198	30885.78
921.567	32985.88
921.937	25551.95
922.306	25791.29
922.676	27791.75
923.045	23197.9
923.415	22047.24
923.784	20084.51
924.153	20648.47
924.522	20628.12
924.891	19394.81
925.26	20770.61
925.629	20283.44
925.998	23305.07
926.367	22748.18
926.736	21672.19
927.104	25805.73
927.473	27729.46
927.842	33469.68
928.21	33153.94
928.578	34856.05
928.947	32970.92
929.315	33166.67
929.683	38911.81
930.051	39222
930.42	45544.44
930.788	38935.32
931.156	38626.22
931.523	36194.05
931.891	33434.76
932.259	32118.83
932.627	37226.24
932.994	52665.55
933.362	43531.66
933.729	37777.61
934.097	36162.37
934.464	30619.09
934.831	35332.77
935.199	34851.38
935.566	33832.42
935.933	34352.1
936.3	41593.74
936.667	32382.28
937.034	29227.59
937.401	28913.67
937.767	24972.82
938.134	22232.08
938.501	31381.26
938.867	33466.57
939.234	56538.47
939.6	48181.87
939.967	52951.03
940.333	35448.98
940.699	30140.04
941.065	24168.26
941.431	31683.51
941.798	30559.35
942.163	40165.28
942.529	25043.01
942.895	23047.39
943.261	14910.98
943.627	19578.8
943.992	17141.17
944.358	17178.08
944.723	17258.44
945.089	16819.73
945.454	15559.5
945.82	16604.77
946.185	15946.93
946.55	18489.69
946.915	16580.9
947.28	19454.22
947.645	17111.81
948.01	15813
948.375	16491.63
948.74	19778.48
949.104	23089.73
949.469	33286.48
949.834	58879.88
950.198	55841.5
950.562	33470.13
950.927	27856.8
951.291	33488.74
951.655	28571.97
952.02	26790.07
952.384	20260.77
952.748	17632.14
953.112	17190.9
953.476	14957.64
953.839	13810.92
954.203	13671.97
954.567	17096.28
954.931	26924.04
955.294	23062.89
955.658	23173.48
956.021	39474.35
956.385	66843.02
956.748	98641.09
957.111	152868.87
957.474	171541.37
957.837	193218.17
958.2	146076.45
958.563	52573.78
958.926	35549.31
959.289	53920.11
959.652	60248.85
960.015	45128.77
960.377	64788.06
960.74	73965.37
961.102	127507.53
961.465	137024.06
961.827	73416.76
962.189	141073.14
962.552	97696.57
962.914	78334.56
963.276	50842.79
963.638	42033.48
964	41610.6
964.362	28127.49
964.724	27158.19
965.085	19387.47
965.447	15888.5
965.809	18111.25
966.17	18090.74
966.532	19593.72
966.893	17977.84
967.255	16355.26
967.616	19282.13
967.977	15441.03
968.338	16853.33
968.699	13848.06
969.061	13848.24
969.421	13934.88
969.782	15626.96
970.143	13221.28
970.504	13686.37
970.865	15563.73
971.225	15914.25
971.586	15568.99
971.946	22184.49
972.307	19253.6
972.667	25180.53
973.027	25913.05
973.388	31427.95
973.748	21371.24
974.108	23278.86
974.468	31478.44
974.828	24263.62
975.188	18690.75
975.548	17182
975.907	14439.79
976.267	16227.55
976.627	13646.37
976.986	14163.23
977.346	13502.39
977.705	12974.76
978.064	11811.49
978.424	9836.49
978.783	10170.15
979.142	11593.83
979.501	11100.87
979.86	11737.5
980.219	11308.3
980.578	14565.72
980.937	16300.62
981.296	14521.8
981.654	14955.27
982.013	23267.75
982.371	30151.23
982.73	28177.02
983.088	31933.11
983.447	34088.61
983.805	48771.43
984.163	101878.66
984.521	113197.04
984.879	166128.67
985.237	-270095.9
985.595	261019.61
985.953	64790.49
986.311	37391.31
986.669	21717.78
987.026	18691.37
987.384	25145.93
987.741	25959.28
988.099	18539.9
988.456	14768.32
988.814	13809
989.171	12017.15
989.528	11835.82
989.885	12501.38
990.242	9925.8
990.599	12338.48
990.956	10127.95
991.313	7092.44
991.67	5827.13
992.027	6189.64
992.383	5503.6
992.74	4835.31
993.096	5072.36
993.453	5270.51
993.809	5469.17
994.165	7295.01
994.522	6704.42
994.878	7383.69
995.234	9246.6
995.59	9117.59
995.946	8614.26
996.302	9823.96
996.658	11356.55
997.013	12516.52
997.369	14823.13
997.725	18984.4
998.08	12287.04
998.436	18935.6
998.791	26080.5
999.147	26040.23
999.502	28401.81
999.857	20656.53
1000.212	33637.23
1000.567	47815.99
1000.922	27592.73
1001.277	17522.71
1001.632	13009.53
1001.987	16728.14
1002.342	11961.53
1002.696	9573.9
1003.051	7643.35
1003.406	9285.94
1003.76	9229.16
1004.114	9108.39
1004.469	7684.35
1004.823	6346.99
1005.177	6867.88
1005.531	5451.92
1005.885	4839.23
1006.239	5473.76
1006.593	6875.7
1006.947	9216.16
1007.301	6898.3
1007.655	7527.48
1008.008	5532.28
1008.362	6177.78
1008.715	8821.03
1009.069	7969.31
1009.422	11932.31
1009.776	23974.38
1010.129	15905.83
1010.482	13289.46
1010.835	11197.88
1011.188	23328.02
1011.541	22001.96
1011.894	-134079.72
1012.247	397380.39
1012.6	27019.81
1012.952	17113.52
1013.305	8846.24
1013.657	6378.77
1014.01	6022
1014.362	4949.35
1014.715	4402.21
1015.067	3828.48
1015.419	3741.18
1015.771	3333.29
1016.123	2970.76
1016.475	3069.38
1016.827	3261.85
1017.179	3517.13
1017.531	3534.82
1017.883	3611.89
1018.234	3509.46
1018.586	4445.84
1018.938	4713.74
1019.289	6485.99
1019.64	7355.24
1019.992	6805.36
1020.343	6188.87
1020.694	4908.14
1021.045	4320.28
1021.396	4933.1
1021.747	5297.53
1022.098	6327.24
1022.449	4578.84
1022.8	4249.5
1023.151	2973.15
1023.501	2644.08
1023.852	2853.93
1024.202	2989.91
1024.553	3278.21
1024.903	3213.97
1025.253	2766.3
1025.604	2494.9
1025.954	3082.83
1026.304	3734.94
1026.654	4350.89
1027.004	6333.98
1027.354	10313.31
1027.703	9845.41
1028.053	12839.96
1028.403	18879.35
1028.753	27211.53
1029.102	36753.05
1029.452	188631.72
1029.801	8165.61
1030.15	5312.76
1030.499	4502.03
897.758	2226.18
901.051	2156.3
904.343	2189.95
907.636	2197.96
910.928	2260.49
914.22	2179.22
917.511	2183.87
920.803	2232.81
924.094	2231.1
927.384	2235.46
930.675	2198.1
933.965	2159.15
937.255	2191.54
940.544	2159.44
943.834	2158.78
947.123	2098.85
950.411	2186.92
953.7	2167.95
956.988	2151.88
960.276	2086.28
963.563	2135.44
966.851	2146.78
970.138	2188.97
973.424	2188.9
976.711	2143.68
979.997	2191.89
983.283	2235.05
986.568	2165.78
989.853	2156.61
993.138	2183.69
996.423	2269.67
999.708	2227.94
1002.992	2258.43
1006.275	2172.09
1009.559	2178.32
1012.842	2275.39
1016.125	2226.54
1019.408	2204.5
1022.69	2263.61
1025.972	2298.44
1029.254	2271.89
1032.536	2231.96
1035.817	2243.37
1039.098	2213.1
1042.379	2263
1045.659	2291.63
1048.939	2238.07
1052.219	2245.85
1055.498	2241.44
1058.778	2236.68
1062.057	2211.22
1065.335	2235.73
1068.614	2249.27
1071.892	2242.71
1075.17	2295.81
1078.447	2299.82
1081.724	2292.84
1085.001	2319.84
1088.278	2297.47
1091.554	2303.11
1094.83	2297.33
1098.106	2333.22
1101.382	2364.21
1104.657	2362.35
1107.932	2363.83
1111.206	2340.5
1114.481	2293.64
1117.755	2291.73
1121.029	2285.64
1124.302	2346.83
1127.575	2312.6
1130.848	2309.87
1134.121	2278.9
1137.393	2239.61
1140.665	2299.66
1143.937	2275.96
1147.208	2227.02
1150.48	2284.81
1153.75	2274.38
1157.021	2276.98
1160.291	2253.06
1163.561	2307.05
1166.831	2273.63
1170.101	2301.29
1173.37	2262.03
1176.639	2217.26
1179.907	2262.83
1183.176	2283.54
1186.444	2283.69
1189.711	2310.27
1192.979	2333.79
1196.246	2290.18
1199.513	2301.88
1202.78	2308.89
1206.046	2317.02
1209.312	2343.72
1212.578	2362.07
1215.843	2328.29
1219.108	2297
1222.373	2322.29
1225.638	2293.23
1228.902	2285.99
1232.166	2241.27
1235.43	2228.98
1238.693	2253.55
1241.956	2245.62
1245.219	2294.97
1248.482	2277.8
1251.744	2276.1
1255.006	2398.93
1258.268	2347.77
1261.529	2303.9
1264.79	2301.05
1268.051	2401.67
1271.312	2408.94
1274.572	2381.85
1277.832	2369.88
1281.092	2347.95
1284.351	2338.01
1287.61	2322.2
1290.869	2256.26
1294.128	2251.24
1297.386	2301.05
1300.644	2296.92
1303.902	2304.12
1307.159	2176.82
1310.416	2225.2
1313.673	2252.09
1316.93	2254.01
1320.186	2284.51
1323.442	2319.12
1326.697	2319.1
1329.953	2293.7
1333.208	2327.64
1336.463	2300.21
1339.717	2260.82
1342.972	2366.19
1346.226	2340.95
1349.479	2289.78
1352.733	2266.83
1355.986	2273.73
1359.238	2254.57
1362.491	2261.46
1365.743	2261.64
1368.995	2256.33
1372.247	2268.49
1375.498	2287.37
1378.749	2328.87
1382	2278.75
1385.251	2315.69
1388.501	2270.16
1391.751	2271.4
1395	2235.89
1398.25	2260.89
1401.499	2282.85
1404.748	2231.6
1407.996	2209.17
1411.244	2199.71
1414.492	2184.66
1417.74	2168.26
1420.987	2174.58
1424.234	2233.55
1427.481	2194.99
1430.728	2253.39
1433.974	2228.79
1437.22	2226.57
1440.465	2223.53
1443.711	2222.81
1446.956	2246.35
1450.201	2218.11
1453.445	2259.94
1456.689	2247.31
1459.933	2256.98
1463.177	2298.94
1466.42	2270.33
1469.663	2254.09
1472.906	2270
1476.148	2316.11
1479.391	2289
1482.633	2263.78
1485.874	2288.71
1489.115	2293.26
1492.356	2275.56
1495.597	2256.8
1498.838	2247.6
1502.078	2232.36
1505.318	2201.88
1508.557	2235.23
1511.797	2233.42
1515.036	2274.86
1518.274	2248.43
1521.513	2201.78
1524.751	2213.04
1527.989	2238.01
1531.227	2255.04
1534.464	2269.89
1537.701	2262.99
1540.938	2275.05
1544.174	2223.12
1547.41	2214.44
1550.646	2251.48
1553.882	2299.57
1557.117	2355.85
1560.352	2365.32
1563.587	2326.29
1566.821	2292.83
1570.055	2305.05
1573.289	2288.14
1576.523	2347.23
1579.756	2359.94
1582.989	2378.37
1586.222	2341.3
1589.454	2369.11
1592.686	2351.8
1595.918	2377.8
1599.15	2375.98
1602.381	2423.05
1605.612	2405.76
1608.843	2497.12
1612.073	2422.03
1615.303	2409.28
1618.533	2408.34
1621.762	2408.1
1624.992	2384.22
1628.221	2388.34
1631.449	2377.46
1634.678	2404.69
1637.906	2372.22
1641.134	2398.49
1644.361	2364.88
1647.588	2350.64
1650.815	2374.47
1654.042	2338.2
1657.269	2364.32
1660.495	2343.55
1663.72	2330.93
1666.946	2299.06
1670.171	2272.43
1673.396	2245.06
1676.621	2230.08
1679.845	2225.35
1683.069	2236.4
1686.293	2265.11
1689.517	2254.95
1692.74	2207.06
1695.963	2227.79
1699.185	2265.83
1702.408	2239.55
1705.63	2268.58
1708.852	2285.19
1712.073	2256.13
1715.294	2268.24
1718.515	2309.84
1721.736	2268.71
1724.956	2248.58
1728.176	2270.42
1731.396	2292.84
1734.616	2279.64
1737.835	2315.15
1741.054	2285.6
1744.272	2279.08
1747.491	2317.61
1750.709	2340.53
1753.927	2287.55
1757.144	2312.34
1760.361	2369.92
1763.578	2346.45
1766.795	2296.58
1770.011	2287.09
1773.227	2312.35
1776.443	2355.43
1779.658	2396.81
1782.874	2338.1
1786.089	2332.17
1789.303	2334.4
1792.518	2335.69
1795.732	2321.3
1798.945	2337.94
1802.159	2378.02
1805.372	2318
1808.585	2313.59
1811.797	2315.39
1815.01	2339.16
1818.222	2361.07
1821.434	2319.53
1824.645	2361.58
1827.856	2370.32
1831.067	2402.2
1834.278	2338.06
1837.488	2322.99
1840.698	2447.19
1843.908	2388.76
1847.117	2355.57
1850.326	2278.94
1853.535	2340.29
1856.744	2377.03
1859.952	2299.86
1863.16	2302.61
1866.368	2315.42
1869.575	2430.06
1872.782	2315.15
1875.989	2248.15
1879.196	2299.1
1882.402	2290.33
1885.608	2326.28
1888.814	2267.88
1892.019	2172.4
1895.224	2224.97
1898.429	2188.63
1901.634	2176.18
1904.838	2149.12
1908.042	2206.48
1911.246	2216.87
1914.449	2178.52
1917.652	2161.13
1920.855	2139.84
1924.058	2166.64
1927.26	2214.26
1930.462	2235.66
1933.664	2275.46
1936.865	2217.52
1940.066	2237.34
1943.267	2180.23
1946.467	2190.16
1949.668	2209.7
1952.868	2280.98
1956.067	2272.2
1959.267	2210.11
1962.466	2232.7
1965.665	2215.99
1968.863	2209.75
1972.061	2209.46
1975.259	2202.29
1978.457	2277.67
1981.654	2238.38
1984.852	2241.83
1988.048	2193.81
1991.245	2182.57
1994.441	2270.33
1997.637	2233.06
2000.833	2211.7
2004.028	2249.72
2007.223	2314.66
2010.418	2301.64
2013.613	2251.28
2016.807	2246.47
2020.001	2239.88
2023.194	2263.76
2026.388	2247.98
2029.581	2190.33
2032.774	2250.13
2035.966	2267.08
2039.158	2208.11
2042.35	2227.58
2045.542	2153.19
2048.733	2235.59
2051.924	2229.35
2055.115	2243.99
2058.306	2207.6
2061.496	2262.16
2064.686	2315.52
2067.875	2221.7
2071.065	2224.84
2074.254	2245.46
2077.442	2199.33
2080.631	2283.23
2083.819	2213.61
2087.007	2207.08
2090.195	2193.07
2093.382	2208.16
2096.569	2191.46
2099.756	2150.59
2102.942	2198.83
2106.128	2210.15
2109.314	2197.72
2112.5	2181.05
2115.685	2149.55
2118.87	2157.89
2122.055	2217.55
2125.239	2195.95
2128.424	2182.36
2131.608	2244.72
2134.791	2230.94
2137.974	2270.85
2141.157	2258.6
2144.34	2231.86
2147.523	2223.34
2150.705	2248.75
2153.887	2215.6
2157.068	2187.55
2160.25	2170.73
2163.431	2193.96
2166.611	2162.54
2169.792	2182.81
2172.972	2092.4
2176.152	2146.77
2179.331	2172.91
2182.511	2176.22
2185.69	2199.95
2188.868	2204.09
2192.047	2241.05
2195.225	2255.66
2198.403	2205.83
2201.58	2193.82
2204.758	2183.51
2207.935	2257.38
2211.111	2171.4
2214.288	2160.85
2217.464	2194.22
2220.64	2148.58
2223.815	2200.96
2226.991	2131.89
2230.166	2149.54
2233.34	2191.24
2236.515	2205.09
2239.689	2267.01
2242.863	2219.28
2246.036	2271.48
2249.209	2252.78
2252.382	2273.03
2255.555	2280.93
2258.727	2229.38
2261.9	2258.39
2265.071	2248.96
2268.243	2247.56
2271.414	2193.87
2274.585	2177.49
2277.756	2237.43
2280.926	2196.17
2284.096	2226.2
2287.266	2154.47
2290.436	2204.53
2293.605	2223.07
2296.774	2261.77
2299.942	2266.73
2303.111	2282.37
2306.279	2336.44
2309.447	2321.22
2312.614	2292.76
2315.781	2313.25
2318.948	2291.97
2322.115	2329.74
2325.281	2225.2
2328.447	2235.94
2331.613	2203.03
2334.779	2194.12
2337.944	2192.59
2341.109	2191.54
2344.274	2178.47
2347.438	2146.52
2350.602	2170.5
2353.766	2181.16
2356.929	2169.41
2360.092	2207.33
2363.255	2177.74
2366.418	2145.24
2369.58	2213.91
2372.742	2081
2375.904	2076.97
2379.066	2063.85
2382.227	2089.05
2385.388	2050.59
2388.548	1998.63
2391.709	2041.8
2394.869	2032.23
2398.029	2087.88
2401.188	2085.01
2404.347	2046.34
2407.506	2131.24
2410.665	2168.41
2413.823	2152.24
2416.981	2130.64
2420.139	2146.82
2423.296	2189.36
2426.453	2161.59
2429.61	2181.66
2432.767	2150.94
2435.923	2188.65
2439.079	2138.12
2442.235	2170.8
2445.391	2113.31
2448.546	2157.75
2451.701	2191.58
2454.855	2188.4
2458.009	2213.92
2461.163	2205.23
2464.317	2176.74
2467.471	2204.61
2470.624	2235.84
2473.777	2220.62
2476.929	2239.85
2480.082	2260.02
2483.234	2232.89
2486.385	2175.32
2489.537	2168.67
2492.688	2159.56
2495.839	2174.6
2498.989	2191.54
2502.14	2177.15
2505.29	2167.42
2508.439	2193.54
2511.589	2131.46
2514.738	2134.02
2517.887	2157
2521.035	2230.83
2524.183	2191.71
2527.331	2178.92
2530.479	2172.05
2533.627	2172.72
