Data from C_2_DEC_CT_2N_Splice17_12-29-39-614.txt Node
Date: Sat Mar 14 12:29:39 EDT 2020
User: sa697716
Spectrometer: FLMS03696
Trigger mode: 0
Integration Time (sec): 3.180400E-1
Scans to average: 20
Electric dark correction enabled: true
Nonlinearity correction enabled: true
Boxcar width: 5
XAxis mode: Wavelengths
Number of Pixels in Spectrum: 2048
>>>>>Begin Spectral Data<<<<<
187.83	-272805.91
188.298	2015.29
188.766	1043.46
189.233	924.94
189.701	1338.83
190.169	1845.81
190.636	730.46
191.104	620.56
191.571	100.42
192.039	-62.16
192.506	-88.26
192.974	436.11
193.441	-692.63
193.908	-280.84
194.375	-112.84
194.842	-22.61
195.31	-11.04
195.777	158.96
196.244	399.36
196.711	427.09
197.177	531.12
197.644	713.4
198.111	1255.64
198.578	1733.33
199.045	1393.49
199.511	2265.87
199.978	2618.47
200.445	2257.61
200.911	2459.56
201.378	2717.65
201.844	2491.96
202.31	4242.99
202.777	4480.1
203.243	2463.44
203.709	2350.92
204.176	2785.33
204.642	2305.57
205.108	2166.33
205.574	1757.47
206.04	1598.72
206.506	1499.58
206.972	1414.61
207.438	1382.94
207.903	1558.01
208.369	1382.98
208.835	1373.33
209.301	1449.72
209.766	1493.65
210.232	1487.86
210.697	1847.07
211.163	2306.38
211.628	3488.84
212.094	2931.35
212.559	3601
213.024	2250.68
213.49	2759.55
213.955	2726.85
214.42	2672.04
214.885	2488.34
215.35	2401.84
215.815	2344
216.28	2487.74
216.745	2032.51
217.21	2219.86
217.675	2045.72
218.14	2334
218.604	2630.8
219.069	3045.93
219.534	3242.13
219.998	3824.46
220.463	4673.23
220.927	5808.27
221.392	5543.65
221.856	5660.3
222.32	7178.1
222.785	8952.2
223.249	11353.02
223.713	12776.54
224.177	12843.98
224.642	16596.77
225.106	20553.66
225.57	22606.86
226.034	16882.63
226.497	25788.76
226.961	23422.98
227.425	27408.59
227.889	30521.07
228.353	30660.29
228.816	63434.37
229.28	60891.9
229.744	51435.63
230.207	31316.67
230.671	30909.22
231.134	51237.65
231.597	59185.1
232.061	59300.9
232.524	57928.08
232.987	39945.67
233.45	36017.18
233.914	32426.38
234.377	33339.92
234.84	30593.6
235.303	36130.55
235.766	40373.09
236.229	41830.61
236.691	26405.54
237.154	29685.01
237.617	22371.88
238.08	22965.54
238.542	26899.78
239.005	19232.6
239.468	19084.84
239.93	17988.98
240.393	16341.41
240.855	14348.7
241.317	14689.57
241.78	17886.77
242.242	18522.69
242.704	20013.27
243.166	17422.9
243.629	15837.77
244.091	18259.77
244.553	20029.46
245.015	21547.49
245.477	27935.04
245.939	41003.81
246.4	43564.43
246.862	42368.29
247.324	40003
247.786	44824.11
248.247	58858.06
248.709	60828.25
249.17	45557.9
249.632	42913.62
250.093	49824.09
250.555	43058.31
251.016	26270.08
251.477	24938.01
251.939	26951.74
252.4	28282.7
252.861	33683.71
253.322	31363.03
253.783	37350.87
254.244	48476.66
254.705	38322.85
255.166	34115.2
255.627	33651.33
256.088	47541.41
256.549	50600.76
257.009	43589.03
257.47	52962.2
257.931	43140.05
258.391	32329.79
258.852	33380.54
259.312	35082.14
259.773	43391.87
260.233	36727
260.694	31028.27
261.154	35261.18
261.614	28362.29
262.074	25438.13
262.534	26466.15
262.994	25013.23
263.455	33464.76
263.915	28245.52
264.374	26644.26
264.834	29165.55
265.294	32390.54
265.754	33604.47
266.214	31861.77
266.673	29906.69
267.133	37824.53
267.593	37665.28
268.052	46179.74
268.512	40212.67
268.971	48584.17
269.431	53411.45
269.89	47922.9
270.349	72014.63
270.809	80455.49
271.268	72459.9
271.727	162811.92
272.186	105646.56
272.645	79352.77
273.104	57370.88
273.563	83195.4
274.022	65578.85
274.481	55861.09
274.94	43115.22
275.399	32120.21
275.857	37498.24
276.316	50818.59
276.775	45271.7
277.233	44622.17
277.692	41803.7
278.15	47348.53
278.609	48746.9
279.067	45150.77
279.525	41960.3
279.984	54217.5
280.442	65142.12
280.9	64201.46
281.358	42304.9
281.816	39494.74
282.274	38736.6
282.732	40055.43
283.19	40268.15
283.648	34792.68
284.106	37104.63
284.564	37794.84
285.021	35065.63
285.479	26152.38
285.937	23816.06
286.394	20900.56
286.852	21548.89
287.309	22639.86
287.767	21884.53
288.224	20847.37
288.682	22928.6
289.139	25183.86
289.596	23062.5
290.053	24021.96
290.511	30383.11
290.968	36918.21
291.425	50174.31
291.882	41790.1
292.339	36475.36
292.796	36256.12
293.252	34197.63
293.709	27175.36
294.166	24392.43
294.623	26981.41
295.079	25888.02
295.536	26019.39
295.992	23622.24
296.449	23368.69
296.905	24274.89
297.362	23276.24
297.818	24511.85
298.274	25424.37
298.731	25933.34
299.187	25687.17
299.643	27598.45
300.099	33446.08
300.555	36750.97
301.011	30773.5
301.467	29679.23
301.923	34820.96
302.379	34058.84
302.835	33510.15
303.291	33620.2
303.746	38264.76
304.202	48385.03
304.658	48625.6
305.113	32702.14
305.569	32027.17
306.024	34155.39
306.479	32573.8
306.935	27440.34
307.39	29964.42
307.845	27668.72
308.301	27831.89
308.756	27150.46
309.211	26123.33
309.666	26790.92
310.121	33262.69
310.576	33784.43
311.031	33535.41
311.486	38402.1
311.94	38393.46
312.395	51340.92
312.85	96552.67
313.305	474334.92
313.759	2456652.19
314.214	178324.4
314.668	141375.94
315.123	118959.7
315.577	42675.17
316.032	37952.1
316.486	47566.59
316.94	37600.14
317.394	26215.23
317.849	20373.27
318.303	19337.77
318.757	18267.07
319.211	20225.22
319.665	17707.3
320.119	17968.36
320.572	25802.47
321.026	24160.01
321.48	20144.72
321.934	21988.27
322.387	22052.65
322.841	23844.51
323.295	21435.52
323.748	24718.89
324.202	25083.5
324.655	30199.48
325.108	42177.08
325.562	29803.3
326.015	35425.66
326.468	26798.64
326.921	30014.35
327.374	28011.4
327.827	29154.85
328.28	33037.93
328.733	22153.17
329.186	19506.59
329.639	18558.8
330.092	15668.43
330.545	14939.23
330.997	15065.68
331.45	16455.4
331.903	19284.71
332.355	33216.64
332.808	32336.78
333.26	26679.96
333.713	28946.07
334.165	29164.57
334.617	39005.56
335.069	31541.67
335.522	57036.48
335.974	63211.1
336.426	57785.37
336.878	40036.03
337.33	20311.04
337.782	19841.07
338.234	24840.03
338.686	29765.99
339.137	35313.88
339.589	33276.78
340.041	26076.13
340.493	22421.08
340.944	23010.44
341.396	24806.61
341.847	20877.23
342.299	24616.77
342.75	30048.51
343.201	26329.4
343.653	30280.68
344.104	37249.52
344.555	29350.29
345.006	45708.45
345.457	35001.63
345.908	27815.43
346.359	26188.62
346.81	21344.17
347.261	22532.04
347.712	22196.62
348.163	23803.27
348.613	24117.98
349.064	22522.74
349.515	19719.82
349.965	20251.47
350.416	24423.43
350.866	26790.36
351.317	30316.58
351.767	50139.53
352.217	63379.58
352.668	52734.88
353.118	48352.51
353.568	46673.85
354.018	36870.76
354.468	38905.37
354.918	27866.29
355.368	24415.54
355.818	34532.58
356.268	99436.82
356.718	416375.04
357.168	103568.93
357.617	51936.89
358.067	57816.81
358.517	54161.97
358.966	63647.33
359.416	71432.49
359.865	77374.07
360.315	92067.4
360.764	43018.54
361.213	24106.02
361.663	22828.05
362.112	28215.32
362.561	45573.23
363.01	34342.28
363.459	28916.21
363.908	31240.71
364.357	26527.93
364.806	44773.1
365.255	30738.29
365.703	28163.78
366.152	28202.57
366.601	22898.37
367.05	18594.27
367.498	16877.46
367.947	17644.81
368.395	18358.39
368.844	16271.56
369.292	19634.37
369.74	13546.44
370.189	20790.68
370.637	24310.08
371.085	20976.17
371.533	25536.52
371.981	24583.7
372.429	23448.19
372.877	24400.37
373.325	20412.03
373.773	20790.69
374.221	18483.06
374.669	22912.34
375.116	19829.01
375.564	19983.18
376.012	22334
376.459	18392.72
376.907	21972.66
377.354	26549.37
377.801	24739.59
378.249	28362.4
378.696	36262.72
379.143	43885.67
379.591	46868.2
380.038	79081.43
380.485	57078.93
380.932	61497.24
381.379	56204.54
381.826	41351.46
382.273	29368.58
382.72	25672.21
383.166	25006.95
383.613	16195.05
384.06	14602.36
384.506	16863.48
384.953	12374.31
385.4	12469.08
385.846	10929.34
386.292	10667.2
386.739	10419.27
387.185	10290.41
387.631	10286.96
388.078	9975.89
388.524	10651.51
388.97	9825.79
389.416	8196.22
389.862	8707.26
390.308	8235.83
390.754	8356.92
391.2	9053.58
391.645	9271.71
392.091	8859.89
392.537	8552.26
392.983	8571.26
393.428	8424.47
393.874	9027.8
394.319	9050.77
394.765	8578.02
395.21	8830.17
395.655	8288.59
396.101	7767.95
396.546	7015.09
396.991	7091.48
397.436	6592.74
397.881	6372.97
398.326	6051.04
398.771	5724.07
399.216	5011.24
399.661	4516.41
400.106	4504.51
400.551	4605.45
400.995	4135.24
401.44	4095.78
401.885	3848.75
402.329	3893.29
402.774	3737.99
403.218	3619.67
403.663	3487.96
404.107	3589.45
404.551	3618.48
404.995	3321.12
405.44	3203.71
405.884	3258.65
406.328	3153.58
406.772	3149.74
407.216	2871.61
407.66	2782.23
408.104	2646.58
408.547	2481.39
408.991	2402.21
409.435	2316.95
409.879	2286.99
410.322	2262.32
410.766	2184.9
411.209	2080.4
411.653	2000.51
412.096	1961.18
412.54	1961.12
412.983	1949.96
413.426	1958.86
413.869	1959.85
414.312	1923.84
414.756	1854.58
415.199	1769.91
415.642	1719.6
416.085	1722.6
416.527	1710.85
416.97	1741.68
417.413	1656.19
417.856	1642.16
418.298	1627.06
418.741	1619.88
419.184	1618.63
419.626	1691.79
420.069	1695.72
420.511	1708
420.953	1675.19
421.396	1659.28
421.838	1616.64
422.28	1654.17
422.722	1662.93
423.164	1687.68
423.606	1658.51
424.048	1655.69
424.49	1570.99
424.932	1563.35
425.374	1541.06
425.816	1567.24
426.258	1599.58
426.699	1617.81
427.141	1590.92
427.582	1614.11
428.024	1606.33
428.465	1596.68
428.907	1557.06
429.348	1538.11
429.789	1533.4
430.231	1496.41
430.672	1513.09
431.113	1474.31
431.554	1451.34
431.995	1414.94
432.436	1361.25
432.877	1327.49
433.318	1301.76
433.759	1295.19
434.2	1292.32
434.64	1277.64
435.081	1281.08
435.522	1212.99
435.962	1167.24
436.403	1140.55
436.843	1154.28
437.284	1128.62
437.724	1099.59
438.164	1101.45
438.604	1076.16
439.045	1034.43
439.485	991.85
439.925	969.62
440.365	944.29
440.805	931.83
441.245	918.38
441.685	885.81
442.125	878.45
442.564	880.97
443.004	860.04
443.444	855.8
443.883	855.58
444.323	848.29
444.762	848.79
445.202	858.49
445.641	871.98
446.081	865.1
446.52	868.9
446.959	858.74
447.398	836.64
447.837	825.23
448.276	808.98
448.716	815.32
449.154	820.56
449.593	802.98
450.032	801.03
450.471	785.98
450.91	786.68
451.349	784.15
451.787	780.34
452.226	791.27
452.664	791.33
453.103	793.6
453.541	791.25
453.98	789.95
454.418	795.07
454.856	781.9
455.295	779.74
455.733	785.2
456.171	790.48
456.609	792
457.047	792.24
457.485	803.27
457.923	803.53
458.361	793.69
458.798	796.51
459.236	793.6
459.674	798.56
460.111	801.86
460.549	794.75
460.987	791.09
461.424	788.65
461.862	784.26
462.299	771.94
462.736	770.93
463.173	773.8
463.611	764.52
464.048	762.6
464.485	769.24
464.922	763.53
465.359	758.46
465.796	747.47
466.233	740.71
466.67	733.87
467.106	732.32
467.543	725.35
467.98	716.35
468.416	697.85
468.853	691.87
469.29	670.97
469.726	663.5
470.162	646.29
470.599	637.42
471.035	631.76
471.471	616.65
471.907	612.51
472.344	607.76
472.78	608.54
473.216	615.86
473.652	608.98
474.088	607.23
474.523	604.49
474.959	610.26
475.395	605.72
475.831	602.53
476.266	605.84
476.702	603.25
477.138	596.86
477.573	594.94
478.008	593.49
478.444	595.54
478.879	600.87
479.314	603.36
479.75	602.06
480.185	603.66
480.62	609.12
481.055	612.29
481.49	617.33
481.925	626.47
482.36	637.58
482.795	654.87
483.229	673.38
483.664	687.52
484.099	690.35
484.534	701.81
484.968	710.07
485.403	712.33
485.837	711.8
486.271	710.63
486.706	711.02
487.14	703.07
487.574	692.16
488.009	684.66
488.443	678.68
488.877	686.23
489.311	688.39
489.745	696.01
490.179	702.91
490.613	715.35
491.046	721.06
491.48	726.73
491.914	726.3
492.348	731.68
492.781	735.69
493.215	737.13
493.648	737.86
494.082	743.13
494.515	742.66
494.948	749.11
495.382	753.98
495.815	758.65
496.248	764.32
496.681	778.01
497.114	789.51
497.547	799.66
497.98	812.87
498.413	818.34
498.846	827.92
499.279	836.3
499.711	839.87
500.144	840.53
500.577	850.31
501.009	860.71
501.442	869.84
501.874	870.96
502.306	872.59
502.739	879.25
503.171	893.3
503.603	895.82
504.036	904.67
504.468	910.31
504.9	921.8
505.332	927.55
505.764	931.04
506.196	937.52
506.627	950.96
507.059	962.96
507.491	969.62
507.923	966.5
508.354	979.85
508.786	988.68
509.217	1004.29
509.649	1016.79
510.08	1033.84
510.512	1047.6
510.943	1061.15
511.374	1069.59
511.805	1087.79
512.237	1105.9
512.668	1135.32
513.099	1159.96
513.53	1185.57
513.961	1202.28
514.391	1230.89
514.822	1261.23
515.253	1293.93
515.684	1314.59
516.114	1339.63
516.545	1357.2
516.975	1377.92
517.406	1392.02
517.836	1389.57
518.267	1391.96
518.697	1407.14
519.127	1408.33
519.558	1412.28
519.988	1412.63
520.418	1418.9
520.848	1432.96
521.278	1437.89
521.708	1456.35
522.138	1465.18
522.567	1492.55
522.997	1513.96
523.427	1525.17
523.857	1539.28
524.286	1545.64
524.716	1557.78
525.145	1573.27
525.575	1579.79
526.004	1590.35
526.433	1577.64
526.863	1575.41
527.292	1563.33
527.721	1566.74
528.15	1570.46
528.579	1568
529.008	1575.89
529.437	1594.58
529.866	1605.53
530.295	1621.56
530.724	1632.2
531.152	1654.75
531.581	1667.02
532.01	1683.54
532.438	1689.48
532.867	1702.8
533.295	1719
533.723	1723.2
534.152	1720.09
534.58	1720.36
535.008	1704.52
535.436	1705.96
535.865	1713.79
536.293	1726.96
536.721	1739.92
537.149	1764.13
537.576	1766.46
538.004	1779.03
538.432	1786.51
538.86	1785.33
539.287	1790.79
539.715	1803.86
540.143	1806.66
540.57	1802.1
540.998	1798.59
541.425	1777.67
541.852	1757.47
542.28	1754.88
542.707	1737.89
543.134	1724.92
543.561	1720.85
543.988	1714.26
544.415	1713.53
544.842	1707.75
545.269	1701.59
545.696	1703.11
546.123	1714.76
546.549	1704.76
546.976	1692.91
547.403	1692.81
547.829	1694.37
548.256	1695.75
548.682	1691.63
549.108	1684.3
549.535	1683.81
549.961	1684.71
550.387	1671.17
550.813	1666.32
551.24	1672.55
551.666	1672.18
552.092	1662.97
552.518	1656.39
552.943	1651.12
553.369	1657.68
553.795	1662.49
554.221	1663.62
554.646	1660.79
555.072	1672.12
555.498	1676.03
555.923	1683.9
556.349	1699.55
556.774	1708.45
557.199	1711.04
557.625	1716.23
558.05	1711.46
558.475	1722.06
558.9	1722.1
559.325	1716.19
559.75	1710.88
560.175	1705.72
560.6	1700.96
561.025	1699.17
561.449	1701.22
561.874	1707.88
562.299	1714.19
562.723	1721.62
563.148	1712.88
563.572	1717.16
563.997	1727.14
564.421	1733.63
564.846	1735.45
565.27	1740.17
565.694	1739.54
566.118	1751.89
566.542	1760
566.966	1755.08
567.39	1752.43
567.814	1744.19
568.238	1745.53
568.662	1751.16
569.086	1754.94
569.509	1763.65
569.933	1750.4
570.357	1744.94
570.78	1725.72
571.204	1715.51
571.627	1706.68
572.05	1707.46
572.474	1709.04
572.897	1698.08
573.32	1693.9
573.743	1686.78
574.166	1671.95
574.589	1674.03
575.012	1668.19
575.435	1668.83
575.858	1659.58
576.281	1650.19
576.704	1635.58
577.126	1624.61
577.549	1615.26
577.972	1605.46
578.394	1596.3
578.817	1591.06
579.239	1573.18
579.661	1561.68
580.084	1548.15
580.506	1537.44
580.928	1534.98
581.35	1525.66
581.772	1523.65
582.194	1512.37
582.616	1502.07
583.038	1488.47
583.46	1478.58
583.882	1476.43
584.303	1481.36
584.725	1478.37
585.147	1482.51
585.568	1493.81
585.99	1506.87
586.411	1513.27
586.833	1529.1
587.254	1531.54
587.675	1547.12
588.096	1560.26
588.518	1557.14
588.939	1541.68
589.36	1542.07
589.781	1530.43
590.202	1503.02
590.623	1494.85
591.043	1492.73
591.464	1479.88
591.885	1476.88
592.305	1470.84
592.726	1456.77
593.147	1458.37
593.567	1454.04
593.987	1445.36
594.408	1441.64
594.828	1440.14
595.248	1434.25
595.669	1415.65
596.089	1408.33
596.509	1402.03
596.929	1389.54
597.349	1390.63
597.769	1380.16
598.189	1373.84
598.608	1375.45
599.028	1378.27
599.448	1379.21
599.867	1367.72
600.287	1364.24
600.706	1360.65
601.126	1351.58
601.545	1351.61
601.965	1350.58
602.384	1346.35
602.803	1350
603.222	1345.84
603.641	1339.35
604.061	1335.99
604.48	1332.63
604.898	1341.78
605.317	1347.24
605.736	1348.83
606.155	1346.36
606.574	1338.7
606.992	1344.66
607.411	1340.68
607.829	1333.4
608.248	1329.95
608.666	1328.1
609.085	1327.95
609.503	1320.18
609.921	1314.96
610.339	1318.48
610.758	1317.84
611.176	1313.89
611.594	1304.93
612.012	1302.12
612.43	1306.31
612.847	1314.71
613.265	1316.91
613.683	1322.03
614.101	1324.11
614.518	1322.01
614.936	1314.09
615.353	1301.4
615.771	1298.98
616.188	1299.95
616.606	1296.98
617.023	1290.57
617.44	1276.66
617.857	1271.16
618.274	1263.16
618.691	1257.54
619.108	1249.54
619.525	1243.18
619.942	1249.33
620.359	1251.63
620.776	1247.83
621.192	1244.75
621.609	1243.16
622.026	1250.72
622.442	1255.94
622.859	1259.68
623.275	1253.45
623.691	1258.66
624.108	1270.03
624.524	1285.28
624.94	1286.56
625.356	1296.55
625.772	1309.13
626.188	1320.75
626.604	1322.9
627.02	1318.8
627.436	1316.8
627.852	1324.06
628.268	1336.77
628.683	1328.01
629.099	1319.18
629.514	1313.86
629.93	1318.27
630.345	1324.01
630.761	1321.27
631.176	1324.22
631.591	1319.04
632.007	1313.73
632.422	1311.23
632.837	1298.18
633.252	1296.64
633.667	1286.51
634.082	1278.93
634.497	1266.68
634.911	1247.59
635.326	1244.36
635.741	1228.93
636.155	1219.51
636.57	1221.29
636.984	1222.98
637.399	1228.41
637.813	1229.42
638.228	1229.93
638.642	1234.81
639.056	1225.92
639.47	1227.66
639.884	1220.57
640.298	1215.15
640.712	1216.26
641.126	1205.15
641.54	1197.5
641.954	1191.52
642.368	1179.01
642.781	1173.04
643.195	1157.21
643.609	1158.67
644.022	1153.32
644.436	1150.7
644.849	1138.75
645.262	1127
645.676	1130.82
646.089	1126.86
646.502	1113.44
646.915	1109.6
647.328	1093.06
647.741	1092.23
648.154	1079.72
648.567	1077.24
648.98	1063.48
649.393	1065.22
649.805	1061.53
650.218	1052.63
650.631	1036.34
651.043	1029.42
651.456	1024.58
651.868	1024.75
652.28	1042.29
652.693	1056.59
653.105	1064.17
653.517	1073.72
653.929	1072.92
654.341	1080.27
654.753	1068.87
655.165	1075.55
655.577	1074.52
655.989	1069.26
656.401	1061.55
656.813	1024.56
657.224	1003.84
657.636	974.52
658.047	957.36
658.459	939.99
658.87	931.8
659.282	920.79
659.693	900.05
660.104	884.64
660.515	871.5
660.926	871.26
661.338	868.58
661.749	863.2
662.159	854.47
662.57	848.48
662.981	844.27
663.392	836.27
663.803	840.1
664.213	838.37
664.624	833.53
665.035	836.4
665.445	822.51
665.855	815.52
666.266	806.92
666.676	805.02
667.086	797.61
667.497	796.36
667.907	788.86
668.317	779.31
668.727	775.87
669.137	777.73
669.547	776.3
669.956	778.13
670.366	779.76
670.776	781.22
671.186	784.39
671.595	787.7
672.005	790.06
672.414	789.82
672.824	788.64
673.233	791.51
673.642	793.73
674.052	795.96
674.461	797.6
674.87	802
675.279	798.23
675.688	799.34
676.097	800.59
676.506	796.1
676.915	809.45
677.323	811.08
677.732	808.84
678.141	807.15
678.549	793.97
678.958	792.18
679.366	789.83
679.775	795.15
680.183	804.2
680.592	808.46
681	813.96
681.408	806.54
681.816	814.51
682.224	822.49
682.632	832.41
683.04	863.77
683.448	887.32
683.856	919.18
684.264	953.19
684.671	984.58
685.079	1024.22
685.487	1067.12
685.894	1127.94
686.302	1175.68
686.709	1215.27
687.116	1261.57
687.524	1296.81
687.931	1327.8
688.338	1351.4
688.745	1370.8
689.152	1394.24
689.559	1427.93
689.966	1462.04
690.373	1473.74
690.78	1502.01
691.187	1555.01
691.593	1590.21
692	1619.41
692.407	1670.05
692.813	1733.05
693.22	1781.27
693.626	1828.98
694.032	1865.47
694.439	1925
694.845	1970.43
695.251	2033.91
695.657	2085.3
696.063	2170.49
696.469	2229.82
696.875	2283.76
697.281	2310.56
697.687	2344.81
698.093	2376.33
698.498	2438.18
698.904	2484.82
699.31	2558.92
699.715	2609.16
700.12	2686.52
700.526	2695.53
700.931	2753.72
701.337	2793.66
701.742	2817.15
702.147	2888.33
702.552	2910.7
702.957	2959.47
703.362	2972.85
703.767	2993.51
704.172	3024.21
704.577	2975.75
704.981	3014.36
705.386	3026.13
705.791	3017.09
706.195	3080.04
706.6	3084.59
707.004	3151.39
707.408	3121.01
707.813	3142.02
708.217	3128.69
708.621	3126.8
709.025	3210.33
709.43	3208.27
709.834	3258.49
710.237	3315.97
710.641	3301.57
711.045	3318.4
711.449	3310.16
711.853	3333.2
712.256	3366.76
712.66	3397.62
713.064	3460.35
713.467	3496.29
713.87	3591.47
714.274	3629.96
714.677	3722.64
715.08	3860.74
715.484	4004.73
715.887	4179.03
716.29	4350.97
716.693	4532.76
717.096	4738.48
717.499	4851.97
717.901	4867.48
718.304	4886.96
718.707	4904.21
719.109	4813.75
719.512	4781.49
719.915	4661.95
720.317	4610.32
720.719	4645.59
721.122	4615.32
721.524	4568.82
721.926	4532.61
722.328	4619.43
722.731	4609.13
723.133	4631.34
723.535	4797.15
723.937	4817.11
724.338	4861.23
724.74	4898.98
725.142	4852.8
725.544	4849.37
725.945	4874.72
726.347	4865.84
726.748	4859.31
727.15	4870.6
727.551	4836.16
727.952	4807.98
728.354	4778.68
728.755	4779.11
729.156	4737.81
729.557	4715.28
729.958	4611.21
730.359	4558.41
730.76	4542.41
731.161	4488.72
731.562	4466.37
731.962	4467.66
732.363	4412.69
732.763	4358.41
733.164	4383.81
733.564	4326.18
733.965	4242.5
734.365	4210.71
734.766	4235.7
735.166	4202.52
735.566	4154.56
735.966	4131.37
736.366	4126.07
736.766	4071.65
737.166	4096.83
737.566	4062.62
737.966	4040.65
738.365	4073.09
738.765	4069.55
739.165	4005.58
739.564	3981.56
739.964	4019.98
740.363	3978.12
740.763	3977.39
741.162	3968.74
741.561	3942.16
741.96	3900.76
742.36	3916.38
742.759	3922.25
743.158	3953.29
743.557	3962.89
743.955	3999.46
744.354	3960.11
744.753	4011.49
745.152	3976.5
745.55	4023.95
745.949	4017.65
746.348	4021.14
746.746	4037.41
747.144	4005.72
747.543	3987.3
747.941	4033.25
748.339	3971.57
748.737	3967.36
749.136	3960.57
749.534	4012.98
749.932	3989.63
750.33	4010.31
750.727	4057.16
751.125	4036.25
751.523	4019.56
751.921	4056.3
752.318	4026.37
752.716	4077.33
753.113	4088.95
753.511	4108.22
753.908	4109.68
754.305	4095.67
754.703	4146.15
755.1	4199.13
755.497	4248.68
755.894	4410.42
756.291	4562.7
756.688	4841.66
757.085	5213.33
757.482	5737.45
757.878	6313.59
758.275	6831.76
758.672	7544.65
759.068	8128.46
759.465	8954.72
759.861	10025.92
760.258	11262.64
760.654	11903.72
761.05	11808.83
761.447	11270.59
761.843	10485.63
762.239	9675.81
762.635	9308.38
763.031	8955.42
763.427	8454.06
763.822	7930.18
764.218	7409.36
764.614	6735.38
765.01	6280.88
765.405	5986.67
765.801	5764.53
766.196	5484.46
766.592	5327.12
766.987	5062.54
767.382	4881.05
767.778	4803.47
768.173	4691.21
768.568	4627.39
768.963	4521.98
769.358	4538.25
769.753	4498.32
770.148	4425.91
770.542	4422.45
770.937	4395.23
771.332	4473.16
771.726	4490.39
772.121	4439.2
772.515	4484.88
772.91	4472.25
773.304	4530.1
773.699	4473.95
774.093	4520.05
774.487	4567.93
774.881	4608.43
775.275	4607.12
775.669	4570.42
776.063	4610.05
776.457	4639.78
776.851	4579.64
777.245	4575.32
777.638	4607.06
778.032	4708
778.425	4677.83
778.819	4714.8
779.212	4678.49
779.606	4643.39
779.999	4661.07
780.392	4650.2
780.786	4721.9
781.179	4741.64
781.572	4778.66
781.965	4789.34
782.358	4738.08
782.751	4785.56
783.143	4742.84
783.536	4803.23
783.929	4843.96
784.322	4943.23
784.714	4964.87
785.107	4960.42
785.499	5019.88
785.891	5000.16
786.284	4984.25
786.676	5104.87
787.068	5092.42
787.46	5135.65
787.852	5153.01
788.245	5221.52
788.636	5242.62
789.028	5298.4
789.42	5330.41
789.812	5336.8
790.204	5419.15
790.595	5502.39
790.987	5333.64
791.378	5348.45
791.77	5458.69
792.161	5572.97
792.553	5622.04
792.944	5529.99
793.335	5472.11
793.726	5532.72
794.117	5608.36
794.508	5722.73
794.899	5696.35
795.29	5815.13
795.681	5865.39
796.072	5746.26
796.463	5594.33
796.853	5600.45
797.244	5733.64
797.634	5762.82
798.025	5759.77
798.415	5768.77
798.806	5840.84
799.196	5915.1
799.586	5957.6
799.976	5921.5
800.366	6113.88
800.756	6310.14
801.146	6272.4
801.536	6296.29
801.926	6359.07
802.316	6384.06
802.706	6441.6
803.095	6340.42
803.485	6423.25
803.874	6458.36
804.264	6681.99
804.653	6660.62
805.043	6784.04
805.432	6881.37
805.821	6880.35
806.21	6900.53
806.599	6998.47
806.988	7042.33
807.377	7130.38
807.766	7244.66
808.155	7484.16
808.544	7260.88
808.933	7276.3
809.321	7261.24
809.71	7508.97
810.098	7643.71
810.487	8031.63
810.875	8441.02
811.264	8457.6
811.652	8710.33
812.04	8830.08
812.428	8971.82
812.816	9617.81
813.204	9968.76
813.592	10429.21
813.98	10712.82
814.368	10637.98
814.756	11041.97
815.144	10967.06
815.531	11360.75
815.919	11292.76
816.306	11546.62
816.694	11280.79
817.081	11324.51
817.469	11608.49
817.856	11607.1
818.243	11832.25
818.63	12159.78
819.017	11800.47
819.404	11853.35
819.791	12172.92
820.178	12690.65
820.565	12902.29
820.952	13683.81
821.339	13270.88
821.725	13433.99
822.112	12814.45
822.498	12784.76
822.885	12897.67
823.271	12824.43
823.657	13178.9
824.044	13182.71
824.43	13244.81
824.816	13213.98
825.202	12847.48
825.588	13696.48
825.974	13717.7
826.36	14143.09
826.746	14172.29
827.132	14462.17
827.517	14438.73
827.903	13779.87
828.289	13811.63
828.674	13155.97
829.06	13072.23
829.445	13411.93
829.83	13718.39
830.216	14118.49
830.601	14435.6
830.986	14086.3
831.371	13979.64
831.756	14447.67
832.141	14096.95
832.526	14091.67
832.911	14329.94
833.295	14230.46
833.68	14623.61
834.065	14096.77
834.449	13317.43
834.834	13250.48
835.218	13252.08
835.603	13540.64
835.987	13366.36
836.371	14054.31
836.755	13969.17
837.139	14307.46
837.524	14511.05
837.908	14362.92
838.291	14419.61
838.675	14481.7
839.059	14659.58
839.443	14645.57
839.827	14445.93
840.21	14843.23
840.594	14720.85
840.977	14897.12
841.361	14878.87
841.744	15195.25
842.127	15065.92
842.511	15272.68
842.894	15770.44
843.277	16084.52
843.66	16540.59
844.043	16613.12
844.426	15937.63
844.809	15679.97
845.191	15707.89
845.574	15321.89
845.957	15017.07
846.339	14925.39
846.722	14484.76
847.104	14548.59
847.487	14404.75
847.869	14424.62
848.252	14663.52
848.634	14946.31
849.016	15174.12
849.398	15279.39
849.78	16003.43
850.162	16010.16
850.544	16366.37
850.926	16899.07
851.307	16822.25
851.689	17069.88
852.071	17451.88
852.452	17719.72
852.834	17706.21
853.215	18036.72
853.597	18168.78
853.978	18413.97
854.359	18801.9
854.741	17949.14
855.122	17865.67
855.503	17624.98
855.884	17740.86
856.265	17685.38
856.646	17785.51
857.026	17457.4
857.407	17403.96
857.788	17530.84
858.169	17771.42
858.549	17055.47
858.93	17589.27
859.31	17628.97
859.69	17805.22
860.071	17458.34
860.451	17280.54
860.831	16660.32
861.211	17630.43
861.591	18096.69
861.971	18076.22
862.351	18244.71
862.731	18562.12
863.111	18779.35
863.491	19056.09
863.87	19796.17
864.25	20086.81
864.629	19740.85
865.009	20165.03
865.388	20885.26
865.768	22376.87
866.147	22293.88
866.526	21043.55
866.905	21308.31
867.284	22506.13
867.663	21367.32
868.042	20479.21
868.421	20415.47
868.8	20749.42
869.179	20951.01
869.558	19721.57
869.936	18173.88
870.315	18489.86
870.693	18951.92
871.072	20429.25
871.45	19468.45
871.828	19714.08
872.207	20719.76
872.585	20401.23
872.963	20966.61
873.341	20246.21
873.719	20014.88
874.097	19776.79
874.475	20155.33
874.853	20610.53
875.23	19755.55
875.608	20565.83
875.986	22233.51
876.363	21250.59
876.741	21897.55
877.118	21342.92
877.495	22394.33
877.873	22761.87
878.25	23940.75
878.627	22961.19
879.004	23282.63
879.381	23169.67
879.758	22568.3
880.135	21017.16
880.512	22242.43
880.889	21661.64
881.265	21439.26
881.642	21264.69
882.019	21621.56
882.395	21209.83
882.772	22061.09
883.148	21109.69
883.524	21030.05
883.901	20921.18
884.277	21244.26
884.653	21115.99
885.029	21729.75
885.405	24082.75
885.781	23899.77
886.157	22927.84
886.532	23200.98
886.908	23185.74
887.284	25771.76
887.659	26607.31
888.035	27432.58
888.411	28154.12
888.786	28523.28
889.161	29521.35
889.537	28969.37
889.912	29896.35
890.287	29866.97
890.662	30636.91
891.037	30092.81
891.412	28070.98
891.787	27787.06
892.162	26812.5
892.536	27440.18
892.911	26409.89
893.286	25831.62
893.66	24790.47
894.035	25426.72
894.409	27684.4
894.784	26563.69
895.158	26998.28
895.532	28597.67
895.906	29387.67
896.281	30079.05
896.655	29599.93
897.029	33827.06
897.402	35250.1
897.776	39232.72
898.15	39100.12
898.524	38691.56
898.898	39209.21
899.271	43912.44
899.645	38039.97
900.018	36531.97
900.392	37880.75
900.765	38179.47
901.138	35312.65
901.511	34761.55
901.884	31911.46
902.258	29422.22
902.631	30407.13
903.003	34998.83
903.376	31571.85
903.749	35418.57
904.122	37922.95
904.495	41777.01
904.867	42311.2
905.24	36752.26
905.612	34219.9
905.985	34999.39
906.357	36609.23
906.729	34943.48
907.102	29842.66
907.474	28705.07
907.846	28878
908.218	28512.76
908.59	25193.04
908.962	24368.6
909.334	26249.87
909.705	27580.04
910.077	26777.43
910.449	27874.29
910.82	28633.9
911.192	31506.56
911.563	32729.83
911.935	35021.74
912.306	35063.73
912.677	36224.06
913.048	35850.12
913.419	38890.63
913.79	39122.98
914.161	41955.59
914.532	40105.31
914.903	36871.94
915.274	35014.34
915.645	34502.12
916.015	30347.24
916.386	28923.28
916.756	30776.75
917.127	31767.02
917.497	28382.3
917.868	30886.46
918.238	29352.1
918.608	30195.42
918.978	30820.02
919.348	32652.77
919.718	33761.54
920.088	32539.07
920.458	33817.99
920.828	35586.09
921.198	33718.31
921.567	36017.59
921.937	27887.2
922.306	28177.96
922.676	30391.76
923.045	25372.7
923.415	24107.91
923.784	21958.5
924.153	22591.02
924.522	22571.7
924.891	21223.53
925.26	22749.15
925.629	22219.03
925.998	25548.69
926.367	24934.3
926.736	23753.73
927.104	28281.99
927.473	30432.56
927.842	36758.81
928.21	36429.37
928.578	38297.52
928.947	36241.46
929.315	36453.81
929.683	42785.97
930.051	43159.15
930.42	50164.61
930.788	42881.36
931.156	42573.74
931.523	39879.69
931.891	36840.37
932.259	35356.74
932.627	40971.72
932.994	57982.69
933.362	47938.19
933.729	41623.46
934.097	39833.29
934.464	33671.73
934.831	38863.2
935.199	38306.99
935.566	37168.53
935.933	37673.51
936.3	45648.57
936.667	35564.68
937.034	32093.93
937.401	31763.14
937.767	27423.13
938.134	24434.97
938.501	34512.35
938.867	36784.64
939.234	62230.55
939.6	53114.44
939.967	58548.51
940.333	39202.15
940.699	33370.08
941.065	26770.55
941.431	35091.18
941.798	33831.83
942.163	44402.61
942.529	27697.35
942.895	25477.04
943.261	16482.84
943.627	21614.95
943.992	18908.87
944.358	18921.57
944.723	18973.68
945.089	18461.92
945.454	17058.15
945.82	18192.88
946.185	17477.49
946.55	20232.8
946.915	18164.19
947.28	21307.39
947.645	18772.47
948.01	17362.98
948.375	18149.45
948.74	21789.14
949.104	25426.16
949.469	36711.66
949.834	64936.66
950.198	61551.07
950.562	36918.43
950.927	30742.48
951.291	36964.57
951.655	31476.45
952.02	29535.02
952.384	22310.21
952.748	19434.3
953.112	18965.99
953.476	16484.26
953.839	15247.74
954.203	15113.11
954.567	18910.23
954.931	29769.81
955.294	25491.1
955.658	25618.82
956.021	43549.86
956.385	73868.8
956.748	108971.77
957.111	169108.34
957.474	189892.02
957.837	213877.12
958.2	161939.05
958.563	58245.74
958.926	39428.53
959.289	59828.26
959.652	66931.15
960.015	50238.1
960.377	72048.57
960.74	82170.09
961.102	141838.61
961.465	152486.09
961.827	81814.6
962.189	156904.37
962.552	108838.3
962.914	87214.14
963.276	56600.7
963.638	46779.82
964	46327.22
964.362	31326.5
964.724	30308.09
965.085	21632.32
965.447	17752.57
965.809	20186.18
966.17	20198.08
966.532	21871.93
966.893	20100.45
967.255	18301.79
967.616	21615.63
967.977	17331.22
968.338	18949.39
968.699	15568.54
969.061	15554.95
969.421	15650.51
969.782	17581.15
970.143	14861.45
970.504	15384.35
970.865	17485.79
971.225	17893.14
971.586	17503.48
971.946	24958.24
972.307	21641.29
972.667	28306.66
973.027	29195.44
973.388	35392.16
973.748	24079.43
974.108	26213.71
974.468	35489.76
974.828	27366.95
975.188	21061.96
975.548	19355.41
975.907	16245.33
976.267	18222.82
976.627	15300.3
976.986	15843.02
977.346	15099.65
977.705	14539.71
978.064	13253.67
978.424	11027.71
978.783	11395.97
979.142	13009.36
979.501	12452.46
979.86	13162.15
980.219	12687.68
980.578	16377.83
980.937	18348.49
981.296	16364.36
981.654	16834.42
982.013	26210.31
982.371	34022.99
982.73	31822.86
983.088	36009.92
983.447	38463.54
983.805	54959.74
984.163	114993.89
984.521	127616.53
984.879	187100.73
985.237	-304268.54
985.595	293256.62
985.953	72979.15
986.311	42136.95
986.669	24446.07
987.026	21119.61
987.384	28378.92
987.741	29361.22
988.099	20986.74
988.456	16742.75
988.814	15694.77
989.171	13658.66
989.528	13484.1
989.885	14220.66
990.242	11268.05
990.599	14053.61
990.956	11491.67
991.313	8048.05
991.67	6617.15
992.027	7026.32
992.383	6248.34
992.74	5476.36
993.096	5741.21
993.453	5951.27
993.809	6170.86
994.165	8223.93
994.522	7540.66
994.878	8318.62
995.234	10451.44
995.59	10299.55
995.946	9737.11
996.302	11117.84
996.658	12848.92
997.013	14136.74
997.369	16741.19
997.725	21387.97
998.08	13860.62
998.436	21344.63
998.791	29413.38
999.147	29366.25
999.502	32076.81
999.857	23333.95
1000.212	38088.36
1000.567	54294.24
1000.922	31449.8
1001.277	20053.65
1001.632	14906.5
1001.987	19167.37
1002.342	13713.89
1002.696	10973.02
1003.051	8763.17
1003.406	10572.2
1003.76	10527.11
1004.114	10349.83
1004.469	8691.71
1004.823	7183.31
1005.177	7750.63
1005.531	6132.78
1005.885	5448.25
1006.239	6173.83
1006.593	7754.25
1006.947	10366.47
1007.301	7810.69
1007.655	8505.85
1008.008	6247.67
1008.362	7008.62
1008.715	9993.77
1009.069	9072.07
1009.422	13684.18
1009.776	27405.44
1010.129	18147.51
1010.482	15138.86
1010.835	12787.21
1011.188	26578.03
1011.541	25009.93
1011.894	-152741.91
1012.247	451398.26
1012.6	30610.09
1012.952	19290.58
1013.305	9913.6
1013.657	7152.96
1014.01	6784.06
1014.362	5585.49
1014.715	4971.01
1015.067	4341.92
1015.419	4242.46
1015.771	3751.69
1016.123	3332.7
1016.475	3435.87
1016.827	3657.51
1017.179	3945.73
1017.531	3982.03
1017.883	4066.08
1018.234	3954.56
1018.586	4976.96
1018.938	5261.21
1019.289	7251.59
1019.64	8331.54
1019.992	7757.27
1020.343	7114.63
1020.694	5621.32
1021.045	4976.39
1021.396	5681.98
1021.747	6075.46
1022.098	7236.67
1022.449	5255.65
1022.8	4867.93
1023.151	3406.15
1023.501	3022.23
1023.852	3278.34
1024.202	3415.65
1024.553	3736.99
1024.903	3654.07
1025.253	3133.7
1025.604	2831.08
1025.954	3521.58
1026.304	4273.6
1026.654	4995.31
1027.004	7331.02
1027.354	11762.64
1027.703	11114.54
1028.053	14579.36
1028.403	21374.75
1028.753	30956.57
1029.102	42174.02
1029.452	217386.56
1029.801	9426.71
1030.15	6128.99
1030.499	5189.01
897.758	2709.7
901.051	2679.94
904.343	2714.06
907.636	2714.11
910.928	2777.24
914.22	2686.13
917.511	2694.9
920.803	2762.19
924.094	2784.23
927.384	2760.53
930.675	2726.45
933.965	2681
937.255	2681.95
940.544	2651.22
943.834	2584.81
947.123	2530.98
950.411	2627.57
953.7	2599.66
956.988	2562.29
960.276	2506.7
963.563	2592.75
966.851	2585.5
970.138	2644.61
973.424	2635.71
976.711	2585.29
979.997	2730.87
983.283	2763.16
986.568	2665.08
989.853	2687.21
993.138	2713.41
996.423	2791.98
999.708	2725.05
1002.992	2796.76
1006.275	2625.61
1009.559	2678.41
1012.842	2789.57
1016.125	2716.98
1019.408	2695.43
1022.69	2787.69
1025.972	2800.38
1029.254	2776.85
1032.536	2703.23
1035.817	2735.4
1039.098	2671.39
1042.379	2826.14
1045.659	2819.04
1048.939	2755.49
1052.219	2775.66
1055.498	2792.95
1058.778	2774.5
1062.057	2761.3
1065.335	2781.52
1068.614	2801.11
1071.892	2777.59
1075.17	2858.59
1078.447	2844.89
1081.724	2834.32
1085.001	2870.21
1088.278	2846.15
1091.554	2858.98
1094.83	2856.9
1098.106	2882.17
1101.382	2929.91
1104.657	2931.2
1107.932	2926.38
1111.206	2888.15
1114.481	2846.59
1117.755	2851.41
1121.029	2830.32
1124.302	2877.6
1127.575	2828.63
1130.848	2813.49
1134.121	2772.86
1137.393	2718.49
1140.665	2790.59
1143.937	2762.58
1147.208	2727.54
1150.48	2762.93
1153.75	2747.49
1157.021	2786.96
1160.291	2758.11
1163.561	2797.18
1166.831	2792.21
1170.101	2825.57
1173.37	2805.65
1176.639	2744.33
1179.907	2809.22
1183.176	2808.85
1186.444	2818.77
1189.711	2845.92
1192.979	2855.39
1196.246	2811.47
1199.513	2833.49
1202.78	2826.66
1206.046	2834.26
1209.312	2860.77
1212.578	2886.2
1215.843	2834.89
1219.108	2813.61
1222.373	2835.71
1225.638	2799.59
1228.902	2776.85
1232.166	2747.2
1235.43	2726.07
1238.693	2751.21
1241.956	2751.28
1245.219	2784.42
1248.482	2779.12
1251.744	2774.41
1255.006	2925.07
1258.268	2881.28
1261.529	2823.98
1264.79	2833.91
1268.051	2938.01
1271.312	2954.49
1274.572	2916.21
1277.832	2907.44
1281.092	2901.05
1284.351	2871.55
1287.61	2847.02
1290.869	2759.7
1294.128	2732.14
1297.386	2828.82
1300.644	2815.27
1303.902	2827.39
1307.159	2687.4
1310.416	2741.82
1313.673	2764.52
1316.93	2748.29
1320.186	2795.37
1323.442	2844.57
1326.697	2827.55
1329.953	2825.01
1333.208	2842.92
1336.463	2827.55
1339.717	2760.72
1342.972	2902.68
1346.226	2882.33
1349.479	2810.99
1352.733	2777.94
1355.986	2807.35
1359.238	2782.33
1362.491	2784.99
1365.743	2789.44
1368.995	2787.16
1372.247	2798.63
1375.498	2822.97
1378.749	2828.44
1382	2786.56
1385.251	2843.39
1388.501	2809.02
1391.751	2788.13
1395	2758.48
1398.25	2796.53
1401.499	2798.97
1404.748	2722.27
1407.996	2716.72
1411.244	2702.78
1414.492	2682.9
1417.74	2660.58
1420.987	2672.55
1424.234	2727.86
1427.481	2711.59
1430.728	2772.15
1433.974	2745.89
1437.22	2762.39
1440.465	2766.6
1443.711	2723.66
1446.956	2758.24
1450.201	2753.69
1453.445	2795.67
1456.689	2769.34
1459.933	2785.26
1463.177	2814.54
1466.42	2786.55
1469.663	2764.84
1472.906	2756.73
1476.148	2839.07
1479.391	2796.49
1482.633	2771.88
1485.874	2774.64
1489.115	2758.19
1492.356	2771.12
1495.597	2740.44
1498.838	2746.94
1502.078	2712.16
1505.318	2658.59
1508.557	2700.6
1511.797	2668.52
1515.036	2746
1518.274	2735.75
1521.513	2711.34
1524.751	2736.68
1527.989	2745.18
1531.227	2758.07
1534.464	2745.98
1537.701	2773.25
1540.938	2793.15
1544.174	2746.95
1547.41	2746.82
1550.646	2785.18
1553.882	2820.07
1557.117	2871.75
1560.352	2890.08
1563.587	2844.25
1566.821	2803.1
1570.055	2843.06
1573.289	2810.55
1576.523	2887.75
1579.756	2892.92
1582.989	2911.75
1586.222	2872.19
1589.454	2905.8
1592.686	2879.98
1595.918	2901.04
1599.15	2889.2
1602.381	2971.57
1605.612	2918.69
1608.843	3014.22
1612.073	2927.09
1615.303	2911.7
1618.533	2899.97
1621.762	2902.13
1624.992	2897.93
1628.221	2877.42
1631.449	2861.35
1634.678	2926.31
1637.906	2877.22
1641.134	2920.06
1644.361	2874.68
1647.588	2863.76
1650.815	2879.23
1654.042	2862.46
1657.269	2892.74
1660.495	2838.06
1663.72	2861.47
1666.946	2824.02
1670.171	2759.82
1673.396	2735.85
1676.621	2724.95
1679.845	2750.72
1683.069	2771.67
1686.293	2817.04
1689.517	2784.94
1692.74	2711.21
1695.963	2743.13
1699.185	2760.11
1702.408	2738.13
1705.63	2782.04
1708.852	2789.59
1712.073	2764.3
1715.294	2742.96
1718.515	2809.85
1721.736	2753.43
1724.956	2749.52
1728.176	2777.32
1731.396	2797.55
1734.616	2788.17
1737.835	2812.24
1741.054	2795.77
1744.272	2790.39
1747.491	2816.7
1750.709	2877.98
1753.927	2772.86
1757.144	2823.61
1760.361	2860.17
1763.578	2857.31
1766.795	2798.1
1770.011	2805.23
1773.227	2849.8
1776.443	2881.22
1779.658	2927.06
1782.874	2873.91
1786.089	2848.39
1789.303	2850.45
1792.518	2858.35
1795.732	2846.37
1798.945	2852.27
1802.159	2905.15
1805.372	2801.31
1808.585	2781.6
1811.797	2783.92
1815.01	2839.32
1818.222	2836.04
1821.434	2804.05
1824.645	2866.68
1827.856	2844.52
1831.067	2878.46
1834.278	2846.8
1837.488	2825.59
1840.698	2980.7
1843.908	2904.36
1847.117	2868.01
1850.326	2741.08
1853.535	2854.6
1856.744	2884.66
1859.952	2798.35
1863.16	2800.98
1866.368	2824.06
1869.575	2922.1
1872.782	2818.48
1875.989	2757.74
1879.196	2850.8
1882.402	2843.91
1885.608	2888.79
1888.814	2784.7
1892.019	2678.97
1895.224	2733.3
1898.429	2717.46
1901.634	2696.33
1904.838	2675.31
1908.042	2719.37
1911.246	2727.3
1914.449	2651.56
1917.652	2649.99
1920.855	2633.76
1924.058	2687.35
1927.26	2721.74
1930.462	2750.75
1933.664	2773.94
1936.865	2712.9
1940.066	2715.21
1943.267	2665.91
1946.467	2681.13
1949.668	2710.19
1952.868	2776.22
1956.067	2749.89
1959.267	2679.59
1962.466	2707.81
1965.665	2693.53
1968.863	2687.46
1972.061	2708.89
1975.259	2709.15
1978.457	2788.71
1981.654	2745.29
1984.852	2743.42
1988.048	2673.66
1991.245	2680.06
1994.441	2765.83
1997.637	2756.16
2000.833	2740.68
2004.028	2781.81
2007.223	2832.26
2010.418	2804.76
2013.613	2764.72
2016.807	2731.67
2020.001	2745.62
2023.194	2790.65
2026.388	2764.92
2029.581	2710.75
2032.774	2759.06
2035.966	2755.82
2039.158	2685.17
2042.35	2714.42
2045.542	2645.77
2048.733	2748.82
2051.924	2780.37
2055.115	2806.81
2058.306	2748.36
2061.496	2809.83
2064.686	2873.97
2067.875	2790.13
2071.065	2811.61
2074.254	2840.35
2077.442	2787.93
2080.631	2880.07
2083.819	2764.48
2087.007	2743.5
2090.195	2716.36
2093.382	2752.64
2096.569	2730.64
2099.756	2684.6
2102.942	2703.4
2106.128	2704.27
2109.314	2696.96
2112.5	2657.78
2115.685	2635
2118.87	2646.94
2122.055	2714.46
2125.239	2673.5
2128.424	2648.5
2131.608	2759.03
2134.791	2741.36
2137.974	2800.64
2141.157	2786.01
2144.34	2733.03
2147.523	2755.36
2150.705	2766.47
2153.887	2748.38
2157.068	2691.64
2160.25	2699.57
2163.431	2738.1
2166.611	2681.38
2169.792	2692.74
2172.972	2587.51
2176.152	2671.54
2179.331	2707.5
2182.511	2684.64
2185.69	2712.06
2188.868	2705.2
2192.047	2763.55
2195.225	2746.79
2198.403	2699.58
2201.58	2691.45
2204.758	2691.94
2207.935	2774.75
2211.111	2655.64
2214.288	2640.66
2217.464	2678.54
2220.64	2658.86
2223.815	2712.82
2226.991	2632.93
2230.166	2653.34
2233.34	2681.26
2236.515	2708.77
2239.689	2783.29
2242.863	2723.72
2246.036	2783.76
2249.209	2788.55
2252.382	2825.6
2255.555	2806.79
2258.727	2742.9
2261.9	2785.81
2265.071	2777.78
2268.243	2777.4
2271.414	2707
2274.585	2663.46
2277.756	2735.3
2280.926	2689.27
2284.096	2731.45
2287.266	2635.56
2290.436	2690.33
2293.605	2723.76
2296.774	2747.6
2299.942	2772.8
2303.111	2791.2
2306.279	2837.97
2309.447	2826.79
2312.614	2801.62
2315.781	2824.3
2318.948	2791.02
2322.115	2829.04
2325.281	2734.07
2328.447	2754.13
2331.613	2735.07
2334.779	2705.68
2337.944	2709.13
2341.109	2705.29
2344.274	2685.72
2347.438	2652.81
2350.602	2676.64
2353.766	2695.17
2356.929	2681.39
2360.092	2725.98
2363.255	2673.29
2366.418	2598.34
2369.58	2718.28
2372.742	2493.85
2375.904	2512.96
2379.066	2486.24
2382.227	2524.11
2385.388	2486.94
2388.548	2408.1
2391.709	2465.63
2394.869	2438.54
2398.029	2546.7
2401.188	2563.96
2404.347	2494.26
2407.506	2644.32
2410.665	2673.37
2413.823	2683.71
2416.981	2635.54
2420.139	2669.75
2423.296	2721.83
2426.453	2696.79
2429.61	2720.56
2432.767	2646.26
2435.923	2681.92
2439.079	2647.41
2442.235	2697.29
2445.391	2620.28
2448.546	2645.35
2451.701	2696.68
2454.855	2663.2
2458.009	2721.57
2461.163	2721.92
2464.317	2680.59
2467.471	2717.08
2470.624	2756.79
2473.777	2723.53
2476.929	2740.06
2480.082	2762.41
2483.234	2725.82
2486.385	2686.96
2489.537	2678.95
2492.688	2633.09
2495.839	2653.02
2498.989	2663.85
2502.14	2645.11
2505.29	2630.62
2508.439	2656.54
2511.589	2574.42
2514.738	2592.26
2517.887	2625.38
2521.035	2681.12
2524.183	2673.52
2527.331	2650.4
2530.479	2620.38
2533.627	2632.54
