Data from C_2_DIV_OH_2N_Splice17_12-23-07-564.txt Node
Date: Sat Mar 14 12:23:07 EDT 2020
User: sa697716
Spectrometer: FLMS03696
Trigger mode: 0
Integration Time (sec): 3.180400E-1
Scans to average: 20
Electric dark correction enabled: true
Nonlinearity correction enabled: true
Boxcar width: 5
XAxis mode: Wavelengths
Number of Pixels in Spectrum: 2048
>>>>>Begin Spectral Data<<<<<
187.83	-363734.24
188.298	2602.68
188.766	1442.15
189.233	1314.01
189.701	1776.32
190.169	2396.29
190.636	933.06
191.104	784.69
191.571	179.23
192.039	-31.13
192.506	-72.75
192.974	400.38
193.441	-597.4
193.908	-48.22
194.375	7.86
194.842	40.64
195.31	118.2
195.777	148.09
196.244	351.14
196.711	456.2
197.177	549.08
197.644	769.1
198.111	1312.59
198.578	1826.46
199.045	1464.81
199.511	2383.63
199.978	2740.19
200.445	2324.52
200.911	2573.6
201.378	2880.12
201.844	2576.99
202.31	4414.31
202.777	4591.46
203.243	2565.26
203.709	2454
204.176	2938.24
204.642	2430.89
205.108	2288.49
205.574	1861.17
206.04	1708.38
206.506	1599.58
206.972	1523.58
207.438	1471.29
207.903	1672.82
208.369	1458.67
208.835	1446.29
209.301	1515.57
209.766	1549.28
210.232	1536.24
210.697	1903.01
211.163	2353.11
211.628	3561.07
212.094	2981.49
212.559	3717.91
213.024	2326.68
213.49	2866.69
213.955	2808.2
214.42	2747.11
214.885	2576.29
215.35	2483.16
215.815	2404.8
216.28	2558.43
216.745	2093.34
217.21	2283.5
217.675	2088.21
218.14	2353.09
218.604	2646.3
219.069	3053.77
219.534	3232.06
219.998	3790.64
220.463	4635.57
220.927	5772.6
221.392	5488.15
221.856	5596.04
222.32	7091.87
222.785	8801.92
223.249	11140.76
223.713	12494.97
224.177	12542.45
224.642	16146.95
225.106	19926.02
225.57	21882.7
226.034	16317.5
226.497	24888.8
226.961	22544.61
227.425	26330.47
227.889	29294.21
228.353	29360.34
228.816	60744.88
229.28	58281.24
229.744	49185.47
230.207	29933.71
230.671	29462.07
231.134	48809.77
231.597	56400.49
232.061	56482.92
232.524	55191.03
232.987	38068.86
233.45	34369.78
233.914	30904.76
234.377	31727.29
234.84	29119.58
235.303	34415.47
235.766	38472.58
236.229	39823.81
236.691	25116.08
237.154	28268.67
237.617	21299.46
238.08	21868.37
238.542	25640.37
239.005	18346.63
239.468	18224.16
239.93	17204.85
240.393	15668.2
240.855	13778.25
241.317	14130.01
241.78	17222.17
242.242	17838.81
242.704	19270.83
243.166	16795.94
243.629	15264
244.091	17605.44
244.553	19324.77
245.015	20809.36
245.477	26960.03
245.939	39584.8
246.4	42084.12
246.862	40953.55
247.324	38638.01
247.786	43298.46
248.247	56850.87
248.709	58837.5
249.17	44089.48
249.632	41591.04
250.093	48281
250.555	41759.49
251.016	25522.8
251.477	24256.6
251.939	26216.59
252.4	27561.12
252.861	32843.52
253.322	30578.27
253.783	36406.86
254.244	47263.19
254.705	37300.93
255.166	33194.47
255.627	32679.85
256.088	46056.47
256.549	48891.18
257.009	42107.47
257.47	51108.28
257.931	41631.75
258.391	31201.53
258.852	32189.24
259.312	33762.64
259.773	41755.55
260.233	35313.08
260.694	29810.73
261.154	33855.68
261.614	27192.89
262.074	24352.11
262.534	25315.51
262.994	23873.99
263.455	31813.4
263.915	26789.61
264.374	25250.74
264.834	27591.83
265.294	30623.02
265.754	31732.81
266.214	30075.3
266.673	28199.2
267.133	35608.52
267.593	35327.5
268.052	43232.7
268.512	37628.37
268.971	45410.85
269.431	49822.48
269.89	44581.08
270.349	66754.26
270.809	74420.08
271.268	66820.37
271.727	149930.84
272.186	97011.4
272.645	72741.6
273.104	52490.12
273.563	76019.54
274.022	59800.04
274.481	50859.6
274.94	39194.84
275.399	29169.57
275.857	33990.2
276.316	46013.41
276.775	40965.91
277.233	40379.43
277.692	37809.29
278.15	42776.91
278.609	43967.85
279.067	40672.65
279.525	37748.65
279.984	48759.78
280.442	58515.57
280.9	57635.52
281.358	37894.3
281.816	35260.88
282.274	34496.86
282.732	35647.14
283.19	35787.68
283.648	30903.25
284.106	32929.19
284.564	33499.79
285.021	31036.83
285.479	23118.39
285.937	21023.58
286.394	18438.37
286.852	18968.92
287.309	19941.44
287.767	19244.3
288.224	18315.95
288.682	20106.32
289.139	22047.12
289.596	20180.82
290.053	20980.02
290.511	26493
290.968	32118.73
291.425	43608.66
291.882	36318.52
292.339	31607.03
292.796	31404.9
293.252	29582.32
293.709	23481.04
294.166	21042.66
294.623	23245.84
295.079	22317.11
295.536	22435.05
295.992	20386.77
296.449	20182.92
296.905	20995.27
297.362	20153.57
297.818	21213.74
298.274	21998.43
298.731	22446.08
299.187	22231.54
299.643	23906.93
300.099	28947.98
300.555	31764.32
301.011	26559.75
301.467	25570.81
301.923	29939.28
302.379	29218.47
302.835	28692.63
303.291	28749.59
303.746	32720.2
304.202	41362.35
304.658	41553.23
305.113	27947.11
305.569	27381.01
306.024	29193.35
306.479	27848.49
306.935	23476.74
307.39	25687.56
307.845	23721.77
308.301	23879
308.756	23288.31
309.211	22446.38
309.666	22987.16
310.121	28535.24
310.576	28997.72
311.031	28768.55
311.486	32929.54
311.94	32943.88
312.395	43985.62
312.85	82651.05
313.305	406129.29
313.759	2101280.74
314.214	152470.03
314.668	120815.91
315.123	101688
315.577	36469.86
316.032	32483.43
316.486	40719.26
316.94	32095.66
317.394	22369.28
317.849	17406.56
318.303	16504.38
318.757	15578.54
319.211	17244.84
319.665	15110.18
320.119	15288.19
320.572	21942.52
321.026	20508.23
321.48	17102.76
321.934	18675.75
322.387	18728.24
322.841	20236.5
323.295	18177.44
323.748	20970.98
324.202	21233.99
324.655	25490.84
325.108	35652.94
325.562	25206.97
326.015	29965.47
326.468	22653.13
326.921	25362.26
327.374	23660.88
327.827	24633.45
328.28	27972.23
328.733	18730.57
329.186	16484.94
329.639	15744.01
330.092	13271.76
330.545	12628.02
330.997	12742.82
331.45	13920.55
331.903	16296.49
332.355	28044.93
332.808	27275.55
333.26	22521.02
333.713	24485.69
334.165	24671.63
334.617	32879.1
335.069	26594.46
335.522	48131.51
335.974	53358.5
336.426	48745.76
336.878	33792.85
337.33	17170.09
337.782	16773.42
338.234	20987.18
338.686	25117.46
339.137	29822.83
339.589	28157.91
340.041	22053.24
340.493	18959.97
340.944	19374.04
341.396	20891.53
341.847	17560.97
342.299	20669.66
342.75	25237.75
343.201	22068.51
343.653	25405.78
344.104	31218.81
344.555	24566.87
345.006	38229.76
345.457	29291.7
345.908	23327.45
346.359	21938.69
346.81	17876.27
347.261	18862.94
347.712	18570.32
348.163	19916.25
348.613	20150.87
349.064	18845.73
349.515	16524.71
349.965	16991.49
350.416	20464.15
350.866	22485.37
351.317	25460.8
351.767	42230.16
352.217	53459.83
352.668	44509.5
353.118	40773.63
353.568	39362.05
354.018	31110.32
354.468	32803.03
354.918	23487.18
355.368	20541.39
355.818	29013.99
356.268	83467.71
356.718	348704.78
357.168	86773.3
357.617	43489.64
358.067	48384.45
358.517	45358.43
358.966	53140.81
359.416	59591.13
359.865	64587.31
360.315	77038.5
360.764	35990.8
361.213	20185.03
361.663	19181.97
362.112	23713.78
362.561	38378.43
363.01	28999.71
363.459	24444.28
363.908	26533.98
364.357	22547.9
364.806	38156.91
365.255	26278.77
365.703	24135.32
366.152	24198.6
366.601	19641.12
367.05	15950.83
367.498	14506.91
367.947	15176.57
368.395	15789.25
368.844	13990.46
369.292	16914.33
369.74	11704.62
370.189	17951.37
370.637	21043.45
371.085	18196.92
371.533	22250.62
371.981	21503.98
372.429	20538.79
372.877	21466.6
373.325	18017.54
373.773	18407.98
374.221	16435.8
374.669	20480.46
375.116	17806.17
375.564	18024.76
376.012	20267.59
376.459	16757.31
376.907	20109.72
377.354	24423.97
377.801	22839.63
378.249	26403.09
378.696	33936.78
379.143	41374.65
379.591	44326.48
380.038	75328.87
380.485	54841.39
380.932	59578.99
381.379	54862.38
381.826	40718.67
382.273	29176.12
382.72	25756.27
383.166	25298.32
383.613	16548.81
384.06	15030.84
384.506	17514.46
384.953	12997.89
385.4	13203.52
385.846	11677.88
386.292	11520.96
386.739	11376.57
387.185	11372.4
387.631	11487.59
388.078	11256.15
388.524	12164.64
388.97	11357.89
389.416	9577.71
389.862	10278.16
390.308	9832.31
390.754	10069.66
391.2	11007.17
391.645	11369.15
392.091	10932.24
392.537	10638.01
392.983	10747.15
393.428	10622.25
393.874	11463.53
394.319	11566.32
394.765	11031.16
395.21	11419.2
395.655	10776.18
396.101	10152.8
396.546	9208.93
396.991	9356.07
397.436	8736.08
397.881	8469.38
398.326	8083.39
398.771	7664.82
399.216	6738.84
399.661	6091.81
400.106	6083.03
400.551	6241.07
400.995	5618.34
401.44	5570.68
401.885	5251.5
402.329	5316.7
402.774	5105.24
403.218	4931.4
403.663	4761.35
404.107	4898.5
404.551	4936.28
404.995	4536.07
405.44	4376.82
405.884	4441.42
406.328	4306.03
406.772	4290.49
407.216	3903.01
407.66	3780.69
408.104	3600.55
408.547	3373.88
408.991	3262.81
409.435	3144.07
409.879	3096.89
410.322	3052.8
410.766	2946.88
411.209	2796.87
411.653	2684.16
412.096	2631.37
412.54	2628.49
412.983	2606.52
413.426	2606.19
413.869	2604.48
414.312	2550.67
414.756	2456.98
415.199	2343.83
415.642	2269.47
416.085	2269.13
416.527	2249.59
416.97	2281.07
417.413	2162.48
417.856	2139.28
418.298	2116.98
418.741	2101.14
419.184	2094.75
419.626	2182.99
420.069	2182.55
420.511	2194.25
420.953	2144
421.396	2122
421.838	2065.83
422.28	2110.43
422.722	2118.78
423.164	2152.58
423.606	2114.82
424.048	2108.95
424.49	1999
424.932	1986.43
425.374	1957.98
425.816	1993.68
426.258	2030.44
426.699	2053.18
427.141	2021.1
427.582	2050.79
428.024	2036.17
428.465	2023.72
428.907	1974.1
429.348	1946.94
429.789	1941.77
430.231	1897.71
430.672	1918.08
431.113	1874.19
431.554	1844.17
431.995	1795.46
432.436	1728.23
432.877	1685.99
433.318	1651.99
433.759	1641.91
434.2	1642.93
434.64	1626.86
435.081	1631.2
435.522	1544.32
435.962	1487.91
436.403	1453.09
436.843	1474.4
437.284	1444.45
437.724	1408.1
438.164	1414.81
438.604	1386.01
439.045	1332.04
439.485	1276.23
439.925	1250.05
440.365	1221.75
440.805	1205.09
441.245	1192.33
441.685	1152.42
442.125	1143.94
442.564	1153.02
443.004	1126.94
443.444	1125.51
443.883	1129.66
444.323	1125.23
444.762	1133.56
445.202	1151.24
445.641	1172.87
446.081	1169.24
446.52	1178.93
446.959	1168.15
447.398	1139.44
447.837	1129.15
448.276	1109.34
448.716	1121.32
449.154	1132.51
449.593	1105.68
450.032	1103.11
450.471	1085.59
450.91	1088.23
451.349	1085.15
451.787	1085.71
452.226	1103.61
452.664	1104.77
453.103	1109.79
453.541	1109.95
453.98	1107.68
454.418	1116.27
454.856	1098.44
455.295	1098.38
455.733	1108.34
456.171	1116.78
456.609	1119.14
457.047	1120.81
457.485	1137.33
457.923	1139.26
458.361	1125.79
458.798	1132.37
459.236	1130.73
459.674	1142.12
460.111	1147.71
460.549	1138.1
460.987	1135.61
461.424	1131.7
461.862	1127.4
462.299	1110.72
462.736	1111.17
463.173	1116.77
463.611	1101.81
464.048	1098.9
464.485	1106.87
464.922	1098.28
465.359	1091.8
465.796	1071.16
466.233	1062.94
466.67	1051.91
467.106	1048.19
467.543	1037.7
467.98	1023.39
468.416	1000.37
468.853	993.2
469.29	964.62
469.726	953.07
470.162	927.77
470.599	920.52
471.035	912.14
471.471	890.41
471.907	886.99
472.344	880.56
472.78	881.98
473.216	892.83
473.652	881.02
474.088	879.69
474.523	875.9
474.959	884.54
475.395	876.51
475.831	870.58
476.266	875.18
476.702	871.9
477.138	862.26
477.573	859.71
478.008	855.53
478.444	859.78
478.879	866.08
479.314	870.46
479.75	869.72
480.185	874.94
480.62	883.33
481.055	888.38
481.49	895.63
481.925	909.97
482.36	925.39
482.795	953.69
483.229	981.74
483.664	1003.82
484.099	1010.72
484.534	1028.78
484.968	1040.69
485.403	1047.7
485.837	1050.65
486.271	1051.83
486.706	1057
487.14	1049.69
487.574	1034.35
488.009	1027
488.443	1020.98
488.877	1033.22
489.311	1039.53
489.745	1054.54
490.179	1066.49
490.613	1087.44
491.046	1099.99
491.48	1110.59
491.914	1114.53
492.348	1127.38
492.781	1136.84
493.215	1143.45
493.648	1149.22
494.082	1161.61
494.515	1164.95
494.948	1180.8
495.382	1193.15
495.815	1204.22
496.248	1216.23
496.681	1241.51
497.114	1263.18
497.547	1285.06
497.98	1309.74
498.413	1322.32
498.846	1341.1
499.279	1359.48
499.711	1370.14
500.144	1376.27
500.577	1395.48
501.009	1415.5
501.442	1433.09
501.874	1435.95
502.306	1439.53
502.739	1450.81
503.171	1477
503.603	1481.71
504.036	1496.1
504.468	1504.42
504.9	1522.91
505.332	1532.63
505.764	1538.33
506.196	1547.72
506.627	1569.85
507.059	1589.23
507.491	1602.29
507.923	1594.35
508.354	1613.87
508.786	1626.91
509.217	1650.6
509.649	1668.92
510.08	1694.41
510.512	1713.97
510.943	1731.51
511.374	1742.09
511.805	1766.57
512.237	1788.93
512.668	1832.24
513.099	1867.69
513.53	1901.72
513.961	1923.92
514.391	1961.97
514.822	1999.72
515.253	2043.11
515.684	2068.86
516.114	2101.46
516.545	2119.86
516.975	2145.78
517.406	2157.86
517.836	2146.91
518.267	2140.28
518.697	2152.67
519.127	2144.38
519.558	2143.15
519.988	2135.79
520.418	2137.55
520.848	2149
521.278	2148.61
521.708	2143.65
522.138	2149.11
522.567	2181.51
522.997	2207.12
523.427	2216.9
523.857	2229.45
524.286	2231.63
524.716	2241.1
525.145	2256.86
525.575	2260.86
526.004	2270.49
526.433	2265.6
526.863	2258.34
527.292	2235.24
527.721	2233.44
528.15	2232.87
528.579	2227
529.008	2233.68
529.437	2257.24
529.866	2269.05
530.295	2287.07
530.724	2297.87
531.152	2327.59
531.581	2340.57
532.01	2359.25
532.438	2366.32
532.867	2381.57
533.295	2402.43
533.723	2408.07
534.152	2402.52
534.58	2398.42
535.008	2374.81
535.436	2373.27
535.865	2381.95
536.293	2398.46
536.721	2418.39
537.149	2448.44
537.576	2450.37
538.004	2464.17
538.432	2473.12
538.86	2469.53
539.287	2478.13
539.715	2494.85
540.143	2499.19
540.57	2492.95
540.998	2487
541.425	2455.67
541.852	2428.59
542.28	2425.61
542.707	2404.1
543.134	2385.73
543.561	2379.9
543.988	2369.81
544.415	2369.12
544.842	2361.07
545.269	2352.03
545.696	2353.64
546.123	2368.79
546.549	2355.47
546.976	2338.75
547.403	2336.99
547.829	2337.41
548.256	2339.81
548.682	2333.39
549.108	2321.33
549.535	2319.32
549.961	2321.22
550.387	2304.03
550.813	2296.15
551.24	2302.78
551.666	2303.22
552.092	2291.57
552.518	2283.32
552.943	2275.16
553.369	2287.22
553.795	2296.34
554.221	2299.61
554.646	2296.11
555.072	2309.93
555.498	2318.93
555.923	2333.19
556.349	2354.98
556.774	2368.05
557.199	2372.84
557.625	2383.49
558.05	2377.91
558.475	2394.19
558.9	2396
559.325	2389.56
559.75	2386.07
560.175	2381.97
560.6	2377.56
561.025	2379.87
561.449	2386.66
561.874	2399.58
562.299	2410.16
562.723	2425.24
563.148	2418.47
563.572	2429.68
563.997	2449.72
564.421	2464.96
564.846	2472.47
565.27	2484.81
565.694	2488.7
566.118	2512.36
566.542	2530.44
566.966	2530.8
567.39	2532.91
567.814	2526.34
568.238	2535.47
568.662	2551.04
569.086	2563.65
569.509	2583.79
569.933	2570.97
570.357	2570.72
570.78	2549.92
571.204	2541.08
571.627	2536.35
572.05	2542.7
572.474	2551.26
572.897	2542.73
573.32	2540.02
573.743	2534.69
574.166	2515.78
574.589	2525.95
575.012	2522.83
575.435	2529.43
575.858	2524.2
576.281	2514.96
576.704	2498.78
577.126	2487.89
577.549	2478.47
577.972	2471.71
578.394	2462.14
578.817	2456.94
579.239	2434.72
579.661	2419.6
580.084	2401.16
580.506	2386.15
580.928	2384.07
581.35	2374.36
581.772	2373.3
582.194	2356.3
582.616	2341.92
583.038	2327.09
583.46	2317.64
583.882	2316.89
584.303	2328.66
584.725	2326.8
585.147	2331.54
585.568	2353.78
585.99	2375.31
586.411	2389.21
586.833	2417.09
587.254	2421.29
587.675	2445.98
588.096	2469.32
588.518	2465.26
588.939	2445.03
589.36	2446.16
589.781	2438.07
590.202	2394.16
590.623	2384.56
591.043	2384.22
591.464	2367.8
591.885	2366.43
592.305	2359.98
592.726	2340.27
593.147	2343.52
593.567	2335.85
593.987	2326.25
594.408	2319.22
594.828	2321.22
595.248	2313.07
595.669	2283.26
596.089	2273.71
596.509	2265.11
596.929	2244.48
597.349	2247.54
597.769	2233.97
598.189	2224.91
598.608	2229.13
599.028	2234.69
599.448	2236.54
599.867	2217.55
600.287	2216.14
600.706	2211.41
601.126	2199.09
601.545	2200.65
601.965	2201.64
602.384	2196.91
602.803	2205.78
603.222	2200.02
603.641	2192.17
604.061	2188.25
604.48	2186.85
604.898	2202.91
605.317	2216.13
605.736	2222.78
606.155	2220.65
606.574	2210.4
606.992	2224.12
607.411	2220.57
607.829	2214.68
608.248	2214.79
608.666	2217.36
609.085	2222.65
609.503	2214.47
609.921	2208.73
610.339	2218.45
610.758	2226.3
611.176	2224.71
611.594	2215.51
612.012	2216.14
612.43	2226.63
612.847	2244.35
613.265	2251.73
613.683	2265.16
614.101	2273.55
614.518	2274.45
614.936	2264.01
615.353	2244.07
615.771	2245.6
616.188	2250.76
616.606	2250.4
617.023	2243.11
617.44	2223.72
617.857	2218.08
618.274	2208.22
618.691	2201.91
619.108	2189.08
619.525	2183.95
619.942	2199.94
620.359	2207.74
620.776	2203.34
621.192	2199.5
621.609	2198.86
622.026	2212.55
622.442	2225.78
622.859	2234.84
623.275	2225.33
623.691	2239.04
624.108	2260.58
624.524	2289.05
624.94	2291.38
625.356	2311.39
625.772	2338.8
626.188	2363.47
626.604	2369.66
627.02	2363.11
627.436	2360.98
627.852	2374.09
628.268	2396.4
628.683	2382.22
629.099	2367.75
629.514	2360.06
629.93	2367.27
630.345	2375.56
630.761	2368.65
631.176	2374.77
631.591	2363.11
632.007	2351.65
632.422	2349.86
632.837	2332.5
633.252	2326.89
633.667	2307.96
634.082	2292.22
634.497	2270.58
634.911	2235.02
635.326	2229.43
635.741	2199.23
636.155	2184.32
636.57	2187.29
636.984	2187.39
637.399	2188.69
637.813	2190.51
638.228	2190.57
638.642	2200.4
639.056	2184.46
639.47	2186.84
639.884	2173.24
640.298	2164.95
640.712	2164.96
641.126	2145.32
641.54	2132.41
641.954	2127.07
642.368	2106.35
642.781	2092.07
643.195	2061.43
643.609	2064.08
644.022	2055.93
644.436	2050.81
644.849	2030.99
645.262	2012.5
645.676	2019.23
646.089	2012.63
646.502	1985.47
646.915	1979.16
647.328	1951.35
647.741	1949.5
648.154	1926.18
648.567	1920.09
648.98	1897
649.393	1898.44
649.805	1893.96
650.218	1881.36
650.631	1854.14
651.043	1844.58
651.456	1835.89
651.868	1840.49
652.28	1877.61
652.693	1907.73
653.105	1925.49
653.517	1948.08
653.929	1954.41
654.341	1966.9
654.753	1948.24
655.165	1964.68
655.577	1966.98
655.989	1963.85
656.401	1955.37
656.813	1888.73
657.224	1854.79
657.636	1806.07
658.047	1774.88
658.459	1741.27
658.87	1731.48
659.282	1713.56
659.693	1677.2
660.104	1650.98
660.515	1628.81
660.926	1627.67
661.338	1626.77
661.749	1617.13
662.159	1600.47
662.57	1595.89
662.981	1589.71
663.392	1575.86
663.803	1584.63
664.213	1582.21
664.624	1575.95
665.035	1581.46
665.445	1554.94
665.855	1539.17
666.266	1522.27
666.676	1516.77
667.086	1496.93
667.497	1492.02
667.907	1477.8
668.317	1456.35
668.727	1442.56
669.137	1441.09
669.547	1433.46
669.956	1435.46
670.366	1435.66
670.776	1436.14
671.186	1441.43
671.595	1445.41
672.005	1449.28
672.414	1443.87
672.824	1439.09
673.233	1449.52
673.642	1451.35
674.052	1454.08
674.461	1456.39
674.87	1464.73
675.279	1458.29
675.688	1460.43
676.097	1461.68
676.506	1456.94
676.915	1485.26
677.323	1490.42
677.732	1488.1
678.141	1488.36
678.549	1471.79
678.958	1473.69
679.366	1476.15
679.775	1490.08
680.183	1511.92
680.592	1529.77
681	1546.1
681.408	1541.57
681.816	1566
682.224	1592.95
682.632	1621.08
683.04	1689.68
683.448	1749.86
683.856	1820.21
684.264	1901.64
684.671	1980.94
685.079	2071.34
685.487	2171.49
685.894	2305.22
686.302	2415.58
686.709	2501.57
687.116	2603.09
687.524	2676.68
687.931	2733.93
688.338	2778.56
688.745	2811.73
689.152	2845.49
689.559	2898.77
689.966	2944.81
690.373	2943.49
690.78	2975.64
691.187	3050.02
691.593	3089.26
692	3116.99
692.407	3176.52
692.813	3256.6
693.22	3304.53
693.626	3357.56
694.032	3384.05
694.439	3453.66
694.845	3493.86
695.251	3558.99
695.657	3606.43
696.063	3706.58
696.469	3765.71
696.875	3813.27
697.281	3815.88
697.687	3833.42
698.093	3837.76
698.498	3895.54
698.904	3926.69
699.31	4002.04
699.715	4039.14
700.12	4116.24
700.526	4092.21
700.931	4137.73
701.337	4160.91
701.742	4160.14
702.147	4228.41
702.552	4223.02
702.957	4260.68
703.362	4246.6
703.767	4244.7
704.172	4255
704.577	4161.1
704.981	4184.94
705.386	4171.33
705.791	4129.07
706.195	4188.24
706.6	4165.59
707.004	4231.26
707.408	4163.8
707.813	4169.72
708.217	4127.44
708.621	4103.85
709.025	4189.38
709.43	4164.01
709.834	4208.43
710.237	4263.57
710.641	4220.32
711.045	4219.21
711.449	4189.55
711.853	4198.45
712.256	4219.17
712.66	4237.86
713.064	4299.85
713.467	4324.03
713.87	4423.9
714.274	4449.5
714.677	4545.92
715.08	4697.55
715.484	4858.56
715.887	5053.03
716.29	5240.07
716.693	5437.96
717.096	5668.47
717.499	5783.19
717.901	5786.71
718.304	5792.75
718.707	5797.89
719.109	5670.75
719.512	5621.76
719.915	5462.8
720.317	5387.11
720.719	5417.18
721.122	5369.08
721.524	5299.61
721.926	5241.47
722.328	5327.85
722.731	5305.28
723.133	5316.8
723.535	5494.29
723.937	5499.83
724.338	5540.05
724.74	5567.74
725.142	5489.77
725.544	5478.69
725.945	5495.46
726.347	5482.31
726.748	5464.36
727.15	5466.46
727.551	5422.96
727.952	5387.54
728.354	5350.27
728.755	5342.39
729.156	5293.08
729.557	5272.44
729.958	5143.98
730.359	5082.72
730.76	5057.45
731.161	4993.09
731.562	4962.07
731.962	4957.02
732.363	4889.24
732.763	4822.02
733.164	4850.02
733.564	4782.06
733.965	4689.39
734.365	4655.61
734.766	4677.82
735.166	4636.18
735.566	4580.65
735.966	4551.76
736.366	4544.15
736.766	4481.76
737.166	4505.95
737.566	4463.7
737.966	4433.93
738.365	4465.48
738.765	4453.81
739.165	4381.34
739.564	4353.3
739.964	4391.5
740.363	4344.68
740.763	4340.38
741.162	4328.58
741.561	4298.96
741.96	4252.41
742.36	4271.03
742.759	4273.84
743.158	4308.79
743.557	4319.33
743.955	4352.91
744.354	4307.52
744.753	4359.33
745.152	4318.26
745.55	4368.25
745.949	4359.49
746.348	4359.22
746.746	4372.44
747.144	4333.59
747.543	4308.37
747.941	4350.36
748.339	4288.11
748.737	4281.2
749.136	4274.06
749.534	4334.34
749.932	4305.28
750.33	4326.06
750.727	4376.65
751.125	4353.05
751.523	4338.34
751.921	4380.79
752.318	4349.65
752.716	4401.56
753.113	4414.13
753.511	4436.7
753.908	4434.89
754.305	4420.53
754.703	4478.88
755.1	4534.85
755.497	4588.9
755.894	4764.21
756.291	4925.83
756.688	5228.75
757.085	5629.9
757.482	6193.89
757.878	6808.47
758.275	7367.49
758.672	8135.02
759.068	8758.53
759.465	9651.79
759.861	10797.34
760.258	12127.11
760.654	12816.32
761.05	12710.13
761.447	12121.87
761.843	11280.76
762.239	10416.54
762.635	10019.29
763.031	9639.95
763.427	9098.18
763.822	8526.3
764.218	7969.58
764.614	7237.01
765.01	6747.64
765.405	6431.61
765.801	6195.38
766.196	5892.46
766.592	5719.01
766.987	5431.77
767.382	5236.07
767.778	5150.77
768.173	5029.78
768.568	4961.78
768.963	4850.45
769.358	4869.03
769.753	4826.41
770.148	4748.32
770.542	4746.66
770.937	4718.58
771.332	4802.52
771.726	4821.6
772.121	4764.92
772.515	4816.2
772.91	4802.34
773.304	4866.89
773.699	4804.48
774.093	4850.76
774.487	4902.04
774.881	4941.36
775.275	4941.58
775.669	4902.71
776.063	4942.69
776.457	4978.73
776.851	4911.85
777.245	4905.77
777.638	4934.76
778.032	5040.46
778.425	5008.48
778.819	5048.28
779.212	5011.08
779.606	4971.72
779.999	4990.81
780.392	4976.78
780.786	5050.25
781.179	5069.39
781.572	5109.96
781.965	5123.54
782.358	5072.68
782.751	5125.78
783.143	5078.67
783.536	5146.26
783.929	5186.73
784.322	5290.36
784.714	5317.54
785.107	5311.79
785.499	5375.34
785.891	5353.59
786.284	5336.29
786.676	5464.15
787.068	5445.92
787.46	5497.38
787.852	5512.15
788.245	5588.96
788.636	5615.98
789.028	5677.41
789.42	5713.26
789.812	5723.65
790.204	5811
790.595	5900.05
790.987	5725.02
791.378	5746.57
791.77	5862.97
792.161	5985.46
792.553	6034.76
792.944	5932.98
793.335	5872.65
793.726	5939.41
794.117	6018.95
794.508	6145.03
794.899	6117.35
795.29	6239.84
795.681	6291.15
796.072	6158.23
796.463	5994.96
796.853	6004.76
797.244	6146.21
797.634	6173.4
798.025	6173.03
798.415	6183.41
798.806	6265.48
799.196	6342.6
799.586	6392.56
799.976	6357.82
800.366	6567.81
800.756	6781.66
801.146	6748.57
801.536	6775.81
801.926	6841.97
802.316	6864.39
802.706	6931.33
803.095	6813.22
803.485	6906.14
803.874	6937.86
804.264	7174.08
804.653	7153.8
805.043	7281.57
805.432	7378.4
805.821	7381.65
806.21	7406.01
806.599	7513.08
806.988	7556.19
807.377	7656.83
807.766	7771.67
808.155	8033.83
808.544	7794.94
808.933	7805.64
809.321	7791.69
809.71	8055.28
810.098	8197.78
810.487	8611.99
810.875	9050.43
811.264	9062.21
811.652	9326.04
812.04	9459.54
812.428	9603.2
812.816	10294.94
813.204	10672.96
813.592	11166.88
813.98	11474.87
814.368	11393.4
814.756	11825.33
815.144	11752.65
815.531	12179.79
815.919	12113.47
816.306	12386.88
816.694	12108.89
817.081	12155.49
817.469	12468.59
817.856	12471.59
818.243	12714.1
818.63	13063.39
819.017	12687.6
819.404	12741.63
819.791	13086.07
820.178	13629.06
820.565	13869.24
820.952	14709.26
821.339	14264.17
821.725	14433.18
822.112	13758.59
822.498	13725.34
822.885	13842.68
823.271	13754.27
823.657	14132.98
824.044	14135.96
824.43	14216.71
824.816	14187.25
825.202	13803.6
825.588	14725.88
825.974	14744.06
826.36	15213.91
826.746	15250.64
827.132	15581.3
827.517	15564.47
827.903	14853.51
828.289	14897.51
828.674	14194.41
829.06	14099.56
829.445	14458.84
829.83	14782.86
830.216	15214.25
830.601	15549.69
830.986	15175.11
831.371	15048.54
831.756	15554.29
832.141	15168.43
832.526	15157.3
832.911	15405.18
833.295	15295.9
833.68	15717.33
834.065	15153.56
834.449	14323.44
834.834	14257.49
835.218	14257.47
835.603	14563.76
835.987	14369.98
836.371	15120.8
836.755	15024.68
837.139	15385.47
837.524	15604.79
837.908	15436.8
838.291	15497.85
838.675	15559.51
839.059	15745.92
839.443	15735.85
839.827	15522.1
840.21	15954.59
840.594	15816.88
840.977	16010.34
841.361	15993.92
841.744	16329.63
842.127	16191
842.511	16403.87
842.894	16941.18
843.277	17289.75
843.66	17775.35
844.043	17862.26
844.426	17135.68
844.809	16852.47
845.191	16882.34
845.574	16468.61
845.957	16140.53
846.339	16044.8
846.722	15578.63
847.104	15641.93
847.487	15480.22
847.869	15488.66
848.252	15741.42
848.634	16041.7
849.016	16285.31
849.398	16394.49
849.78	17166.05
850.162	17174.13
850.544	17552.26
850.926	18117.66
851.307	18029.07
851.689	18292.12
852.071	18701.98
852.452	18989.83
852.834	18970.07
853.215	19331.47
853.597	19469.86
853.978	19737.33
854.359	20156.97
854.741	19258.48
855.122	19169.26
855.503	18921.26
855.884	19035.36
856.265	18985.22
856.646	19095.27
857.026	18741.58
857.407	18678.31
857.788	18820.08
858.169	19080.47
858.549	18306.26
858.93	18868.77
859.31	18910.72
859.69	19101.89
860.071	18740.66
860.451	18542.15
860.831	17864.76
861.211	18916.06
861.591	19417.36
861.971	19390.03
862.351	19567.24
862.731	19912.09
863.111	20149.76
863.491	20449.69
863.87	21235.54
864.25	21541.1
864.629	21183.46
865.009	21649.44
865.388	22425.81
865.768	24028.23
866.147	23944.61
866.526	22609.92
866.905	22882.15
867.284	24166.44
867.663	22949.91
868.042	21995.38
868.421	21923.89
868.8	22281.23
869.179	22496.29
869.558	21175.92
869.936	19520.34
870.315	19868.67
870.693	20349.2
871.072	21939.75
871.45	20907.24
871.828	21173.65
872.207	22269.32
872.585	21932.49
872.963	22537.19
873.341	21766.11
873.719	21501.33
874.097	21239.54
874.475	21642.6
874.853	22134.18
875.23	21216.36
875.608	22085.37
875.986	23881.49
876.363	22834.11
876.741	23523.76
877.118	22914.59
877.495	24037.94
877.873	24433.67
878.25	25705.42
878.627	24649.19
879.004	24994.11
879.381	24865.64
879.758	24213.05
880.135	22538.31
880.512	23827.31
880.889	23193.45
881.265	22963.96
881.642	22770.14
882.019	23158.72
882.395	22691.76
882.772	23592.32
883.148	22566.77
883.524	22480.15
883.901	22355.77
884.277	22691.58
884.653	22541.75
885.029	23198.27
885.405	25687.39
885.781	25477.54
886.157	24429.76
886.532	24723.5
886.908	24700.42
887.284	27472.95
887.659	28359.05
888.035	29242
888.411	29997.58
888.786	30404.51
889.161	31453.4
889.537	30879.61
889.912	31885.62
890.287	31863.01
890.662	32692.33
891.037	32114.27
891.412	29939.68
891.787	29647.51
892.162	28608.53
892.536	29273.41
892.911	28167.47
893.286	27573.15
893.66	26463.51
894.035	27129.55
894.409	29528.13
894.784	28340.29
895.158	28805.67
895.532	30521.3
895.906	31361.22
896.281	32103.5
896.655	31597.75
897.029	36116.25
897.402	37618.88
897.776	41855.99
898.15	41719.52
898.524	41264.96
898.898	41809.17
899.271	46823.11
899.645	40551.45
900.018	38943.78
900.392	40391.63
900.765	40714.95
901.138	37674.1
901.511	37107.96
901.884	34077.6
902.258	31427.99
902.631	32479.48
903.003	37366.31
903.376	33710.79
903.749	37789.12
904.122	40433.01
904.495	44502.85
904.867	45074.04
905.24	39112.33
905.612	36397.57
905.985	37209.59
906.357	38906.11
906.729	37167.89
907.102	31755.19
907.474	30527.21
907.846	30719.58
908.218	30317.01
908.59	26782.84
908.962	25887.11
909.334	27883.95
909.705	29294.99
910.077	28450.13
910.449	29619.51
910.82	30418.38
911.192	33482.05
911.563	34774.33
911.935	37219.33
912.306	37259.97
912.677	38482.86
913.048	38088.29
913.419	41316.75
913.79	41532.96
914.161	44522.68
914.532	42551.95
914.903	39111.35
915.274	37132.03
915.645	36607.9
916.015	32210.62
916.386	30710.54
916.756	32672.98
917.127	33730.07
917.497	30147.76
917.868	32828.91
918.238	31186.59
918.608	32074.91
918.978	32725
919.348	34648.1
919.718	35791.38
920.088	34481.58
920.458	35831.16
920.828	37700.47
921.198	35734.05
921.567	38150.98
921.937	29535.41
922.306	29823.7
922.676	32167.66
923.045	26842.33
923.415	25483.11
923.784	23200.62
924.153	23853
924.522	23824.33
924.891	22400.88
925.26	23979.57
925.629	23413.66
925.998	26907.74
926.367	26277.3
926.736	25020.09
927.104	29799.13
927.473	32043.37
927.842	38712.61
928.21	38342.4
928.578	40310.76
928.947	38111.35
929.315	38356.13
929.683	44996.03
930.051	45387.51
930.42	52656.68
930.788	45015.13
931.156	44691.95
931.523	41906.71
931.891	38751.08
932.259	37226.31
932.627	43144.21
932.994	61075.29
933.362	50470.03
933.729	43815.77
934.097	41910.81
934.464	35484.69
934.831	40919.06
935.199	40305.66
935.566	39093.09
935.933	39646.76
936.3	48004.53
936.667	37344.84
937.034	33695.48
937.401	33331.3
937.767	28738.19
938.134	25593.8
938.501	36080.93
938.867	38460.07
939.234	65053.58
939.6	55467.18
939.967	60983.26
940.333	40812.31
940.699	34788.52
941.065	27918.26
941.431	36567.82
941.798	35307.35
942.163	46327.31
942.529	28942.57
942.895	26653.65
943.261	17219.04
943.627	22607.58
943.992	19788
944.358	19805.26
944.723	19882.11
945.089	19351.98
945.454	17902.3
945.82	19112.97
946.185	18379.27
946.55	21309.16
946.915	19115.16
947.28	22454.1
947.645	19772.07
948.01	18253.25
948.375	19050.45
948.74	22803.19
949.104	26630.45
949.469	38433.22
949.834	67902.86
950.198	64292.5
950.562	38494.86
950.927	32046.74
951.291	38518.96
951.655	32795.51
952.02	30759.98
952.384	23267.8
952.748	20280.11
953.112	19776.68
953.476	17200.51
953.839	15891.79
954.203	15731.66
954.567	19698.45
954.931	31028.23
955.294	26577.21
955.658	26713.37
956.021	45453.14
956.385	76963.17
956.748	113479.86
957.111	175950.05
957.474	197415.31
957.837	222670.35
958.2	168459.28
958.563	60515.51
958.926	40891.86
959.289	62034.81
959.652	69349.46
960.015	52057.11
960.377	74723.9
960.74	85275.98
961.102	147187.35
961.465	158245.2
961.827	84681.99
962.189	162540.38
962.552	112740.15
962.914	90486.18
963.276	58702.96
963.638	48503.09
964	48033.25
964.362	32457
964.724	31373.66
965.085	22362.99
965.447	18310.76
965.809	20879.83
966.17	20894.07
966.532	22599.22
966.893	20712.31
967.255	18830.82
967.616	22232.94
967.977	17800.85
968.338	19426.32
968.699	15963.21
969.061	15955.05
969.421	16075.51
969.782	18014.48
970.143	15213.77
970.504	15760.7
970.865	17922.64
971.225	18328.13
971.586	17951.95
971.946	25585.14
972.307	22253.89
972.667	29091.56
973.027	29997.92
973.388	36378.64
973.748	24738.75
974.108	26971.24
974.468	36463.29
974.828	28112.87
975.188	21602.41
975.548	19805.33
975.907	16610.7
976.267	18633.13
976.627	15656.34
976.986	16209.81
977.346	15443.52
977.705	14886.01
978.064	13546
978.424	11280.99
978.783	11666.24
979.142	13335.42
979.501	12759.29
979.86	13492.01
980.219	12978.27
980.578	16744.4
980.937	18753.94
981.296	16675.16
981.654	17150.26
982.013	26699.59
982.371	34592.9
982.73	32302.83
983.088	36572.52
983.447	39058.38
983.805	55853.95
984.163	116912.74
984.521	129638.81
984.879	190005.94
985.237	-309244.63
985.595	297791.11
985.953	73977.07
986.311	42854.97
986.669	24919.73
987.026	21507.42
987.384	28915.92
987.741	29917.42
988.099	21402.02
988.456	17091.25
988.814	16025.74
989.171	13950.09
989.528	13758.57
989.885	14521.2
990.242	11478.7
990.599	14270.56
990.956	11697.14
991.313	8185.85
991.67	6702.04
992.027	7087.34
992.383	6298.36
992.74	5518.68
993.096	5789.91
993.453	6005.14
993.809	6225.58
994.165	8293.93
994.522	7601.71
994.878	8363.21
995.234	10510.7
995.59	10394.61
995.946	9837.35
996.302	11195.61
996.658	12947.54
997.013	14268.84
997.369	16920.4
997.725	21676.77
998.08	14054.39
998.436	21723.81
998.791	29964.33
999.147	29854.36
999.502	32536.82
999.857	23648.64
1000.212	38609.07
1000.567	54858.56
1000.922	31627.17
1001.277	20078.34
1001.632	14914.13
1001.987	19216.27
1002.342	13732.36
1002.696	10995.89
1003.051	8775.01
1003.406	10646.32
1003.76	10607.33
1004.114	10454.48
1004.469	8810.5
1004.823	7294.25
1005.177	7890.49
1005.531	6246.79
1005.885	5547.66
1006.239	6263.87
1006.593	7842.75
1006.947	10505.42
1007.301	7871.89
1007.655	8591.6
1008.008	6320.89
1008.362	7101.63
1008.715	10146.33
1009.069	9206.2
1009.422	13871.28
1009.776	27771.37
1010.129	18398.97
1010.482	15397.42
1010.835	12993.34
1011.188	27045.48
1011.541	25400.4
1011.894	-154927.43
1012.247	455920.65
1012.6	30991.93
1012.952	19535.62
1013.305	10019.51
1013.657	7213.6
1014.01	6854.99
1014.362	5648.98
1014.715	5037.06
1015.067	4388.57
1015.419	4308.61
1015.771	3816.11
1016.123	3384.39
1016.475	3476.35
1016.827	3713.34
1017.179	4014.01
1017.531	4043.31
1017.883	4115.33
1018.234	3977.58
1018.586	5023.63
1018.938	5311.09
1019.289	7303.62
1019.64	8353.01
1019.992	7792.95
1020.343	7156.76
1020.694	5645.9
1021.045	4967.1
1021.396	5690.61
1021.747	6133.69
1022.098	7369.21
1022.449	5327.71
1022.8	4951.73
1023.151	3445.66
1023.501	3061.08
1023.852	3332.65
1024.202	3448.29
1024.553	3797.35
1024.903	3724.38
1025.253	3164.95
1025.604	2848.87
1025.954	3531.3
1026.304	4310.29
1026.654	5033.55
1027.004	7384.37
1027.354	11934.33
1027.703	11221.57
1028.053	14731.92
1028.403	21478.21
1028.753	31183.62
1029.102	42661.99
1029.452	218864.47
1029.801	9426.53
1030.15	6094.79
1030.499	5155.54
897.758	2547.5
901.051	2504.4
904.343	2538.43
907.636	2539.54
910.928	2601.39
914.22	2514.77
917.511	2521.96
920.803	2580.78
924.094	2592.09
927.384	2577.26
930.675	2543.25
933.965	2500.25
937.255	2511.04
940.544	2476.42
943.834	2435.36
947.123	2376.52
950.411	2468.75
953.7	2442.92
956.988	2413.15
960.276	2357.91
963.563	2431.22
966.851	2428.06
970.138	2483.21
973.424	2476.84
976.711	2429.04
979.997	2538.22
983.283	2576.77
986.568	2488.53
989.853	2498.79
993.138	2526.23
996.423	2606.78
999.708	2548.01
1002.992	2602.98
1006.275	2460.22
1009.559	2494.29
1012.842	2604.44
1016.125	2538.05
1019.408	2521.32
1022.69	2599.92
1025.972	2621.97
1029.254	2596.64
1032.536	2534.21
1035.817	2558.34
1039.098	2508.47
1042.379	2627.13
1045.659	2634.98
1048.939	2570.43
1052.219	2591.29
1055.498	2597.1
1058.778	2586.29
1062.057	2566.99
1065.335	2589.79
1068.614	2605.56
1071.892	2591.06
1075.17	2665.17
1078.447	2652.99
1081.724	2643.84
1085.001	2679.1
1088.278	2651.69
1091.554	2664.74
1094.83	2656.25
1098.106	2688.12
1101.382	2728.89
1104.657	2731.32
1107.932	2725.97
1111.206	2690.3
1114.481	2649.88
1117.755	2653.92
1121.029	2636.27
1124.302	2691.35
1127.575	2643.88
1130.848	2637.28
1134.121	2597.16
1137.393	2549.75
1140.665	2616.96
1143.937	2591.55
1147.208	2551.26
1150.48	2595.95
1153.75	2578.95
1157.021	2606.63
1160.291	2576.36
1163.561	2622.05
1166.831	2608.08
1170.101	2640.25
1173.37	2611.26
1176.639	2556.29
1179.907	2612.62
1183.176	2620.75
1186.444	2625.29
1189.711	2655.63
1192.979	2663.15
1196.246	2621.02
1199.513	2640.21
1202.78	2637.58
1206.046	2644.72
1209.312	2672.52
1212.578	2695.73
1215.843	2652.35
1219.108	2625.92
1222.373	2650.46
1225.638	2615.13
1228.902	2605.18
1232.166	2569.46
1235.43	2548.26
1238.693	2573.07
1241.956	2571.63
1245.219	2611.21
1248.482	2599.73
1251.744	2595.17
1255.006	2735.35
1258.268	2689.9
1261.529	2637.17
1264.79	2643.26
1268.051	2747.08
1271.312	2763.42
1274.572	2728.63
1277.832	2716.8
1281.092	2706.6
1284.351	2684.11
1287.61	2663.38
1290.869	2585.87
1294.128	2566.1
1297.386	2645.89
1300.644	2634.34
1303.902	2643.04
1307.159	2506.32
1310.416	2558.16
1313.673	2584.04
1316.93	2569.84
1320.186	2612.88
1323.442	2655.47
1326.697	2645.97
1329.953	2635.26
1333.208	2657.31
1336.463	2637.24
1339.717	2581.44
1342.972	2710.63
1346.226	2687.83
1349.479	2624.02
1352.733	2597.82
1355.986	2616.92
1359.238	2594.83
1362.491	2594.28
1365.743	2597.94
1368.995	2595
1372.247	2607.4
1375.498	2629.57
1378.749	2649.28
1382	2605.74
1385.251	2654.18
1388.501	2615.38
1391.751	2603.5
1395	2572.19
1398.25	2607.11
1401.499	2617.46
1404.748	2550.24
1407.996	2538.43
1411.244	2526.65
1414.492	2508.94
1417.74	2485.89
1420.987	2494.7
1424.234	2551.16
1427.481	2528.48
1430.728	2589.11
1433.974	2561.09
1437.22	2571.02
1440.465	2570.69
1443.711	2543.09
1446.956	2575.46
1450.201	2557.94
1453.445	2604.97
1456.689	2585.42
1459.933	2596.72
1463.177	2626.48
1466.42	2600.59
1469.663	2580.62
1472.906	2577.81
1476.148	2642.99
1479.391	2623.38
1482.633	2588.32
1485.874	2600.45
1489.115	2587.97
1492.356	2591.4
1495.597	2564.86
1498.838	2569.6
1502.078	2538.68
1505.318	2495.75
1508.557	2536.14
1511.797	2518.97
1515.036	2565.71
1518.274	2559.87
1521.513	2528.3
1524.751	2549.07
1527.989	2560.76
1531.227	2577.5
1534.464	2572.63
1537.701	2585.44
1540.938	2602.98
1544.174	2557.13
1547.41	2553.93
1550.646	2591.71
1553.882	2629.89
1557.117	2685.5
1560.352	2697.6
1563.587	2655.51
1566.821	2617.2
1570.055	2648.67
1573.289	2622.23
1576.523	2691.87
1579.756	2699.41
1582.989	2717.17
1586.222	2678.26
1589.454	2712.57
1592.686	2688.14
1595.918	2712.46
1599.15	2703.8
1602.381	2773.22
1605.612	2732.57
1608.843	2827.93
1612.073	2744.63
1615.303	2729.64
1618.533	2724.34
1621.762	2722.06
1624.992	2708.54
1628.221	2697.01
1631.449	2684.39
1634.678	2736.1
1637.906	2692.89
1641.134	2727.78
1644.361	2687.17
1647.588	2675.74
1650.815	2692.3
1654.042	2669.03
1657.269	2701.61
1660.495	2656.77
1663.72	2674.68
1666.946	2639.12
1670.171	2589.5
1673.396	2564.16
1676.621	2553.81
1679.845	2567.71
1683.069	2582.8
1686.293	2622.96
1689.517	2599.34
1692.74	2534.62
1695.963	2563.93
1699.185	2582.13
1702.408	2558.1
1705.63	2596.22
1708.852	2609.31
1712.073	2582.32
1715.294	2573.02
1718.515	2633.77
1721.736	2582.38
1724.956	2572.38
1728.176	2598.05
1731.396	2619.06
1734.616	2606.08
1737.835	2636.36
1741.054	2615.61
1744.272	2606.17
1747.491	2635.71
1750.709	2684.26
1753.927	2599.25
1757.144	2640.67
1760.361	2685.07
1763.578	2673.44
1766.795	2619.15
1770.011	2621.58
1773.227	2658.36
1776.443	2693.13
1779.658	2737.92
1782.874	2680.31
1786.089	2660.6
1789.303	2661.58
1792.518	2667.16
1795.732	2655.19
1798.945	2666.29
1802.159	2713.9
1805.372	2624.35
1808.585	2610.17
1811.797	2613.02
1815.01	2656.9
1818.222	2666.12
1821.434	2645.67
1824.645	2703.96
1827.856	2690.54
1831.067	2724.36
1834.278	2678.74
1837.488	2661.88
1840.698	2807.2
1843.908	2736.91
1847.117	2701.3
1850.326	2597.37
1853.535	2688.14
1856.744	2707.23
1859.952	2620.12
1863.16	2626.13
1866.368	2647.73
1869.575	2751.35
1872.782	2642.31
1875.989	2579.67
1879.196	2654.15
1882.402	2646.03
1885.608	2687.01
1888.814	2600.35
1892.019	2501.53
1895.224	2555.79
1898.429	2532.93
1901.634	2512.86
1904.838	2490.45
1908.042	2537.64
1911.246	2549.82
1914.449	2491.33
1917.652	2483.28
1920.855	2465.3
1924.058	2509.42
1927.26	2546.52
1930.462	2573.87
1933.664	2603.82
1936.865	2542.68
1940.066	2550.8
1943.267	2500.42
1946.467	2512.03
1949.668	2536.16
1952.868	2606.91
1956.067	2586.21
1959.267	2519.78
1962.466	2545.71
1965.665	2528.85
1968.863	2523.95
1972.061	2537.69
1975.259	2536.18
1978.457	2612.79
1981.654	2570.88
1984.852	2573.19
1988.048	2509.9
1991.245	2508.67
1994.441	2595.5
1997.637	2573.54
2000.833	2556.17
2004.028	2594.78
2007.223	2649.41
2010.418	2630.04
2013.613	2586.83
2016.807	2562.76
2020.001	2571.02
2023.194	2607.22
2026.388	2584.52
2029.581	2528.57
2032.774	2582.11
2035.966	2587.84
2039.158	2521.36
2042.35	2546.7
2045.542	2472.62
2048.733	2568.31
2051.924	2586.17
2055.115	2607.08
2058.306	2556.77
2061.496	2615.23
2064.686	2679.19
2067.875	2590.36
2071.065	2600.05
2074.254	2625.54
2077.442	2576.93
2080.631	2666.15
2083.819	2568.61
2087.007	2550.22
2090.195	2525.44
2093.382	2555.85
2096.569	2538.16
2099.756	2490.33
2102.942	2521.25
2106.128	2530.54
2109.314	2520.38
2112.5	2489.79
2115.685	2463.31
2118.87	2472.24
2122.055	2539.36
2125.239	2507.28
2128.424	2484.48
2131.608	2576.15
2134.791	2560.81
2137.974	2613.19
2141.157	2600.06
2144.34	2556.36
2147.523	2567.04
2150.705	2583.5
2153.887	2563.51
2157.068	2516.94
2160.25	2514.27
2163.431	2547.35
2166.611	2500.44
2169.792	2516.36
2172.972	2415.55
2176.152	2486.37
2179.331	2520.21
2182.511	2505.14
2185.69	2534.54
2188.868	2526.87
2192.047	2577.45
2195.225	2573.59
2198.403	2527.45
2201.58	2516.68
2204.758	2511.34
2207.935	2592.1
2211.111	2487.46
2214.288	2472.03
2217.464	2512.38
2220.64	2477.21
2223.815	2531.6
2226.991	2455.45
2230.166	2474.74
2233.34	2506.59
2236.515	2527.7
2239.689	2595.48
2242.863	2544.27
2246.036	2599.95
2249.209	2595.95
2252.382	2623.92
2255.555	2619.92
2258.727	2560.48
2261.9	2598.69
2265.071	2589.96
2268.243	2589.08
2271.414	2526.35
2274.585	2496.26
2277.756	2557.73
2280.926	2512.4
2284.096	2553.35
2287.266	2465.98
2290.436	2518.44
2293.605	2547.06
2296.774	2576.74
2299.942	2592.84
2303.111	2610.22
2306.279	2661.91
2309.447	2647.17
2312.614	2621.59
2315.781	2645.84
2318.948	2615.26
2322.115	2654.71
2325.281	2556.75
2328.447	2571.51
2331.613	2546.1
2334.779	2525.82
2337.944	2526.91
2341.109	2523.53
2344.274	2506.12
2347.438	2475.12
2350.602	2498.25
2353.766	2516.72
2356.929	2503.73
2360.092	2543.1
2363.255	2500.11
2366.418	2442.94
2369.58	2545.44
2372.742	2353.37
2375.904	2364.06
2379.066	2343.36
2382.227	2374.99
2385.388	2337.65
2388.548	2267.2
2391.709	2319.26
2394.869	2302.56
2398.029	2390.92
2401.188	2399.05
2404.347	2337.99
2407.506	2464.72
2410.665	2494.49
2413.823	2497.73
2416.981	2459.24
2420.139	2487.57
2423.296	2535.22
2426.453	2505.79
2429.61	2529.32
2432.767	2471.57
2435.923	2509.76
2439.079	2471.93
2442.235	2517.84
2445.391	2448.7
2448.546	2480.2
2451.701	2527.66
2454.855	2505.42
2458.009	2550.97
2461.163	2551.45
2464.317	2512.34
2467.471	2544.82
2470.624	2581.64
2473.777	2556.79
2476.929	2570.54
2480.082	2594.93
2483.234	2560.33
2486.385	2507.2
2489.537	2500.19
2492.688	2468.82
2495.839	2485.47
2498.989	2497.16
2502.14	2482.14
2505.29	2467.68
2508.439	2489.94
2511.589	2417.96
2514.738	2428.62
2517.887	2459.34
2521.035	2529.67
2524.183	2507.01
2527.331	2488.09
2530.479	2469.04
2533.627	2477.43
