Data from C_2_DIV_PA_2N_Splice17_12-40-11-814.txt Node
Date: Sat Mar 14 12:40:11 EDT 2020
User: sa697716
Spectrometer: FLMS03696
Trigger mode: 0
Integration Time (sec): 3.180400E-1
Scans to average: 20
Electric dark correction enabled: true
Nonlinearity correction enabled: true
Boxcar width: 5
XAxis mode: Wavelengths
Number of Pixels in Spectrum: 2048
>>>>>Begin Spectral Data<<<<<
187.83	-314874.99
188.298	2524.26
188.766	1375.11
189.233	1252.09
189.701	1738.6
190.169	2503.63
190.636	1020.79
191.104	848.68
191.571	181.26
192.039	-28.27
192.506	24.34
192.974	769.99
193.441	-851.34
193.908	-61.73
194.375	17.24
194.842	66.8
195.31	234.23
195.777	275.16
196.244	459.66
196.711	445.48
197.177	501.08
197.644	665.73
198.111	1130.57
198.578	1562.05
199.045	1226.25
199.511	1989.86
199.978	2256.38
200.445	1935.06
200.911	2095.94
201.378	2333.44
201.844	2132.15
202.31	3628.21
202.777	3807.58
203.243	2098.76
203.709	1974.71
204.176	2342.86
204.642	1952.47
205.108	1856.69
205.574	1510.39
206.04	1352.57
206.506	1277.32
206.972	1195.65
207.438	1166.19
207.903	1318.93
208.369	1178.81
208.835	1188
209.301	1252.91
209.766	1263.59
210.232	1247.57
210.697	1553.06
211.163	1936.85
211.628	2910.17
212.094	2476.21
212.559	3083.93
213.024	1933.28
213.49	2371.49
213.955	2332.84
214.42	2265.3
214.885	2130.67
215.35	2057.03
215.815	2016.88
216.28	2164.91
216.745	1771.76
217.21	1933.02
217.675	1781.84
218.14	2025.09
218.604	2275.35
219.069	2638.55
219.534	2811.37
219.998	3285.91
220.463	4029.81
220.927	4973.95
221.392	4725.91
221.856	4840.81
222.32	6124.57
222.785	7622.64
223.249	9649.86
223.713	10824.6
224.177	10858.77
224.642	13984.81
225.106	17308.82
225.57	18979.34
226.034	14177.76
226.497	21655.73
226.961	19574.56
227.425	22893.46
227.889	25340.54
228.353	25383.76
228.816	52549
229.28	50342.57
229.744	42529.63
230.207	25902.87
230.671	25483.94
231.134	42156.36
231.597	48686.88
232.061	48778.04
232.524	47592
232.987	32895.77
233.45	29705.4
233.914	26732.14
234.377	27413.79
234.84	25169.2
235.303	29716.96
235.766	33280.9
236.229	34479.52
236.691	21747.66
237.154	24464.16
237.617	18470.23
238.08	18975.28
238.542	22243.62
239.005	15910.39
239.468	15836.27
239.93	14929.21
240.393	13588.75
240.855	11932.23
241.317	12224.62
241.78	14884.63
242.242	15418.68
242.704	16661.07
243.166	14507.93
243.629	13196.82
244.091	15219.61
244.553	16700.09
245.015	17981.89
245.477	23302.3
245.939	34244.2
246.4	36434.26
246.862	35493.15
247.324	33524.38
247.786	37541.71
248.247	49320.17
248.709	50924.38
249.17	38163.65
249.632	36088.49
250.093	41955.98
250.555	36240.04
251.016	22135.69
251.477	21023.24
251.939	22728.19
252.4	23868.67
252.861	28443.98
253.322	26496.36
253.783	31601.49
254.244	41023.77
254.705	32312.6
255.166	28739.71
255.627	28364.66
256.088	40072.73
256.549	42572.11
257.009	36641.51
257.47	44475.97
257.931	36220.39
258.391	27174.42
258.852	28034.13
259.312	29425.2
259.773	36372.53
260.233	30741.29
260.694	25937.99
261.154	29435.39
261.614	23658.05
262.074	21201.96
262.534	22049.85
262.994	20788.6
263.455	27698.47
263.915	23363.46
264.374	21999.11
264.834	24054
265.294	26665.21
265.754	27641.07
266.214	26177.06
266.673	24550.75
267.133	30991.42
267.593	30789.23
268.052	37727.5
268.512	32808.04
268.971	39552.8
269.431	43413.64
269.89	38848.34
270.349	58249.03
270.809	64943.23
271.268	58380.83
271.727	130860.28
272.186	84749.74
272.645	63517.27
273.104	45763.14
273.563	66248.87
274.022	52077.38
274.481	44307.24
274.94	34148.25
275.399	25398.69
275.857	29573.5
276.316	39988.27
276.775	35587.64
277.233	35044.2
277.692	32809.86
278.15	37127.8
278.609	38237.88
279.067	35403.77
279.525	32882.13
279.984	42465.68
280.442	51028.88
280.9	50353.72
281.358	33133.21
281.816	30887.77
282.274	30232.06
282.732	31217.35
283.19	31365.68
283.648	27048.2
284.106	28817.3
284.564	29308.1
285.021	27174.56
285.479	20241.09
285.937	18397.27
286.394	16150.03
286.852	16608.41
287.309	17463.54
287.767	16874.51
288.224	16051.83
288.682	17609.27
289.139	19335.34
289.596	17695.24
290.053	18393.72
290.511	23235.17
290.968	28186.15
291.425	38247.74
291.882	31877.31
292.339	27796.6
292.796	27604.28
293.252	26043.59
293.709	20707.82
294.166	18561.35
294.623	20536.85
295.079	19719.37
295.536	19807.64
295.992	17990.35
296.449	17787.11
296.905	18480.78
297.362	17716.88
297.818	18628.62
298.274	19334.44
298.731	19706.6
299.187	19493.28
299.643	20925.27
300.099	25329.65
300.555	27768.3
301.011	23199.41
301.467	22380.19
301.923	26199.61
302.379	25570.01
302.835	25138.39
303.291	25150.66
303.746	28619.11
304.202	36203.2
304.658	36356.57
305.113	24449.75
305.569	23988.79
306.024	25599.61
306.479	24364.47
306.935	20570.06
307.39	22464.42
307.845	20754.55
308.301	20920.65
308.756	20365.48
309.211	19586.57
309.666	20044.55
310.121	24859.8
310.576	25214.84
311.031	24968.65
311.486	28606.92
311.94	28571.41
312.395	38188.45
312.85	71732.02
313.305	352328.95
313.759	1828882.61
314.214	132557.74
314.668	105260.18
315.123	88448.06
315.577	31715.23
316.032	28240.06
316.486	35409.22
316.94	27953.75
317.394	19500.43
317.849	15159
318.303	14354.19
318.757	13539.73
319.211	15001.56
319.665	13126.2
320.119	13304.49
320.572	19114.42
321.026	17885.44
321.48	14879.51
321.934	16222.48
322.387	16237.68
322.841	17550.6
323.295	15800.89
323.748	18210.74
324.202	18470.38
324.655	22207.82
325.108	31091.06
325.562	21924.22
326.015	26050.52
326.468	19694.99
326.921	22006.72
327.374	20550.39
327.827	21458.39
328.28	24260.18
328.733	16271.19
329.186	14316.12
329.639	13651.5
330.092	11500.5
330.545	10981.57
330.997	11098.56
331.45	12154.81
331.903	14260.6
332.355	24517.07
332.808	23777.24
333.26	19623.29
333.713	21304.62
334.165	21463.7
334.617	28622.19
335.069	23100.35
335.522	41702.32
335.974	46108.47
336.426	42079.88
336.878	29150.57
337.33	14811.28
337.782	14451.78
338.234	18108.56
338.686	21641.23
339.137	25681.22
339.589	24203.66
340.041	18990.59
340.493	16359.91
340.944	16745.09
341.396	18018.54
341.847	15182.74
342.299	17915.96
342.75	21906.74
343.201	19173.61
343.653	22068.94
344.104	27113.88
344.555	21351.8
345.006	33252.27
345.457	25464.31
345.908	20256.68
346.359	19109.93
346.81	15551.79
347.261	16374.85
347.712	16098.99
348.163	17253.51
348.613	17486.79
349.064	16340.77
349.515	14307.59
349.965	14687.69
350.416	17706.59
350.866	19421.62
351.317	21938.47
351.767	36377.63
352.217	46021.66
352.668	38285.96
353.118	35117.79
353.568	33876.38
354.018	26819.89
354.468	28334.31
354.918	20350.1
355.368	17821.43
355.818	25220.19
356.268	72601.08
356.718	304194.31
357.168	75745.98
357.617	38014.16
358.067	42272.62
358.517	39602.17
358.966	46465.21
359.416	52060.5
359.865	56264.23
360.315	66903.33
360.764	31254.32
361.213	17523.8
361.663	16556.44
362.112	20448.65
362.561	33023.02
363.01	24896.97
363.459	20937.88
363.908	22626.66
364.357	19263.69
364.806	32548.19
365.255	22413
365.703	20532.86
366.152	20558.17
366.601	16692.33
367.05	13558.42
367.498	12323.73
367.947	12888.36
368.395	13422.82
368.844	11886.09
369.292	14291.17
369.74	9873.71
370.189	15101
370.637	17676.86
371.085	15266.17
371.533	18562.63
371.981	17864.37
372.429	17052.22
372.877	17725.18
373.325	14830.04
373.773	15079.83
374.221	13416.1
374.669	16611.13
375.116	14363.82
375.564	14487.6
376.012	16185.67
376.459	13355.58
376.907	15947.77
377.354	19238.43
377.801	17953.7
378.249	20648.49
378.696	26434.17
379.143	32008.6
379.591	34101.4
380.038	57686.3
380.485	41639.11
380.932	44944.91
381.379	41141.65
381.826	30323.53
382.273	21563.22
382.72	18829.52
383.166	18325.55
383.613	11860.51
384.06	10678.65
384.506	12379.21
384.953	9076.86
385.4	9145.62
385.846	7998.72
386.292	7777.5
386.739	7581.98
387.185	7479.22
387.631	7487.66
388.078	7263.11
388.524	7767.54
388.97	7170.28
389.416	5967.67
389.862	6340.16
390.308	5998.35
390.754	6083.54
391.2	6597.4
391.645	6753.42
392.091	6468.42
392.537	6228.9
392.983	6214.65
393.428	6108.32
393.874	6534.89
394.319	6539.61
394.765	6195.76
395.21	6345.52
395.655	5945.95
396.101	5563.48
396.546	5023.45
396.991	5054.14
397.436	4690.08
397.881	4542.08
398.326	4297.25
398.771	4069.17
399.216	3560.01
399.661	3202.73
400.106	3200.03
400.551	3279.34
400.995	2941.58
401.44	2904.94
401.885	2729.92
402.329	2767.65
402.774	2652.05
403.218	2577.73
403.663	2484.5
404.107	2558.06
404.551	2582.29
404.995	2368.02
405.44	2281.23
405.884	2322.11
406.328	2252.14
406.772	2253.22
407.216	2054.59
407.66	1989.61
408.104	1889.05
408.547	1774.43
408.991	1718.94
409.435	1658.54
409.879	1643.91
410.322	1629.73
410.766	1579.15
411.209	1509.31
411.653	1451.63
412.096	1427.78
412.54	1433.51
412.983	1430.47
413.426	1440.32
413.869	1445.21
414.312	1423.7
414.756	1373.05
415.199	1312.81
415.642	1280.53
416.085	1285.17
416.527	1281.97
416.97	1304.65
417.413	1242.54
417.856	1230.52
418.298	1221.08
418.741	1217.67
419.184	1219.69
419.626	1279.16
420.069	1286.86
420.511	1297.49
420.953	1273.99
421.396	1266.75
421.838	1238.77
422.28	1270.37
422.722	1284.49
423.164	1306.22
423.606	1289.68
424.048	1289.24
424.49	1226.62
424.932	1222.73
425.374	1206.8
425.816	1230.8
426.258	1254.33
426.699	1271.93
427.141	1258.17
427.582	1278.7
428.024	1276.4
428.465	1271.18
428.907	1245.17
429.348	1232.11
429.789	1231.41
430.231	1208.53
430.672	1227.1
431.113	1199.89
431.554	1183.95
431.995	1153.8
432.436	1113.02
432.877	1086.79
433.318	1066.86
433.759	1060.66
434.2	1059.25
434.64	1048.52
435.081	1051.69
435.522	995.14
435.962	960.35
436.403	938.24
436.843	949.7
437.284	927.47
437.724	903.13
438.164	904.86
438.604	884.52
439.045	851.75
439.485	817.73
439.925	798.2
440.365	777.4
440.805	766.84
441.245	755.06
441.685	727.03
442.125	721.67
442.564	725.81
443.004	706.57
443.444	703.81
443.883	702.94
444.323	693.72
444.762	694.03
445.202	701.6
445.641	712.46
446.081	708.56
446.52	712.34
446.959	702.5
447.398	683.99
447.837	676.64
448.276	660.93
448.716	664.1
449.154	667.85
449.593	651.8
450.032	649
450.471	634.02
450.91	631.8
451.349	629.85
451.787	625.91
452.226	633.32
452.664	631.99
453.103	632.36
453.541	630.31
453.98	631.07
454.418	634.16
454.856	623.9
455.295	621.9
455.733	626.3
456.171	629.8
456.609	631.51
457.047	631.25
457.485	640.48
457.923	642.34
458.361	634.44
458.798	634.96
459.236	632.71
459.674	636.31
460.111	638.19
460.549	632.67
460.987	630.42
461.424	627.33
461.862	624.51
462.299	614.68
462.736	613.89
463.173	615.38
463.611	611.53
464.048	610
464.485	614.97
464.922	612.09
465.359	609.73
465.796	604.37
466.233	600.69
466.67	595.52
467.106	594.4
467.543	588.97
467.98	581.91
468.416	564.45
468.853	559.99
469.29	543.23
469.726	536.49
470.162	521.61
470.599	511.45
471.035	506.17
471.471	492.75
471.907	489.49
472.344	485.59
472.78	487.06
473.216	493.46
473.652	487.33
474.088	485.8
474.523	483.47
474.959	487.34
475.395	482.14
475.831	479.51
476.266	482.31
476.702	479.82
477.138	474.23
477.573	472.09
478.008	469.83
478.444	472.32
478.879	477.01
479.314	479.6
479.75	479.51
480.185	481.88
480.62	485.45
481.055	487.59
481.49	492.05
481.925	498.78
482.36	508.24
482.795	522.16
483.229	535.26
483.664	545.54
484.099	546.7
484.534	553.89
484.968	558.82
485.403	559.92
485.837	558.38
486.271	556.03
486.706	556.14
487.14	547.66
487.574	537.52
488.009	530.99
488.443	525.52
488.877	530.31
489.311	530.87
489.745	535.33
490.179	539.13
490.613	548.29
491.046	550.5
491.48	552.32
491.914	551.03
492.348	553.03
492.781	554.74
493.215	553.37
493.648	550.7
494.082	552.85
494.515	550.7
494.948	554.01
495.382	554.12
495.815	555.13
496.248	556.73
496.681	563.06
497.114	568.15
497.547	572.41
497.98	579.16
498.413	580.95
498.846	583.6
499.279	585.73
499.711	584.24
500.144	581.8
500.577	585.01
501.009	588.87
501.442	592.65
501.874	590.05
502.306	586.07
502.739	588.23
503.171	594.11
503.603	592.77
504.036	594.51
504.468	594.38
504.9	597.41
505.332	597.67
505.764	595.95
506.196	595.6
506.627	600.08
507.059	605.13
507.491	604.3
507.923	598.68
508.354	603.3
508.786	606.09
509.217	612.65
509.649	617.55
510.08	624.65
510.512	630.84
510.943	635.44
511.374	637.91
511.805	645.33
512.237	652.67
512.668	666.83
513.099	678.43
513.53	691.03
513.961	699.63
514.391	714.02
514.822	730.69
515.253	748.11
515.684	759.71
516.114	774.15
516.545	784.74
516.975	796.77
517.406	804.58
517.836	803.51
518.267	805.39
518.697	814.16
519.127	815.37
519.558	817.1
519.988	817.07
520.418	822.03
520.848	830.33
521.278	833.78
521.708	868.31
522.138	876.2
522.567	893.57
522.997	907.07
523.427	915.79
523.857	925.31
524.286	930.8
524.716	940.07
525.145	951.25
525.575	958.12
526.004	965.83
526.433	937.64
526.863	936.78
527.292	932.61
527.721	936.8
528.15	940.05
528.579	941.08
529.008	948.3
529.437	960.87
529.866	968.8
530.295	979.18
530.724	988.62
531.152	1005.21
531.581	1014.99
532.01	1025.59
532.438	1030.11
532.867	1038.75
533.295	1050.54
533.723	1054.6
534.152	1054.35
534.58	1054.91
535.008	1046.94
535.436	1049.26
535.865	1054.07
536.293	1061.55
536.721	1071.03
537.149	1087.23
537.576	1090.84
538.004	1098.75
538.432	1103.55
538.86	1103.74
539.287	1108.34
539.715	1116.72
540.143	1117.91
540.57	1116.14
540.998	1115.33
541.425	1103.51
541.852	1091.63
542.28	1090.44
542.707	1080.97
543.134	1073.9
543.561	1072.04
543.988	1067.34
544.415	1066.86
544.842	1063.44
545.269	1059.94
545.696	1061.91
546.123	1068.96
546.549	1063.06
546.976	1055.06
547.403	1055.38
547.829	1056.43
548.256	1057.3
548.682	1056.78
549.108	1053.95
549.535	1054.01
549.961	1054.84
550.387	1046.69
550.813	1044.41
551.24	1047.63
551.666	1048.33
552.092	1042.67
552.518	1038.46
552.943	1035.9
553.369	1039.61
553.795	1041.53
554.221	1042.87
554.646	1041.37
555.072	1049.16
555.498	1050.67
555.923	1055.99
556.349	1065.04
556.774	1069.94
557.199	1070.79
557.625	1072.77
558.05	1069.93
558.475	1076.73
558.9	1074.66
559.325	1071.06
559.75	1066.95
560.175	1063.31
560.6	1060.42
561.025	1059.03
561.449	1060.15
561.874	1063.28
562.299	1067.77
562.723	1071.49
563.148	1065.31
563.572	1068.79
563.997	1073.54
564.421	1075.01
564.846	1075.67
565.27	1077.38
565.694	1075.51
566.118	1080.94
566.542	1085.55
566.966	1081.38
567.39	1078.97
567.814	1072.04
568.238	1072.53
568.662	1075.14
569.086	1077.87
569.509	1081.37
569.933	1073.06
570.357	1069.97
570.78	1058.12
571.204	1051.91
571.627	1044.94
572.05	1043.58
572.474	1045.03
572.897	1037.09
573.32	1033.21
573.743	1026.49
574.166	1016.83
574.589	1016.14
575.012	1011.44
575.435	1010.79
575.858	1004.8
576.281	997.95
576.704	988.55
577.126	981.05
577.549	973.85
577.972	967.9
578.394	962.61
578.817	960.67
579.239	949.23
579.661	941.36
580.084	934.55
580.506	926.25
580.928	925.14
581.35	919.45
581.772	916.83
582.194	909.05
582.616	901.67
583.038	893.4
583.46	885.42
583.882	885.1
584.303	886.98
584.725	883.7
585.147	889.5
585.568	896.66
585.99	905.09
586.411	910.33
586.833	920.77
587.254	922.89
587.675	931.4
588.096	939.9
588.518	936.81
588.939	927.8
589.36	927.18
589.781	917.4
590.202	902.2
590.623	895.73
591.043	893.09
591.464	885.75
591.885	884.49
592.305	881.41
592.726	873.31
593.147	874.32
593.567	872.9
593.987	868.22
594.408	864.71
594.828	861.65
595.248	858.68
595.669	849.22
596.089	845.39
596.509	840.85
596.929	833.69
597.349	834.68
597.769	828.57
598.189	824.19
598.608	824.85
599.028	826.72
599.448	826.5
599.867	819.37
600.287	815.7
600.706	813.31
601.126	808.04
601.545	808.05
601.965	807.07
602.384	805.43
602.803	806.91
603.222	804.69
603.641	801.24
604.061	799.81
604.48	798.47
604.898	803.91
605.317	806.77
605.736	807.68
606.155	806.51
606.574	801.58
606.992	803.81
607.411	801.2
607.829	796.39
608.248	794.56
608.666	793.34
609.085	792.78
609.503	788.37
609.921	785.75
610.339	788.05
610.758	786.94
611.176	783.51
611.594	779.37
612.012	777.34
612.43	779.73
612.847	784.01
613.265	785.84
613.683	789.08
614.101	790.26
614.518	788.02
614.936	782.41
615.353	774.42
615.771	774.3
616.188	775.48
616.606	775.67
617.023	772.91
617.44	764.82
617.857	760.81
618.274	756.19
618.691	753.53
619.108	748.42
619.525	745.4
619.942	751.01
620.359	752.79
620.776	750.49
621.192	748.89
621.609	747.91
622.026	753.17
622.442	757.37
622.859	759.54
623.275	755.57
623.691	760.29
624.108	767.93
624.524	777.29
624.94	777.47
625.356	783.06
625.772	789.3
626.188	796.48
626.604	797.58
627.02	795.19
627.436	794.31
627.852	799.65
628.268	806.41
628.683	800.31
629.099	794.15
629.514	790.68
629.93	793.08
630.345	796.84
630.761	794.5
631.176	796.4
631.591	794.71
632.007	791.08
632.422	788.33
632.837	781.88
633.252	782.52
633.667	777.19
634.082	773.38
634.497	767.54
634.911	758.39
635.326	757.01
635.741	747.89
636.155	741.57
636.57	745.97
636.984	749.07
637.399	753.4
637.813	753.61
638.228	755.04
638.642	760.98
639.056	756.48
639.47	758.59
639.884	757.35
640.298	756.76
640.712	760.9
641.126	755.19
641.54	751.66
641.954	749.68
642.368	746.59
642.781	746.08
643.195	737.57
643.609	740.99
644.022	740.07
644.436	739.05
644.849	733.88
645.262	727.2
645.676	730.58
646.089	729.92
646.502	723.04
646.915	722.27
647.328	713.22
647.741	713.33
648.154	707.49
648.567	709.53
648.98	704.19
649.393	706.51
649.805	706.7
650.218	703.64
650.631	695.02
651.043	692.29
651.456	688.34
651.868	689.79
652.28	703.14
652.693	712.27
653.105	715.61
653.517	722.78
653.929	723.47
654.341	728.39
654.753	721.92
655.165	727.02
655.577	726.02
655.989	723.87
656.401	719.68
656.813	697.02
657.224	684.93
657.636	666.33
658.047	656.67
658.459	645.07
658.87	640.48
659.282	632.06
659.693	621.25
660.104	614.11
660.515	607.39
660.926	608.95
661.338	609.4
661.749	607.95
662.159	605.83
662.57	603.54
662.981	603.9
663.392	600.93
663.803	608.85
664.213	608.87
664.624	609.28
665.035	614.07
665.445	606.33
665.855	603.47
666.266	599.6
666.676	599.79
667.086	595
667.497	597.07
667.907	595.53
668.317	589.79
668.727	590.64
669.137	591.63
669.547	591.96
669.956	593.71
670.366	596.04
670.776	598.8
671.186	601.33
671.595	605.69
672.005	608.04
672.414	606.58
672.824	605.09
673.233	606.77
673.642	608.47
674.052	610.84
674.461	613.55
674.87	616.47
675.279	614.19
675.688	614.68
676.097	614.81
676.506	611.57
676.915	622.02
677.323	622.97
677.732	620.6
678.141	618.8
678.549	607.51
678.958	604.35
679.366	602.25
679.775	603.59
680.183	610.84
680.592	613.35
681	616.18
681.408	607.48
681.816	610.59
682.224	614.02
682.632	618.73
683.04	637.72
683.448	651.55
683.856	669.52
684.264	690.69
684.671	707.24
685.079	728.27
685.487	749.76
685.894	784.84
686.302	809.89
686.709	828.16
687.116	850.35
687.524	866.1
687.931	877.47
688.338	882.64
688.745	884.19
689.152	888.94
689.559	902.39
689.966	916.18
690.373	915.41
690.78	927.21
691.187	950.86
691.593	966.77
692	979.43
692.407	1003.87
692.813	1039.14
693.22	1064.47
693.626	1090.97
694.032	1112.04
694.439	1147.2
694.845	1175.54
695.251	1212.98
695.657	1246.95
696.063	1298.48
696.469	1337.22
696.875	1374.17
697.281	1395.55
697.687	1421.8
698.093	1445.55
698.498	1489.64
698.904	1525.05
699.31	1578.21
699.715	1618.46
700.12	1675.17
700.526	1690.93
700.931	1738.08
701.337	1774.67
701.742	1799.13
702.147	1854.87
702.552	1880.04
702.957	1922.23
703.362	1942.37
703.767	1965.47
704.172	1996.46
704.577	1975.49
704.981	2011.67
705.386	2028.38
705.791	2030.18
706.195	2082.44
706.6	2096.35
707.004	2152.17
707.408	2140.51
707.813	2166.41
708.217	2168.27
708.621	2176.43
709.025	2244.7
709.43	2253.38
709.834	2297.39
710.237	2350.69
710.641	2349.54
711.045	2372.08
711.449	2377.84
711.853	2406.3
712.256	2439.47
712.66	2469.6
713.064	2526.28
713.467	2560.53
713.87	2641.79
714.274	2679.34
714.677	2758.99
715.08	2872.77
715.484	2991.33
715.887	3134.79
716.29	3272.69
716.693	3417.97
717.096	3588.01
717.499	3683.87
717.901	3712.86
718.304	3737.29
718.707	3764.52
719.109	3703.25
719.512	3690.82
719.915	3607.16
720.317	3575.29
720.719	3609.71
721.122	3598.08
721.524	3570.42
721.926	3553.65
722.328	3628.32
722.731	3627.24
723.133	3653.52
723.535	3794.21
723.937	3814.47
724.338	3859.97
724.74	3894.33
725.142	3892.95
725.544	3900.77
725.945	3933.98
726.347	3934.3
726.748	3933.96
727.15	3949.36
727.551	3928.7
727.952	3912.16
728.354	3897.88
728.755	3902.72
729.156	3878.52
729.557	3841.28
729.958	3754.59
730.359	3715.2
730.76	3707.31
731.161	3668.55
731.562	3656.51
731.962	3660.34
732.363	3618.94
732.763	3575.53
733.164	3603.35
733.564	3557.16
733.965	3494.89
734.365	3475.55
734.766	3494.96
735.166	3467.41
735.566	3431.83
735.966	3415.89
736.366	3415.39
736.766	3375.95
737.166	3400.41
737.566	3372.58
737.966	3356.99
738.365	3386.95
738.765	3385.51
739.165	3334.55
739.564	3320.79
739.964	3354.39
740.363	3323.87
740.763	3323.26
741.162	3316.44
741.561	3296.71
741.96	3264.95
742.36	3279.76
742.759	3285.45
743.158	3313.41
743.557	3326.97
743.955	3357.06
744.354	3326.69
744.753	3369
745.152	3343.46
745.55	3383.09
745.949	3379.8
746.348	3382.94
746.746	3396.54
747.144	3368.29
747.543	3353.2
747.941	3387.43
748.339	3336.43
748.737	3332.55
749.136	3328.04
749.534	3372.13
749.932	3353.16
750.33	3371.04
750.727	3410
751.125	3394.25
751.523	3381.96
751.921	3416.65
752.318	3396.41
752.716	3440.14
753.113	3451.88
753.511	3468.6
753.908	3470.52
754.305	3461.18
754.703	3504.06
755.1	3549.17
755.497	3591.71
755.894	3729.27
756.291	3856.69
756.688	4091.69
757.085	4405.93
757.482	4848.06
757.878	5335.18
758.275	5775.49
758.672	6374.37
759.068	6870.22
759.465	7568.23
759.861	8476.51
760.258	9526.95
760.654	10066.94
761.05	9986.72
761.447	9533.97
761.843	8874.61
762.239	8190.7
762.635	7883.07
763.031	7592.08
763.427	7167.61
763.822	6725.59
764.218	6283.36
764.614	5710.76
765.01	5330.2
765.405	5082.05
765.801	4894.51
766.196	4655
766.592	4523.33
766.987	4295.46
767.382	4139.56
767.778	4073.36
768.173	3981.21
768.568	3929.37
768.963	3839.73
769.358	3854.34
769.753	3821.78
770.148	3759.34
770.542	3757.53
770.937	3735.69
771.332	3803.6
771.726	3817.46
772.121	3777.19
772.515	3813.69
772.91	3804.84
773.304	3858.46
773.699	3808.37
774.093	3846.7
774.487	3890.45
774.881	3923.73
775.275	3921.41
775.669	3892.31
776.063	3923.99
776.457	3947.55
776.851	3896.55
777.245	3890.24
777.638	3910.41
778.032	3994.56
778.425	3969.72
778.819	3998.63
779.212	3969.79
779.606	3941.06
779.999	3952.79
780.392	3946.22
780.786	4005.96
781.179	4020.82
781.572	4052.98
781.965	4065.83
782.358	4021.85
782.751	4060.75
783.143	4023.96
783.536	4075.43
783.929	4105.81
784.322	4192.91
784.714	4212.06
785.107	4208.58
785.499	4260.52
785.891	4246.46
786.284	4230.76
786.676	4333.85
787.068	4322.93
787.46	4363.44
787.852	4375.38
788.245	4435.34
788.636	4452
789.028	4501.69
789.42	4530
789.812	4537.62
790.204	4603.03
790.595	4677.94
790.987	4535.32
791.378	4551.52
791.77	4642.92
792.161	4744.92
792.553	4787.35
792.944	4707.86
793.335	4659.21
793.726	4713.59
794.117	4779.71
794.508	4880.81
794.899	4857.46
795.29	4961.67
795.681	5004.14
796.072	4902.24
796.463	4778.56
796.853	4787.78
797.244	4902.44
797.634	4926.15
798.025	4923.32
798.415	4927.86
798.806	4992.16
799.196	5053.34
799.586	5091.92
799.976	5064.73
800.366	5230.32
800.756	5387.57
801.146	5351.56
801.536	5373.26
801.926	5424.81
802.316	5443.98
802.706	5494.08
803.095	5402.76
803.485	5473.75
803.874	5500.9
804.264	5682.47
804.653	5666.31
805.043	5776.36
805.432	5862.65
805.821	5862.32
806.21	5880.28
806.599	5964.28
806.988	6003.14
807.377	6082.09
807.766	6179.04
808.155	6380.25
808.544	6190.74
808.933	6199.96
809.321	6179.16
809.71	6387.97
810.098	6502.27
810.487	6831.92
810.875	7176.2
811.264	7193.21
811.652	7406.98
812.04	7511.45
812.428	7633.71
812.816	8185.38
813.204	8483.58
813.592	8884.15
813.98	9123.15
814.368	9055.95
814.756	9397.54
815.144	9346.31
815.531	9680.58
815.919	9622.98
816.306	9842.18
816.694	9618.77
817.081	9654.51
817.469	9903.95
817.856	9899.56
818.243	10095.58
818.63	10377.22
819.017	10076.48
819.404	10118.51
819.791	10386.46
820.178	10820.07
820.565	11001.37
820.952	11679.97
821.339	11321.14
821.725	11454.44
822.112	10927.58
822.498	10900.48
822.885	10988.81
823.271	10920.43
823.657	11223.89
824.044	11227.83
824.43	11279.69
824.816	11255.23
825.202	10936.06
825.588	11667.72
825.974	11681.09
826.36	12042.56
826.746	12060.97
827.132	12316.85
827.517	12302.24
827.903	11733.68
828.289	11764.8
828.674	11208.59
829.06	11131.92
829.445	11413.55
829.83	11673.93
830.216	12007.47
830.601	12268.34
830.986	11982.34
831.371	11884.85
831.756	12283.84
832.141	11978.81
832.526	11978.37
832.911	12186.34
833.295	12104.63
833.68	12442.26
834.065	12000.12
834.449	11347.29
834.834	11299.25
835.218	11292.7
835.603	11542.79
835.987	11388.65
836.371	11984.46
836.755	11902.69
837.139	12182.04
837.524	12355.05
837.908	12222.93
838.291	12262.9
838.675	12311.78
839.059	12464.91
839.443	12455.6
839.827	12275.66
840.21	12608.75
840.594	12507.98
840.977	12659.35
841.361	12649.27
841.744	12913.75
842.127	12806.67
842.511	12984.35
842.894	13415.18
843.277	13684.2
843.66	14075.09
844.043	14146.81
844.426	13581.71
844.809	13348.56
845.191	13371.65
845.574	13045.27
845.957	12786.96
846.339	12708.7
846.722	12332.65
847.104	12374.41
847.487	12244.06
847.869	12248.84
848.252	12448.65
848.634	12684.84
849.016	12877.91
849.398	12962.62
849.78	13567.13
850.162	13570.37
850.544	13865.49
850.926	14313.02
851.307	14250.72
851.689	14462.67
852.071	14785.39
852.452	15020.43
852.834	15004.76
853.215	15287.58
853.597	15397.95
853.978	15614.18
854.359	15932.36
854.741	15223.08
855.122	15149.37
855.503	14950.45
855.884	15046.46
856.265	15007.37
856.646	15078.17
857.026	14804.15
857.407	14758.05
857.788	14871.06
858.169	15068.98
858.549	14475.97
858.93	14922.1
859.31	14959.16
859.69	15109.32
860.071	14810.31
860.451	14656.51
860.831	14128.37
861.211	14951.29
861.591	15340.56
861.971	15317.8
862.351	15460.47
862.731	15729.4
863.111	15918.15
863.491	16158.4
863.87	16777.66
864.25	17025.83
864.629	16743.98
865.009	17113.02
865.388	17730.72
865.768	19007.51
866.147	18935.67
866.526	17878.07
866.905	18097.21
867.284	19105.31
867.663	18137.55
868.042	17394.6
868.421	17342.58
868.8	17625.67
869.179	17808.79
869.558	16760.14
869.936	15441.84
870.315	15721.67
870.693	16108.65
871.072	17356.32
871.45	16533.55
871.828	16745.23
872.207	17602.11
872.585	17330.1
872.963	17797.2
873.341	17182.06
873.719	16985.24
874.097	16789.49
874.475	17109.15
874.853	17507.02
875.23	16789.88
875.608	17498.9
875.986	18930.1
876.363	18097.54
876.741	18663.54
877.118	18206.5
877.495	19104.18
877.873	19420.72
878.25	20428.86
878.627	19593.97
879.004	19850.78
879.381	19749.1
879.758	19230.82
880.135	17899.31
880.512	18927.5
880.889	18421.56
881.265	18227
881.642	18072.31
882.019	18376.88
882.395	18011.64
882.772	18727.24
883.148	17925.62
883.524	17862.32
883.901	17762.07
884.277	18034.77
884.653	17928.73
885.029	18442.45
885.405	20436.62
885.781	20274.17
886.157	19444.02
886.532	19680.5
886.908	19683.19
887.284	21906.54
887.659	22626.95
888.035	23335.86
888.411	23939.71
888.786	24252.06
889.161	25095.45
889.537	24636.18
889.912	25437.52
890.287	25424.7
890.662	26077.33
891.037	25594.16
891.412	23854.08
891.787	23605.21
892.162	22781.71
892.536	23314.48
892.911	22444.84
893.286	21975.29
893.66	21070.71
894.035	21610.95
894.409	23520.57
894.784	22588.16
895.158	22958.76
895.532	24316.96
895.906	24993.95
896.281	25568.9
896.655	25166.85
897.029	28745.88
897.402	29930.32
897.776	33328.2
898.15	33205.03
898.524	32850.84
898.898	33269.56
899.271	37269.01
899.645	32285.22
900.018	31008.91
900.392	32167.39
900.765	32411.47
901.138	29980.16
901.511	29527.13
901.884	27118.9
902.258	25027.26
902.631	25864.7
903.003	29766.78
903.376	26843.54
903.749	30108.12
904.122	32229.06
904.495	35485.96
904.867	35946.16
905.24	31243.36
905.612	29079.2
905.985	29744.42
906.357	31093.42
906.729	29672.57
907.102	25350.78
907.474	24378.95
907.846	24537.64
908.218	24194.36
908.59	21393.1
908.962	20690.61
909.334	22279.02
909.705	23416.5
910.077	22717.76
910.449	23637.94
910.82	24297.03
911.192	26720.71
911.563	27777.95
911.935	29706.5
912.306	29769.29
912.677	30725.03
913.048	30417.9
913.419	33008.49
913.79	33175.97
914.161	35596.81
914.532	34031.43
914.903	31297.19
915.274	29738.75
915.645	29299.93
916.015	25801.53
916.386	24603.8
916.756	26195.44
917.127	26995.53
917.497	24102.8
917.868	26252.53
918.238	24948.68
918.608	25674.21
918.978	26197.62
919.348	27737.83
919.718	28673.94
920.088	27621.81
920.458	28699.28
920.828	30199.45
921.198	28669.57
921.567	30659.3
921.937	23757.01
922.306	23970.6
922.676	25854.72
923.045	21576.79
923.415	20522.16
923.784	18695.68
924.153	19209.98
924.522	19191.09
924.891	18036.91
925.26	19318.17
925.629	18840.38
925.998	21659.88
926.367	21151.88
926.736	20158.03
927.104	24005.33
927.473	25766.38
927.842	31098.84
928.21	30800.64
928.578	32377.41
928.947	30633.92
929.315	30829.67
929.683	36199.19
930.051	36489.7
930.42	42378.63
930.788	36187.85
931.156	35898.27
931.523	33717.89
931.891	31172.96
932.259	29985.78
932.627	34768.18
932.994	49203.57
933.362	40699.99
933.729	35350.37
934.097	33839.47
934.464	28662.89
934.831	33123.67
935.199	32666.96
935.566	31670.77
935.933	32210.02
936.3	39065
936.667	30451.4
937.034	27560.72
937.401	27252.29
937.767	23548.61
938.134	20980.95
938.501	29609.19
938.867	31559.92
939.234	53393.84
939.6	45551.27
939.967	50035.43
940.333	33478.48
940.699	28490.77
941.065	22784
941.431	29868.67
941.798	28799.13
942.163	37787.78
942.529	23582.7
942.895	21696.44
943.261	14054.38
943.627	18434.21
943.992	16130.58
944.358	16129.65
944.723	16197.12
945.089	15795.62
945.454	14605.41
945.82	15578.08
946.185	14943.21
946.55	17307.87
946.915	15522.63
947.28	18196.38
947.645	16036.88
948.01	14800.67
948.375	15431.38
948.74	18467.81
949.104	21528.09
949.469	31042.97
949.834	54873
950.198	52185.2
950.562	31312.13
950.927	26076.14
951.291	31392.06
951.655	26750.33
952.02	25086.09
952.384	18969.7
952.748	16529.83
953.112	16156.59
953.476	14045.21
953.839	12989.28
954.203	12844.97
954.567	16054.16
954.931	25284.05
955.294	21625.09
955.658	21734.12
956.021	36969.03
956.385	62665.87
956.748	92487.94
957.111	143171.75
957.474	160978.3
957.837	181041.34
958.2	136945.61
958.563	49219.39
958.926	33251
959.289	50454.86
959.652	56346.07
960.015	42332.98
960.377	60748.48
960.74	69233.4
961.102	119439.71
961.465	128214.99
961.827	68976.38
962.189	132346.27
962.552	91814.22
962.914	73652.22
963.276	47816.61
963.638	39574.45
964	39120.78
964.362	26469.82
964.724	25598.51
965.085	18269.35
965.447	14989.76
965.809	17018.99
966.17	17050.45
966.532	18439.25
966.893	16940.18
967.255	15408.49
967.616	18173.95
967.977	14581.17
968.338	15920.6
968.699	13090.38
969.061	13065.6
969.421	13138.7
969.782	14757.94
970.143	12456.53
970.504	12930.61
970.865	14693.24
971.225	15047.86
971.586	14712.85
971.946	20934.66
972.307	18162.32
972.667	23738.35
973.027	24512.17
973.388	29701.18
973.748	20183.39
974.108	22030.17
974.468	29794.96
974.828	22983.81
975.188	17661.72
975.548	16238
975.907	13658.17
976.267	15312.77
976.627	12893.17
976.986	13344.89
977.346	12721.46
977.705	12252.83
978.064	11138.75
978.424	9263.44
978.783	9574.24
979.142	10932.5
979.501	10470.56
979.86	11064.84
980.219	10672.82
980.578	13734.16
980.937	15377.92
981.296	13725.63
981.654	14099.44
982.013	21971.16
982.371	28573.43
982.73	26656.29
983.088	30170.83
983.447	32224.07
983.805	46098.14
984.163	96462.6
984.521	107041.73
984.879	157007.92
985.237	-255472.04
985.595	247175.55
985.953	61323.96
986.311	35337.08
986.669	20538.8
987.026	17738.47
987.384	23844.12
987.741	24638.65
988.099	17596.62
988.456	14057.04
988.814	13193.05
989.171	11469.92
989.528	11294.43
989.885	11929.02
990.242	9481.64
990.599	11811.97
990.956	9680.19
991.313	6757.4
991.67	5552.89
992.027	5917.3
992.383	5251.09
992.74	4606.62
993.096	4841.8
993.453	5025.41
993.809	5207.88
994.165	6921.01
994.522	6370.8
994.878	7012.93
995.234	8811.62
995.59	8670.82
995.946	8152.68
996.302	9304.55
996.658	10725.75
997.013	11799.45
997.369	14005.58
997.725	17975.42
998.08	11623.38
998.436	17834.38
998.791	24592.18
999.147	24571.69
999.502	26867
999.857	19560.07
1000.212	31881.78
1000.567	45371.85
1000.922	26190.64
1001.277	16629.85
1001.632	12338.64
1001.987	15912.62
1002.342	11433.53
1002.696	9145.69
1003.051	7322.57
1003.406	8882.11
1003.76	8848.26
1004.114	8724.7
1004.469	7361.81
1004.823	6100.55
1005.177	6562.47
1005.531	5197.81
1005.885	4615.1
1006.239	5213.69
1006.593	6560.41
1006.947	8775.25
1007.301	6564.55
1007.655	7146.69
1008.008	5256.87
1008.362	5883.19
1008.715	8376.77
1009.069	7619.83
1009.422	11483.39
1009.776	23012.46
1010.129	15219.21
1010.482	12671.03
1010.835	10667.4
1011.188	22190.79
1011.541	20894.86
1011.894	-127452.17
1012.247	375352.1
1012.6	25539.59
1012.952	16166.33
1013.305	8298.5
1013.657	5993.48
1014.01	5697.56
1014.362	4701.73
1014.715	4225.27
1015.067	3701.37
1015.419	3626.34
1015.771	3222.05
1016.123	2892.9
1016.475	2984.79
1016.827	3175.66
1017.179	3439.73
1017.531	3457.67
1017.883	3511.56
1018.234	3406.29
1018.586	4278.33
1018.938	4536.12
1019.289	6249.54
1019.64	7114.15
1019.992	6582.73
1020.343	6009.16
1020.694	4770.34
1021.045	4202.84
1021.396	4801.25
1021.747	5178.55
1022.098	6184.71
1022.449	4483.33
1022.8	4164.73
1023.151	2901.39
1023.501	2597.33
1023.852	2816.34
1024.202	2923.3
1024.553	3181.21
1024.903	3127.36
1025.253	2698.84
1025.604	2425.51
1025.954	3009.49
1026.304	3625.32
1026.654	4245.01
1027.004	6220.94
1027.354	9963.13
1027.703	9383.92
1028.053	12309.09
1028.403	18062.19
1028.753	25809.13
1029.102	34698.35
1029.452	177270.08
1029.801	7614.37
1030.15	4956.69
1030.499	4118.15
897.758	3082.64
901.051	3068.26
904.343	3105.86
907.636	3099.61
910.928	3166.55
914.22	3070.44
917.511	3078.63
920.803	3159.18
924.094	3200.7
927.384	3155.76
930.675	3125.92
933.965	3070.95
937.255	3060.04
940.544	3027.12
943.834	2908.33
947.123	2862.88
950.411	2964.1
953.7	2930.54
956.988	2879.63
960.276	2825.66
963.563	2939.22
966.851	2920.53
970.138	2992.1
973.424	2973.48
976.711	2920.85
979.997	3139.89
983.283	3158.07
986.568	3037.15
989.853	3081.72
993.138	3110.64
996.423	3186.88
999.708	3104.61
1002.992	3206.28
1006.275	2969.83
1009.559	3062.88
1012.842	3191.53
1016.125	3102.45
1019.408	3081.21
1022.69	3197.01
1025.972	3197.61
1029.254	3169.79
1032.536	3073.13
1035.817	3113.44
1039.098	3028.74
1042.379	3258.54
1045.659	3219.97
1048.939	3141.3
1052.219	3174.03
1055.498	3204.28
1058.778	3175.62
1062.057	3171.04
1065.335	3186.94
1068.614	3212.8
1071.892	3179.14
1075.17	3274.23
1078.447	3251.16
1081.724	3235.15
1085.001	3279.04
1088.278	3251.92
1091.554	3272.21
1094.83	3270.71
1098.106	3287.95
1101.382	3347.61
1104.657	3350.46
1107.932	3345.15
1111.206	3295.23
1114.481	3259.01
1117.755	3267.16
1121.029	3233.59
1124.302	3273.81
1127.575	3207.44
1130.848	3186.88
1134.121	3139.89
1137.393	3075.35
1140.665	3153.45
1143.937	3123.69
1147.208	3066.67
1150.48	3081.87
1153.75	3062.97
1157.021	3129.27
1160.291	3091.39
1163.561	3125.05
1166.831	3143.81
1170.101	3178.57
1173.37	3174.97
1176.639	3101.13
1179.907	3177.12
1183.176	3195.64
1186.444	3210.51
1189.711	3242.99
1192.979	3241.1
1196.246	3200.61
1199.513	3226.76
1202.78	3215.49
1206.046	3220.49
1209.312	3246.36
1212.578	3277.2
1215.843	3212.33
1219.108	3197.52
1222.373	3217.8
1225.638	3171.54
1228.902	3144.22
1232.166	3122.71
1235.43	3095.96
1238.693	3117.76
1241.956	3124.54
1245.219	3149.51
1248.482	3155.47
1251.744	3145.68
1255.006	3318.83
1258.268	3283.77
1261.529	3216.62
1264.79	3234.85
1268.051	3344.4
1271.312	3365.96
1274.572	3320.19
1277.832	3311.66
1281.092	3313.82
1284.351	3265.74
1287.61	3239.89
1290.869	3135.65
1294.128	3089.31
1297.386	3222.01
1300.644	3201.5
1303.902	3213.1
1307.159	3068.44
1310.416	3124.58
1313.673	3141.01
1316.93	3114.39
1320.186	3175.44
1323.442	3230.96
1326.697	3205.56
1329.953	3217.1
1333.208	3224.76
1336.463	3217.68
1339.717	3138.27
1342.972	3255.87
1346.226	3249.12
1349.479	3167.29
1352.733	3121.77
1355.986	3168.16
1359.238	3137.15
1362.491	3136.29
1365.743	3144.81
1368.995	3145.42
1372.247	3154.89
1375.498	3179.63
1378.749	3205.79
1382	3163.28
1385.251	3236.85
1388.501	3211.63
1391.751	3174.95
1395	3155.32
1398.25	3194.84
1401.499	3187.3
1404.748	3095.23
1407.996	3051.01
1411.244	3036.58
1414.492	3013.65
1417.74	2984.35
1420.987	3001.23
1424.234	3048.94
1427.481	3052.47
1430.728	3107.94
1433.974	3082.05
1437.22	3113.29
1440.465	3123.24
1443.711	3096.42
1446.956	3137.88
1450.201	3145.49
1453.445	3191.64
1456.689	3155.05
1459.933	3172.93
1463.177	3197.67
1466.42	3166.95
1469.663	3142.99
1472.906	3112.45
1476.148	3236.81
1479.391	3147.83
1482.633	3130.74
1485.874	3127.48
1489.115	3092.74
1492.356	3122.9
1495.597	3089.36
1498.838	3101.12
1502.078	3052.63
1505.318	2981.82
1508.557	3028.72
1511.797	2955.33
1515.036	3095.11
1518.274	3082.8
1521.513	3069.77
1524.751	3101.87
1527.989	3099.51
1531.227	3109
1534.464	3075.57
1537.701	3127.64
1540.938	3152.52
1544.174	3118.17
1547.41	3125.61
1550.646	3162.38
1553.882	3183.27
1557.117	3232.3
1560.352	3254.52
1563.587	3207.63
1566.821	3160.17
1570.055	3219.83
1573.289	3175.92
1576.523	3268.85
1579.756	3263.52
1582.989	3278.77
1586.222	3240.2
1589.454	3290
1592.686	3253.61
1595.918	3271.99
1599.15	3251.8
1602.381	3355.94
1605.612	3280.58
1608.843	3382.4
1612.073	3288.22
1615.303	3269.73
1618.533	3253.16
1621.762	3258.57
1624.992	3259.36
1628.221	3223.68
1631.449	3210.77
1634.678	3301.61
1637.906	3243.42
1641.134	3296.67
1644.361	3240.73
1647.588	3225.42
1650.815	3235.79
1654.042	3234.16
1657.269	3267.04
1660.495	3207.66
1663.72	3186.28
1666.946	3164.64
1670.171	3070.57
1673.396	3050.43
1676.621	3051.27
1679.845	3099.41
1683.069	3134.31
1686.293	3189.04
1689.517	3140.28
1692.74	3045.83
1695.963	3068.62
1699.185	3135.36
1702.408	3094.03
1705.63	3147.83
1708.852	3151.95
1712.073	3123.32
1715.294	3080.77
1718.515	3145.26
1721.736	3080.48
1724.956	3080.55
1728.176	3111.17
1731.396	3133.1
1734.616	3124.64
1737.835	3137.19
1741.054	3135.02
1744.272	3132.28
1747.491	3146.53
1750.709	3232.73
1753.927	3106.39
1757.144	3174.73
1760.361	3204.63
1763.578	3220.05
1766.795	3152.1
1770.011	3177.22
1773.227	3239.77
1776.443	3258.68
1779.658	3300.26
1782.874	3253.48
1786.089	3213.88
1789.303	3217.58
1792.518	3230.37
1795.732	3224.19
1798.945	3222.78
1802.159	3285.8
1805.372	3149.48
1808.585	3115.93
1811.797	3123.34
1815.01	3202.96
1818.222	3198.22
1821.434	3109.25
1824.645	3205.68
1827.856	3162.73
1831.067	3200.34
1834.278	3162.28
1837.488	3140.96
1840.698	3316.07
1843.908	3226.32
1847.117	3185.94
1850.326	3023.11
1853.535	3159.82
1856.744	3254.62
1859.952	3141.11
1863.16	3143.61
1866.368	3174.04
1869.575	3290.14
1872.782	3182.63
1875.989	3128.81
1879.196	3255.6
1882.402	3248.02
1885.608	3296.14
1888.814	3161.59
1892.019	3046.32
1895.224	3100.54
1898.429	3096.6
1901.634	3068.34
1904.838	3051.63
1908.042	3097.31
1911.246	3099.02
1914.449	2993.04
1917.652	3009.03
1920.855	2997.7
1924.058	3074.68
1927.26	3101.32
1930.462	3137.37
1933.664	3151.92
1936.865	3085.19
1940.066	3080.94
1943.267	3028.73
1946.467	3051.85
1949.668	3086.6
1952.868	3151.3
1956.067	3113.54
1959.267	3034.74
1962.466	3067.42
1965.665	3053.08
1968.863	3051.7
1972.061	3080.06
1975.259	3087.7
1978.457	3169.63
1981.654	3128.02
1984.852	3123.21
1988.048	3035.09
1991.245	3051.56
1994.441	3132.09
1997.637	3146.46
2000.833	3128.26
2004.028	3168.43
2007.223	3211.95
2010.418	3175.26
2013.613	3148.74
2016.807	3088.41
2020.001	3113.88
2023.194	3183.45
2026.388	3150.22
2029.581	3099.11
2032.774	3129.08
2035.966	3124.5
2039.158	3044.06
2042.35	3081.54
2045.542	3010.3
2048.733	3130.89
2051.924	3188.08
2055.115	3228.11
2058.306	3146.12
2061.496	3208.61
2064.686	3289.36
2067.875	3212.43
2071.065	3244.34
2074.254	3280.01
2077.442	3229.57
2080.631	3328.84
2083.819	3175.72
2087.007	3146.25
2090.195	3101.82
2093.382	3158.47
2096.569	3137.12
2099.756	3077.53
2102.942	3080.4
2106.128	3071.56
2109.314	3066.85
2112.5	3005.97
2115.685	2989.84
2118.87	3003.12
2122.055	3073.89
2125.239	3025.24
2128.424	2979.09
2131.608	3128.28
2134.791	3114.02
2137.974	3193.96
2141.157	3174.59
2144.34	3103.49
2147.523	3146.92
2150.705	3146.67
2153.887	3139.7
2157.068	3064.84
2160.25	3090.56
2163.431	3150.84
2166.611	3068.15
2169.792	3075.64
2172.972	2953.38
2176.152	3063.87
2179.331	3107.8
2182.511	3063.82
2185.69	3097.78
2188.868	3084.39
2192.047	3161.55
2195.225	3124.29
2198.403	3074.45
2201.58	3076.08
2204.758	3081.98
2207.935	3167.61
2211.111	3029.85
2214.288	3008.23
2217.464	3055.83
2220.64	3049.34
2223.815	3107.04
2226.991	3016.38
2230.166	3040.42
2233.34	3050.29
2236.515	3088.66
2239.689	3170.22
2242.863	3111.12
2246.036	3168.17
2249.209	3188.37
2252.382	3241.08
2255.555	3203.62
2258.727	3127.79
2261.9	3178.12
2265.071	3168.63
2268.243	3180.39
2271.414	3093.35
2274.585	3030.12
2277.756	3106.55
2280.926	3066.02
2284.096	3120.38
2287.266	3003.56
2290.436	3067.13
2293.605	3105.48
2296.774	3127.39
2299.942	3166.88
2303.111	3184.78
2306.279	3231.31
2309.447	3222.27
2312.614	3199
2315.781	3211.39
2318.948	3172.39
2322.115	3209.86
2325.281	3115.74
2328.447	3151.75
2331.613	3131.26
2334.779	3085.1
2337.944	3093.53
2341.109	3084.52
2344.274	3058.74
2347.438	3024.59
2350.602	3055.36
2353.766	3079.97
2356.929	3064.14
2360.092	3109.55
2363.255	3038.19
2366.418	2939.14
2369.58	3099.07
2372.742	2803.98
2375.904	2837.67
2379.066	2804.29
2382.227	2851.21
2385.388	2814.18
2388.548	2711.29
2391.709	2780.84
2394.869	2750.26
2398.029	2898.11
2401.188	2929.35
2404.347	2833.09
2407.506	3031.38
2410.665	3053.39
2413.823	3080.94
2416.981	3013.11
2420.139	3061.16
2423.296	3120.49
2426.453	3093.52
2429.61	3122.91
2432.767	3016.25
2435.923	3060.32
2439.079	2967.24
2442.235	3047.97
2445.391	2959
2448.546	2967.25
2451.701	3039.43
2454.855	2978.96
2458.009	3059.6
2461.163	3077.79
2464.317	3022.21
2467.471	3063.47
2470.624	3108.23
2473.777	3134.81
2476.929	3130.36
2480.082	3158.82
2483.234	3123.79
2486.385	3020.4
2489.537	3019.29
2492.688	2948.8
2495.839	2971.74
2498.989	2972.25
2502.14	2952.99
2505.29	2921.99
2508.439	2952.51
2511.589	2857.9
2514.738	2886.51
2517.887	2916.67
2521.035	3042.39
2524.183	3044.94
2527.331	3014.44
2530.479	2962.65
2533.627	2985.24
