Data from C_2_DEC_ON_6N_Splice17_12-16-07-769.txt Node
Date: Sat Mar 14 12:16:07 EDT 2020
User: sa697716
Spectrometer: FLMS03696
Trigger mode: 0
Integration Time (sec): 3.180400E-1
Scans to average: 20
Electric dark correction enabled: true
Nonlinearity correction enabled: true
Boxcar width: 5
XAxis mode: Wavelengths
Number of Pixels in Spectrum: 2048
>>>>>Begin Spectral Data<<<<<
187.83	-211603.64
188.298	1586.68
188.766	955.59
189.233	794.77
189.701	1149.61
190.169	1664.86
190.636	660.3
191.104	629.32
191.571	121.13
192.039	-32.63
192.506	-58.03
192.974	262.8
193.441	-461.7
193.908	40.39
194.375	-13.41
194.842	43.61
195.31	104.75
195.777	130.37
196.244	342.51
196.711	371.47
197.177	483.99
197.644	706.28
198.111	1173.01
198.578	1675.54
199.045	1337.63
199.511	2182.33
199.978	2549.58
200.445	2189.67
200.911	2428.92
201.378	2681.29
201.844	2430.55
202.31	4148.22
202.777	4288.45
203.243	2378.96
203.709	2226.73
204.176	2666.17
204.642	2216.73
205.108	2071.26
205.574	1685.2
206.04	1538.41
206.506	1444.57
206.972	1357.45
207.438	1304.74
207.903	1472
208.369	1297.65
208.835	1315.41
209.301	1374.99
209.766	1410.44
210.232	1398.88
210.697	1742.43
211.163	2162.21
211.628	3274.05
212.094	2744.41
212.559	3398.21
213.024	2133.5
213.49	2637.35
213.955	2578.92
214.42	2534.17
214.885	2355.24
215.35	2269.49
215.815	2195.51
216.28	2338.56
216.745	1909.44
217.21	2107.99
217.675	1937.32
218.14	2208.78
218.604	2502.65
219.069	2898.65
219.534	3108.82
219.998	3664.66
220.463	4523.85
220.927	5656.48
221.392	5412.09
221.856	5542.32
222.32	7051.89
222.785	8814.41
223.249	11184.39
223.713	12526.38
224.177	12580.9
224.642	16156.25
225.106	19976.07
225.57	21856.81
226.034	16301.93
226.497	24799.31
226.961	22470.03
227.425	26189.66
227.889	29081.75
228.353	29076.28
228.816	60252.83
229.28	57707.38
229.744	48814.38
230.207	29673.5
230.671	29216.77
231.134	48385.07
231.597	55823.24
232.061	55832.68
232.524	54442.95
232.987	37550.62
233.45	33812.62
233.914	30339.51
234.377	31146.33
234.84	28523.07
235.303	33665.12
235.766	37639.21
236.229	38864.15
236.691	24491.44
237.154	27533.2
237.617	20747.47
238.08	21248.94
238.542	24946.46
239.005	17823.3
239.468	17690.29
239.93	16668.65
240.393	15156.65
240.855	13292.33
241.317	13620.52
241.78	16591.96
242.242	17154.38
242.704	18515.31
243.166	16130.38
243.629	14625.24
244.091	16864.45
244.553	18495.96
245.015	19867.03
245.477	25705.77
245.939	37710.65
246.4	40050.61
246.862	38946.62
247.324	36773.14
247.786	41212.23
248.247	54009.02
248.709	55857.45
249.17	41803.24
249.632	39395.65
250.093	45745.95
250.555	39547.17
251.016	24138.32
251.477	22915
251.939	24729.46
252.4	25928.3
252.861	30856.98
253.322	28747.14
253.783	34192.9
254.244	44333.48
254.705	34935.88
255.166	31039.29
255.627	30538.75
256.088	43075.32
256.549	45699.11
257.009	39342.26
257.47	47731.14
257.931	38843.7
258.391	29083.01
258.852	29979.67
259.312	31451.1
259.773	38861.21
260.233	32876.31
260.694	27724.75
261.154	31415.12
261.614	25215.09
262.074	22566.61
262.534	23442.18
262.994	22087.43
263.455	29439.36
263.915	24820.2
264.374	23343.14
264.834	25497.65
265.294	28263.21
265.754	29301.2
266.214	27769.77
266.673	26034.44
267.133	32853.4
267.593	32611.01
268.052	39917.17
268.512	34727.37
268.971	41827.01
269.431	45916.66
269.89	41111.58
270.349	61630.97
270.809	68736.74
271.268	61768.72
271.727	138544.51
272.186	89773.65
272.645	67341.43
273.104	48538.04
273.563	70221.55
274.022	55262.3
274.481	46972.51
274.94	36180.32
275.399	26865.37
275.857	31267.55
276.316	42268.21
276.775	37604.88
277.233	37001.08
277.692	34620.51
278.15	39184.24
278.609	40296.26
279.067	37295.57
279.525	34673.51
279.984	44768.24
280.442	53806.06
280.9	52995.16
281.358	34841
281.816	32477.04
282.274	31797
282.732	32859.39
283.19	33008.13
283.648	28507.79
284.106	30346.05
284.564	30841.74
285.021	28598.45
285.479	21307.38
285.937	19387.29
286.394	17028.44
286.852	17536.49
287.309	18430.89
287.767	17798.99
288.224	16927.92
288.682	18572.56
289.139	20406.2
289.596	18705.52
290.053	19464.57
290.511	24598.41
290.968	29880.15
291.425	40589.19
291.882	33794.12
292.339	29457.12
292.796	29270.35
293.252	27620.65
293.709	21952.14
294.166	19692.82
294.623	21768.44
295.079	20926.87
295.536	21047.74
295.992	19115.05
296.449	18922.08
296.905	19684.11
297.362	18880.46
297.818	19893.47
298.274	20642.82
298.731	21056.15
299.187	20840.79
299.643	22378.99
300.099	27051.19
300.555	29683.57
301.011	24818.12
301.467	23888.01
301.923	27966.83
302.379	27332.84
302.835	26851.95
303.291	26929.05
303.746	30652.6
304.202	38740.25
304.658	38952.1
305.113	26223.83
305.569	25726.38
306.024	27452.34
306.479	26202.14
306.935	22091.25
307.39	24131.56
307.845	22268.97
308.301	22411.48
308.756	21877.86
309.211	21125.55
309.666	21641.52
310.121	26854.35
310.576	27282.45
311.031	27105.5
311.486	31101.29
311.94	31122.25
312.395	41719.72
312.85	78597.65
313.305	386630.13
313.759	2002425.44
314.214	145223.03
314.668	115275.54
315.123	97173.43
315.577	34873.76
316.032	31034.98
316.486	38908.79
316.94	30753.01
317.394	21402.19
317.849	16652.94
318.303	15776.38
318.757	14926.43
319.211	16509.15
319.665	14471.98
320.119	14657.7
320.572	21045.49
321.026	19685.86
321.48	16409.29
321.934	17901.67
322.387	17980.13
322.841	19423.27
323.295	17472.5
323.748	20140.13
324.202	20451.05
324.655	24564.83
325.108	34322.5
325.562	24251.47
326.015	28825.13
326.468	21797.41
326.921	24383.69
327.374	22737.24
327.827	23677.87
328.28	26819.02
328.733	17970.76
329.186	15808.66
329.639	15083.3
330.092	12728.67
330.545	12127.67
330.997	12235.29
331.45	13368.39
331.903	15672.7
332.355	26941.21
332.808	26178.48
333.26	21587.49
333.713	23426.05
334.165	23587.23
334.617	31467.26
335.069	25420.69
335.522	45934.81
335.974	50831.7
336.426	46432.52
336.878	32181.62
337.33	16359.4
337.782	15987.75
338.234	20016.3
338.686	23948.22
339.137	28377.37
339.589	26757.94
340.041	20980.03
340.493	18051.38
340.944	18468.21
341.396	19891.25
341.847	16722.44
342.299	19705.04
342.75	24089.51
343.201	21116.09
343.653	24331.55
344.104	29941.82
344.555	23587.42
345.006	36777.71
345.457	28161.95
345.908	22437.51
346.359	21155.53
346.81	17245.15
347.261	18218.32
347.712	17950.41
348.163	19245.8
348.613	19472.49
349.064	18213.47
349.515	15951.84
349.965	16354.1
350.416	19709.24
350.866	21638.66
351.317	24454.24
351.767	40602.98
352.217	51193.69
352.668	42392.22
353.118	38836.77
353.568	37490.91
354.018	29599.56
354.468	31272.02
354.918	22451.92
355.368	19665.86
355.818	27817.12
356.268	80125.73
356.718	334314.7
357.168	83437.14
357.617	42059.01
358.067	46848.3
358.517	43905.76
358.966	51601.05
359.416	57808.78
359.865	62481.34
360.315	74481.33
360.764	34733.87
361.213	19467.88
361.663	18480.32
362.112	22799.99
362.561	36757.88
363.01	27698.97
363.459	23319.5
363.908	25218.26
364.357	21418.05
364.806	36282.61
365.255	24924.64
365.703	22852.01
366.152	22897.62
366.601	18572.89
367.05	15076.6
367.498	13702.22
367.947	14352.01
368.395	14937.54
368.844	13232.92
369.292	15980.62
369.74	11017.68
370.189	16890.38
370.637	19783.87
371.085	17062.29
371.533	20779.57
371.981	20094.19
372.429	19166.15
372.877	19983.61
373.325	16715.03
373.773	17039.68
374.221	15157.76
374.669	18783.34
375.116	16215.93
375.564	16346.76
376.012	18275.26
376.459	15083.48
376.907	17966.23
377.354	21733.98
377.801	20221.53
378.249	23265.17
378.696	29711.85
379.143	36028.39
379.591	38466.61
380.038	65124.34
380.485	47115.91
380.932	50928.21
381.379	46546.38
381.826	34284.43
382.273	24368.78
382.72	21339.34
383.166	20815.32
383.613	13506.67
384.06	12170.73
384.506	14067.92
384.953	10333.93
385.4	10405.03
385.846	9105.34
386.292	8885.84
386.739	8684.5
387.185	8587.67
387.631	8582.81
388.078	8309.42
388.524	8893.24
388.97	8201.44
389.416	6834.86
389.862	7263.14
390.308	6880.5
390.754	6994.45
391.2	7588.43
391.645	7774.66
392.091	7431.01
392.537	7175.87
392.983	7193.24
393.428	7064.21
393.874	7582.93
394.319	7620.86
394.765	7229.76
395.21	7444.73
395.655	6987.9
396.101	6550.87
396.546	5910.59
396.991	5974.95
397.436	5558.54
397.881	5378.14
398.326	5102.53
398.771	4821.68
399.216	4221.65
399.661	3811.24
400.106	3803.01
400.551	3901.56
400.995	3508.98
401.44	3480.3
401.885	3272.1
402.329	3312.99
402.774	3183.5
403.218	3086.2
403.663	2985.57
404.107	3074.02
404.551	3098.78
404.995	2843.5
405.44	2740.88
405.884	2783.02
406.328	2704.77
406.772	2703.84
407.216	2470.19
407.66	2389.52
408.104	2276.6
408.547	2134.83
408.991	2070.16
409.435	1999.22
409.879	1977.87
410.322	1957.65
410.766	1891.44
411.209	1796.99
411.653	1726.94
412.096	1691.77
412.54	1696.87
412.983	1686.82
413.426	1691.95
413.869	1689.91
414.312	1658.15
414.756	1598.31
415.199	1525.42
415.642	1483.17
416.085	1488.63
416.527	1479
416.97	1505.41
417.413	1429.22
417.856	1416.23
418.298	1404.49
418.741	1400.6
419.184	1399
419.626	1460.36
420.069	1463.14
420.511	1474.27
420.953	1441.84
421.396	1432.67
421.838	1398.7
422.28	1432.4
422.722	1441.22
423.164	1461.26
423.606	1437.17
424.048	1436.98
424.49	1363.08
424.932	1356.71
425.374	1337.78
425.816	1363.42
426.258	1387.91
426.699	1404.51
427.141	1384.64
427.582	1404.7
428.024	1401.18
428.465	1392.39
428.907	1358.85
429.348	1343.5
429.789	1341.87
430.231	1313.64
430.672	1331.24
431.113	1299.77
431.554	1278.67
431.995	1243.88
432.436	1199.99
432.877	1172.42
433.318	1151.65
433.759	1144.82
434.2	1146.22
434.64	1132.75
435.081	1135.55
435.522	1073.75
435.962	1034.29
436.403	1010.7
436.843	1026.58
437.284	1005.85
437.724	978.82
438.164	982.94
438.604	963.82
439.045	925.88
439.485	886.43
439.925	867.71
440.365	847.18
440.805	836.56
441.245	825.67
441.685	794.36
442.125	787.43
442.564	791.11
443.004	772.03
443.444	768.69
443.883	770.83
444.323	767.49
444.762	770.03
445.202	781.5
445.641	795.11
446.081	789.45
446.52	796.77
446.959	788.61
447.398	768.9
447.837	760.47
448.276	746.75
448.716	754.04
449.154	760.96
449.593	743.43
450.032	740.98
450.471	727.43
450.91	730.61
451.349	728.78
451.787	728.55
452.226	741.65
452.664	741.77
453.103	745.04
453.541	744.73
453.98	743.89
454.418	749.73
454.856	738.67
455.295	739.77
455.733	745.17
456.171	751.33
456.609	751.47
457.047	751.66
457.485	763.29
457.923	765.47
458.361	755.4
458.798	758.68
459.236	758.27
459.674	764.28
460.111	767.5
460.549	760.55
460.987	757.66
461.424	755.68
461.862	752.13
462.299	740.75
462.736	738.91
463.173	742.42
463.611	735.14
464.048	731.89
464.485	736.89
464.922	729.71
465.359	725.53
465.796	714.98
466.233	710.28
466.67	703.25
467.106	702.01
467.543	695.35
467.98	686.04
468.416	667.71
468.853	662.09
469.29	642.19
469.726	635.53
470.162	618.73
470.599	610.69
471.035	604.57
471.471	589.71
471.907	585.87
472.344	581.77
472.78	583.24
473.216	589.71
473.652	582.71
474.088	581.68
474.523	579.45
474.959	585.22
475.395	580.96
475.831	577.56
476.266	581.68
476.702	580.71
477.138	573.73
477.573	570.47
478.008	568.69
478.444	571.96
478.879	577.38
479.314	580.22
479.75	580.08
480.185	582.75
480.62	587.96
481.055	591.07
481.49	595.66
481.925	605.84
482.36	617.74
482.795	635.75
483.229	653.5
483.664	667.76
484.099	671.46
484.534	683.07
484.968	690.82
485.403	693.66
485.837	694.36
486.271	694.57
486.706	695.48
487.14	688.42
487.574	679.08
488.009	672.89
488.443	668.16
488.877	675.77
489.311	678.44
489.745	686.75
490.179	694.29
490.613	707.5
491.046	713.76
491.48	720.48
491.914	723.3
492.348	729.36
492.781	735.04
493.215	737.73
493.648	740.07
494.082	747.51
494.515	749.31
494.948	758.38
495.382	764.84
495.815	771.15
496.248	778.3
496.681	792.99
497.114	805.79
497.547	818.42
497.98	833.39
498.413	841.73
498.846	853.49
499.279	864.54
499.711	871.53
500.144	875.15
500.577	886.79
501.009	900.03
501.442	910.68
501.874	913.6
502.306	917.29
502.739	925.98
503.171	942.69
503.603	946.38
504.036	956.7
504.468	961.95
504.9	974.04
505.332	981.86
505.764	986.93
506.196	994.37
506.627	1009.34
507.059	1022.29
507.491	1031.89
507.923	1028.53
508.354	1044.11
508.786	1055.18
509.217	1073.69
509.649	1089.31
510.08	1108.45
510.512	1124.13
510.943	1139.27
511.374	1149.54
511.805	1169.54
512.237	1186.82
512.668	1217.97
513.099	1242.97
513.53	1268.66
513.961	1286.75
514.391	1316.32
514.822	1347.13
515.253	1380.21
515.684	1402.37
516.114	1428.7
516.545	1446.77
516.975	1469.38
517.406	1483.69
517.836	1481.44
518.267	1482.26
518.697	1496.34
519.127	1495.75
519.558	1498.97
519.988	1497.81
520.418	1502.64
520.848	1515.22
521.278	1518.84
521.708	1531.24
522.138	1539.32
522.567	1566.34
522.997	1587
523.427	1598.15
523.857	1610.61
524.286	1615.38
524.716	1625.88
525.145	1641.66
525.575	1649.32
526.004	1658.67
526.433	1648.53
526.863	1645.7
527.292	1632.79
527.721	1635.01
528.15	1637.36
528.579	1635.41
529.008	1644.02
529.437	1663.7
529.866	1673.91
530.295	1687.05
530.724	1696.92
531.152	1721.78
531.581	1732.98
532.01	1747.45
532.438	1754.49
532.867	1766.96
533.295	1783.27
533.723	1786.06
534.152	1783.49
534.58	1782.21
535.008	1766.81
535.436	1768.17
535.865	1774.45
536.293	1788.82
536.721	1803.66
537.149	1827.18
537.576	1829.08
538.004	1840.45
538.432	1848.25
538.86	1845.32
539.287	1851.69
539.715	1864.22
540.143	1866.24
540.57	1861.41
540.998	1856.7
541.425	1834.13
541.852	1812.66
542.28	1810.99
542.707	1794.54
543.134	1780.64
543.561	1776.72
543.988	1768.63
544.415	1766.55
544.842	1760.61
545.269	1753.1
545.696	1753.59
546.123	1764.79
546.549	1754.33
546.976	1740.95
547.403	1739.23
547.829	1740.76
548.256	1741.6
548.682	1737.55
549.108	1730.8
549.535	1729.45
549.961	1730.56
550.387	1716.84
550.813	1712.44
551.24	1718.47
551.666	1719.03
552.092	1710.33
552.518	1703.74
552.943	1698.18
553.369	1705.79
553.795	1710.88
554.221	1712.36
554.646	1709.42
555.072	1720.5
555.498	1725.44
555.923	1734.07
556.349	1748.76
556.774	1757.3
557.199	1759.86
557.625	1766.3
558.05	1761.4
558.475	1772.17
558.9	1772.16
559.325	1765.28
559.75	1759.57
560.175	1753.68
560.6	1748.67
561.025	1746.93
561.449	1749.96
561.874	1755.69
562.299	1760.76
562.723	1768.03
563.148	1758.94
563.572	1764.05
563.997	1775.31
564.421	1782.97
564.846	1784.49
565.27	1790.02
565.694	1790.65
566.118	1802.78
566.542	1812.31
566.966	1808.56
567.39	1806.21
567.814	1799.25
568.238	1802.23
568.662	1810.06
569.086	1815.61
569.509	1826.05
569.933	1814.38
570.357	1809.59
570.78	1792.06
571.204	1782.46
571.627	1774.99
572.05	1776.89
572.474	1779.03
572.897	1768.01
573.32	1762.96
573.743	1755.11
574.166	1739.75
574.589	1742.6
575.012	1737.51
575.435	1737.77
575.858	1729.81
576.281	1719.84
576.704	1705.16
577.126	1695.23
577.549	1686.23
577.972	1677.05
578.394	1668.12
578.817	1661.75
579.239	1643
579.661	1630.02
580.084	1616.64
580.506	1605.23
580.928	1601.93
581.35	1592.6
581.772	1588.67
582.194	1575.74
582.616	1564.08
583.038	1550.37
583.46	1540.63
583.882	1537.24
584.303	1543.25
584.725	1539.79
585.147	1541.89
585.568	1555.24
585.99	1569.13
586.411	1576.94
586.833	1593.8
587.254	1597.23
587.675	1613.48
588.096	1626.94
588.518	1624.55
588.939	1607.64
589.36	1605.52
589.781	1595.94
590.202	1567.08
590.623	1558.36
591.043	1557.32
591.464	1544.63
591.885	1541.86
592.305	1535.45
592.726	1521.9
593.147	1523.93
593.567	1518.39
593.987	1511.17
594.408	1506.52
594.828	1504.34
595.248	1496.93
595.669	1477.87
596.089	1471.24
596.509	1463.39
596.929	1449.74
597.349	1451.19
597.769	1439.46
598.189	1434.61
598.608	1436.1
599.028	1438
599.448	1438.71
599.867	1426.75
600.287	1422.25
600.706	1418.81
601.126	1410.35
601.545	1410.36
601.965	1409.24
602.384	1406.4
602.803	1409.41
603.222	1405.26
603.641	1399.7
604.061	1396.63
604.48	1393.77
604.898	1403.24
605.317	1409.09
605.736	1412.01
606.155	1410.75
606.574	1403.52
606.992	1409.38
607.411	1406.66
607.829	1400.19
608.248	1397.72
608.666	1397.52
609.085	1399.21
609.503	1391.94
609.921	1386.28
610.339	1389.21
610.758	1390.45
611.176	1387.26
611.594	1379.73
612.012	1377.71
612.43	1382.52
612.847	1391.37
613.265	1393.64
613.683	1399.85
614.101	1402.69
614.518	1401.45
614.936	1393.45
615.353	1379.44
615.771	1377.45
616.188	1378.77
616.606	1375.39
617.023	1369.22
617.44	1356.42
617.857	1349.36
618.274	1341.29
618.691	1336.23
619.108	1327.19
619.525	1322.2
619.942	1330.35
620.359	1334.68
620.776	1330.45
621.192	1327.77
621.609	1326.13
622.026	1333.12
622.442	1341.15
622.859	1345.12
623.275	1338.55
623.691	1344.87
624.108	1358.15
624.524	1373.47
624.94	1372.94
625.356	1384.71
625.772	1399.26
626.188	1413.02
626.604	1416.26
627.02	1412.32
627.436	1410.45
627.852	1418.56
628.268	1432.36
628.683	1422.55
629.099	1413.88
629.514	1409.21
629.93	1413.1
630.345	1417.4
630.761	1413.54
631.176	1416.55
631.591	1410.5
632.007	1403.32
632.422	1400.21
632.837	1387.19
633.252	1384.78
633.667	1372.98
634.082	1363
634.497	1348.04
634.911	1326.13
635.326	1320.76
635.741	1301.7
636.155	1289.33
636.57	1289.77
636.984	1288.17
637.399	1289.72
637.813	1286.69
638.228	1284.17
638.642	1285.71
639.056	1274.54
639.47	1274.71
639.884	1265.24
640.298	1257.85
640.712	1256.23
641.126	1243.34
641.54	1233.58
641.954	1226.7
642.368	1213.99
642.781	1205.67
643.195	1188.61
643.609	1188.29
644.022	1181.91
644.436	1176.79
644.849	1164.69
645.262	1152.38
645.676	1153.44
646.089	1148.26
646.502	1132.57
646.915	1127.22
647.328	1110.35
647.741	1108.23
648.154	1094.69
648.567	1092.08
648.98	1079.09
649.393	1079.49
649.805	1076.41
650.218	1070.1
650.631	1054.87
651.043	1049.1
651.456	1043.18
651.868	1044.7
652.28	1064.97
652.693	1081.59
653.105	1088.49
653.517	1100.24
653.929	1101.41
654.341	1108.79
654.753	1096.82
655.165	1105.45
655.577	1104.94
655.989	1103.95
656.401	1097.34
656.813	1060.14
657.224	1040
657.636	1012.88
658.047	995.6
658.459	976.35
658.87	967.52
659.282	956.25
659.693	934.15
660.104	918.69
660.515	903.92
660.926	902.24
661.338	900
661.749	893.04
662.159	883.28
662.57	878.75
662.981	875.47
663.392	868.3
663.803	873.1
664.213	873.09
664.624	870.23
665.035	874.5
665.445	861.45
665.855	854.39
666.266	847.12
666.676	844.71
667.086	835.31
667.497	833.35
667.907	827.24
668.317	817.62
668.727	813.54
669.137	814.48
669.547	812.57
669.956	815.5
670.366	817.48
670.776	819.48
671.186	824.98
671.595	828.62
672.005	833.54
672.414	833.63
672.824	833.21
673.233	838.7
673.642	841.61
674.052	844.41
674.461	846.44
674.87	851.28
675.279	848.44
675.688	849.61
676.097	852.22
676.506	849.41
676.915	865.34
677.323	868.34
677.732	867.15
678.141	868.07
678.549	858.25
678.958	858.2
679.366	859.89
679.775	867.04
680.183	880.94
680.592	889.88
681	898.11
681.408	893.37
681.816	904.84
682.224	916.87
682.632	930.01
683.04	965.48
683.448	996.99
683.856	1033.47
684.264	1075.88
684.671	1114.1
685.079	1160.4
685.487	1210.93
685.894	1281.69
686.302	1337.87
686.709	1382.91
687.116	1436.34
687.524	1477.17
687.931	1509.63
688.338	1537.79
688.745	1558.58
689.152	1583.3
689.559	1618.63
689.966	1654.01
690.373	1663.62
690.78	1695.73
691.187	1751.08
691.593	1787.37
692	1816.84
692.407	1868.86
692.813	1933.48
693.22	1983.19
693.626	2033.13
694.032	2071.09
694.439	2135.07
694.845	2180.5
695.251	2242.48
695.657	2293.66
696.063	2379.2
696.469	2438.51
696.875	2491.36
697.281	2512.23
697.687	2542.15
698.093	2565.48
698.498	2624.39
698.904	2664.13
699.31	2735.44
699.715	2779.33
700.12	2853.85
700.526	2856.74
700.931	2910.34
701.337	2946.15
701.742	2966.93
702.147	3034.96
702.552	3052.73
702.957	3098.02
703.362	3108.47
703.767	3124.03
704.172	3150.71
704.577	3095.54
704.981	3131.22
705.386	3137.98
705.791	3122.99
706.195	3181.56
706.6	3181.7
707.004	3246.55
707.408	3210.97
707.813	3226.07
708.217	3206.08
708.621	3200.4
709.025	3281.59
709.43	3274.05
709.834	3319.57
710.237	3373.82
710.641	3354.17
711.045	3367.34
711.449	3356.7
711.853	3376.92
712.256	3408.63
712.66	3437.72
713.064	3498.8
713.467	3531.32
713.87	3626.48
714.274	3662.52
714.677	3755.06
715.08	3892.88
715.484	4036.75
715.887	4208.78
716.29	4375.3
716.693	4550.75
717.096	4754.05
717.499	4861.44
717.901	4877.66
718.304	4893.46
718.707	4909.98
719.109	4814.58
719.512	4781.25
719.915	4657.79
720.317	4602.1
720.719	4634.76
721.122	4606.47
721.524	4561.55
721.926	4524.91
722.328	4606.16
722.731	4596.12
723.133	4615.06
723.535	4777.3
723.937	4790.98
724.338	4833.18
724.74	4866.23
725.142	4815.21
725.544	4809.68
725.945	4826.41
726.347	4818.83
726.748	4808.72
727.15	4814.93
727.551	4780.12
727.952	4753.32
728.354	4725.92
728.755	4723.42
729.156	4684.94
729.557	4666.19
729.958	4560.35
730.359	4510.74
730.76	4491.81
731.161	4439.29
731.562	4416.26
731.962	4417.76
732.363	4359.82
732.763	4302.02
733.164	4328.54
733.564	4268.74
733.965	4183.86
734.365	4152.59
734.766	4175.43
735.166	4141.83
735.566	4093.9
735.966	4067.84
736.366	4062.6
736.766	4010.23
737.166	4037.81
737.566	4000.61
737.966	3978.41
738.365	4011.02
738.765	4005.36
739.165	3941.11
739.564	3918.7
739.964	3956.78
740.363	3920.07
740.763	3914.93
741.162	3905.6
741.561	3878.11
741.96	3841.7
742.36	3857
742.759	3863.55
743.158	3895.69
743.557	3908.45
743.955	3939.97
744.354	3904.2
744.753	3952.37
745.152	3916.42
745.55	3961.42
745.949	3953.39
746.348	3953.18
746.746	3967.46
747.144	3931.5
747.543	3912.4
747.941	3952.68
748.339	3893.85
748.737	3883.54
749.136	3875.78
749.534	3932.85
749.932	3909.01
750.33	3929.11
750.727	3974.82
751.125	3954.58
751.523	3939.08
751.921	3974.03
752.318	3944.34
752.716	3995.57
753.113	4005.6
753.511	4026.34
753.908	4023.77
754.305	4010.03
754.703	4060.76
755.1	4109.65
755.497	4157.71
755.894	4317.3
756.291	4465.13
756.688	4740.24
757.085	5101.79
757.482	5615.41
757.878	6175.56
758.275	6685.29
758.672	7379.82
759.068	7949.19
759.465	8759.98
759.861	9807.85
760.258	11023.52
760.654	11652.32
761.05	11556.34
761.447	11030.08
761.843	10266.88
762.239	9475.64
762.635	9116.81
763.031	8778.4
763.427	8284.24
763.822	7772.29
764.218	7261.43
764.614	6595.7
765.01	6152.03
765.405	5866.9
765.801	5649.07
766.196	5374.86
766.592	5220.04
766.987	4958.41
767.382	4782.67
767.778	4707.78
768.173	4598.26
768.568	4539.51
768.963	4436.28
769.358	4452.02
769.753	4412.67
770.148	4343.1
770.542	4339.31
770.937	4313.77
771.332	4387.98
771.726	4402.28
772.121	4352.58
772.515	4398.31
772.91	4385.02
773.304	4443.58
773.699	4389.42
774.093	4432.54
774.487	4478.18
774.881	4515.74
775.275	4513.28
775.669	4475.95
776.063	4511.49
776.457	4540.95
776.851	4477.78
777.245	4470.89
777.638	4499.15
778.032	4592.39
778.425	4563.05
778.819	4595.55
779.212	4558.78
779.606	4523.05
779.999	4542.26
780.392	4528.55
780.786	4594.31
781.179	4610.53
781.572	4643.39
781.965	4653.81
782.358	4606.11
782.751	4652.49
783.143	4615.33
783.536	4676.88
783.929	4714.9
784.322	4811.24
784.714	4837.87
785.107	4834.91
785.499	4894.53
785.891	4875.89
786.284	4857.66
786.676	4973.18
787.068	4959
787.46	5001.85
787.852	5019.64
788.245	5088.81
788.636	5114.07
789.028	5169.88
789.42	5205.4
789.812	5213.41
790.204	5292.87
790.595	5376.93
790.987	5218.23
791.378	5235.86
791.77	5343.03
792.161	5453.7
792.553	5501.31
792.944	5409.41
793.335	5353.55
793.726	5411.74
794.117	5486.87
794.508	5603.49
794.899	5578.4
795.29	5694.31
795.681	5744.2
796.072	5625.94
796.463	5478.68
796.853	5487.76
797.244	5617.43
797.634	5645
798.025	5644.57
798.415	5654.28
798.806	5729.04
799.196	5800.03
799.586	5842.15
799.976	5808.18
800.366	5996.63
800.756	6187.88
801.146	6153.26
801.536	6177.84
801.926	6242.26
802.316	6263.87
802.706	6321.42
803.095	6220.89
803.485	6304.4
803.874	6336.71
804.264	6554.26
804.653	6534.33
805.043	6656.15
805.432	6746.74
805.821	6746.69
806.21	6762.74
806.599	6858.66
806.988	6896.26
807.377	6980.18
807.766	7088.46
808.155	7321.15
808.544	7099.07
808.933	7109.94
809.321	7088.84
809.71	7330.44
810.098	7457.19
810.487	7835.4
810.875	8233.84
811.264	8252.07
811.652	8491.1
812.04	8607.51
812.428	8743.6
812.816	9371.87
813.204	9717.11
813.592	10174.08
813.98	10447.55
814.368	10376.01
814.756	10764.96
815.144	10698
815.531	11075.15
815.919	11016.73
816.306	11269
816.694	11010.95
817.081	11051.47
817.469	11330.48
817.856	11322.94
818.243	11549.01
818.63	11865.32
819.017	11520.29
819.404	11567.72
819.791	11886.28
820.178	12387.7
820.565	12587.05
820.952	13352.21
821.339	12943.55
821.725	13097.87
822.112	12491.1
822.498	12451.89
822.885	12556.58
823.271	12485.05
823.657	12828.95
824.044	12829.16
824.43	12895.4
824.816	12873.02
825.202	12517.06
825.588	13355.12
825.974	13372.76
826.36	13798.8
826.746	13822.7
827.132	14122.32
827.517	14093.5
827.903	13447.29
828.289	13481.52
828.674	12836.81
829.06	12751.83
829.445	13077.81
829.83	13373.03
830.216	13762.35
830.601	14067.1
830.986	13746.18
831.371	13632.32
831.756	14099.7
832.141	13749.54
832.526	13751.55
832.911	13988.8
833.295	13899.87
833.68	14292.95
834.065	13788.24
834.449	13035.62
834.834	12977.2
835.218	12972.55
835.603	13255.84
835.987	13082.59
836.371	13774.79
836.755	13693.51
837.139	14028.95
837.524	14231.89
837.908	14088.93
838.291	14143.08
838.675	14201.75
839.059	14377.95
839.443	14369.71
839.827	14176.49
840.21	14577.6
840.594	14457.97
840.977	14624.24
841.361	14604.15
841.744	14911.83
842.127	14780.14
842.511	14982.12
842.894	15480.98
843.277	15796.06
843.66	16252.63
844.043	16329.81
844.426	15661.02
844.809	15401.21
845.191	15434.82
845.574	15051.93
845.957	14749.13
846.339	14658.49
846.722	14228.87
847.104	14285.29
847.487	14143.59
847.869	14150.63
848.252	14379.55
848.634	14647.11
849.016	14866.57
849.398	14961
849.78	15664.56
850.162	15675.6
850.544	16019.04
850.926	16536.17
851.307	16456.19
851.689	16685.11
852.071	17053.87
852.452	17317.3
852.834	17298.85
853.215	17628.1
853.597	17763.8
853.978	18010.74
854.359	18384.96
854.741	17567.3
855.122	17482.7
855.503	17249.57
855.884	17363.87
856.265	17312.84
856.646	17414.21
857.026	17093.15
857.407	17032.56
857.788	17155.83
858.169	17390.83
858.549	16683.9
858.93	17196.71
859.31	17238.38
859.69	17404.06
860.071	17064.37
860.451	16886.71
860.831	16269.04
861.211	17226.99
861.591	17681.65
861.971	17655.5
862.351	17807.68
862.731	18129.32
863.111	18337.46
863.491	18604.88
863.87	19334.42
864.25	19614.39
864.629	19280.16
865.009	19700.86
865.388	20395.74
865.768	21850.31
866.147	21775.91
866.526	20572.61
866.905	20809.33
867.284	21984.45
867.663	20877.28
868.042	20014.41
868.421	19943.56
868.8	20278.02
869.179	20480.04
869.558	19284.64
869.936	17782.11
870.315	18100.13
870.693	18549.15
871.072	20011.91
871.45	19065.18
871.828	19308.46
872.207	20294.84
872.585	20000.06
872.963	20535.87
873.341	19827.46
873.719	19600.61
874.097	19357.99
874.475	19727.05
874.853	20175.08
875.23	19329.17
875.608	20130.35
875.986	21773.31
876.363	20815.9
876.741	21451.84
877.118	20928.51
877.495	21972.43
877.873	22336.34
878.25	23508.96
878.627	22544.08
879.004	22859.45
879.381	22758.03
879.758	22168.68
880.135	20623.87
880.512	21817.6
880.889	21237.94
881.265	21007.21
881.642	20826.62
882.019	21185.06
882.395	20757.88
882.772	21586.45
883.148	20658.24
883.524	20571.7
883.901	20455.2
884.277	20772.01
884.653	20632.39
885.029	21229.16
885.405	23524.09
885.781	23344.76
886.157	22377.59
886.532	22648.94
886.908	22631.56
887.284	25166.85
887.659	25986.24
888.035	26798.06
888.411	27497.23
888.786	27867.77
889.161	28849.92
889.537	28317.21
889.912	29217.99
890.287	29191.13
890.662	29956.44
891.037	29407.21
891.412	27417.91
891.787	27149.16
892.162	26205.65
892.536	26822.11
892.911	25802.04
893.286	25232.49
893.66	24215.47
894.035	24836.04
894.409	27047.12
894.784	25954.8
895.158	26394.01
895.532	27949.35
895.906	28712.69
896.281	29371.95
896.655	28899.81
897.029	33040.25
897.402	34437.99
897.776	38313.25
898.15	38180.91
898.524	37768.02
898.898	38264.98
899.271	42834.13
899.645	37116.54
900.018	35633.89
900.392	36945.91
900.765	37241.68
901.138	34457.43
901.511	33903.36
901.884	31132.58
902.258	28705.88
902.631	29647.94
903.003	34091.85
903.376	30761.46
903.749	34476.79
904.122	36924.04
904.495	40675.75
904.867	41185.69
905.24	35757.71
905.612	33287.63
905.985	34051.64
906.357	35594.55
906.729	33980.68
907.102	29045.39
907.474	27932.67
907.846	28097.38
908.218	27724.73
908.59	24496.83
908.962	23679.07
909.334	25496.54
909.705	26788.03
910.077	25985.26
910.449	27052.23
910.82	27812.52
911.192	30596.67
911.563	31805.32
911.935	34039.36
912.306	34076.54
912.677	35174.59
913.048	34838.99
913.419	37789.41
913.79	38003.12
914.161	40788.47
914.532	39010.14
914.903	35836.81
915.274	34035.12
915.645	33508.88
916.015	29505.67
916.386	28141.01
916.756	29963.66
917.127	30910.11
917.497	27622.02
917.868	30071.36
918.238	28569.03
918.608	29379.27
918.978	29996.46
919.348	31764.51
919.718	32811.04
920.088	31594.26
920.458	32810.25
920.828	34520.94
921.198	32710.28
921.567	34944.33
921.937	27064.05
922.306	27317.94
922.676	29447.08
923.045	24574.27
923.415	23335.91
923.784	21258.94
924.153	21868.96
924.522	21852.63
924.891	20549.34
925.26	22024.6
925.629	21502.48
925.998	24702.27
926.367	24124.36
926.736	22994.54
927.104	27379.46
927.473	29442.13
927.842	35586.47
928.21	35225.18
928.578	37022.68
928.947	35004.45
929.315	35223.37
929.683	41324.93
930.051	41685.46
930.42	48372.87
930.788	41334.82
931.156	41014.4
931.523	38455.37
931.891	35517.4
932.259	34097.25
932.627	39507.59
932.994	55882.34
933.362	46121.54
933.729	40019.99
934.097	38268.28
934.464	32406.19
934.831	37371.32
935.199	36826.23
935.566	35692.29
935.933	36131.41
936.3	43812.5
936.667	34109.12
937.034	30766.65
937.401	30459
937.767	26308.93
938.134	23435.33
938.501	33009.26
938.867	35201.84
939.234	59559.79
939.6	50875.1
939.967	56108.65
940.333	37553.91
940.699	31987.9
941.065	25686.32
941.431	33661.68
941.798	32450.42
942.163	42652.5
942.529	26673.86
942.895	24545.09
943.261	15889.38
943.627	20824.46
943.992	18237.87
944.358	18266.38
944.723	18344.34
945.089	17887.49
945.454	16520.73
945.82	17658.11
946.185	16945.52
946.55	19632.8
946.915	17605.48
947.28	20643.04
947.645	18178.13
948.01	16778.66
948.375	17483.35
948.74	20935.11
949.104	24359.54
949.469	35194.79
949.834	62152.69
950.198	59025.36
950.562	35398.6
950.927	29490.52
951.291	35504.99
951.655	30255.57
952.02	28427.1
952.384	21487.37
952.748	18713.91
953.112	18261.85
953.476	15892.06
953.839	14684.56
954.203	14524.36
954.567	18151.86
954.931	28559.93
955.294	24400.72
955.658	24539.83
956.021	41715.3
956.385	70730.21
956.748	104451.12
957.111	162113.12
957.474	182104.32
957.837	205179.49
958.2	155198.22
958.563	55871.62
958.926	37809
959.289	57361.06
959.652	64056.12
960.015	48110.31
960.377	69043.96
960.74	78730.79
961.102	135910.74
961.465	145715.69
961.827	78004.52
962.189	149564.45
962.552	103494.98
962.914	82901.84
963.276	53790.03
963.638	44448.33
964	43962.14
964.362	29736.28
964.724	28755.23
965.085	20512.15
965.447	16823.48
965.809	19184.27
966.17	19213.98
966.532	20820.3
966.893	19123.83
967.255	17418.18
967.616	20559.82
967.977	16441.86
968.338	17940.09
968.699	14732.5
969.061	14718.9
969.421	14808.94
969.782	16603.57
970.143	14025.56
970.504	14530.98
970.865	16516.09
971.225	16876.93
971.586	16517.23
971.946	23581.7
972.307	20496.52
972.667	26806.42
973.027	27599.13
973.388	33503.73
973.748	22779.01
974.108	24825.97
974.468	33559.9
974.828	25856.21
975.188	19901.34
975.548	18259.98
975.907	15318.1
976.267	17160.64
976.627	14419.47
976.986	14954.85
977.346	14233.86
977.705	13684.29
978.064	12468.18
978.424	10381.45
978.783	10736.29
979.142	12250.61
979.501	11722.71
979.86	12410.35
980.219	11968.96
980.578	15415.09
980.937	17241.86
981.296	15370.96
981.654	15838.03
982.013	24600.77
982.371	31893.52
982.73	29811.16
983.088	33719.05
983.447	36098.62
983.805	51568.54
984.163	107872.47
984.521	119834.13
984.879	176022.2
985.237	-286545.16
985.595	276171.04
985.953	68774.82
986.311	39729.74
986.669	23046.97
987.026	19930.13
987.384	26754.29
987.741	27674.43
988.099	19735.61
988.456	15750.9
988.814	14739.97
989.171	12824.86
989.528	12680.31
989.885	13361.95
990.242	10588.17
990.599	13212.23
990.956	10805.45
991.313	7564.83
991.67	6196.96
992.027	6572.32
992.383	5836.22
992.74	5124.8
993.096	5378.33
993.453	5565.16
993.809	5762.81
994.165	7661.61
994.522	7025.87
994.878	7723.64
995.234	9677.11
995.59	9570.6
995.946	9071.26
996.302	10355.38
996.658	11957.07
997.013	13177.37
997.369	15624.61
997.725	20055.67
998.08	13025.69
998.436	20045.64
998.791	27686.4
999.147	27739.64
999.502	30223.36
999.857	21867.67
1000.212	35538.24
1000.567	50586.34
1000.922	29193.22
1001.277	18558.56
1001.632	13782.08
1001.987	17732.07
1002.342	12687.63
1002.696	10154.04
1003.051	8075.38
1003.406	9775.56
1003.76	9791.52
1004.114	9695.04
1004.469	8157.63
1004.823	6735.89
1005.177	7274.11
1005.531	5755.58
1005.885	5116.49
1006.239	5789.02
1006.593	7274.4
1006.947	9739.01
1007.301	7305.57
1007.655	7923.98
1008.008	5798.31
1008.362	6497.51
1008.715	9288.78
1009.069	8397.94
1009.422	12608.92
1009.776	25228.58
1010.129	16753.5
1010.482	13998.65
1010.835	11882.09
1011.188	24780.27
1011.541	23509.28
1011.894	-143692.85
1012.247	423852.49
1012.6	28755.89
1012.952	18199.85
1013.305	9384.75
1013.657	6768.88
1014.01	6396.28
1014.362	5259.3
1014.715	4666.78
1015.067	4041.7
1015.419	3927.23
1015.771	3471.76
1016.123	3086.22
1016.475	3176.88
1016.827	3387.72
1017.179	3648.13
1017.531	3692.23
1017.883	3782.74
1018.234	3655.3
1018.586	4612.7
1018.938	4918.42
1019.289	6743.81
1019.64	7733.75
1019.992	7176.86
1020.343	6573.54
1020.694	5200.35
1021.045	4594.95
1021.396	5219.01
1021.747	5591.99
1022.098	6706.43
1022.449	4871.31
1022.8	4534.74
1023.151	3191.13
1023.501	2847.94
1023.852	3113.63
1024.202	3230.26
1024.553	3536.93
1024.903	3464.44
1025.253	2974.14
1025.604	2675.04
1025.954	3317.25
1026.304	4019.91
1026.654	4659.71
1027.004	6788.81
1027.354	10898.64
1027.703	10276.81
1028.053	13529.15
1028.403	19757.11
1028.753	28471.47
1029.102	38441.32
1029.452	196737.63
1029.801	8474.5
1030.15	5475.35
1030.499	4627.15
897.758	2442
901.051	2387.82
904.343	2419.41
907.636	2425.9
910.928	2488.63
914.22	2401.05
917.511	2407.93
920.803	2463.69
924.094	2475.01
927.384	2464.21
930.675	2428.29
933.965	2384.43
937.255	2404.04
940.544	2369.94
943.834	2341.5
947.123	2279.14
950.411	2372.13
953.7	2348.96
956.988	2323.47
960.276	2261.67
963.563	2328.45
966.851	2330.75
970.138	2382.31
973.424	2376.42
976.711	2331.5
979.997	2418.49
983.283	2461.16
986.568	2379.06
989.853	2386.35
993.138	2413.74
996.423	2493
999.708	2439.72
1002.992	2485.07
1006.275	2361.11
1009.559	2385.98
1012.842	2495.08
1016.125	2433.37
1019.408	2414.45
1022.69	2487.53
1025.972	2509.51
1029.254	2484.97
1032.536	2433.24
1035.817	2452.51
1039.098	2410.55
1042.379	2509.63
1045.659	2522.97
1048.939	2458.92
1052.219	2477.56
1055.498	2481.3
1058.778	2470.89
1062.057	2450.7
1065.335	2472.55
1068.614	2487.78
1071.892	2472.92
1075.17	2542
1078.447	2533.22
1081.724	2527.01
1085.001	2560.66
1088.278	2535.85
1091.554	2547.28
1094.83	2541.03
1098.106	2572.08
1101.382	2610
1104.657	2611.74
1107.932	2611.53
1111.206	2579.18
1114.481	2538.46
1117.755	2541.8
1121.029	2525.79
1124.302	2580.69
1127.575	2539.28
1130.848	2531.79
1134.121	2497.81
1137.393	2452.17
1140.665	2512.27
1143.937	2488.97
1147.208	2447.9
1150.48	2492.31
1153.75	2477.51
1157.021	2498.49
1160.291	2470.95
1163.561	2515.69
1166.831	2496.89
1170.101	2525.43
1173.37	2497.72
1176.639	2448.74
1179.907	2499.17
1183.176	2508.06
1186.444	2512
1189.711	2539.57
1192.979	2554.86
1196.246	2511.63
1199.513	2526.64
1202.78	2528.17
1206.046	2537.73
1209.312	2559.54
1212.578	2581.47
1215.843	2542.31
1219.108	2514.2
1222.373	2539.58
1225.638	2504.42
1228.902	2491.42
1232.166	2458.96
1235.43	2443.84
1238.693	2466.57
1241.956	2461.28
1245.219	2504.41
1248.482	2492.98
1251.744	2489.38
1255.006	2625.21
1258.268	2576.51
1261.529	2527.55
1264.79	2530.84
1268.051	2630.74
1271.312	2643.57
1274.572	2611.35
1277.832	2600.99
1281.092	2587.98
1284.351	2567.13
1287.61	2548.52
1290.869	2475.03
1294.128	2460.42
1297.386	2532.02
1300.644	2524.11
1303.902	2530.15
1307.159	2398.3
1310.416	2451.66
1313.673	2476.29
1316.93	2466.78
1320.186	2506.6
1323.442	2545.15
1326.697	2537.63
1329.953	2523.36
1333.208	2552.3
1336.463	2531.22
1339.717	2481.21
1342.972	2601.85
1346.226	2575.97
1349.479	2516.02
1352.733	2489.72
1355.986	2507.44
1359.238	2484.94
1362.491	2489.51
1365.743	2490.36
1368.995	2483.57
1372.247	2497.71
1375.498	2520.64
1378.749	2543.8
1382	2501.51
1385.251	2547.16
1388.501	2508.84
1391.751	2497.33
1395	2467.6
1398.25	2497.66
1401.499	2511.67
1404.748	2448.18
1407.996	2432.42
1411.244	2418.64
1414.492	2403.49
1417.74	2380.68
1420.987	2391.66
1424.234	2446.13
1427.481	2418.89
1430.728	2477.71
1433.974	2452.86
1437.22	2462.77
1440.465	2460.98
1443.711	2439
1446.956	2466.64
1450.201	2448.97
1453.445	2493.45
1456.689	2472.1
1459.933	2487.48
1463.177	2522.54
1466.42	2493
1469.663	2473.98
1472.906	2473.29
1476.148	2533.59
1479.391	2527.33
1482.633	2497.8
1485.874	2511.72
1489.115	2506.27
1492.356	2502.98
1495.597	2476.68
1498.838	2477.24
1502.078	2453.02
1505.318	2413.04
1508.557	2451.42
1511.797	2441.72
1515.036	2470.3
1518.274	2458.18
1521.513	2425.85
1524.751	2443.69
1527.989	2458.77
1531.227	2474.53
1534.464	2473.97
1537.701	2484.71
1540.938	2500.5
1544.174	2453.93
1547.41	2449.9
1550.646	2484.79
1553.882	2527.97
1557.117	2575.94
1560.352	2587.85
1563.587	2551.1
1566.821	2513.48
1570.055	2540.94
1573.289	2512.6
1576.523	2581.1
1579.756	2588.37
1582.989	2604.98
1586.222	2569.92
1589.454	2602.36
1592.686	2582.94
1595.918	2607.95
1599.15	2597.95
1602.381	2661.78
1605.612	2628.38
1608.843	2724.86
1612.073	2640.88
1615.303	2625.7
1618.533	2619.98
1621.762	2624.26
1624.992	2604.85
1628.221	2598.32
1631.449	2585.11
1634.678	2630.94
1637.906	2591.82
1641.134	2623.41
1644.361	2585.25
1647.588	2572.83
1650.815	2592.94
1654.042	2568.23
1657.269	2593.51
1660.495	2557.35
1663.72	2568.11
1666.946	2533.65
1670.171	2489.29
1673.396	2464.1
1676.621	2450.03
1679.845	2460.99
1683.069	2479.48
1686.293	2515.55
1689.517	2493.64
1692.74	2434
1695.963	2460.18
1699.185	2481.58
1702.408	2457.78
1705.63	2493.06
1708.852	2505.59
1712.073	2481.99
1715.294	2476.15
1718.515	2529.22
1721.736	2481.39
1724.956	2470.18
1728.176	2494.12
1731.396	2516.22
1734.616	2502.61
1737.835	2533.45
1741.054	2512.31
1744.272	2505.82
1747.491	2537.93
1750.709	2579.84
1753.927	2501.83
1757.144	2539.87
1760.361	2586.55
1763.578	2574.1
1766.795	2519.72
1770.011	2521.84
1773.227	2554.18
1776.443	2590.28
1779.658	2631.53
1782.874	2575.98
1786.089	2557.81
1789.303	2560.45
1792.518	2562.07
1795.732	2550.74
1798.945	2562.06
1802.159	2608.19
1805.372	2526.73
1808.585	2515.69
1811.797	2517.74
1815.01	2556.49
1818.222	2564.37
1821.434	2543.1
1824.645	2592.95
1827.856	2588.94
1831.067	2620.83
1834.278	2571.15
1837.488	2555.88
1840.698	2691.81
1843.908	2625.92
1847.117	2589.91
1850.326	2493.06
1853.535	2578.47
1856.744	2599.81
1859.952	2517.41
1863.16	2519.93
1866.368	2538.66
1869.575	2642.7
1872.782	2532.78
1875.989	2471.3
1879.196	2540.69
1882.402	2534.17
1885.608	2571.4
1888.814	2489.95
1892.019	2392.82
1895.224	2447.31
1898.429	2423.62
1901.634	2404.34
1904.838	2380.88
1908.042	2432.25
1911.246	2441.07
1914.449	2386.66
1917.652	2378.66
1920.855	2362.03
1924.058	2402.7
1927.26	2441.78
1930.462	2467.84
1933.664	2498.54
1936.865	2440.51
1940.066	2453.65
1943.267	2395.81
1946.467	2413.27
1949.668	2433.98
1952.868	2500.68
1956.067	2483.49
1959.267	2419.83
1962.466	2444.69
1965.665	2428.78
1968.863	2423.56
1972.061	2434.34
1975.259	2429.07
1978.457	2508.32
1981.654	2463.33
1984.852	2468.16
1988.048	2409
1991.245	2407.27
1994.441	2488.94
1997.637	2463.27
2000.833	2444.8
2004.028	2479.43
2007.223	2537.89
2010.418	2517.23
2013.613	2475.54
2016.807	2456.31
2020.001	2457.13
2023.194	2491.68
2026.388	2468.71
2029.581	2415.74
2032.774	2471.43
2035.966	2479.86
2039.158	2419.55
2042.35	2440.4
2045.542	2371.16
2048.733	2460.91
2051.924	2472.79
2055.115	2495.32
2058.306	2448.3
2061.496	2505.24
2064.686	2563.25
2067.875	2473.83
2071.065	2483.34
2074.254	2506.6
2077.442	2457.97
2080.631	2544.42
2083.819	2454.13
2087.007	2440.01
2090.195	2417.77
2093.382	2443.85
2096.569	2426.45
2099.756	2387.43
2102.942	2421.46
2106.128	2428.64
2109.314	2419.87
2112.5	2394.19
2115.685	2366.11
2118.87	2374.41
2122.055	2436.68
2125.239	2406.15
2128.424	2388.46
2131.608	2473.48
2134.791	2453.71
2137.974	2502.74
2141.157	2489.98
2144.34	2449.78
2147.523	2458.04
2150.705	2476.26
2153.887	2453.55
2157.068	2413.38
2160.25	2408.77
2163.431	2437.74
2166.611	2393.38
2169.792	2411.39
2172.972	2313.43
2176.152	2380.93
2179.331	2410.96
2182.511	2398.55
2185.69	2425.14
2188.868	2421.46
2192.047	2467.77
2195.225	2468.97
2198.403	2423.09
2201.58	2411.62
2204.758	2402.8
2207.935	2484.25
2211.111	2382.65
2214.288	2370.1
2217.464	2405.77
2220.64	2373.51
2223.815	2425.18
2226.991	2353.64
2230.166	2370.16
2233.34	2402.82
2236.515	2422.53
2239.689	2490.88
2242.863	2435.34
2246.036	2493.84
2249.209	2484.91
2252.382	2515.92
2255.555	2509.52
2258.727	2453.84
2261.9	2487.36
2265.071	2479.99
2268.243	2479.18
2271.414	2420.52
2274.585	2391.69
2277.756	2456.37
2280.926	2408.98
2284.096	2447.9
2287.266	2364.11
2290.436	2415.49
2293.605	2441.96
2296.774	2473.48
2299.942	2484.2
2303.111	2502.57
2306.279	2550.4
2309.447	2536.28
2312.614	2510.41
2315.781	2533.12
2318.948	2507.48
2322.115	2542.5
2325.281	2444.7
2328.447	2458.64
2331.613	2433.86
2334.779	2418.03
2337.944	2415.37
2341.109	2414.83
2344.274	2402.73
2347.438	2368.49
2350.602	2391.27
2353.766	2404.18
2356.929	2393.6
2360.092	2433.71
2363.255	2393.53
2366.418	2341.34
2369.58	2433.36
2372.742	2262.49
2375.904	2269.39
2379.066	2247.41
2382.227	2277.82
2385.388	2242.25
2388.548	2177.23
2391.709	2226.26
2394.869	2209.28
2398.029	2289.51
2401.188	2296.26
2404.347	2241.86
2407.506	2353.63
2410.665	2386.11
2413.823	2386.77
2416.981	2354.64
2420.139	2378.54
2423.296	2423.78
2426.453	2395.38
2429.61	2419.83
2432.767	2368.57
2435.923	2404.32
2439.079	2362.65
2442.235	2405.46
2445.391	2338.75
2448.546	2370.62
2451.701	2413.95
2454.855	2394.6
2458.009	2441.42
2461.163	2437.2
2464.317	2399.36
2467.471	2429.52
2470.624	2464.6
2473.777	2443.32
2476.929	2457.11
2480.082	2482.61
2483.234	2450.73
2486.385	2399.76
2489.537	2393.35
2492.688	2362.75
2495.839	2384.18
2498.989	2398.71
2502.14	2383.02
2505.29	2370.78
2508.439	2394.4
2511.589	2327.32
2514.738	2332.33
2517.887	2358.27
2521.035	2428.4
2524.183	2402.9
2527.331	2386.51
2530.479	2366.51
2533.627	2372.21
