Data from C_2_DEC_VA_2N_Splice17_12-08-02-537.txt Node
Date: Sat Mar 14 12:08:02 EDT 2020
User: sa697716
Spectrometer: FLMS03696
Trigger mode: 0
Integration Time (sec): 3.180400E-1
Scans to average: 20
Electric dark correction enabled: true
Nonlinearity correction enabled: true
Boxcar width: 5
XAxis mode: Wavelengths
Number of Pixels in Spectrum: 2048
>>>>>Begin Spectral Data<<<<<
187.83	-339854.76
188.298	2578.01
188.766	1326.22
189.233	1150.12
189.701	1676.06
190.169	2246.97
190.636	845.68
191.104	725.73
191.571	143.72
192.039	-46.62
192.506	-66.18
192.974	422.74
193.441	-528.75
193.908	-244.31
194.375	-36.78
194.842	71.86
195.31	123.13
195.777	167.93
196.244	690.58
196.711	1504.68
197.177	2107.68
197.644	3281.42
198.111	5751.7
198.578	8175.56
199.045	6568.81
199.511	10737.28
199.978	12587.09
200.445	10436.99
200.911	11577.35
201.378	13057.37
201.844	11498.78
202.31	19399.67
202.777	19860.76
203.243	10838.43
203.709	10146.73
204.176	11950.9
204.642	9714.18
205.108	8960.9
205.574	7340.31
206.04	6742.91
206.506	6246.24
206.972	5921.36
207.438	5690.22
207.903	6437.38
208.369	5550.38
208.835	5442.73
209.301	5630.14
209.766	5758.68
210.232	5635.97
210.697	6917.28
211.163	8427.44
211.628	12664.53
212.094	10372.47
212.559	12312.21
213.024	7525.67
213.49	9020.01
213.955	8729.15
214.42	8522.15
214.885	7782.45
215.35	7340.46
215.815	6729.58
216.28	6931.26
216.745	5472.36
217.21	5636.93
217.675	4976.84
218.14	5217.31
218.604	5420.01
219.069	5671.53
219.534	5381.93
219.998	5744.35
220.463	6358.93
220.927	7218.67
221.392	6257.11
221.856	5845.5
222.32	6859.48
222.785	7894.42
223.249	9342.59
223.713	9849.31
224.177	9345.47
224.642	11433.43
225.106	13431.38
225.57	14091.85
226.034	10094.71
226.497	14813.18
226.961	12955.99
227.425	14637.3
227.889	15687.13
228.353	15192.01
228.816	30444.4
229.28	28279.95
229.744	23296.16
230.207	13877.08
230.671	13354.24
231.134	21535.91
231.597	24324.27
232.061	23749.05
232.524	22600.35
232.987	15304.54
233.45	13564.86
233.914	11990.27
234.377	12061.1
234.84	10864.38
235.303	12616.08
235.766	13886.86
236.229	14160.41
236.691	8820.73
237.154	9815.1
237.617	7367.35
238.08	7472.81
238.542	8709.21
239.005	6206.12
239.468	6174.22
239.93	5797.56
240.393	5253.97
240.855	4597.02
241.317	4684.39
241.78	5669.46
242.242	5847.12
242.704	6308.95
243.166	5496.39
243.629	4985.67
244.091	5713.09
244.553	6217.62
245.015	6677.11
245.477	8575.9
245.939	12497.62
246.4	13243.44
246.862	12795.72
247.324	12010.73
247.786	13325.2
248.247	17384.66
248.709	17770.06
249.17	13214.34
249.632	12448.91
250.093	14399.34
250.555	12454.85
251.016	7602.31
251.477	7202.27
251.939	7784.23
252.4	8150.43
252.861	9667.72
253.322	8992.71
253.783	10734.21
254.244	13916.9
254.705	10948.2
255.166	9703.11
255.627	9525.55
256.088	13478.8
256.549	14318.54
257.009	12294.12
257.47	14900.54
257.931	12087.28
258.391	9022.32
258.852	9234.59
259.312	9638.8
259.773	11794.1
260.233	9925.18
260.694	8301.47
261.154	9289.87
261.614	7433.1
262.074	6582.01
262.534	6783.32
262.994	6356.37
263.455	8367.86
263.915	6973.47
264.374	6487.77
264.834	7018.34
265.294	7676.78
265.754	7884.02
266.214	7395.21
266.673	6839.07
267.133	8546.27
267.593	8368.04
268.052	10146.37
268.512	8759.91
268.971	10560.86
269.431	11542.85
269.89	10290
270.349	15358.73
270.809	17081.96
271.268	15336.71
271.727	34340.02
272.186	22219.88
272.645	16680.3
273.104	11985.8
273.563	17361.19
274.022	13602.94
274.481	11623.19
274.94	8987.56
275.399	6694.84
275.857	7818.11
276.316	10619.02
276.775	9492.51
277.233	9435.43
277.692	8931.04
278.15	10239.55
278.609	10697.81
279.067	10009.47
279.525	9393.51
279.984	12241
280.442	14891.59
280.9	14875.61
281.358	9886.6
281.816	9296.16
282.274	9184.53
282.732	9575.36
283.19	9715.86
283.648	8425.17
284.106	9055.38
284.564	9320.89
285.021	8774.26
285.479	6615.59
285.937	6077.2
286.394	5421.13
286.852	5635.43
287.309	5978.82
287.767	5849.07
288.224	5610.39
288.682	6199.32
289.139	6843.16
289.596	6285.24
290.053	6528.78
290.511	8207.15
290.968	9927.33
291.425	13324.9
291.882	11074
292.339	9573.33
292.796	9402.09
293.252	8784.86
293.709	6965.09
294.166	6207.25
294.623	6805.16
295.079	6503.61
295.536	6550.22
295.992	5920.96
296.449	5857.42
296.905	6089.9
297.362	5852.77
297.818	6148.8
298.274	6385.25
298.731	6498.07
299.187	6438.6
299.643	6929.98
300.099	8387.39
300.555	9172.99
301.011	7699.73
301.467	7490.32
301.923	8751.88
302.379	8597.65
302.835	8489.95
303.291	8577.49
303.746	9823.44
304.202	12501.98
304.658	12641.18
305.113	8565.53
305.569	8473.79
306.024	9108.83
306.479	8699.78
306.935	7435.13
307.39	8173.74
307.845	7622.37
308.301	7734.71
308.756	7589.14
309.211	7370.65
309.666	7626.75
310.121	9570.87
310.576	9821
311.031	9846.97
311.486	11385.28
311.94	11434.77
312.395	15415.99
312.85	29220.01
313.305	144505.58
313.759	760082.38
314.214	55595.6
314.668	44336.1
315.123	37580.37
315.577	13543
316.032	12085.55
316.486	15157.58
316.94	12048.5
317.394	8424.36
317.849	6543.09
318.303	6169.59
318.757	5768.25
319.211	6353.37
319.665	5557.66
320.119	5600.75
320.572	7998.07
321.026	7461.99
321.48	6207.11
321.934	6736.8
322.387	6745.79
322.841	7310.61
323.295	6611.04
323.748	7606.96
324.202	7745.58
324.655	9325.53
325.108	13154.56
325.562	9328.35
326.015	11107.38
326.468	8454.68
326.921	9509.92
327.374	8914.63
327.827	9302.15
328.28	10589.82
328.733	7175.85
329.186	6346.07
329.639	6081.02
330.092	5140.64
330.545	4959.55
330.997	5048.59
331.45	5563.04
331.903	6594.32
332.355	11416.54
332.808	11225.15
333.26	9345.17
333.713	10246.96
334.165	10407.73
334.617	14009.39
335.069	11345.27
335.522	20548.85
335.974	22908.22
336.426	21039.52
336.878	14609.51
337.33	7473.16
337.782	7327.03
338.234	9239.66
338.686	11046.94
339.137	13142.49
339.589	12415.08
340.041	9806.18
340.493	8440.77
340.944	8673.69
341.396	9380.83
341.847	7900.89
342.299	9317.7
342.75	11382.39
343.201	9871.83
343.653	11327.5
344.104	13851.52
344.555	10855.14
345.006	16767.85
345.457	12872.11
345.908	10182.85
346.359	9525.77
346.81	7715.91
347.261	8085.1
347.712	7928.25
348.163	8501.22
348.613	8668.09
349.064	8089.42
349.515	7083.39
349.965	7317.81
350.416	8782.32
350.866	9661.76
351.317	10954.62
351.767	18257.85
352.217	23149.76
352.668	19322.41
353.118	17819.7
353.568	17153.47
354.018	13659.77
354.468	14531.31
354.918	10474.29
355.368	9226.33
355.818	13079.98
356.268	37732.55
356.718	158938.31
357.168	39945.61
357.617	20175.98
358.067	22541.55
358.517	21201.18
358.966	25042.98
359.416	28245.53
359.865	30626.57
360.315	36684.64
360.764	17183.13
361.213	9698.95
361.663	9186.87
362.112	11335.5
362.561	18361.48
363.01	13878.8
363.459	11755.74
363.908	12719.98
364.357	10837.28
364.806	18289.33
365.255	12582.46
365.703	11609.75
366.152	11693.05
366.601	9564.61
367.05	7841.82
367.498	7155.69
367.947	7522.92
368.395	7854.7
368.844	7011.89
369.292	8459.15
369.74	5903.59
370.189	9115.92
370.637	10776.03
371.085	9323.55
371.533	11361.32
371.981	10935.79
372.429	10464.89
372.877	10946
373.325	9192.67
373.773	9400.32
374.221	8418.91
374.669	10471.36
375.116	9073.3
375.564	9125.33
376.012	10219.94
376.459	8446.49
376.907	10154.89
377.354	12340.97
377.801	11573.69
378.249	13407.69
378.696	17240.01
379.143	21010.53
379.591	22511.02
380.038	38356.21
380.485	27987.96
380.932	30459.49
381.379	28222.41
381.826	21100.59
382.273	15168.35
382.72	13421.39
383.166	13243.97
383.613	8749.48
384.06	8018.75
384.506	9510.93
384.953	7158.52
385.4	7445.83
385.846	6804.4
386.292	6984.31
386.739	7238.89
387.185	7670.62
387.631	8288.31
388.078	8757.7
388.524	10173.93
388.97	10166.32
389.416	9047.1
389.862	10173.03
390.308	10187.73
390.754	11063.41
391.2	13110.58
391.645	14901.51
392.091	15835.49
392.537	16915.71
392.983	18476.34
393.428	19409.32
393.874	22396.25
394.319	24689.31
394.765	26407.14
395.21	31047.2
395.655	33202.7
396.101	35028.38
396.546	35259.22
396.991	39596.06
397.436	40600.08
397.881	43293.1
398.326	45506.08
398.771	47199.09
399.216	45117.03
399.661	43847.02
400.106	46454.5
400.551	50185.75
400.995	47254.07
401.44	48724.29
401.885	47405.37
402.329	49366.75
402.774	48576.74
403.218	47908.67
403.663	47385.55
404.107	49830.35
404.551	51333.48
404.995	48350.5
405.44	47895.91
405.884	49901.06
406.328	49496.02
406.772	50436.8
407.216	46974.74
407.66	46605.1
408.104	45647.97
408.547	43704.03
408.991	43140.4
409.435	42258.28
409.879	42157.14
410.322	42136.32
410.766	41134.11
411.209	39635.84
411.653	38701.8
412.096	38454.64
412.54	39086.17
412.983	39342
413.426	39849.01
413.869	40385.96
414.312	40110.49
414.756	39309.5
415.199	38081.51
415.642	37477.13
416.085	38003.51
416.527	38199.99
416.97	39291.33
417.413	37515.24
417.856	37343.99
418.298	37093.41
418.741	36915.56
419.184	36913.23
419.626	38574.6
420.069	38543.86
420.511	38801.24
420.953	37973.55
421.396	37741.61
421.838	36982.15
422.28	37984.37
422.722	38423.85
423.164	39497.28
423.606	39298.41
424.048	39744.29
424.49	38022.43
424.932	38255.94
425.374	38108.12
425.816	39115.62
426.258	39881.54
426.699	40044.88
427.141	38948.29
427.582	39223.87
428.024	38760.9
428.465	38569.37
428.907	37774.36
429.348	37662.94
429.789	37848.51
430.231	37183.46
430.672	37813.95
431.113	37268.18
431.554	37317.55
431.995	37404.7
432.436	36749.34
432.877	36615.07
433.318	36384.27
433.759	36703.48
434.2	37053.72
434.64	37062.38
435.081	37542.39
435.522	36048.67
435.962	35224.36
436.403	34927.44
436.843	35917.78
437.284	35665.92
437.724	35163.59
438.164	35746
438.604	35232.17
439.045	34008.78
439.485	32688.02
439.925	32282.02
440.365	31716.72
440.805	31512.12
441.245	31110.52
441.685	30024.51
442.125	29883.88
442.564	30096.88
443.004	29330.54
443.444	29277.27
443.883	29355.57
444.323	29360.32
444.762	29660.2
445.202	30146.98
445.641	30621.21
446.081	30699.93
446.52	30884.47
446.959	30579.96
447.398	29839.64
447.837	29558.13
448.276	29092.97
448.716	29384.46
449.154	29667.56
449.593	28777.27
450.032	28522.06
450.471	27971.54
450.91	27831.48
451.349	27539.13
451.787	27287.81
452.226	27488.23
452.664	27279.08
453.103	27096.16
453.541	26836.72
453.98	26348.98
454.418	26244.77
454.856	25482.46
455.295	25198.76
455.733	25044.64
456.171	24954.58
456.609	24682.38
457.047	24355.21
457.485	24402.22
457.923	24199.25
458.361	23736.27
458.798	23765.16
459.236	23630.18
459.674	23860.76
460.111	23908.01
460.549	23715.5
460.987	23729.89
461.424	23706.92
461.862	23697.31
462.299	23408.31
462.736	23388.07
463.173	23554.5
463.611	23239.76
464.048	23245.2
464.485	23479.55
464.922	23385.78
465.359	23409.7
465.796	22798.21
466.233	22760.76
466.67	22586.57
467.106	22611.25
467.543	22582.98
467.98	22416.74
468.416	22076.55
468.853	22052
469.29	21501.55
469.726	21351
470.162	20835.46
470.599	20908.1
471.035	20765.17
471.471	20313.98
471.907	20279.14
472.344	20142.87
472.78	20092.27
473.216	20271.67
473.652	19902.51
474.088	19754.02
474.523	19491.85
474.959	19522.11
475.395	19181.39
475.831	18851.25
476.266	18773.7
476.702	18531.54
477.138	18100.95
477.573	17843.83
478.008	17536.13
478.444	17338
478.879	17196.85
479.314	17040.41
479.75	16782.45
480.185	16645.4
480.62	16563.71
481.055	16418.71
481.49	16264.63
481.925	16242.43
482.36	16185.4
482.795	16381.81
483.229	16590.51
483.664	16672.22
484.099	16480.68
484.534	16456.34
484.968	16364.89
485.403	16191.18
485.837	15983.74
486.271	15758.7
486.706	15578.96
487.14	15302.13
487.574	14900
488.009	14624.54
488.443	14372.68
488.877	14353.32
489.311	14278.16
489.745	14296.94
490.179	14284.18
490.613	14349.53
491.046	14348.45
491.48	14339.79
491.914	14225.89
492.348	14217.9
492.781	14186.21
493.215	14126.13
493.648	14089.51
494.082	14104.51
494.515	14020.82
494.948	14064.12
495.382	14101.85
495.815	14081.25
496.248	14077.6
496.681	14227.97
497.114	14352.75
497.547	14422.14
497.98	14517.98
498.413	14464.42
498.846	14498.2
499.279	14526.66
499.711	14484.72
500.144	14389.7
500.577	14417.79
501.009	14477.35
501.442	14476.69
501.874	14319.66
502.306	14227.01
502.739	14159.37
503.171	14294.44
503.603	14196.6
504.036	14194.54
504.468	14122.78
504.9	14140.82
505.332	14089.26
505.764	13979.22
506.196	13927.37
506.627	13980.5
507.059	13995.15
507.491	13996.49
507.923	13748.48
508.354	13769.59
508.786	13728.32
509.217	13779.09
509.649	13789.38
510.08	13857.55
510.512	13874.78
510.943	13881.04
511.374	13836.75
511.805	13894.94
512.237	13947.99
512.668	14176.87
513.099	14326.51
513.53	14448.41
513.961	14472.97
514.391	14622.35
514.822	14746.63
515.253	14923.16
515.684	14967.64
516.114	15054.91
516.545	15033.37
516.975	15063.52
517.406	14997.84
517.836	14782.72
518.267	14611.8
518.697	14559.65
519.127	14379.72
519.558	14246.79
519.988	14075.27
520.418	13977.87
520.848	13943.78
521.278	13839.51
521.708	13437.79
522.138	13388.19
522.567	13497.6
522.997	13552.83
523.427	13532.35
523.857	13514.24
524.286	13457.22
524.716	13441.78
525.145	13450.99
525.575	13414.67
526.004	13417.29
526.433	13581.8
526.863	13476.73
527.292	13282.54
527.721	13230.77
528.15	13198.68
528.579	13126.44
529.008	13140.46
529.437	13250.11
529.866	13289.01
530.295	13351.31
530.724	13363.45
531.152	13495.31
531.581	13525.01
532.01	13599.81
532.438	13607.36
532.867	13663.43
533.295	13750.79
533.723	13746.42
534.152	13683.47
534.58	13636.43
535.008	13481.28
535.436	13458.98
535.865	13486.75
536.293	13571.9
536.721	13662.73
537.149	13816.59
537.576	13809.26
538.004	13888.97
538.432	13937.21
538.86	13914.24
539.287	13965.81
539.715	14062.21
540.143	14099.63
540.57	14086.07
540.998	14078.03
541.425	13907.87
541.852	13788.47
542.28	13804.64
542.707	13719.71
543.134	13643.45
543.561	13637.77
543.988	13609.38
544.415	13643.06
544.842	13635.82
545.269	13605.4
545.696	13639.36
546.123	13786.72
546.549	13735.49
546.976	13660.96
547.403	13677.48
547.829	13724.42
548.256	13776.73
548.682	13775.14
549.108	13739.7
549.535	13767.08
549.961	13811.99
550.387	13739.22
550.813	13711.13
551.24	13785.78
551.666	13821.6
552.092	13770.26
552.518	13748.63
552.943	13714.65
553.369	13806.03
553.795	13877.31
554.221	13897.2
554.646	13893.1
555.072	13971.57
555.498	14031.95
555.923	14116.95
556.349	14241.62
556.774	14321.49
557.199	14336.73
557.625	14414.77
558.05	14369.36
558.475	14459.41
558.9	14458.77
559.325	14397.03
559.75	14369.32
560.175	14332.14
560.6	14298.38
561.025	14290.79
561.449	14307.99
561.874	14356.45
562.299	14375.44
562.723	14438.42
563.148	14350.65
563.572	14378.32
563.997	14456.21
564.421	14495.27
564.846	14488.94
565.27	14493.35
565.694	14463.05
566.118	14523.99
566.542	14553.56
566.966	14481.45
567.39	14412.12
567.814	14304.61
568.238	14287.81
568.662	14317.93
569.086	14329.7
569.509	14400.75
569.933	14288.58
570.357	14265.08
570.78	14142.65
571.204	14078.73
571.627	14059.37
572.05	14123.17
572.474	14199.39
572.897	14200.19
573.32	14235.4
573.743	14277.56
574.166	14226.13
574.589	14355.81
575.012	14409.53
575.435	14537.4
575.858	14596.79
576.281	14640.66
576.704	14645
577.126	14686.35
577.549	14718.73
577.972	14777.71
578.394	14811.26
578.817	14859.2
579.239	14822.93
579.661	14824.81
580.084	14779.27
580.506	14787.94
580.928	14879.26
581.35	14901.33
581.772	14975.77
582.194	14962.52
582.616	14945.28
583.038	14930.86
583.46	14957.77
583.882	15026.04
584.303	15180.68
584.725	15264.25
585.147	15315.88
585.568	15496.94
585.99	15679.21
586.411	15812.88
586.833	16027.07
587.254	16107.41
587.675	16319.28
588.096	16520.61
588.518	16531.97
588.939	16413.58
589.36	16444.02
589.781	16462.39
590.202	16171.48
590.623	16141.49
591.043	16167.78
591.464	16068.41
591.885	16052.62
592.305	16013.49
592.726	15874.53
593.147	15877.61
593.567	15810.29
593.987	15707.46
594.408	15626.54
594.828	15618.15
595.248	15494.09
595.669	15225.18
596.089	15089.42
596.509	14968.16
596.929	14744.09
597.349	14672.63
597.769	14493.36
598.189	14340.33
598.608	14277.36
599.028	14211.48
599.448	14137.89
599.867	13947.78
600.287	13859.83
600.706	13749.06
601.126	13585.55
601.545	13519.67
601.965	13472.79
602.384	13393.97
602.803	13406.28
603.222	13335.12
603.641	13269.09
604.061	13225.31
604.48	13202.06
604.898	13301.06
605.317	13387.46
605.736	13448.43
606.155	13461.04
606.574	13417.78
606.992	13525.62
607.411	13530.94
607.829	13530.99
608.248	13574.93
608.666	13633.47
609.085	13697.44
609.503	13679
609.921	13688.08
610.339	13789.3
610.758	13874.68
611.176	13912.98
611.594	13900.04
612.012	13953.95
612.43	14055.32
612.847	14206.12
613.265	14280.04
613.683	14416.57
614.101	14521
614.518	14579.44
614.936	14556.73
615.353	14473.86
615.771	14514.48
616.188	14596.29
616.606	14635
617.023	14641.49
617.44	14554.26
617.857	14569.89
618.274	14548.5
618.691	14538.31
619.108	14498.1
619.525	14494.22
619.942	14622.75
620.359	14706.82
620.776	14701.18
621.192	14690.24
621.609	14704.63
622.026	14811.18
622.442	14916.33
622.859	14992.64
623.275	14948.8
623.691	15041.37
624.108	15206.52
624.524	15416.49
624.94	15447.99
625.356	15594.29
625.772	15792.52
626.188	15970.05
626.604	16020.8
627.02	15999.7
627.436	15993.47
627.852	16089.92
628.268	16254.86
628.683	16183.02
629.099	16112.48
629.514	16099.47
629.93	16186.81
630.345	16286.5
630.761	16288.54
631.176	16385.94
631.591	16340.15
632.007	16323.25
632.422	16388
632.837	16326.97
633.252	16351.13
633.667	16302.9
634.082	16264
634.497	16184.34
634.911	16003.93
635.326	16053.31
635.741	15935.24
636.155	15938.74
636.57	16059.88
636.984	16175.56
637.399	16302.91
637.813	16450.11
638.228	16569.08
638.642	16786.29
639.056	16803.59
639.47	16987.55
639.884	17034.88
640.298	17117.28
640.712	17262.73
641.126	17263.97
641.54	17328.18
641.954	17472.58
642.368	17462.33
642.781	17484.78
643.195	17397.62
643.609	17582.05
644.022	17673.08
644.436	17785.25
644.849	17779.35
645.262	17766.42
645.676	17976.35
646.089	18042.92
646.502	17913.13
646.915	17978.37
647.328	17878.67
647.741	17970.98
648.154	17881.64
648.567	17895.67
648.98	17769.85
649.393	17885.01
649.805	17933.45
650.218	17907.46
650.631	17709.09
651.043	17707.77
651.456	17680.16
651.868	17778.87
652.28	18166.51
652.693	18460.23
653.105	18628.08
653.517	18810.23
653.929	18811.54
654.341	18933.06
654.753	18736.38
655.165	18934.35
655.577	18977.3
655.989	19014.31
656.401	19010.7
656.813	18439.56
657.224	18233.06
657.636	17932.76
658.047	17799.13
658.459	17651.56
658.87	17718.39
659.282	17713.13
659.693	17468.33
660.104	17341.76
660.515	17237.68
660.926	17365.3
661.338	17502.29
661.749	17550.59
662.159	17489.73
662.57	17588.65
662.981	17650.55
663.392	17627.8
663.803	17848.71
664.213	17964.1
664.624	18028.08
665.035	18241.1
665.445	18068.18
665.855	17999.93
666.266	17898.99
666.676	17955.57
667.086	17839.68
667.497	17882.49
667.907	17812.88
668.317	17666.88
668.727	17545.71
669.137	17618.02
669.547	17587.09
669.956	17683.64
670.366	17751.47
670.776	17804.24
671.186	17914.91
671.595	17979.48
672.005	18081.56
672.414	18029.58
672.824	17952.67
673.233	18129.55
673.642	18144.85
674.052	18164.11
674.461	18146.2
674.87	18235.76
675.279	18114.99
675.688	18138.78
676.097	18097.34
676.506	17967.7
676.915	18275.49
677.323	18298.86
677.732	18209.18
678.141	18155.86
678.549	17883.98
678.958	17836.55
679.366	17770.4
679.775	17858.53
680.183	17933.21
680.592	17994.06
681	18021.13
681.408	17743.82
681.816	17792.94
682.224	17856.51
682.632	17858.18
683.04	18296.29
683.448	18562.21
683.856	18850.48
684.264	19153.08
684.671	19413.43
685.079	19753.5
685.487	20115.31
685.894	20762.81
686.302	21136.16
686.709	21250.91
687.116	21478.25
687.524	21469.74
687.931	21365.74
688.338	21227.26
688.745	21060.31
689.152	20914.02
689.559	20884.87
689.966	20784.73
690.373	20360.63
690.78	20179.88
691.187	20275.39
691.593	20137.58
692	19932.37
692.407	19940.27
692.813	20049.79
693.22	20005.45
693.626	20019.69
694.032	19884.76
694.439	20027.65
694.845	20027.32
695.251	20170.77
695.657	20229.93
696.063	20598.59
696.469	20703.24
696.875	20755.38
697.281	20587.2
697.687	20470.67
698.093	20269.92
698.498	20367.27
698.904	20344.37
699.31	20536.2
699.715	20522.18
700.12	20759.83
700.526	20490.09
700.931	20617.41
701.337	20631.07
701.742	20538.36
702.147	20791.86
702.552	20707.17
702.957	20832.55
703.362	20703.91
703.767	20644.13
704.172	20683.79
704.577	20183.5
704.981	20267.48
705.386	20147.48
705.791	19901.39
706.195	20141.05
706.6	20003.17
707.004	20292.31
707.408	19937.82
707.813	19913.83
708.217	19672.44
708.621	19521.41
709.025	19892.99
709.43	19727.77
709.834	19899.99
710.237	20132.36
710.641	19908.73
711.045	19879.55
711.449	19701.06
711.853	19692.6
712.256	19776.26
712.66	19835.12
713.064	20071.25
713.467	20095.59
713.87	20444
714.274	20417.77
714.677	20659.06
715.08	21111.08
715.484	21566.01
715.887	22113.49
716.29	22669.4
716.693	23200.89
717.096	23854.61
717.499	24061.96
717.901	23911.56
718.304	23887.22
718.707	23959.15
719.109	23568.47
719.512	23532.38
719.915	23027.16
720.317	22898.51
720.719	23150.67
721.122	23085.08
721.524	22917.43
721.926	22726.12
722.328	23118.1
722.731	22980.87
723.133	22966.95
723.535	23630.89
723.937	23542.32
724.338	23611.11
724.74	23629.44
725.142	22997.65
725.544	22932.81
725.945	22926.46
726.347	22891.39
726.748	22821.07
727.15	22837.74
727.551	22621.39
727.952	22469.03
728.354	22322.92
728.755	22324.5
729.156	22193.83
729.557	22446.77
729.958	22001.68
730.359	21906.73
730.76	21912.22
731.161	21768.11
731.562	21769.57
731.962	21911.33
732.363	21730.23
732.763	21546.46
733.164	21777.97
733.564	21537.08
733.965	21156.81
734.365	21029.49
734.766	21164.72
735.166	21000.66
735.566	20748.65
735.966	20617.58
736.366	20561.27
736.766	20294.16
737.166	20434.45
737.566	20259.25
737.966	20152.4
738.365	20315.25
738.765	20281.19
739.165	19962
739.564	19855.36
739.964	20066.61
740.363	19898.14
740.763	19927.13
741.162	19892.11
741.561	19767.35
741.96	19588.25
742.36	19705.12
742.759	19758.11
743.158	19964.58
743.557	20061.93
743.955	20256.23
744.354	20073.42
744.753	20333.33
745.152	20151.95
745.55	20412.4
745.949	20385.84
746.348	20388.68
746.746	20451
747.144	20245.15
747.543	20122.25
747.941	20291.75
748.339	19955.95
748.737	19887.12
749.136	19796.59
749.534	20033.76
749.932	19848.36
750.33	19894.81
750.727	20074.95
751.125	19904.59
751.523	19787.32
751.921	19883.95
752.318	19674.87
752.716	19840.49
753.113	19831.64
753.511	19870.91
753.908	19798.04
754.305	19641.14
754.703	19830.57
755.1	20002.27
755.497	20186.14
755.894	20857.67
756.291	21402.21
756.688	22348.51
757.085	23392.98
757.482	24603.64
757.878	25604.71
758.275	26221.52
758.672	27567.63
759.068	28339.22
759.465	29808.13
759.861	31683.66
760.258	33751.25
760.654	33984.54
761.05	32597.07
761.447	30890.95
761.843	29441.69
762.239	28300.13
762.635	28382.67
763.031	28302.03
763.427	27564.81
763.822	26724.25
764.218	25954.3
764.614	24597.28
765.01	23932.09
765.405	23725.86
765.801	23653.93
766.196	23187.12
766.592	23124.5
766.987	22464.89
767.382	22085.04
767.778	22098.31
768.173	21870.2
768.568	21804.16
768.963	21466.79
769.358	21670.3
769.753	21584.34
770.148	21332.49
770.542	21413.17
770.937	21348.65
771.332	21774.65
771.726	21893.8
772.121	21643.93
772.515	21891.83
772.91	21855.93
773.304	22180.13
773.699	21925.37
774.093	22169.81
774.487	22403.07
774.881	22582.46
775.275	22559.03
775.669	22385.35
776.063	22565.43
776.457	22723.58
776.851	22404.74
777.245	22350.51
777.638	22460.13
778.032	22919.48
778.425	22741.03
778.819	22878.13
779.212	22669.5
779.606	22482.06
779.999	22541.36
780.392	22430.24
780.786	22736.15
781.179	22778.19
781.572	22916.92
781.965	22935.02
782.358	22651.82
782.751	22834.98
783.143	22605.76
783.536	22846.99
783.929	22960.87
784.322	23344.54
784.714	23401.37
785.107	23295.64
785.499	23491.86
785.891	23295.53
786.284	23103.02
786.676	23529.88
787.068	23307.57
787.46	23373.06
787.852	23321.28
788.245	23517.58
788.636	23510.93
789.028	23628.33
789.42	23646.75
789.812	23559.34
790.204	23811.29
790.595	24070.7
790.987	23262.15
791.378	23278.59
791.77	23681.99
792.161	24105.62
792.553	24216.42
792.944	23712.62
793.335	23380.06
793.726	23545.71
794.117	23774.05
794.508	24196.1
794.899	24020.77
795.29	24444.79
795.681	24562.47
796.072	23972
796.463	23136.25
796.853	23058.47
797.244	23494.64
797.634	23498.54
798.025	23390.68
798.415	23320.53
798.806	23468.36
799.196	23602.2
799.586	23590.46
799.976	23288.01
800.366	23876.68
800.756	24580.83
801.146	24289.34
801.536	24229.39
801.926	24321.49
802.316	24263.26
802.706	24363.12
803.095	23858.34
803.485	24070.57
803.874	24101.19
804.264	24816.48
804.653	24611.53
805.043	24925.55
805.432	25124.06
805.821	24976.77
806.21	24873.76
806.599	25044.21
806.988	24952.41
807.377	25034.74
807.766	25143.36
808.155	25673.42
808.544	24600.74
808.933	24319.66
809.321	23918.1
809.71	24372.77
810.098	24382.92
810.487	25144.66
810.875	25871.62
811.264	25349.47
811.652	25420.02
812.04	25108.87
812.428	24809.26
812.816	25833.06
813.204	25977.83
813.592	26374.01
813.98	26306.18
814.368	25401.51
814.756	25718.4
815.144	24982.92
815.531	25372.81
815.919	24842.2
816.306	25060.51
816.694	24211.05
817.081	24155.54
817.469	24749.16
817.856	24829.8
818.243	25428.9
818.63	26244.46
819.017	25496.3
819.404	25491.07
819.791	25909.99
820.178	26622.09
820.565	26714.8
820.952	28065.79
821.339	27008.88
821.725	27114.27
822.112	25598.31
822.498	25252.05
822.885	25195.37
823.271	24876.41
823.657	25573.17
824.044	25726.51
824.43	26018.62
824.816	26020.6
825.202	25224.67
825.588	26708
825.974	26457.96
826.36	26971.31
826.746	26713.09
827.132	26983.64
827.517	26633.02
827.903	25102.49
828.289	24860.04
828.674	23432.94
829.06	23084.59
829.445	23525.84
829.83	23900.77
830.216	24442.88
830.601	24822.76
830.986	24081.87
831.371	23781.33
831.756	24486.1
832.141	23792.79
832.526	23702.96
832.911	24049.18
833.295	23855.32
833.68	24485.17
834.065	23586.28
834.449	22292.7
834.834	22198.17
835.218	22178.25
835.603	22624.96
835.987	22270.67
836.371	23395.03
836.755	23205.03
837.139	23714.21
837.524	23992.37
837.908	23669.22
838.291	23657.21
838.675	23656.89
839.059	23848.87
839.443	23751.73
839.827	23352.44
840.21	23909.67
840.594	23566.89
840.977	23701.41
841.361	23524.25
841.744	23886.28
842.127	23561.19
842.511	23780.56
842.894	24452.96
843.277	24830.34
843.66	25405.17
844.043	25365.19
844.426	24204.79
844.809	23706.32
845.191	23649.47
845.574	22972.4
845.957	22390.9
846.339	22087.71
846.722	21244.38
847.104	21110.83
847.487	20694.35
847.869	20518.66
848.252	20662.67
848.634	20872.52
849.016	20993.82
849.398	20954.95
849.78	21747.14
850.162	21554.61
850.544	21822.97
850.926	22290.68
851.307	21928.44
851.689	21956.88
852.071	22186.65
852.452	22305.86
852.834	22086.18
853.215	22322.67
853.597	22312.31
853.978	22465.27
854.359	22812.99
854.741	21731.23
855.122	21648.27
855.503	21429.31
855.884	21653.39
856.265	21642.96
856.646	21770.4
857.026	21340.38
857.407	21228.97
857.788	21324.27
858.169	21540.83
858.549	20582.79
858.93	21119.01
859.31	21059.05
859.69	21153.73
860.071	20637.92
860.451	20300.17
860.831	19456.84
861.211	20480.15
861.591	20888.4
861.971	20737.49
862.351	20767.87
862.731	20940.04
863.111	20947.09
863.491	20974.72
863.87	21497.33
864.25	21528.92
864.629	20921
865.009	21148.22
865.388	21657.79
865.768	22993.98
866.147	22687.52
866.526	21272.65
866.905	21429.63
867.284	22598.61
867.663	21457.17
868.042	20591.18
868.421	20528.5
868.8	20853.03
869.179	21025.81
869.558	19783.63
869.936	18197.53
870.315	18483.23
870.693	18883.22
871.072	20295.53
871.45	19267.7
871.828	19447.82
872.207	20354.23
872.585	19960.78
872.963	20416.45
873.341	19641.67
873.719	19323.02
874.097	19010.61
874.475	19295.39
874.853	19667.03
875.23	18781.14
875.608	19502.65
875.986	21028.05
876.363	20043.86
876.741	20595.27
877.118	19996.27
877.495	20865.58
877.873	21112.8
878.25	22110.36
878.627	21117.13
879.004	21301.71
879.381	21107.3
879.758	20453.69
880.135	18954.71
880.512	19953.8
880.889	19342.6
881.265	19075.11
881.642	18851.5
882.019	19116.93
882.395	18666.13
882.772	19326.9
883.148	18419.07
883.524	18252.02
883.901	18050.68
884.277	18219.36
884.653	18010.72
885.029	18435.23
885.405	20317.23
885.781	20069.08
886.157	19131.1
886.532	19265.84
886.908	19173.37
887.284	21222.87
887.659	21829.51
888.035	22431.74
888.411	22928.96
888.786	23139.76
889.161	23819.99
889.537	23242.72
889.912	23834.91
890.287	23639.13
890.662	24053.23
891.037	23413.02
891.412	21615.16
891.787	21162.7
892.162	20147.8
892.536	20300.63
892.911	19212.39
893.286	18461.28
893.66	17367.78
894.035	17431.41
894.409	18578.59
894.784	17448.74
895.158	17339.05
895.532	17936.16
895.906	17977.99
896.281	17943.15
896.655	17245.61
897.029	19259.64
897.402	19655.64
897.776	21468.69
898.15	21028.24
898.524	20475.25
898.898	20429.24
899.271	22561.13
899.645	19332.29
900.018	18449.92
900.392	19129.85
900.765	19365.25
901.138	18043.87
901.511	17944.63
901.884	16675.63
902.258	15602.09
902.631	16351.82
903.003	19096.39
903.376	17455.46
903.749	19803.56
904.122	21382.33
904.495	23640.67
904.867	23909.75
905.24	20658.9
905.612	19045.56
905.985	19240.5
906.357	19813.19
906.729	18596.85
907.102	15602.37
907.474	14735.1
907.846	14583.62
908.218	14168.27
908.59	12374.55
908.962	11843.25
909.334	12656.62
909.705	13215.84
910.077	12758.86
910.449	13206.71
910.82	13505.75
911.192	14780.29
911.563	15327.04
911.935	16339.05
912.306	16317.81
912.677	16745.64
913.048	16467.81
913.419	17726.73
913.79	17710.27
914.161	18910.1
914.532	18022.26
914.903	16493.95
915.274	15622.73
915.645	15334.61
916.015	13480.1
916.386	12853.32
916.756	13735.29
917.127	14261.65
917.497	12862.96
917.868	14130.23
918.238	13567.74
918.608	14102.73
918.978	14577.03
919.348	15630.88
919.718	16336.13
920.088	15903.87
920.458	16683.6
920.828	17657.09
921.198	16804.56
921.567	17956.88
921.937	13903.38
922.306	13984.04
922.676	15017.03
923.045	12504.68
923.415	11838.46
923.784	10734.92
924.153	10985.59
924.522	10917.23
924.891	10205.15
925.26	10851.85
925.629	10497.62
925.998	11929.48
926.367	11500
926.736	10816.68
927.104	12628.45
927.473	13281.83
927.842	15627.47
928.21	15021.74
928.578	15234.24
928.947	13866.94
929.315	13430.11
929.683	15127.78
930.051	14610.22
930.42	16187.43
930.788	13171.5
931.156	12426.8
931.523	11093.6
931.891	9768.8
932.259	8948.24
932.627	9919.2
932.994	13421.42
933.362	10669.9
933.729	8944.32
934.097	8290.09
934.464	6872.09
934.831	7759.7
935.199	7553.06
935.566	7268.71
935.933	7435.09
936.3	9058.62
936.667	7146.77
937.034	6687.04
937.401	6771.63
937.767	6031.6
938.134	5575.83
938.501	8156.06
938.867	9063.11
939.234	15957.9
939.6	14173.86
939.967	16092.7
940.333	11203.95
940.699	9817.75
941.065	7987.89
941.431	10679.93
941.798	10474.27
942.163	13867.92
942.529	8666.95
942.895	7944.77
943.261	5134.91
943.627	6691.64
943.992	5807.63
944.358	5732.83
944.723	5730.66
945.089	5543.55
945.454	5101.27
945.82	5382.7
946.185	5133.91
946.55	5979.26
946.915	5373.96
947.28	6307.76
947.645	5557.03
948.01	5156.04
948.375	5383.08
948.74	6424.58
949.104	7497.23
949.469	10757.72
949.834	19054.34
950.198	18198.99
950.562	10887.85
950.927	9037.18
951.291	10818.06
951.655	9200.75
952.02	8565.38
952.384	6466.17
952.748	5659.6
953.112	5519.86
953.476	4792.8
953.839	4398.16
954.203	4336.3
954.567	5382.68
954.931	8434.31
955.294	7233.36
955.658	7258.31
956.021	12390.43
956.385	21034.03
956.748	30992.49
957.111	48115.63
957.474	54142.59
957.837	61147.69
958.2	46265.38
958.563	16700.41
958.926	11409.26
959.289	17358.91
959.652	19472.62
960.015	14686.49
960.377	21130.87
960.74	24154.31
961.102	41641.04
961.465	45119.98
961.827	24761.64
962.189	47956.99
962.552	33571.03
962.914	27045.88
963.276	17633.8
963.638	14749.46
964	14651.33
964.362	10003.14
964.724	9748.44
965.085	7034.83
965.447	5809.74
965.809	6590.98
966.17	6625.89
966.532	7260.55
966.893	6764.11
967.255	6251.3
967.616	7468.17
967.977	6091.51
968.338	6755.07
968.699	5672.22
969.061	5771.85
969.421	5921.08
969.782	6760.7
970.143	5830.52
970.504	6150.71
970.865	7075.75
971.225	7346.35
971.586	7260.6
971.946	10407.48
972.307	9082.03
972.667	11870.02
973.027	12230.72
973.388	14775.47
973.748	10020.75
974.108	10882.68
974.468	14551.14
974.828	11220.87
975.188	8540.78
975.548	7773.49
975.907	6490.54
976.267	7233.09
976.627	6086.89
976.986	6305.76
977.346	6013
977.705	5804.06
978.064	5283.32
978.424	4424.18
978.783	4561.05
979.142	5247.87
979.501	5065.09
979.86	5406.69
980.219	5260.53
980.578	6796.13
980.937	7657.94
981.296	6887.39
981.654	7140.32
982.013	11221.72
982.371	14718.25
982.73	13861.52
983.088	15842.45
983.447	17086.18
983.805	24681.96
984.163	51949.9
984.521	58035.47
984.879	85453.98
985.237	-139984.99
985.595	135892.61
985.953	33964.95
986.311	19750.3
986.669	11551.55
987.026	10032.01
987.384	13500.92
987.741	14015.35
988.099	10103.5
988.456	8122.56
988.814	7703.19
989.171	6744.29
989.528	6668.25
989.885	7061.99
990.242	5620.92
990.599	7022.7
990.956	5743.83
991.313	4054.26
991.67	3344
992.027	3595.44
992.383	3212.09
992.74	2824.1
993.096	2968.69
993.453	3086.14
993.809	3214.01
994.165	4279.38
994.522	3983.04
994.878	4417.25
995.234	5546.19
995.59	5487.88
995.946	5158.81
996.302	5902.67
996.658	6830.75
997.013	7551.66
997.369	9014.73
997.725	11614.48
998.08	7555.12
998.436	11534.42
998.791	15994.88
999.147	16110.3
999.502	17598.27
999.857	12835.76
1000.212	21056.24
1000.567	30140.18
1000.922	17433.97
1001.277	11142.15
1001.632	8275.09
1001.987	10684.19
1002.342	7704.96
1002.696	6165.95
1003.051	4928.84
1003.406	5991.68
1003.76	5974.16
1004.114	5892.37
1004.469	4979.35
1004.823	4157.24
1005.177	4490.32
1005.531	3588.2
1005.885	3206.88
1006.239	3640.58
1006.593	4606.86
1006.947	6191.08
1007.301	4679.56
1007.655	5115.34
1008.008	3776.93
1008.362	4255.49
1008.715	6106.57
1009.069	5556.88
1009.422	8372.94
1009.776	16844.97
1010.129	11222.59
1010.482	9351.17
1010.835	7921.74
1011.188	16531.08
1011.541	15682.37
1011.894	-96118.77
1012.247	284884.82
1012.6	19366.62
1012.952	12337.33
1013.305	6397.7
1013.657	4650.93
1014.01	4447.16
1014.362	3695.02
1014.715	3330.7
1015.067	2924.76
1015.419	2871.49
1015.771	2564
1016.123	2294.91
1016.475	2370.09
1016.827	2539.48
1017.179	2743.33
1017.531	2773.14
1017.883	2841.39
1018.234	2779.48
1018.586	3512.18
1018.938	3756.48
1019.289	5211.46
1019.64	6010.95
1019.992	5625.02
1020.343	5211.79
1020.694	4148.52
1021.045	3695.99
1021.396	4236.06
1021.747	4582.97
1022.098	5518.6
1022.449	4049.01
1022.8	3781.01
1023.151	2653.52
1023.501	2374.73
1023.852	2606.6
1024.202	2724.1
1024.553	3005.35
1024.903	2972.75
1025.253	2578.74
1025.604	2328.22
1025.954	2921.98
1026.304	3567.73
1026.654	4193.56
1027.004	6208.91
1027.354	10033.43
1027.703	9497.5
1028.053	12517.87
1028.403	18560.26
1028.753	26847.89
1029.102	36703.38
1029.452	190354.83
1029.801	8237.39
1030.15	5347.17
1030.499	4524.46
897.758	2261.11
901.051	2197.47
904.343	2233.39
907.636	2240.41
910.928	2302.1
914.22	2221.44
917.511	2225.97
920.803	2278.32
924.094	2279.74
927.384	2278.43
930.675	2241.63
933.965	2204.25
937.255	2230.88
940.544	2195.32
943.834	2193.31
947.123	2131.42
950.411	2221.74
953.7	2203.39
956.988	2182.36
960.276	2121
963.563	2173.98
966.851	2184.48
970.138	2227.44
973.424	2227.89
976.711	2182.78
979.997	2234.68
983.283	2279.74
986.568	2205.47
989.853	2200.13
993.138	2228.55
996.423	2311.17
999.708	2264.14
1002.992	2295.25
1006.275	2202.93
1009.559	2212.76
1012.842	2313.2
1016.125	2262.3
1019.408	2242.99
1022.69	2304.04
1025.972	2334.49
1029.254	2307.37
1032.536	2264.5
1035.817	2280.42
1039.098	2249.26
1042.379	2310.35
1045.659	2334.95
1048.939	2279.52
1052.219	2290.15
1055.498	2286.16
1058.778	2281.62
1062.057	2258.07
1065.335	2282.98
1068.614	2297.21
1071.892	2289.71
1075.17	2345.96
1078.447	2346.14
1081.724	2341.98
1085.001	2371.14
1088.278	2346.19
1091.554	2354.78
1094.83	2349.29
1098.106	2386.4
1101.382	2418.37
1104.657	2417.06
1107.932	2416.54
1111.206	2392.43
1114.481	2348.84
1117.755	2348.81
1121.029	2338.41
1124.302	2402.36
1127.575	2363.12
1130.848	2357.61
1134.121	2326.17
1137.393	2287.46
1140.665	2348.79
1143.937	2325.06
1147.208	2276.97
1150.48	2330.72
1153.75	2321.72
1157.021	2328.43
1160.291	2301.56
1163.561	2355.05
1166.831	2328.41
1170.101	2355.1
1173.37	2316.98
1176.639	2269.99
1179.907	2318.93
1183.176	2339.45
1186.444	2339.99
1189.711	2365.04
1192.979	2386.11
1196.246	2340.9
1199.513	2355.59
1202.78	2359.75
1206.046	2368.16
1209.312	2394.81
1212.578	2413.37
1215.843	2377.94
1219.108	2344.41
1222.373	2370.45
1225.638	2340.19
1228.902	2335.18
1232.166	2293.15
1235.43	2280.35
1238.693	2301.96
1241.956	2296.29
1245.219	2341.97
1248.482	2326.07
1251.744	2323.48
1255.006	2451.55
1258.268	2400.91
1261.529	2353.72
1264.79	2351.79
1268.051	2453.77
1271.312	2463.15
1274.572	2433.32
1277.832	2418.49
1281.092	2402.95
1284.351	2391.54
1287.61	2375.04
1290.869	2307.45
1294.128	2299.49
1297.386	2354.64
1300.644	2347.02
1303.902	2354.78
1307.159	2224.57
1310.416	2276.63
1313.673	2306.77
1316.93	2304.3
1320.186	2336.91
1323.442	2371.46
1326.697	2368.44
1329.953	2345.14
1333.208	2377.58
1336.463	2353.78
1339.717	2312.39
1342.972	2419.49
1346.226	2393.65
1349.479	2339.24
1352.733	2315.77
1355.986	2324.08
1359.238	2305.62
1362.491	2314.73
1365.743	2314.26
1368.995	2308.19
1372.247	2321.02
1375.498	2341.55
1378.749	2380.46
1382	2331.59
1385.251	2372.65
1388.501	2327.06
1391.751	2324.78
1395	2290.43
1398.25	2313.97
1401.499	2338.56
1404.748	2284.87
1407.996	2262.17
1411.244	2251.7
1414.492	2235.97
1417.74	2218.46
1420.987	2222.24
1424.234	2279.5
1427.481	2246.67
1430.728	2304.26
1433.974	2281.64
1437.22	2278.81
1440.465	2276.78
1443.711	2272.1
1446.956	2297.25
1450.201	2270.4
1453.445	2313.69
1456.689	2299.26
1459.933	2313.27
1463.177	2350.74
1466.42	2323.56
1469.663	2306.24
1472.906	2318.24
1476.148	2366.72
1479.391	2347.67
1482.633	2320.55
1485.874	2344.32
1489.115	2348.08
1492.356	2335.98
1495.597	2312.6
1498.838	2309.5
1502.078	2291.87
1505.318	2259.86
1508.557	2295.02
1511.797	2292.46
1515.036	2332.36
1518.274	2306.09
1521.513	2264.56
1524.751	2277.55
1527.989	2302.31
1531.227	2319.89
1534.464	2328.58
1537.701	2325.93
1540.938	2339.56
1544.174	2289.32
1547.41	2279.01
1550.646	2316.11
1553.882	2367.54
1557.117	2423.04
1560.352	2430.49
1563.587	2393.1
1566.821	2358.4
1570.055	2377.26
1573.289	2359.28
1576.523	2419.64
1579.756	2433.28
1582.989	2455.75
1586.222	2414.12
1589.454	2442.75
1592.686	2425.56
1595.918	2454.69
1599.15	2447.68
1602.381	2499.14
1605.612	2476.83
1608.843	2570.61
1612.073	2493.03
1615.303	2479.59
1618.533	2477.56
1621.762	2477.09
1624.992	2453.3
1628.221	2454.33
1631.449	2439.47
1634.678	2473.73
1637.906	2437.84
1641.134	2468.73
1644.361	2431.01
1647.588	2417.7
1650.815	2438.82
1654.042	2403.24
1657.269	2432.94
1660.495	2408.09
1663.72	2398.28
1666.946	2368.51
1670.171	2335.25
1673.396	2311.67
1676.621	2291.07
1679.845	2293.32
1683.069	2304.6
1686.293	2336.09
1689.517	2324.05
1692.74	2273.16
1695.963	2294.83
1699.185	2331.8
1702.408	2303.72
1705.63	2335.11
1708.852	2350.38
1712.073	2323.78
1715.294	2328.53
1718.515	2373.49
1721.736	2330.92
1724.956	2313.6
1728.176	2334
1731.396	2358.93
1734.616	2344.47
1737.835	2380.78
1741.054	2352.46
1744.272	2344.71
1747.491	2384.1
1750.709	2411.33
1753.927	2353.39
1757.144	2381.2
1760.361	2436.73
1763.578	2415.24
1766.795	2362.41
1770.011	2353.38
1773.227	2380.07
1776.443	2420.96
1779.658	2463.55
1782.874	2401.94
1786.089	2394.58
1789.303	2397.13
1792.518	2394.19
1795.732	2381.6
1798.945	2396.42
1802.159	2437.61
1805.372	2374.28
1808.585	2368.94
1811.797	2368.99
1815.01	2394.59
1818.222	2415.53
1821.434	2378.41
1824.645	2421.56
1827.856	2429.75
1831.067	2461.3
1834.278	2400.76
1837.488	2384.08
1840.698	2512.31
1843.908	2450.25
1847.117	2416.77
1850.326	2336.37
1853.535	2402.71
1856.744	2433.66
1859.952	2357.03
1863.16	2358.24
1866.368	2371.57
1869.575	2481.6
1872.782	2368.06
1875.989	2297.55
1879.196	2353.05
1882.402	2344.23
1885.608	2380.15
1888.814	2313.88
1892.019	2219.66
1895.224	2269.92
1898.429	2239.98
1901.634	2223.27
1904.838	2198.13
1908.042	2252.15
1911.246	2266.26
1914.449	2222.73
1917.652	2206.27
1920.855	2185.39
1924.058	2218.37
1927.26	2262.02
1930.462	2282.92
1933.664	2317.42
1936.865	2259.96
1940.066	2275.54
1943.267	2220.67
1946.467	2231.34
1949.668	2250.26
1952.868	2322.52
1956.067	2310.89
1959.267	2248.34
1962.466	2271.61
1965.665	2256.74
1968.863	2249.4
1972.061	2253.84
1975.259	2250.89
1978.457	2325.58
1981.654	2285.2
1984.852	2290.25
1988.048	2238.96
1991.245	2229.3
1994.441	2315.58
1997.637	2279.99
2000.833	2260.22
2004.028	2297.28
2007.223	2358.72
2010.418	2342.52
2013.613	2295.61
2016.807	2286.78
2020.001	2279.59
2023.194	2304.55
2026.388	2290.07
2029.581	2233.82
2032.774	2293.37
2035.966	2305.99
2039.158	2250.17
2042.35	2270.58
2045.542	2196.28
2048.733	2283.21
2051.924	2277.41
2055.115	2299.73
2058.306	2262.32
2061.496	2316.96
2064.686	2367.01
2067.875	2275.9
2071.065	2278.87
2074.254	2298.89
2077.442	2254.29
2080.631	2339.26
2083.819	2262.18
2087.007	2258.46
2090.195	2237.06
2093.382	2256.48
2096.569	2238.72
2099.756	2200.46
2102.942	2244.71
2106.128	2258.39
2109.314	2246.04
2112.5	2226.52
2115.685	2195.04
2118.87	2204.37
2122.055	2263.05
2125.239	2242.43
2128.424	2226.74
2131.608	2292.85
2134.791	2277.34
2137.974	2317.13
2141.157	2306.63
2144.34	2275.76
2147.523	2271.01
2150.705	2296.03
2153.887	2264.93
2157.068	2234.45
2160.25	2219.85
2163.431	2242.89
2166.611	2210.72
2169.792	2231.26
2172.972	2140.01
2176.152	2192.26
2179.331	2221.38
2182.511	2220.37
2185.69	2243.71
2188.868	2245.89
2192.047	2283.62
2195.225	2295.73
2198.403	2247.85
2201.58	2233.04
2204.758	2220.77
2207.935	2295.94
2211.111	2211.1
2214.288	2197.93
2217.464	2231.46
2220.64	2191.52
2223.815	2242.6
2226.991	2172.56
2230.166	2189.56
2233.34	2229.71
2236.515	2245.82
2239.689	2310.13
2242.863	2260.67
2246.036	2313.57
2249.209	2298.92
2252.382	2320.27
2255.555	2325.68
2258.727	2273.69
2261.9	2306.66
2265.071	2296.91
2268.243	2293.98
2271.414	2239.73
2274.585	2221.8
2277.756	2283.39
2280.926	2234.94
2284.096	2265.18
2287.266	2195.67
2290.436	2240.31
2293.605	2262.57
2296.774	2296.5
2299.942	2302.32
2303.111	2318.14
2306.279	2370.47
2309.447	2354.68
2312.614	2325.03
2315.781	2352.76
2318.948	2329.52
2322.115	2363.48
2325.281	2265.67
2328.447	2273.34
2331.613	2245.62
2334.779	2235.25
2337.944	2232.91
2341.109	2232.69
2344.274	2221.46
2347.438	2188.1
2350.602	2208.89
2353.766	2219.92
2356.929	2208.22
2360.092	2247.61
2363.255	2215.87
2366.418	2176.4
2369.58	2248.91
2372.742	2110.68
2375.904	2109.7
2379.066	2093.13
2382.227	2122.54
2385.388	2083.45
2388.548	2029.66
2391.709	2075.87
2394.869	2059.7
2398.029	2120.35
2401.188	2119.46
2404.347	2078.49
2407.506	2168.08
2410.665	2202.15
2413.823	2192.05
2416.981	2166.5
2420.139	2187.21
2423.296	2230.55
2426.453	2200.03
2429.61	2222.43
2432.767	2188.36
2435.923	2227.93
2439.079	2179
2442.235	2214.18
2445.391	2154.47
2448.546	2194.84
2451.701	2231.63
2454.855	2224.1
2458.009	2254.21
2461.163	2247.39
2464.317	2219.07
2467.471	2245.7
2470.624	2275.61
2473.777	2262.22
2476.929	2278.71
2480.082	2301.09
2483.234	2271.7
2486.385	2213.27
2489.537	2207.14
2492.688	2193.66
2495.839	2208.91
2498.989	2222.39
2502.14	2209.5
2505.29	2199.56
2508.439	2223.52
2511.589	2160.91
2514.738	2164.18
2517.887	2189.16
2521.035	2262.96
2524.183	2228.67
2527.331	2214.56
2530.479	2205.74
2533.627	2209.39
