Data from C_2_DIV_PA_2N_Splice17_12-40-35-557.txt Node
Date: Sat Mar 14 12:40:35 EDT 2020
User: sa697716
Spectrometer: FLMS03696
Trigger mode: 0
Integration Time (sec): 3.180400E-1
Scans to average: 20
Electric dark correction enabled: true
Nonlinearity correction enabled: true
Boxcar width: 5
XAxis mode: Wavelengths
Number of Pixels in Spectrum: 2048
>>>>>Begin Spectral Data<<<<<
187.83	-365265.99
188.298	2491.56
188.766	1316.92
189.233	1141.86
189.701	1644.03
190.169	2171.83
190.636	796.89
191.104	644.81
191.571	57.18
192.039	-128.53
192.506	-191.09
192.974	362.26
193.441	-885.64
193.908	-263.11
194.375	-111.91
194.842	-62.94
195.31	-75.58
195.777	101.09
196.244	321.71
196.711	363.06
197.177	443.93
197.644	606.08
198.111	1069.17
198.578	1503.72
199.045	1208.29
199.511	1946.16
199.978	2246.75
200.445	1950.58
200.911	2140.39
201.378	2345.44
201.844	2122.88
202.31	3615.04
202.777	3714.49
203.243	2067.35
203.709	1987.56
204.176	2334.75
204.642	1937.47
205.108	1819.23
205.574	1436.82
206.04	1302.06
206.506	1231.75
206.972	1158.5
207.438	1115.78
207.903	1281.91
208.369	1142.92
208.835	1142.75
209.301	1209.18
209.766	1237.86
210.232	1230.62
210.697	1570.4
211.163	1932.56
211.628	2930.78
212.094	2490.7
212.559	3130.96
213.024	1961.59
213.49	2397.65
213.955	2347.91
214.42	2264.27
214.885	2114.59
215.35	2031.6
215.815	1999.84
216.28	2151.95
216.745	1751.74
217.21	1919.52
217.675	1758.53
218.14	2019.17
218.604	2284.61
219.069	2639.73
219.534	2865.95
219.998	3387.32
220.463	4171.55
220.927	5155.49
221.392	4902.46
221.856	5021.99
222.32	6366.91
222.785	7938.53
223.249	10049.2
223.713	11273.95
224.177	11360.23
224.642	14599.45
225.106	18036.99
225.57	19773.77
226.034	14783.39
226.497	22612.35
226.961	20466.16
227.425	23921.93
227.889	26607.2
228.353	26735.89
228.816	55380.91
229.28	53086.23
229.744	44793.87
230.207	27312.35
230.671	26966.71
231.134	44630.77
231.597	51567.85
232.061	51720.47
232.524	50541.58
232.987	34906.09
233.45	31395.61
233.914	28219.68
234.377	28996.89
234.84	26623.12
235.303	31396.79
235.766	35060.74
236.229	36335.45
236.691	22918.75
237.154	25799.98
237.617	19425.31
238.08	19922.49
238.542	23373.95
239.005	16743.75
239.468	16635.98
239.93	15703.52
240.393	14307.59
240.855	12594.21
241.317	12910.89
241.78	15712.86
242.242	16285.92
242.704	17653.2
243.166	15391.09
243.629	14012.18
244.091	16157.66
244.553	17753.57
245.015	19122.86
245.477	24765.36
245.939	36353.21
246.4	38653.43
246.862	37640.62
247.324	35512.24
247.786	39771.69
248.247	52265.36
248.709	54075.26
249.17	40579.89
249.632	38268.95
250.093	44416.22
250.555	38442.97
251.016	23474.16
251.477	22301.75
251.939	24143.28
252.4	25391.5
252.861	30237.47
253.322	28145.77
253.783	33509.03
254.244	43462.74
254.705	34311.38
255.166	30528.19
255.627	30088.71
256.088	42497.89
256.549	45129.6
257.009	38827.49
257.47	47116.07
257.931	38371.43
258.391	28771.07
258.852	29667.1
259.312	31139.06
259.773	38452.91
260.233	32539.69
260.694	27469.6
261.154	31181.77
261.614	25079.15
262.074	22444.17
262.534	23332.18
262.994	22013.69
263.455	29377.44
263.915	24787.35
264.374	23348.01
264.834	25549.43
265.294	28339.21
265.754	29376.5
266.214	27816.9
266.673	26090.38
267.133	32976.7
267.593	32705.83
268.052	40052.07
268.512	34803.3
268.971	41977.08
269.431	46067.37
269.89	41247.04
270.349	61871.56
270.809	69024.87
271.268	62087.61
271.727	139157.83
272.186	90125.79
272.645	67729.57
273.104	48847.83
273.563	70801.55
274.022	55683.6
274.481	47368.58
274.94	36496.57
275.399	27138.88
275.857	31616.2
276.316	42774.47
276.775	38064.62
277.233	37505.69
277.692	35095.54
278.15	39729.21
278.609	40855.92
279.067	37838.08
279.525	35157.31
279.984	45453.49
280.442	54568.87
280.9	53754.85
281.358	35355.58
281.816	32967.8
282.274	32295.84
282.732	33340.7
283.19	33470.63
283.648	28916.32
284.106	30777.21
284.564	31311.36
285.021	28997.91
285.479	21589.6
285.937	19611.11
286.394	17194.22
286.852	17681.12
287.309	18576.98
287.767	17971.37
288.224	17084.6
288.682	18745.33
289.139	20559.86
289.596	18801.74
290.053	19552.54
290.511	24716.57
290.968	30035.03
291.425	40832.43
291.882	34043.28
292.339	29630.63
292.796	29405.96
293.252	27758.04
293.709	22063.79
294.166	19807.86
294.623	21906.05
295.079	21018.77
295.536	21142.4
295.992	19194.18
296.449	18968.72
296.905	19718
297.362	18936.97
297.818	19902.51
298.274	20656.05
298.731	21015.73
299.187	20774.89
299.643	22319.22
300.099	27011.98
300.555	29609.1
301.011	24751.24
301.467	23879.81
301.923	27948.26
302.379	27254.9
302.835	26792.54
303.291	26827.88
303.746	30575.04
304.202	38636.41
304.658	38788.48
305.113	26074.59
305.569	25545.57
306.024	27216.05
306.479	25902.3
306.935	21827.51
307.39	23815.89
307.845	22009.1
308.301	22146.24
308.756	21567.49
309.211	20783.71
309.666	21298.22
310.121	26442.47
310.576	26851.61
311.031	26651.95
311.486	30516.3
311.94	30469.47
312.395	40781.12
312.85	76514.69
313.305	375263.75
313.759	1941698.06
314.214	140921.26
314.668	111611.15
315.123	93865.04
315.577	33668.94
316.032	29935.19
316.486	37510.67
316.94	29627.01
317.394	20632.33
317.849	16064.04
318.303	15213.99
318.757	14392.74
319.211	15913.61
319.665	13947.19
320.119	14138.22
320.572	20291.68
321.026	18981.9
321.48	15819.07
321.934	17262.79
322.387	17320.93
322.841	18711.48
323.295	16872.42
323.748	19433.48
324.202	19731.12
324.655	23693.69
325.108	33108.53
325.562	23388.41
326.015	27788.05
326.468	21026.25
326.921	23538.84
327.374	21934.47
327.827	22858.18
328.28	25879.96
328.733	17343.34
329.186	15280.17
329.639	14573.17
330.092	12293.13
330.545	11703.29
330.997	11819.97
331.45	12925.59
331.903	15144.87
332.355	26114.72
332.808	25389.72
333.26	20953.27
333.713	22783.66
334.165	22882.74
334.617	30549.84
335.069	24645.74
335.522	44558.09
335.974	49356.72
336.426	45038.38
336.878	31199.94
337.33	15810.88
337.782	15432.55
338.234	19342.05
338.686	23094.96
339.137	27358.34
339.589	25769.1
340.041	20246.09
340.493	17417.41
340.944	17877.57
341.396	19280.61
341.847	16226.23
342.299	19142.4
342.75	23405.49
343.201	20452.5
343.653	23563.34
344.104	29024.81
344.555	22866.72
345.006	35607.98
345.457	27298.18
345.908	21662.52
346.359	20407.1
346.81	16634.98
347.261	17561.42
347.712	17289.66
348.163	18521.52
348.613	18784.07
349.064	17551.78
349.515	15381.55
349.965	15784.9
350.416	19047.64
350.866	20956.36
351.317	23663.32
351.767	39168.9
352.217	49537.52
352.668	41144.11
353.118	37707.34
353.568	36312.53
354.018	28701.06
354.468	30299.21
354.918	21725.92
355.368	18979.27
355.818	26783.39
356.268	77171.93
356.718	323116.64
357.168	80409
357.617	40379.03
358.067	44917.48
358.517	42130.81
358.966	49530.83
359.416	55538.84
359.865	60014.32
360.315	71501.13
360.764	33413.08
361.213	18722.92
361.663	17750.57
362.112	21926.46
362.561	35388.9
363.01	26718.39
363.459	22510.77
363.908	24383.75
364.357	20698.14
364.806	34977.56
365.255	24047.58
365.703	22031.3
366.152	22052.49
366.601	17877.78
367.05	14518.46
367.498	13207.72
367.947	13827.5
368.395	14357.89
368.844	12692.91
369.292	15297.39
369.74	10583.58
370.189	16247.91
370.637	19020.68
371.085	16413.49
371.533	20015.07
371.981	19267.43
372.429	18379.01
372.877	19135.86
373.325	16041.11
373.773	16317.37
374.221	14542.07
374.669	18004.93
375.116	15525.14
375.564	15631.31
376.012	17480.86
376.459	14404.81
376.907	17198.04
377.354	20745.23
377.801	19346.73
378.249	22222
378.696	28424.55
379.143	34380.48
379.591	36602.72
380.038	61864.5
380.485	44725.25
380.932	48280.88
381.379	44161.3
381.826	32534.1
382.273	23123.04
382.72	20163.55
383.166	19663.95
383.613	12751.16
384.06	11488.19
384.506	13318.88
384.953	9805.01
385.4	9868.82
385.846	8631.91
386.292	8400.64
386.739	8219.71
387.185	8115.76
387.631	8112.34
388.078	7853.61
388.524	8388.96
388.97	7731.69
389.416	6438.14
389.862	6828.83
390.308	6465.97
390.754	6566.75
391.2	7113.56
391.645	7255.46
392.091	6953.51
392.537	6719.3
392.983	6720.83
393.428	6607.04
393.874	7084.65
394.319	7115.97
394.765	6743.5
395.21	6926.34
395.655	6491.17
396.101	6081.9
396.546	5499.84
396.991	5537.54
397.436	5137.08
397.881	4966.5
398.326	4701.31
398.771	4447.15
399.216	3875.21
399.661	3487.05
400.106	3475.03
400.551	3563.56
400.995	3196.75
401.44	3163.13
401.885	2975.93
402.329	3014.91
402.774	2895.46
403.218	2809.08
403.663	2710.9
404.107	2800.21
404.551	2825.54
404.995	2593.1
405.44	2497.72
405.884	2544.22
406.328	2465.32
406.772	2462.17
407.216	2248.43
407.66	2174.69
408.104	2069.61
408.547	1944.75
408.991	1883.92
409.435	1821.11
409.879	1805.64
410.322	1789.72
410.766	1732.41
411.209	1651.97
411.653	1591.66
412.096	1562.93
412.54	1569.87
412.983	1564.2
413.426	1574.18
413.869	1578.19
414.312	1552.06
414.756	1497.5
415.199	1431.03
415.642	1394.26
416.085	1401.77
416.527	1393.78
416.97	1419.01
417.413	1351.94
417.856	1339.66
418.298	1327.27
418.741	1322.02
419.184	1322.79
419.626	1384.49
420.069	1392.22
420.511	1403.77
420.953	1379.64
421.396	1373.28
421.838	1342.7
422.28	1376.96
422.722	1393.06
423.164	1418.82
423.606	1400.1
424.048	1402.6
424.49	1334.42
424.932	1330.4
425.374	1316.61
425.816	1340.53
426.258	1370.02
426.699	1388.22
427.141	1371.17
427.582	1394.91
428.024	1390.13
428.465	1385.39
428.907	1351.46
429.348	1337.05
429.789	1336.92
430.231	1308.98
430.672	1328.29
431.113	1298.31
431.554	1281.94
431.995	1249.37
432.436	1203.6
432.877	1177.06
433.318	1156.1
433.759	1152.44
434.2	1152.36
434.64	1140.99
435.081	1142.51
435.522	1082.32
435.962	1039.99
436.403	1015.19
436.843	1029.06
437.284	1007.39
437.724	979.87
438.164	979.81
438.604	957.79
439.045	920.15
439.485	883.3
439.925	865.14
440.365	841.93
440.805	829.39
441.245	820
441.685	788.68
442.125	780.35
442.564	783.61
443.004	766.09
443.444	762.86
443.883	763.72
444.323	754.92
444.762	753.26
445.202	762.25
445.641	777.32
446.081	767.53
446.52	772.27
446.959	763.93
447.398	744.53
447.837	734.28
448.276	720.21
448.716	724.6
449.154	730.6
449.593	713.84
450.032	710.31
450.471	694.9
450.91	696.25
451.349	693.4
451.787	690.39
452.226	700.26
452.664	699.64
453.103	697.94
453.541	695.72
453.98	692.25
454.418	696.66
454.856	685.72
455.295	684.05
455.733	689.71
456.171	694.38
456.609	695.4
457.047	695.01
457.485	704.34
457.923	708.09
458.361	698.12
458.798	700.95
459.236	699.15
459.674	703.59
460.111	707.09
460.549	699.97
460.987	696.72
461.424	693.53
461.862	689.99
462.299	679.11
462.736	677.93
463.173	682.27
463.611	676.7
464.048	675.27
464.485	680.86
464.922	673.87
465.359	669.37
465.796	662.93
466.233	658.35
466.67	652.58
467.106	652.71
467.543	645.76
467.98	637.45
468.416	619.54
468.853	613.5
469.29	593.9
469.726	587.91
470.162	572.88
470.599	562.56
471.035	556.66
471.471	543.12
471.907	538.71
472.344	535.34
472.78	536.39
473.216	542.58
473.652	536.38
474.088	535.69
474.523	534.19
474.959	539.77
475.395	535.48
475.831	532.3
476.266	535.15
476.702	532.78
477.138	526.7
477.573	523.95
478.008	521.9
478.444	524.42
478.879	530.01
479.314	532.61
479.75	532.38
480.185	534.64
480.62	538.4
481.055	540.49
481.49	544.8
481.925	552.35
482.36	562.95
482.795	577.76
483.229	593.07
483.664	603.98
484.099	604.84
484.534	613.47
484.968	617.87
485.403	618.96
485.837	618.41
486.271	616.6
486.706	616.37
487.14	607.95
487.574	597.74
488.009	591.17
488.443	584.73
488.877	589.87
489.311	589.74
489.745	596.5
490.179	601.43
490.613	611.22
491.046	614.23
491.48	617.54
491.914	616.02
492.348	618.24
492.781	619.78
493.215	619.27
493.648	617.7
494.082	619.76
494.515	616.7
494.948	620.91
495.382	620.83
495.815	622.05
496.248	623.27
496.681	631.07
497.114	637.27
497.547	642.36
497.98	649.57
498.413	651.23
498.846	655.24
499.279	658.05
499.711	655.97
500.144	652.79
500.577	657.34
501.009	661.02
501.442	664.9
501.874	660.77
502.306	656.15
502.739	658.59
503.171	664.6
503.603	662.23
504.036	664.51
504.468	664.78
504.9	668.58
505.332	667.12
505.764	665.24
506.196	664.05
506.627	669.83
507.059	674.93
507.491	673.86
507.923	666.92
508.354	672.23
508.786	674.1
509.217	681.31
509.649	687.18
510.08	695.41
510.512	702.06
510.943	708.25
511.374	710.43
511.805	719.49
512.237	727.74
512.668	743.87
513.099	756.6
513.53	769.25
513.961	777.02
514.391	792.21
514.822	810.25
515.253	828.85
515.684	840.42
516.114	854.77
516.545	864.09
516.975	876.76
517.406	884.76
517.836	882.82
518.267	884.26
518.697	893.38
519.127	893.04
519.558	894.04
519.988	893.74
520.418	897.5
520.848	905.84
521.278	908.99
521.708	941.16
522.138	948.21
522.567	965.07
522.997	980.76
523.427	988.86
523.857	999.12
524.286	1004.35
524.716	1012.53
525.145	1023.52
525.575	1030.88
526.004	1039.36
526.433	1011.96
526.863	1011.13
527.292	1006.31
527.721	1008.55
528.15	1012.24
528.579	1012.68
529.008	1019.34
529.437	1032.7
529.866	1040.35
530.295	1050.63
530.724	1059.13
531.152	1076.3
531.581	1086.32
532.01	1098.13
532.438	1104.07
532.867	1113.23
533.295	1125.32
533.723	1130
534.152	1129.79
534.58	1130.68
535.008	1121.66
535.436	1124.04
535.865	1128.66
536.293	1136.71
536.721	1146.27
537.149	1163
537.576	1165.07
538.004	1172.58
538.432	1176.54
538.86	1176.37
539.287	1181.49
539.715	1190.49
540.143	1190.91
540.57	1188.78
540.998	1187.74
541.425	1174.26
541.852	1159.57
542.28	1157.84
542.707	1148.26
543.134	1141
543.561	1139.04
543.988	1135.34
544.415	1134.84
544.842	1132.07
545.269	1127.71
545.696	1129.13
546.123	1136.7
546.549	1131.7
546.976	1124.98
547.403	1124.68
547.829	1125.04
548.256	1125.78
548.682	1123.02
549.108	1120.23
549.535	1119.88
549.961	1122.09
550.387	1113.77
550.813	1111.22
551.24	1115.35
551.666	1116.09
552.092	1110.45
552.518	1106.77
552.943	1102.84
553.369	1107.72
553.795	1110.11
554.221	1110.51
554.646	1107.93
555.072	1115.7
555.498	1118.31
555.923	1123.69
556.349	1133.6
556.774	1138.9
557.199	1140.57
557.625	1144.7
558.05	1140.83
558.475	1147.29
558.9	1148.09
559.325	1144.9
559.75	1140.93
560.175	1137.3
560.6	1133.67
561.025	1132.17
561.449	1133.42
561.874	1137.81
562.299	1141.73
562.723	1145.9
563.148	1140.06
563.572	1142.43
563.997	1148.38
564.421	1150.48
564.846	1150.46
565.27	1153.27
565.694	1152.54
566.118	1161.19
566.542	1165.95
566.966	1162.16
567.39	1160.37
567.814	1154.2
568.238	1154.75
568.662	1158.29
569.086	1161.85
569.509	1166.29
569.933	1158.27
570.357	1153.59
570.78	1140.69
571.204	1133.39
571.627	1127.03
572.05	1127.97
572.474	1129.66
572.897	1122.4
573.32	1118.69
573.743	1112.68
574.166	1102.95
574.589	1103.01
575.012	1099.63
575.435	1098.4
575.858	1092.84
576.281	1086.96
576.704	1076.77
577.126	1068.87
577.549	1062.53
577.972	1056.48
578.394	1050.91
578.817	1049.68
579.239	1038.41
579.661	1030.3
580.084	1022.11
580.506	1014.64
580.928	1012.52
581.35	1005.9
581.772	1003.86
582.194	995.6
582.616	987.77
583.038	978.09
583.46	970.18
583.882	968.58
584.303	971.63
584.725	968.85
585.147	973.85
585.568	982.03
585.99	991.45
586.411	996.5
586.833	1007.24
587.254	1009.97
587.675	1020.88
588.096	1029.55
588.518	1027.24
588.939	1018.12
589.36	1017.81
589.781	1008.02
590.202	990.81
590.623	985.02
591.043	983.64
591.464	975.95
591.885	973.16
592.305	969.97
592.726	961.9
593.147	963.14
593.567	959.23
593.987	954.82
594.408	951.78
594.828	948.54
595.248	946.27
595.669	935
596.089	930.63
596.509	926.97
596.929	917.8
597.349	918.58
597.769	911.76
598.189	908.56
598.608	909.93
599.028	912.2
599.448	912.85
599.867	903.5
600.287	900.92
600.706	898.77
601.126	893.46
601.545	894.24
601.965	893.9
602.384	891.2
602.803	893.67
603.222	891.26
603.641	887.49
604.061	887.09
604.48	885.3
604.898	890.9
605.317	894.65
605.736	896.37
606.155	895.87
606.574	890.52
606.992	895.11
607.411	892.66
607.829	887.46
608.248	884.67
608.666	882.69
609.085	883.09
609.503	878.7
609.921	876.15
610.339	878.31
610.758	876.84
611.176	874.3
611.594	869.49
612.012	868.57
612.43	872.43
612.847	878.11
613.265	880.31
613.683	884.48
614.101	886.02
614.518	883.18
614.936	878.16
615.353	870.36
615.771	870
616.188	870.05
616.606	868.05
617.023	864.45
617.44	856.53
617.857	852.64
618.274	847.12
618.691	844.9
619.108	840.23
619.525	835.8
619.942	841.53
620.359	844.06
620.776	841.76
621.192	840.63
621.609	839.82
622.026	845.19
622.442	850.11
622.859	853.4
623.275	848.28
623.691	853.01
624.108	862.08
624.524	871.59
624.94	871.42
625.356	878.77
625.772	886.74
626.188	894.54
626.604	895.76
627.02	892.37
627.436	891.6
627.852	896.27
628.268	904.21
628.683	898.54
629.099	893.35
629.514	889.85
629.93	892.49
630.345	896.69
630.761	893.68
631.176	896.86
631.591	894.5
632.007	891.6
632.422	891.61
632.837	885.1
633.252	885.1
633.667	879.26
634.082	875.5
634.497	869.08
634.911	857.71
635.326	857.46
635.741	847.77
636.155	842.9
636.57	846.42
636.984	848.24
637.399	852.59
637.813	853.77
638.228	855.69
638.642	860.56
639.056	855.71
639.47	858.44
639.884	856.06
640.298	854.2
640.712	856.91
641.126	850.77
641.54	848.46
641.954	846.08
642.368	842.41
642.781	842.19
643.195	833.46
643.609	838.89
644.022	838.15
644.436	838.55
644.849	833.76
645.262	829.02
645.676	834.07
646.089	834.2
646.502	828.24
646.915	826.07
647.328	814.78
647.741	816.45
648.154	808.21
648.567	810.74
648.98	801.74
649.393	803.42
649.805	802.2
650.218	797.12
650.631	786.38
651.043	782.62
651.456	780.16
651.868	782.71
652.28	797.21
652.693	808.84
653.105	813.51
653.517	823.33
653.929	824.87
654.341	829.71
654.753	822.54
655.165	828.63
655.577	827.78
655.989	825.07
656.401	818.98
656.813	792.45
657.224	778.41
657.636	757.6
658.047	746.84
658.459	733.93
658.87	730.15
659.282	723.37
659.693	709.56
660.104	701.83
660.515	695.2
660.926	698.51
661.338	699.64
661.749	698.7
662.159	694.33
662.57	693.17
662.981	693.32
663.392	691.32
663.803	698.36
664.213	699.67
664.624	698.63
665.035	703.31
665.445	693.96
665.855	691.03
666.266	686.61
666.676	687.65
667.086	683.3
667.497	684.61
667.907	680.07
668.317	673.03
668.727	673.36
669.137	675.8
669.547	674.72
669.956	677.7
670.366	679.65
670.776	681.74
671.186	685.81
671.595	688.66
672.005	691.66
672.414	691.82
672.824	690.39
673.233	691.87
673.642	692.08
674.052	694.25
674.461	695.01
674.87	698.55
675.279	695.1
675.688	693.95
676.097	694.19
676.506	691.22
676.915	702.28
677.323	703.48
677.732	701.47
678.141	700.14
678.549	688.24
678.958	686.08
679.366	684.1
679.775	686.77
680.183	694.92
680.592	697.18
681	699.44
681.408	690.94
681.816	695.08
682.224	698.74
682.632	704.31
683.04	725.81
683.448	741.16
683.856	760.61
684.264	783.61
684.671	802.22
685.079	826.08
685.487	852.4
685.894	891.56
686.302	919.33
686.709	939.48
687.116	963.69
687.524	980.2
687.931	992.46
688.338	997.92
688.745	1000
689.152	1005.17
689.559	1020.24
689.966	1033.33
690.373	1031.43
690.78	1043.86
691.187	1070.34
691.593	1086.22
692	1098.99
692.407	1124.73
692.813	1162.74
693.22	1188.88
693.626	1215.69
694.032	1236.16
694.439	1272.88
694.845	1300.75
695.251	1337.33
695.657	1371.38
696.063	1425.27
696.469	1463.89
696.875	1499.93
697.281	1518.73
697.687	1545.03
698.093	1568.17
698.498	1612.22
698.904	1646.48
699.31	1699.54
699.715	1740.31
700.12	1797.08
700.526	1811.39
700.931	1856.89
701.337	1892.58
701.742	1915.13
702.147	1968.94
702.552	1991.64
702.957	2031.92
703.362	2048.37
703.767	2069.66
704.172	2097.18
704.577	2071.43
704.981	2105.25
705.386	2120.89
705.791	2121.83
706.195	2173.96
706.6	2186.88
707.004	2242.12
707.408	2228.45
707.813	2254.24
708.217	2253.33
708.621	2261.71
709.025	2330.61
709.43	2336.98
709.834	2382.3
710.237	2432.46
710.641	2426.57
711.045	2446.98
711.449	2450.61
711.853	2477.3
712.256	2508.35
712.66	2537.65
713.064	2593.41
713.467	2628.26
713.87	2708.74
714.274	2744.39
714.677	2823.81
715.08	2940.32
715.484	3058.15
715.887	3201.34
716.29	3337.42
716.693	3483.36
717.096	3652.72
717.499	3744.4
717.901	3767.24
718.304	3790.75
718.707	3813.61
719.109	3750.21
719.512	3733.34
719.915	3649.88
720.317	3617.27
720.719	3651.76
721.122	3638.52
721.524	3610.03
721.926	3590.76
722.328	3665.91
722.731	3662.27
723.133	3688.26
723.535	3827.7
723.937	3848.51
724.338	3888.36
724.74	3921.1
725.142	3914.96
725.544	3917.5
725.945	3947.66
726.347	3946.56
726.748	3944.41
727.15	3962.27
727.551	3940.77
727.952	3922.33
728.354	3904.32
728.755	3904.46
729.156	3875.8
729.557	3841.01
729.958	3758.74
730.359	3717.59
730.76	3707.5
731.161	3666.6
731.562	3650.05
731.962	3652.74
732.363	3610.06
732.763	3567.23
733.164	3596.31
733.564	3553.08
733.965	3489.35
734.365	3467.9
734.766	3488.31
735.166	3465.34
735.566	3431.52
735.966	3414.76
736.366	3415.9
736.766	3375.53
737.166	3401.84
737.566	3378
737.966	3361.6
738.365	3390.68
738.765	3390.12
739.165	3336.85
739.564	3319.69
739.964	3351.68
740.363	3320.02
740.763	3316
741.162	3310.06
741.561	3288.35
741.96	3254.64
742.36	3269.53
742.759	3275.25
743.158	3301.51
743.557	3314.47
743.955	3342.56
744.354	3310.13
744.753	3352.38
745.152	3324.51
745.55	3363.77
745.949	3359.01
746.348	3359.13
746.746	3369.7
747.144	3343.2
747.543	3328.32
747.941	3363.33
748.339	3314.5
748.737	3311.22
749.136	3305.71
749.534	3353.48
749.932	3334.38
750.33	3350.26
750.727	3389.81
751.125	3375.15
751.523	3360.99
751.921	3394.69
752.318	3370.69
752.716	3414.5
753.113	3424.93
753.511	3443.14
753.908	3442.95
754.305	3433.48
754.703	3478.33
755.1	3523.84
755.497	3565.54
755.894	3702.52
756.291	3826.72
756.688	4063.4
757.085	4372.3
757.482	4814.56
757.878	5293.68
758.275	5731.39
758.672	6325.43
759.068	6811.16
759.465	7502.69
759.861	8400.82
760.258	9436.79
760.654	9975.33
761.05	9897.58
761.447	9451.75
761.843	8795.28
762.239	8125.97
762.635	7819.37
763.031	7529.21
763.427	7116.45
763.822	6677.3
764.218	6245.25
764.614	5678.19
765.01	5298.38
765.405	5051.21
765.801	4867.2
766.196	4629.94
766.592	4499.05
766.987	4276.32
767.382	4125.14
767.778	4058.16
768.173	3965.3
768.568	3910.28
768.963	3821.86
769.358	3835.23
769.753	3803.13
770.148	3740.82
770.542	3739.69
770.937	3716.3
771.332	3782.9
771.726	3796.2
772.121	3756.24
772.515	3794.66
772.91	3785.49
773.304	3836.59
773.699	3789.79
774.093	3827.58
774.487	3870.35
774.881	3903.28
775.275	3900.38
775.669	3867.87
776.063	3898.34
776.457	3921.22
776.851	3867.76
777.245	3861.24
777.638	3885.28
778.032	3968
778.425	3943
778.819	3972.61
779.212	3943.35
779.606	3916.23
779.999	3928.22
780.392	3919.72
780.786	3978.79
781.179	3995.44
781.572	4029.8
781.965	4040.26
782.358	3997.24
782.751	4036.25
783.143	3998.54
783.536	4050.65
783.929	4078.11
784.322	4161.45
784.714	4180.98
785.107	4178.66
785.499	4229.75
785.891	4211.88
786.284	4196.38
786.676	4301.45
787.068	4288.54
787.46	4328.01
787.852	4339.49
788.245	4400.85
788.636	4421.65
789.028	4471.37
789.42	4500.31
789.812	4507.35
790.204	4575.84
790.595	4650.5
790.987	4508.62
791.378	4527
791.77	4616.56
792.161	4711.86
792.553	4752.23
792.944	4672.47
793.335	4622.48
793.726	4672.3
794.117	4736.27
794.508	4833.16
794.899	4808.3
795.29	4907.99
795.681	4946.59
796.072	4847.25
796.463	4727.44
796.853	4736.62
797.244	4850.87
797.634	4877.15
798.025	4875.83
798.415	4881.52
798.806	4949.89
799.196	5012.22
799.586	5049.88
799.976	5026.11
800.366	5190.56
800.756	5347.28
801.146	5315.53
801.536	5331.75
801.926	5381.48
802.316	5401.6
802.706	5457.08
803.095	5368.26
803.485	5439.52
803.874	5465.56
804.264	5650.47
804.653	5632.66
805.043	5742.65
805.432	5824.94
805.821	5831.2
806.21	5846.58
806.599	5929.3
806.988	5963.76
807.377	6032.38
807.766	6124.66
808.155	6325.41
808.544	6136.35
808.933	6148.02
809.321	6132.81
809.71	6338.3
810.098	6450.9
810.487	6778.6
810.875	7122.9
811.264	7133.45
811.652	7349.06
812.04	7451.87
812.428	7569.57
812.816	8109.09
813.204	8405.91
813.592	8794.06
813.98	9035.67
814.368	8969.44
814.756	9311.38
815.144	9246.66
815.531	9581.68
815.919	9516.85
816.306	9729.92
816.694	9506.17
817.081	9542.17
817.469	9782.52
817.856	9777.84
818.243	9960.96
818.63	10237.82
819.017	9942.73
819.404	9989.35
819.791	10256.67
820.178	10694.48
820.565	10869.76
820.952	11537.18
821.339	11192.2
821.725	11322.39
822.112	10796.09
822.498	10778.03
822.885	10862.07
823.271	10787.51
823.657	11084.35
824.044	11084.64
824.43	11134.64
824.816	11122.22
825.202	10812.96
825.588	11528.69
825.974	11538.2
826.36	11909.31
826.746	11926.31
827.132	12184.2
827.517	12173.79
827.903	11612.07
828.289	11644.08
828.674	11097.67
829.06	11017.54
829.445	11295.7
829.83	11546.02
830.216	11878.79
830.601	12136.42
830.986	11848.29
831.371	11747.62
831.756	12140.68
832.141	11852
832.526	11849.54
832.911	12047.88
833.295	11967.49
833.68	12299
834.065	11864.49
834.449	11226.16
834.834	11168.47
835.218	11166.03
835.603	11412.54
835.987	11257.57
836.371	11838.01
836.755	11761.64
837.139	12035.72
837.524	12199.1
837.908	12066.89
838.291	12116.05
838.675	12160.9
839.059	12311.56
839.443	12300.22
839.827	12132.98
840.21	12469.28
840.594	12366.3
840.977	12507.89
841.361	12503.22
841.744	12769.74
842.127	12665.46
842.511	12824.48
842.894	13242.61
843.277	13508.15
843.66	13896.27
844.043	13954.44
844.426	13393.1
844.809	13173.36
845.191	13195.04
845.574	12868.85
845.957	12614.38
846.339	12540.52
846.722	12178.59
847.104	12233.38
847.487	12113.38
847.869	12121.85
848.252	12324.68
848.634	12559.62
849.016	12745.88
849.398	12833.54
849.78	13436.37
850.162	13443.94
850.544	13726.06
850.926	14169.46
851.307	14099.32
851.689	14294.53
852.071	14615.8
852.452	14840.64
852.834	14822.33
853.215	15098.5
853.597	15208.09
853.978	15417.44
854.359	15730.7
854.741	15044.02
855.122	14972.29
855.503	14772.03
855.884	14870.85
856.265	14828.41
856.646	14902.16
857.026	14626.94
857.407	14587.85
857.788	14703.01
858.169	14899.16
858.549	14303.58
858.93	14742.15
859.31	14774.64
859.69	14929.01
860.071	14641.68
860.451	14488.43
860.831	13970.79
861.211	14778.7
861.591	15157.88
861.971	15132.45
862.351	15271.03
862.731	15539.46
863.111	15717.61
863.491	15955.17
863.87	16568.07
864.25	16809.41
864.629	16524.56
865.009	16885.65
865.388	17495.79
865.768	18743.64
866.147	18681.12
866.526	17650.74
866.905	17868.31
867.284	18864.1
867.663	17904.83
868.042	17158.34
868.421	17099.11
868.8	17374.63
869.179	17546.63
869.558	16521.97
869.936	15239.85
870.315	15505.51
870.693	15877.12
871.072	17116.6
871.45	16313.19
871.828	16525.55
872.207	17372.46
872.585	17116.24
872.963	17594.07
873.341	16996.74
873.719	16809.56
874.097	16610.15
874.475	16924.7
874.853	17319.24
875.23	16607.74
875.608	17300.19
875.986	18708.44
876.363	17889.41
876.741	18452.91
877.118	17995.8
877.495	18863.33
877.873	19162.28
878.25	20162.24
878.627	19342.23
879.004	19609.46
879.381	19513.92
879.758	19015.77
880.135	17713.12
880.512	18737.85
880.889	18224.26
881.265	18024.55
881.642	17877.77
882.019	18191.25
882.395	17821.3
882.772	18531.78
883.148	17734.88
883.524	17664.26
883.901	17553.03
884.277	17809.8
884.653	17704.42
885.029	18221.89
885.405	20196.23
885.781	20047.1
886.157	19209.91
886.532	19447.25
886.908	19441.26
887.284	21617.34
887.659	22327.23
888.035	23036.9
888.411	23627.76
888.786	23933.74
889.161	24757.07
889.537	24290.02
889.912	25074.82
890.287	25068.44
890.662	25719.15
891.037	25256.33
891.412	23553.44
891.787	23308.36
892.162	22506.07
892.536	23042.76
892.911	22188.85
893.286	21723.79
893.66	20846.11
894.035	21374.8
894.409	23269.23
894.784	22332.87
895.158	22696.5
895.532	24038.57
895.906	24693.57
896.281	25256.85
896.655	24864.22
897.029	28397.58
897.402	29580.65
897.776	32929.58
898.15	32822.71
898.524	32453.97
898.898	32893.18
899.271	36850.32
899.645	31924.45
900.018	30675.38
900.392	31823.89
900.765	32070.8
901.138	29678.99
901.511	29225.16
901.884	26842.62
902.258	24749.34
902.631	25588.28
903.003	29444.04
903.376	26547.42
903.749	29757.32
904.122	31869.81
904.495	35083.88
904.867	35518.38
905.24	30838.22
905.612	28716.5
905.985	29381.86
906.357	30737.14
906.729	29332.05
907.102	25055.82
907.474	24107.97
907.846	24264.03
908.218	23932.21
908.59	21157.85
908.962	20466.29
909.334	22054.28
909.705	23152.24
910.077	22459.62
910.449	23370.28
910.82	24038.57
911.192	26443.11
911.563	27488.35
911.935	29424.43
912.306	29488.05
912.677	30448.87
913.048	30176.47
913.419	32739.88
913.79	32930.37
914.161	35313.34
914.532	33773.7
914.903	31035.26
915.274	29479.95
915.645	29032.19
916.015	25545.37
916.386	24344.51
916.756	25913.75
917.127	26711.96
917.497	23858.36
917.868	25972.73
918.238	24673.43
918.608	25373.87
918.978	25905.46
919.348	27447.65
919.718	28376.39
920.088	27348.36
920.458	28414.83
920.828	29887.34
921.198	28330.07
921.567	30270.82
921.937	23464.27
922.306	23715.79
922.676	25572.06
923.045	21351.89
923.415	20293.25
923.784	18475.67
924.153	19009.09
924.522	18996.48
924.891	17859.04
925.26	19133.51
925.629	18689.65
925.998	21486.54
926.367	20989.86
926.736	20020.72
927.104	23830.88
927.473	25614.08
927.842	30937.82
928.21	30633.76
928.578	32211.81
928.947	30500.18
929.315	30695.33
929.683	35990.46
930.051	36276.37
930.42	42082.82
930.788	35960.09
931.156	35687.18
931.523	33466.41
931.891	30974.78
932.259	29760
932.627	34536.46
932.994	48837.81
933.362	40420.87
933.729	35126.91
934.097	33616.45
934.464	28471.99
934.831	32866.01
935.199	32435.07
935.566	31465.04
935.933	31959.11
936.3	38756.76
936.667	30162.71
937.034	27304.26
937.401	27001.46
937.767	23327.99
938.134	20791.2
938.501	29337.59
938.867	31307.52
939.234	52951.71
939.6	45170.94
939.967	49583.49
940.333	33170.6
940.699	28261.62
941.065	22607.17
941.431	29626.22
941.798	28571.37
942.163	37507
942.529	23436.17
942.895	21561.39
943.261	13942.89
943.627	18293.72
943.992	16024.33
944.358	16049.93
944.723	16092.42
945.089	15688.44
945.454	14493.4
945.82	15453.57
946.185	14838.05
946.55	17191.64
946.915	15402.53
947.28	18067.61
947.645	15926.67
948.01	14700.51
948.375	15345.15
948.74	18353.39
949.104	21384.68
949.469	30853.2
949.834	54502.84
950.198	51745.93
950.562	31010.16
950.927	25856.9
951.291	31066.46
951.655	26460.82
952.02	24812.42
952.384	18736.04
952.748	16332.72
953.112	15936.97
953.476	13862.38
953.839	12813.45
954.203	12686.77
954.567	15858.02
954.931	24942.74
955.294	21351.75
955.658	21476.09
956.021	36538.29
956.385	61903.75
956.748	91306.21
957.111	141421.56
957.474	158671.21
957.837	178898.18
958.2	135232.41
958.563	48657.76
958.926	32921.36
959.289	49975.28
959.652	55787.77
960.015	41872.06
960.377	60136.75
960.74	68640.49
961.102	118507.78
961.465	127462.1
961.827	68420.66
962.189	131298.43
962.552	91174.06
962.914	73088.99
963.276	47462.64
963.638	39255.19
964	38888.28
964.362	26315.8
964.724	25422
965.085	18161.7
965.447	14880.08
965.809	16930.9
966.17	16943.63
966.532	18276.4
966.893	16792.19
967.255	15270.25
967.616	18017.53
967.977	14432.68
968.338	15756.62
968.699	12964.68
969.061	12943.85
969.421	13041.26
969.782	14628.65
970.143	12388.05
970.504	12876.96
970.865	14626.5
971.225	14977.43
971.586	14651.1
971.946	20890.82
972.307	18118.3
972.667	23713.94
973.027	24442.91
973.388	29620.51
973.748	20170.52
974.108	21971.39
974.468	29679.86
974.828	22922.75
975.188	17628.9
975.548	16196.32
975.907	13597.09
976.267	15251.16
976.627	12822.82
976.986	13290.67
977.346	12676.56
977.705	12211.53
978.064	11119.72
978.424	9265.89
978.783	9563.47
979.142	10903.65
979.501	10445.95
979.86	11045.75
980.219	10638.38
980.578	13692.82
980.937	15343.12
981.296	13678.83
981.654	14053.84
982.013	21861.11
982.371	28417.3
982.73	26536.49
983.088	30118.46
983.447	32208.04
983.805	46070.34
984.163	96474.3
984.521	107251.43
984.879	157170.31
985.237	-255950.73
985.595	246893.24
985.953	61296.75
986.311	35306.65
986.669	20505.74
987.026	17719.2
987.384	23807.8
987.741	24630.35
988.099	17637.76
988.456	14064.38
988.814	13201.99
989.171	11483.34
989.528	11308.73
989.885	11938.34
990.242	9478.25
990.599	11797.1
990.956	9634.39
991.313	6732.68
991.67	5516.97
992.027	5882.58
992.383	5225.67
992.74	4576.44
993.096	4798.88
993.453	4983.81
993.809	5180.9
994.165	6888.63
994.522	6347.24
994.878	6996.2
995.234	8790.4
995.59	8683.36
995.946	8146.37
996.302	9316.17
996.658	10765.47
997.013	11882.6
997.369	14098.09
997.725	18031.81
998.08	11696.43
998.436	17936.31
998.791	24736.46
999.147	24690.37
999.502	26970.42
999.857	19607.37
1000.212	31979.53
1000.567	45663.12
1000.922	26300.44
1001.277	16687.4
1001.632	12372.84
1001.987	15949.33
1002.342	11445.44
1002.696	9167.3
1003.051	7303.81
1003.406	8860.94
1003.76	8840.55
1004.114	8700.93
1004.469	7313.87
1004.823	6042.17
1005.177	6531.43
1005.531	5176.13
1005.885	4573.51
1006.239	5174.64
1006.593	6481.77
1006.947	8693.57
1007.301	6500.78
1007.655	7088.85
1008.008	5197.58
1008.362	5814.43
1008.715	8333.73
1009.069	7554.78
1009.422	11391.24
1009.776	22890.64
1010.129	15211.88
1010.482	12727.89
1010.835	10749.89
1011.188	22364.47
1011.541	21028.91
1011.894	-128383.71
1012.247	379557.37
1012.6	25704.37
1012.952	16278.48
1013.305	8382.64
1013.657	6045.49
1014.01	5733.94
1014.362	4727.98
1014.715	4250.1
1015.067	3705.62
1015.419	3620.26
1015.771	3213.32
1016.123	2865.41
1016.475	2953.43
1016.827	3130.92
1017.179	3362.56
1017.531	3392.39
1017.883	3449.91
1018.234	3345.85
1018.586	4207.91
1018.938	4496.87
1019.289	6212.29
1019.64	7100.28
1019.992	6562.53
1020.343	6022.8
1020.694	4790.05
1021.045	4234.95
1021.396	4850.3
1021.747	5202.83
1022.098	6188.35
1022.449	4459.44
1022.8	4118.66
1023.151	2878.96
1023.501	2553.19
1023.852	2785.27
1024.202	2896.01
1024.553	3166.78
1024.903	3123.26
1025.253	2680.36
1025.604	2415.03
1025.954	2992.66
1026.304	3635.62
1026.654	4221.12
1027.004	6127.95
1027.354	9878.54
1027.703	9357.32
1028.053	12190.32
1028.403	17871.52
1028.753	25494.04
1029.102	34234.66
1029.452	175136.84
1029.801	7589.24
1030.15	4890.72
1030.499	4119.26
897.758	3102.21
901.051	3087.04
904.343	3126.69
907.636	3117.98
910.928	3185.29
914.22	3088.54
917.511	3099.8
920.803	3185.59
924.094	3223.99
927.384	3178.13
930.675	3145.21
933.965	3091.28
937.255	3083.98
940.544	3048.99
943.834	2928.88
947.123	2882.81
950.411	2986.82
953.7	2952.96
956.988	2895.06
960.276	2848.36
963.563	2962.73
966.851	2943.84
970.138	3015.46
973.424	2991.47
976.711	2942.63
979.997	3165.63
983.283	3184.32
986.568	3061.27
989.853	3106.07
993.138	3136.92
996.423	3209.36
999.708	3126.62
1002.992	3230.99
1006.275	2991.05
1009.559	3086.07
1012.842	3217.77
1016.125	3126.26
1019.408	3105.11
1022.69	3222.36
1025.972	3222.94
1029.254	3195.17
1032.536	3097.75
1035.817	3139.33
1039.098	3050.69
1042.379	3288.68
1045.659	3248.32
1048.939	3163.33
1052.219	3199.48
1055.498	3230.96
1058.778	3200.73
1062.057	3196.85
1065.335	3213.74
1068.614	3239.04
1071.892	3203.52
1075.17	3303.6
1078.447	3275.64
1081.724	3262.3
1085.001	3305.92
1088.278	3277.74
1091.554	3294.56
1094.83	3293.54
1098.106	3310.1
1101.382	3369.78
1104.657	3372.45
1107.932	3367.49
1111.206	3314.44
1114.481	3278.87
1117.755	3288.44
1121.029	3252.09
1124.302	3293.13
1127.575	3229.95
1130.848	3208
1134.121	3161.02
1137.393	3095.64
1140.665	3174.22
1143.937	3145.97
1147.208	3085.09
1150.48	3100.88
1153.75	3080.58
1157.021	3150.9
1160.291	3110.59
1163.561	3144.94
1166.831	3167.33
1170.101	3201.01
1173.37	3196.72
1176.639	3123.48
1179.907	3198.42
1183.176	3221.26
1186.444	3235.48
1189.711	3269.03
1192.979	3266.26
1196.246	3226.93
1199.513	3250.93
1202.78	3238.91
1206.046	3245.41
1209.312	3273.32
1212.578	3302.92
1215.843	3238.99
1219.108	3221.3
1222.373	3242.38
1225.638	3194.86
1228.902	3167.01
1232.166	3146.41
1235.43	3121.33
1238.693	3140.47
1241.956	3147.94
1245.219	3170.25
1248.482	3178.11
1251.744	3168.16
1255.006	3345.21
1258.268	3307.14
1261.529	3239.13
1264.79	3258.5
1268.051	3368.47
1271.312	3391
1274.572	3342.52
1277.832	3334.81
1281.092	3336.53
1284.351	3287.82
1287.61	3260.46
1290.869	3154.76
1294.128	3110.42
1297.386	3243.05
1300.644	3225.46
1303.902	3233.85
1307.159	3089.23
1310.416	3145.97
1313.673	3161.89
1316.93	3134.89
1320.186	3196.9
1323.442	3252.68
1326.697	3229.33
1329.953	3239.26
1333.208	3246.57
1336.463	3239.84
1339.717	3161.59
1342.972	3273.28
1346.226	3272
1349.479	3186.91
1352.733	3143.53
1355.986	3191.89
1359.238	3161.21
1362.491	3157.19
1365.743	3168.56
1368.995	3170.59
1372.247	3180.7
1375.498	3206.26
1378.749	3234.75
1382	3188.53
1385.251	3264.17
1388.501	3236.96
1391.751	3201.37
1395	3179.71
1398.25	3220.72
1401.499	3210.63
1404.748	3117.77
1407.996	3066.36
1411.244	3054.33
1414.492	3032.23
1417.74	3005.42
1420.987	3022.68
1424.234	3071.94
1427.481	3072.95
1430.728	3129.94
1433.974	3103.74
1437.22	3135.97
1440.465	3145.94
1443.711	3121.87
1446.956	3160.7
1450.201	3171.02
1453.445	3216.77
1456.689	3179.5
1459.933	3196.16
1463.177	3219.15
1466.42	3189.57
1469.663	3166.26
1472.906	3134.94
1476.148	3261.86
1479.391	3170.19
1482.633	3153.41
1485.874	3147.83
1489.115	3109.85
1492.356	3142.56
1495.597	3111.45
1498.838	3124.75
1502.078	3074.75
1505.318	3002.02
1508.557	3049.29
1511.797	2975.07
1515.036	3117.74
1518.274	3108.13
1521.513	3094.36
1524.751	3127.7
1527.989	3124.24
1531.227	3132.03
1534.464	3099.7
1537.701	3150.7
1540.938	3176.85
1544.174	3140.18
1547.41	3148.81
1550.646	3187.19
1553.882	3203.37
1557.117	3256.5
1560.352	3277.61
1563.587	3231.19
1566.821	3182.78
1570.055	3241.71
1573.289	3199.76
1576.523	3294.28
1579.756	3290.84
1582.989	3303.37
1586.222	3263.97
1589.454	3312.49
1592.686	3272.86
1595.918	3294.47
1599.15	3271.26
1602.381	3377.25
1605.612	3300.2
1608.843	3400.88
1612.073	3304.72
1615.303	3283.94
1618.533	3267.51
1621.762	3273.49
1624.992	3279.88
1628.221	3244.37
1631.449	3226.58
1634.678	3322.77
1637.906	3263.73
1641.134	3316.38
1644.361	3261.19
1647.588	3247.01
1650.815	3259.48
1654.042	3256.89
1657.269	3291.15
1660.495	3230.85
1663.72	3205.74
1666.946	3187.45
1670.171	3089.41
1673.396	3071.67
1676.621	3072.49
1679.845	3121.3
1683.069	3155.78
1686.293	3210.85
1689.517	3163.53
1692.74	3065.89
1695.963	3088.94
1699.185	3155.77
1702.408	3116.04
1705.63	3168.85
1708.852	3173.19
1712.073	3146.48
1715.294	3102.42
1718.515	3163.47
1721.736	3098.67
1724.956	3094.32
1728.176	3124.92
1731.396	3145.17
1734.616	3140.86
1737.835	3150.89
1741.054	3148.43
1744.272	3144.29
1747.491	3158.32
1750.709	3247.53
1753.927	3123.13
1757.144	3191.95
1760.361	3226.33
1763.578	3242.82
1766.795	3172.48
1770.011	3199.25
1773.227	3260.55
1776.443	3283.54
1779.658	3325.19
1782.874	3277.66
1786.089	3235.48
1789.303	3239.86
1792.518	3255.18
1795.732	3247.79
1798.945	3246.59
1802.159	3310.54
1805.372	3170.85
1808.585	3142.11
1811.797	3146.6
1815.01	3227.1
1818.222	3222.67
1821.434	3131.36
1824.645	3228.94
1827.856	3181.72
1831.067	3219.84
1834.278	3178.51
1837.488	3159.92
1840.698	3336.91
1843.908	3242.26
1847.117	3201.71
1850.326	3036.23
1853.535	3172.59
1856.744	3274.01
1859.952	3160.49
1863.16	3162.96
1866.368	3196.2
1869.575	3316.15
1872.782	3205.97
1875.989	3153.37
1879.196	3280.01
1882.402	3275.8
1885.608	3325.13
1888.814	3191.34
1892.019	3072.78
1895.224	3125.87
1898.429	3123.23
1901.634	3091.93
1904.838	3078.33
1908.042	3122
1911.246	3125.61
1914.449	3020.25
1917.652	3031.83
1920.855	3020.13
1924.058	3097.01
1927.26	3122.11
1930.462	3159.98
1933.664	3175.69
1936.865	3109.36
1940.066	3103.68
1943.267	3054.18
1946.467	3075.27
1949.668	3109.96
1952.868	3176.59
1956.067	3138.39
1959.267	3058.74
1962.466	3092.02
1965.665	3076.1
1968.863	3074.96
1972.061	3103.1
1975.259	3110.47
1978.457	3192.49
1981.654	3148.37
1984.852	3145.5
1988.048	3057.98
1991.245	3075.47
1994.441	3157.71
1997.637	3172.05
2000.833	3153.39
2004.028	3196.92
2007.223	3242.23
2010.418	3202.6
2013.613	3176.75
2016.807	3117.92
2020.001	3141.02
2023.194	3210.52
2026.388	3175.91
2029.581	3124.83
2032.774	3155.68
2035.966	3151.2
2039.158	3064.62
2042.35	3104.54
2045.542	3031.93
2048.733	3156.14
2051.924	3211.13
2055.115	3255.59
2058.306	3172.56
2061.496	3235.06
2064.686	3315.37
2067.875	3239.66
2071.065	3272.04
2074.254	3306.97
2077.442	3256.32
2080.631	3354.88
2083.819	3197.58
2087.007	3170.04
2090.195	3122.09
2093.382	3180.22
2096.569	3158.84
2099.756	3099.51
2102.942	3099.88
2106.128	3090.23
2109.314	3086.79
2112.5	3021.26
2115.685	3011.25
2118.87	3024.13
2122.055	3093.81
2125.239	3044.16
2128.424	2999.61
2131.608	3151.93
2134.791	3134.85
2137.974	3215.92
2141.157	3198.61
2144.34	3126.95
2147.523	3172.04
2150.705	3169.5
2153.887	3163.34
2157.068	3089.13
2160.25	3115.73
2163.431	3173.46
2166.611	3090.05
2169.792	3100.21
2172.972	2975.56
2176.152	3086.69
2179.331	3132.44
2182.511	3086.72
2185.69	3120.02
2188.868	3105.36
2192.047	3183.04
2195.225	3145.23
2198.403	3092.79
2201.58	3095.17
2204.758	3099.17
2207.935	3190.52
2211.111	3050.14
2214.288	3026.5
2217.464	3073.94
2220.64	3070.48
2223.815	3128.02
2226.991	3040.2
2230.166	3061.67
2233.34	3075.04
2236.515	3114.39
2239.689	3196.77
2242.863	3133.22
2246.036	3192.81
2249.209	3214.28
2252.382	3268.72
2255.555	3230.7
2258.727	3154.4
2261.9	3203.57
2265.071	3195.89
2268.243	3206.04
2271.414	3118.88
2274.585	3055.16
2277.756	3131.63
2280.926	3086.71
2284.096	3143.96
2287.266	3024.87
2290.436	3088.04
2293.605	3126.01
2296.774	3145.79
2299.942	3189.58
2303.111	3208.89
2306.279	3251.81
2309.447	3242.92
2312.614	3222.52
2315.781	3236.56
2318.948	3195.5
2322.115	3235.93
2325.281	3140.71
2328.447	3176.07
2331.613	3157.9
2334.779	3107.8
2337.944	3119.43
2341.109	3109.39
2344.274	3085.43
2347.438	3049.21
2350.602	3081.36
2353.766	3105.55
2356.929	3087.82
2360.092	3134.33
2363.255	3065.57
2366.418	2962.99
2369.58	3125.44
2372.742	2823.35
2375.904	2859.12
2379.066	2824.34
2382.227	2872.3
2385.388	2834.51
2388.548	2733.08
2391.709	2803.43
2394.869	2771.24
2398.029	2919.91
2401.188	2951.36
2404.347	2853.16
2407.506	3055.26
2410.665	3079.17
2413.823	3107.52
2416.981	3037.59
2420.139	3087.59
2423.296	3142.97
2426.453	3117.28
2429.61	3150.4
2432.767	3040.9
2435.923	3087.33
2439.079	2991.06
2442.235	3071.45
2445.391	2978.86
2448.546	2987.23
2451.701	3058.39
2454.855	2997.23
2458.009	3082.01
2461.163	3099.84
2464.317	3042.45
2467.471	3083.88
2470.624	3126.11
2473.777	3158.85
2476.929	3152.4
2480.082	3181.05
2483.234	3145.64
2486.385	3040.55
2489.537	3039.54
2492.688	2966.88
2495.839	2990.42
2498.989	2989.31
2502.14	2971.39
2505.29	2939.94
2508.439	2967.99
2511.589	2873.68
2514.738	2905.13
2517.887	2932.38
2521.035	3064.06
2524.183	3063.85
2527.331	3033.34
2530.479	2979.03
2533.627	3001.31
