Data from C_2_DIV_WI_4N_Splice17_12-18-49-580.txt Node
Date: Sat Mar 14 12:18:49 EDT 2020
User: sa697716
Spectrometer: FLMS03696
Trigger mode: 0
Integration Time (sec): 3.180400E-1
Scans to average: 20
Electric dark correction enabled: true
Nonlinearity correction enabled: true
Boxcar width: 5
XAxis mode: Wavelengths
Number of Pixels in Spectrum: 2048
>>>>>Begin Spectral Data<<<<<
187.83	-306881.55
188.298	2325.73
188.766	1288.47
189.233	1156.34
189.701	1579.94
190.169	2127.31
190.636	778.5
191.104	572.93
191.571	81.58
192.039	-77.05
192.506	-100.57
192.974	348.49
193.441	-226.45
193.908	275.14
194.375	59.49
194.842	79.87
195.31	105.29
195.777	156.54
196.244	356.76
196.711	461.03
197.177	599.08
197.644	837.65
198.111	1467.21
198.578	2016.47
199.045	1626.13
199.511	2708.14
199.978	3161.63
200.445	2705.81
200.911	2995.06
201.378	3353.7
201.844	3057.39
202.31	5167.13
202.777	5393.51
203.243	2994.62
203.709	2864.33
204.176	3417.66
204.642	2818.28
205.108	2648.57
205.574	2151.07
206.04	1959.43
206.506	1830.74
206.972	1718.49
207.438	1682.17
207.903	1928.67
208.369	1694.46
208.835	1694.63
209.301	1758.28
209.766	1793.39
210.232	1770.66
210.697	2196.63
211.163	2702.01
211.628	4077.49
212.094	3428.8
212.559	4213.62
213.024	2620.6
213.49	3210.33
213.955	3139.63
214.42	3093.15
214.885	2895.29
215.35	2799.58
215.815	2697.27
216.28	2882.9
216.745	2371.75
217.21	2574.56
217.675	2365.67
218.14	2663.77
218.604	2999.45
219.069	3448.83
219.534	3634.43
219.998	4260.68
220.463	5184.29
220.927	6447.29
221.392	6105.95
221.856	6182.24
222.32	7824.09
222.785	9698.59
223.249	12267.56
223.713	13725.73
224.177	13714.63
224.642	17644.87
225.106	21730.49
225.57	23770.76
226.034	17697.85
226.497	26938.47
226.961	24362.26
227.425	28393.06
227.889	31575.56
228.353	31609.26
228.816	65262.83
229.28	62530.81
229.744	52805.15
230.207	32095.69
230.671	31624.53
231.134	52335.1
231.597	60298.16
232.061	60263.83
232.524	58832.79
232.987	40484.78
233.45	36433.78
233.914	32669.07
234.377	33472.32
234.84	30621.89
235.303	36115.55
235.766	40242.92
236.229	41537.78
236.691	26165.54
237.154	29410.22
237.617	22089.81
238.08	22593.2
238.542	26417.6
239.005	18859.72
239.468	18694.22
239.93	17598.04
240.393	16002.11
240.855	14046.1
241.317	14376.86
241.78	17490.98
242.242	18072.72
242.704	19519.96
243.166	17005.62
243.629	15432.23
244.091	17778.53
244.553	19478.27
245.015	20932.36
245.477	27042.14
245.939	39639.86
246.4	42025.49
246.862	40807.56
247.324	38454.2
247.786	42983.43
248.247	56329.29
248.709	58136.47
249.17	43451.81
249.632	40910.56
250.093	47348.65
250.555	40850.59
251.016	24854.01
251.477	23558.4
251.939	25396.17
252.4	26609.23
252.861	31623.32
253.322	29347.56
253.783	34847.22
254.244	45156.58
254.705	35589.5
255.166	31630.24
255.627	31090.44
256.088	43847.05
256.549	46591.28
257.009	40115.7
257.47	48636
257.931	39593.29
258.391	29682.74
258.852	30579.2
259.312	32062.87
259.773	39600.65
260.233	33446.88
260.694	28214.65
261.154	32007.6
261.614	25645.28
262.074	22937.56
262.534	23843.76
262.994	22435.27
263.455	29864.11
263.915	25166.28
264.374	23673.35
264.834	25858.27
265.294	28660.27
265.754	29676.18
266.214	28085.86
266.673	26330.34
267.133	33195.58
267.593	32934.33
268.052	40334.07
268.512	35038.28
268.971	42252.03
269.431	46336.23
269.89	41457.49
270.349	62120.7
270.809	69217.52
271.268	62175.48
271.727	139353.56
272.186	90276.19
272.645	67604.98
273.104	48729.7
273.563	70577.02
274.022	55477.94
274.481	47162.73
274.94	36318.9
275.399	26982.48
275.857	31407.96
276.316	42459.76
276.775	37767.05
277.233	37134.64
277.692	34738.67
278.15	39252.3
278.609	40350.72
279.067	37319.56
279.525	34642.23
279.984	44698.81
280.442	53670.83
280.9	52873.09
281.358	34733.33
281.816	32343.11
282.274	31695.11
282.732	32728.26
283.19	32917.66
283.648	28413.54
284.106	30258.89
284.564	30772.53
285.021	28508.58
285.479	21243.09
285.937	19321.77
286.394	16960.91
286.852	17454.38
287.309	18307.94
287.767	17679.99
288.224	16783.95
288.682	18403.03
289.139	20193.12
289.596	18457.82
290.053	19170.82
290.511	24177.55
290.968	29282.76
291.425	39711.3
291.882	33009.85
292.339	28702.53
292.796	28467.41
293.252	26809.42
293.709	21295.75
294.166	19066.04
294.623	21061.49
295.079	20181.39
295.536	20263.06
295.992	18384.7
296.449	18159.39
296.905	18855.26
297.362	18084
297.818	19003.04
298.274	19707.01
298.731	20033.3
299.187	19796.61
299.643	21254.02
300.099	25707.85
300.555	28169.3
301.011	23525.59
301.467	22659.19
301.923	26521.28
302.379	25878.32
302.835	25421.58
303.291	25422.7
303.746	28948.57
304.202	36555.31
304.658	36647.63
305.113	24636.66
305.569	24127.86
306.024	25683.08
306.479	24447.79
306.935	20598.54
307.39	22487.09
307.845	20757.34
308.301	20879.27
308.756	20343.9
309.211	19595.75
309.666	20069.87
310.121	24926.32
310.576	25273.04
311.031	25076.51
311.486	28720.59
311.94	28697.14
312.395	38335.1
312.85	71946.15
313.305	353427.12
313.759	1828139.43
314.214	132482.5
314.668	104928.85
315.123	88158.24
315.577	31606.84
316.032	28105.12
316.486	35184.91
316.94	27698.4
317.394	19261.34
317.849	14954.49
318.303	14136.28
318.757	13331.7
319.211	14709.07
319.665	12865.46
320.119	12997.99
320.572	18611.68
321.026	17406.32
321.48	14473.02
321.934	15768.08
322.387	15795.5
322.841	17063.1
323.295	15324.98
323.748	17631.28
324.202	17881.72
324.655	21467.69
325.108	30022.13
325.562	21204.14
326.015	25138.81
326.468	18984.71
326.921	21236.6
327.374	19806.05
327.827	20625.97
328.28	23345.56
328.733	15643.73
329.186	13783.27
329.639	13139.05
330.092	11059.83
330.545	10534.71
330.997	10633.75
331.45	11620.9
331.903	13618.51
332.355	23416.3
332.808	22737.77
333.26	18792.12
333.713	20386.05
334.165	20507.49
334.617	27370.51
335.069	22080
335.522	39861.45
335.974	44116.92
336.426	40324.79
336.878	27924.3
337.33	14164.16
337.782	13833.02
338.234	17268.58
338.686	20649.67
339.137	24433.73
339.589	22964.35
340.041	17991.77
340.493	15463.38
340.944	15822.16
341.396	16986.05
341.847	14258.17
342.299	16798.51
342.75	20491.21
343.201	17920.87
343.653	20562.53
344.104	25275.29
344.555	19900
345.006	30976.25
345.457	23708.01
345.908	18814.5
346.359	17705.48
346.81	14406.78
347.261	15188.56
347.712	14922.42
348.163	15967.6
348.613	16167.28
349.064	15063.91
349.515	13170.74
349.965	13495.11
350.416	16258.4
350.866	17837.63
351.317	20151.52
351.767	33411.3
352.217	42184.66
352.668	35031.65
353.118	32111.29
353.568	30960.84
354.018	24454.39
354.468	25821.86
354.918	18505.84
355.368	16180.91
355.818	22851.06
356.268	65798.18
356.718	275192.73
357.168	68467.88
357.617	34370.15
358.067	38199.01
358.517	35778.64
358.966	41976.81
359.416	47022.91
359.865	50927.37
360.315	60649.31
360.764	28363.78
361.213	15869.78
361.663	15015.78
362.112	18560.05
362.561	29946.43
363.01	22578.77
363.459	18979.96
363.908	20534.82
364.357	17438.21
364.806	29357.31
365.255	20153.05
365.703	18449.07
366.152	18521.24
366.601	15046.28
367.05	12197.71
367.498	11097.16
367.947	11599.15
368.395	12111.24
368.844	10737.48
369.292	12976.95
369.74	9000.26
370.189	13811.12
370.637	16229.98
371.085	14023.4
371.533	17087.3
371.981	16515.49
372.429	15769.32
372.877	16473.42
373.325	13803.34
373.773	14123.03
374.221	12609.14
374.669	15666.9
375.116	13569.58
375.564	13692.93
376.012	15360.86
376.459	12706.1
376.907	15231.5
377.354	18475.18
377.801	17281.83
378.249	19923.94
378.696	25493.45
379.143	30878.9
379.591	33011.65
380.038	56116.04
380.485	40724.54
380.932	44118.88
381.379	40583.37
381.826	29936.81
382.273	21362.12
382.72	18725.64
383.166	18306.38
383.613	11943.78
384.06	10822.05
384.506	12598.05
384.953	9282.88
385.4	9376.2
385.846	8243.67
386.292	8048.81
386.739	7914.04
387.185	7860.29
387.631	7893.89
388.078	7708.55
388.524	8270.19
388.97	7674.99
389.416	6422.68
389.862	6851.15
390.308	6509.78
390.754	6633.87
391.2	7225.63
391.645	7415.87
392.091	7110.65
392.537	6894.24
392.983	6905.97
393.428	6799.27
393.874	7281.71
394.319	7313.58
394.765	6940.15
395.21	7137.91
395.655	6679.81
396.101	6254.76
396.546	5640.5
396.991	5679.53
397.436	5267.29
397.881	5083.11
398.326	4813.37
398.771	4552.56
399.216	3971.2
399.661	3573.2
400.106	3551.38
400.551	3631.13
400.995	3246.89
401.44	3202.9
401.885	3002.13
402.329	3023.86
402.774	2890.77
403.218	2791.83
403.663	2680.61
404.107	2744.56
404.551	2751.88
404.995	2516.11
405.44	2418.38
405.884	2448.29
406.328	2360.76
406.772	2346.84
407.216	2128.72
407.66	2051.48
408.104	1934.7
408.547	1804.85
408.991	1741.71
409.435	1674.15
409.879	1644.87
410.322	1618.16
410.766	1556.62
411.209	1476.16
411.653	1409.82
412.096	1380.78
412.54	1375.93
412.983	1364.95
413.426	1364.7
413.869	1360.54
414.312	1331.93
414.756	1279.86
415.199	1217.66
415.642	1179.74
416.085	1177.53
416.527	1169.94
416.97	1184.24
417.413	1122.66
417.856	1110.07
418.298	1096.95
418.741	1085.36
419.184	1076.44
419.626	1118.97
420.069	1115.51
420.511	1119.19
420.953	1094.56
421.396	1081.04
421.838	1051.17
422.28	1074.1
422.722	1077.55
423.164	1089.81
423.606	1073.32
424.048	1072.28
424.49	1016.65
424.932	1011.35
425.374	994.12
425.816	1010.21
426.258	1027.97
426.699	1037.88
427.141	1020.93
427.582	1033.51
428.024	1025.76
428.465	1013.88
428.907	985.39
429.348	974.55
429.789	973.78
430.231	955.39
430.672	966.12
431.113	943.06
431.554	928.3
431.995	904.03
432.436	873.52
432.877	854.58
433.318	840.81
433.759	836.9
434.2	835.97
434.64	825.96
435.081	826.08
435.522	783.62
435.962	753.62
436.403	738.11
436.843	746.79
437.284	729.83
437.724	711.1
438.164	712.56
438.604	698.1
439.045	672.32
439.485	645.67
439.925	632.77
440.365	617.15
440.805	610.38
441.245	601.98
441.685	580.26
442.125	576.27
442.564	579.52
443.004	568.05
443.444	567.65
443.883	568.43
444.323	565.15
444.762	566.34
445.202	573.8
445.641	585.01
446.081	582.32
446.52	589.15
446.959	583.88
447.398	571.45
447.837	565.88
448.276	557.14
448.716	564.79
449.154	569.7
449.593	558.59
450.032	557.66
450.471	547.84
450.91	551.28
451.349	550.79
451.787	549.04
452.226	557.43
452.664	557.54
453.103	558.67
453.541	557.78
453.98	557.29
454.418	559.83
454.856	552.37
455.295	552.65
455.733	555.17
456.171	557.59
456.609	560.16
457.047	560.66
457.485	570.03
457.923	572.1
458.361	564.43
458.798	566.98
459.236	567.53
459.674	571.96
460.111	575.26
460.549	570.19
460.987	568.78
461.424	564.79
461.862	561.76
462.299	552.39
462.736	551.33
463.173	552.78
463.611	547.37
464.048	544.82
464.485	547.94
464.922	541.09
465.359	537.64
465.796	532.37
466.233	529.83
466.67	525.6
467.106	524.26
467.543	518.05
467.98	511.69
468.416	497.52
468.853	494.44
469.29	480.12
469.726	474.97
470.162	463.34
470.599	456.78
471.035	451.74
471.471	440.64
471.907	437.93
472.344	435.25
472.78	436.12
473.216	441.04
473.652	434.2
474.088	433.09
474.523	432.55
474.959	435.13
475.395	429.77
475.831	427.38
476.266	428.72
476.702	426.61
477.138	421.69
477.573	419.78
478.008	417.87
478.444	420.69
478.879	424.53
479.314	425.62
479.75	425.86
480.185	427.56
480.62	430.76
481.055	433.26
481.49	436.86
481.925	443.77
482.36	452
482.795	464.52
483.229	476.87
483.664	486.62
484.099	489.4
484.534	497.39
484.968	502.85
485.403	504.54
485.837	504.63
486.271	504.12
486.706	504.89
487.14	500.04
487.574	493.29
488.009	488.7
488.443	485.35
488.877	490.59
489.311	493.22
489.745	499.98
490.179	506.18
490.613	516.87
491.046	522.23
491.48	526.86
491.914	528.89
492.348	534.6
492.781	540.04
493.215	542.78
493.648	545.25
494.082	550.08
494.515	552.25
494.948	560.12
495.382	565.79
495.815	571.95
496.248	579.52
496.681	592.59
497.114	604.34
497.547	615.97
497.98	630.44
498.413	639.71
498.846	652.16
499.279	662.83
499.711	669.78
500.144	675.15
500.577	688.46
501.009	701.9
501.442	714.58
501.874	720.18
502.306	725.84
502.739	736.97
503.171	753.97
503.603	761.77
504.036	774.64
504.468	785.44
504.9	801.19
505.332	811.69
505.764	820.09
506.196	830.77
506.627	848.66
507.059	865.83
507.491	878.69
507.923	881.67
508.354	900.41
508.786	916.22
509.217	937.85
509.649	956.86
510.08	979.87
510.512	1001.35
510.943	1021.42
511.374	1037.22
511.805	1062.36
512.237	1086.04
512.668	1122.2
513.099	1154.5
513.53	1185.23
513.961	1210.74
514.391	1247.02
514.822	1284.98
515.253	1324.24
515.684	1354.65
516.114	1389
516.545	1414.27
516.975	1444.6
517.406	1467.4
517.836	1473.14
518.267	1483.56
518.697	1504.69
519.127	1512.11
519.558	1523.01
519.988	1531.07
520.418	1544.28
520.848	1565.29
521.278	1576.39
521.708	1583.86
522.138	1600.04
522.567	1634.53
522.997	1664.62
523.427	1683.21
523.857	1702.88
524.286	1714.94
524.716	1733.25
525.145	1754.8
525.575	1767.74
526.004	1785.94
526.433	1794.97
526.863	1796.19
527.292	1786.23
527.721	1792.1
528.15	1800.39
528.579	1802.18
529.008	1815.35
529.437	1840.81
529.866	1856.73
530.295	1876.52
530.724	1889.45
531.152	1919.83
531.581	1936.49
532.01	1957.43
532.438	1967.2
532.867	1982.71
533.295	2005
533.723	2013.16
534.152	2011.39
534.58	2011.17
535.008	1994.54
535.436	1998.02
535.865	2005.96
536.293	2022.34
536.721	2039.96
537.149	2068.78
537.576	2071.83
538.004	2085.24
538.432	2092.62
538.86	2091.1
539.287	2099.62
539.715	2115.78
540.143	2119.87
540.57	2115.99
540.998	2111.81
541.425	2087.33
541.852	2064.03
542.28	2063.1
542.707	2045.49
543.134	2030.87
543.561	2025.75
543.988	2018.2
544.415	2015.83
544.842	2008.36
545.269	2001.54
545.696	2002.63
546.123	2015.98
546.549	2005.09
546.976	1990.66
547.403	1989.4
547.829	1992.04
548.256	1994.47
548.682	1988.33
549.108	1980.42
549.535	1980.58
549.961	1981.64
550.387	1967.48
550.813	1960.78
551.24	1967.22
551.666	1967.28
552.092	1955.98
552.518	1948.29
552.943	1940.05
553.369	1947.82
553.795	1953.8
554.221	1953.97
554.646	1950.23
555.072	1961.65
555.498	1966.17
555.923	1975.67
556.349	1992.67
556.774	2003.1
557.199	2003.87
557.625	2010.62
558.05	2004.28
558.475	2015.1
558.9	2013.39
559.325	2003.88
559.75	1996.17
560.175	1989.49
560.6	1981.01
561.025	1976.98
561.449	1976.08
561.874	1980.92
562.299	1984.09
562.723	1991.79
563.148	1980.34
563.572	1983.33
563.997	1993.32
564.421	1997.69
564.846	1996.91
565.27	1999.73
565.694	1997.14
566.118	2009.25
566.542	2016.5
566.966	2009.3
567.39	2002.71
567.814	1988.97
568.238	1987.91
568.662	1992.21
569.086	1993.84
569.509	2000.07
569.933	1982.87
570.357	1973.66
570.78	1948.53
571.204	1932.74
571.627	1919.06
572.05	1915.62
572.474	1914.34
572.897	1900.04
573.32	1890.01
573.743	1878.48
574.166	1857.75
574.589	1857.58
575.012	1847.49
575.435	1845.59
575.858	1835.18
576.281	1822.44
576.704	1804.26
577.126	1790.42
577.549	1776.57
577.972	1764.54
578.394	1751.71
578.817	1742.73
579.239	1720.93
579.661	1705.95
580.084	1688.13
580.506	1671.72
580.928	1666.86
581.35	1653.62
581.772	1647.1
582.194	1632.64
582.616	1619.03
583.038	1602.97
583.46	1591.86
583.882	1587.1
584.303	1590.33
584.725	1584.97
585.147	1586.67
585.568	1596.85
585.99	1608.95
586.411	1615.6
586.833	1630.5
587.254	1631.53
587.675	1646.68
588.096	1659.04
588.518	1652.85
588.939	1634.6
589.36	1632.14
589.781	1620.68
590.202	1590.97
590.623	1581.37
591.043	1577.78
591.464	1562.87
591.885	1557.78
592.305	1550.47
592.726	1535.36
593.147	1535.95
593.567	1529.22
593.987	1520.96
594.408	1515.23
594.828	1512.09
595.248	1504.43
595.669	1485.57
596.089	1477.64
596.509	1470.11
596.929	1455.1
597.349	1455.12
597.769	1444.31
598.189	1438.06
598.608	1438.01
599.028	1438.88
599.448	1438.31
599.867	1426.5
600.287	1420.46
600.706	1416.27
601.126	1405.98
601.545	1405.57
601.965	1403.25
602.384	1397.43
602.803	1399.18
603.222	1394.18
603.641	1388.13
604.061	1383.25
604.48	1378.4
604.898	1386.74
605.317	1390
605.736	1390.89
606.155	1386.06
606.574	1376.17
606.992	1380.34
607.411	1374.79
607.829	1365.14
608.248	1360.54
608.666	1357.15
609.085	1354.75
609.503	1345.09
609.921	1338.56
610.339	1339.62
610.758	1338.52
611.176	1333.51
611.594	1322.69
612.012	1318.67
612.43	1321
612.847	1325.36
613.265	1325.76
613.683	1328.84
614.101	1328.04
614.518	1322.88
614.936	1311.36
615.353	1294.17
615.771	1288.87
616.188	1288.11
616.606	1283.03
617.023	1274.67
617.44	1259.93
617.857	1251.55
618.274	1242.31
618.691	1235.79
619.108	1225.54
619.525	1218.11
619.942	1224.19
620.359	1225.88
620.776	1219.81
621.192	1214.66
621.609	1212.39
622.026	1217.72
622.442	1222.63
622.859	1225.58
623.275	1217.25
623.691	1221.54
624.108	1233.09
624.524	1246.23
624.94	1245.25
625.356	1255.02
625.772	1267.16
626.188	1276.71
626.604	1278.37
627.02	1274.34
627.436	1271.51
627.852	1278.92
628.268	1290.27
628.683	1281.55
629.099	1273.98
629.514	1269.91
629.93	1272.69
630.345	1277.1
630.761	1273.92
631.176	1276.47
631.591	1269.79
632.007	1262.91
632.422	1259.72
632.837	1246.94
633.252	1242.5
633.667	1230.53
634.082	1219.5
634.497	1206.46
634.911	1185.56
635.326	1179.72
635.741	1160.86
636.155	1149.03
636.57	1148.84
636.984	1146.51
637.399	1147.59
637.813	1144.65
638.228	1141.54
638.642	1142.03
639.056	1128.89
639.47	1126.17
639.884	1114.81
640.298	1106.12
640.712	1102.45
641.126	1086.05
641.54	1072.9
641.954	1062.9
642.368	1048.07
642.781	1037.54
643.195	1019.36
643.609	1015.56
644.022	1006.74
644.436	999.95
644.849	984.99
645.262	970.03
645.676	968.56
646.089	961.77
646.502	946.33
646.915	939.18
647.328	920.75
647.741	915.87
648.154	902.98
648.567	898.21
648.98	884.42
649.393	883.49
649.805	879.8
650.218	871.26
650.631	855.91
651.043	849.99
651.456	843.16
651.868	842.03
652.28	854.92
652.693	864.55
653.105	867.62
653.517	873.94
653.929	871.27
654.341	873.29
654.753	862
655.165	866.37
655.577	860.25
655.989	854.33
656.401	844.62
656.813	812.58
657.224	792.69
657.636	766.4
658.047	749.76
658.459	732.05
658.87	722.03
659.282	708.93
659.693	688.9
660.104	675.02
660.515	660.75
660.926	655.43
661.338	649.44
661.749	641.6
662.159	631.34
662.57	624.59
662.981	617.5
663.392	608.3
663.803	608.07
664.213	603.35
664.624	596.34
665.035	595.91
665.445	584.39
665.855	576.86
666.266	569.06
666.676	565.86
667.086	555.93
667.497	552.86
667.907	546.39
668.317	538.05
668.727	534.9
669.137	534.44
669.547	531.06
669.956	531.45
670.366	531.46
670.776	531.23
671.186	533.87
671.595	537.03
672.005	539.52
672.414	539.53
672.824	539.49
673.233	540.44
673.642	542.29
674.052	544.86
674.461	547.35
674.87	551.24
675.279	551.44
675.688	552.75
676.097	554.82
676.506	554.64
676.915	566.14
677.323	569.15
677.732	570.91
678.141	571.28
678.549	566
678.958	566.89
679.366	568.73
679.775	573.85
680.183	583.57
680.592	590.55
681	597.53
681.408	595.58
681.816	604.09
682.224	613.53
682.632	627.34
683.04	656.47
683.448	680.25
683.856	710.01
684.264	743.19
684.671	776.13
685.079	814.77
685.487	858.06
685.894	916.83
686.302	967.75
686.709	1013.25
687.116	1063.8
687.524	1106.12
687.931	1146.95
688.338	1183.93
688.745	1218.82
689.152	1255.43
689.559	1302.96
689.966	1350.68
690.373	1379.45
690.78	1426.41
691.187	1494.41
691.593	1548.49
692	1596.35
692.407	1663.69
692.813	1743.02
693.22	1809.49
693.626	1879.02
694.032	1935.9
694.439	2017.36
694.845	2081.53
695.251	2162.59
695.657	2235.25
696.063	2340.79
696.469	2422.35
696.875	2498.84
697.281	2547.64
697.687	2601.81
698.093	2647.2
698.498	2732.2
698.904	2799.92
699.31	2899.86
699.715	2971.86
700.12	3074.38
700.526	3100.4
700.931	3179.25
701.337	3241.85
701.742	3282.77
702.147	3378.57
702.552	3418.27
702.957	3486
703.362	3512.07
703.767	3547.9
704.172	3596.84
704.577	3550.23
704.981	3604.41
705.386	3627.98
705.791	3623.57
706.195	3707.12
706.6	3721.86
707.004	3809.52
707.408	3781.76
707.813	3816.64
708.217	3807.1
708.621	3811.63
709.025	3923.78
709.43	3930.39
709.834	3998.65
710.237	4076.4
710.641	4062.84
711.045	4089.19
711.449	4089.02
711.853	4121.18
712.256	4169.29
712.66	4214.14
713.064	4299.43
713.467	4344.71
713.87	4468.61
714.274	4521.58
714.677	4644.36
715.08	4824.83
715.484	5012.58
715.887	5236.49
716.29	5460.21
716.693	5691.05
717.096	5955.46
717.499	6101.8
717.901	6132.21
718.304	6166.04
718.707	6194.2
719.109	6085.01
719.512	6055.45
719.915	5906.44
720.317	5845.83
720.719	5897.31
721.122	5866.14
721.524	5814.24
721.926	5770.47
722.328	5883.9
722.731	5875.52
723.133	5910.19
723.535	6125.56
723.937	6146.09
724.338	6204.06
724.74	6252.65
725.142	6169.98
725.544	6170.87
725.945	6199.16
726.347	6200.43
726.748	6194.8
727.15	6212.52
727.551	6170.94
727.952	6138.87
728.354	6108.84
728.755	6112.21
729.156	6064.96
729.557	6066.17
729.958	5932.97
730.359	5873.68
730.76	5853.34
731.161	5787.25
731.562	5758.44
731.962	5763.87
732.363	5693.68
732.763	5622.32
733.164	5666.38
733.564	5591.3
733.965	5486.27
734.365	5446.56
734.766	5479.59
735.166	5436.2
735.566	5374.75
735.966	5346.89
736.366	5342.1
736.766	5277.94
737.166	5315.51
737.566	5267.19
737.966	5241.24
738.365	5281.41
738.765	5276.27
739.165	5192.47
739.564	5161.14
739.964	5212.83
740.363	5159.83
740.763	5154.76
741.162	5139.63
741.561	5102.55
741.96	5052.69
742.36	5071.58
742.759	5077.03
743.158	5119.04
743.557	5134.25
743.955	5179.64
744.354	5127.79
744.753	5191.44
745.152	5147.06
745.55	5206.61
745.949	5198.71
746.348	5199.95
746.746	5221.08
747.144	5180.02
747.543	5155.51
747.941	5208.94
748.339	5130.92
748.737	5124.79
749.136	5116.45
749.534	5186.71
749.932	5158.16
750.33	5186.55
750.727	5247.35
751.125	5220.79
751.523	5203.07
751.921	5248.22
752.318	5213.61
752.716	5279.39
753.113	5293.47
753.511	5321.06
753.908	5322.69
754.305	5302.61
754.703	5370.11
755.1	5434.6
755.497	5501.36
755.894	5711.78
756.291	5910.54
756.688	6273.09
757.085	6756.06
757.482	7435.3
757.878	8180.27
758.275	8851.36
758.672	9779.08
759.068	10530.16
759.465	11607.81
759.861	12995.32
760.258	14603.41
760.654	15433.57
761.05	15305.75
761.447	14603.09
761.843	13592.29
762.239	12545.73
762.635	12077.83
763.031	11621.77
763.427	10972.2
763.822	10289.73
764.218	9609.27
764.614	8728.07
765.01	8143.39
765.405	7763.95
765.801	7477.81
766.196	7112.8
766.592	6906.06
766.987	6557.24
767.382	6322.1
767.778	6224.85
768.173	6077.94
768.568	6001.36
768.963	5864.5
769.358	5880.9
769.753	5829.42
770.148	5735.41
770.542	5734.06
770.937	5699.82
771.332	5799.85
771.726	5822.72
772.121	5751.72
772.515	5814.41
772.91	5794.58
773.304	5873.24
773.699	5802.58
774.093	5863.42
774.487	5925.84
774.881	5972
775.275	5966.73
775.669	5920.88
776.063	5971.13
776.457	6013.92
776.851	5932.81
777.245	5924.5
777.638	5961.99
778.032	6090
778.425	6050.14
778.819	6095.21
779.212	6050.23
779.606	6009.51
779.999	6029.48
780.392	6010.26
780.786	6099.28
781.179	6122.94
781.572	6172.39
781.965	6184.84
782.358	6122.24
782.751	6185.77
783.143	6133.99
783.536	6212.92
783.929	6258.85
784.322	6387.77
784.714	6418.58
785.107	6412.27
785.499	6492.52
785.891	6465.97
786.284	6447.18
786.676	6601.76
787.068	6578.12
787.46	6636.59
787.852	6656.9
788.245	6753.05
788.636	6787.59
789.028	6860.83
789.42	6903.2
789.812	6906.22
790.204	7013.27
790.595	7123.84
790.987	6907.67
791.378	6930.5
791.77	7070.23
792.161	7220.61
792.553	7280.59
792.944	7153.67
793.335	7083.74
793.726	7162.27
794.117	7265.65
794.508	7415.52
794.899	7376.32
795.29	7528.97
795.681	7592.16
796.072	7433.63
796.463	7226.82
796.853	7235.07
797.244	7407.95
797.634	7436.72
798.025	7437.64
798.415	7449.93
798.806	7545.88
799.196	7642.34
799.586	7700.91
799.976	7658.89
800.366	7912.66
800.756	8177.44
801.146	8132.44
801.536	8163.81
801.926	8253.06
802.316	8275.92
802.706	8353.05
803.095	8217.5
803.485	8325.12
803.874	8368.62
804.264	8656.08
804.653	8629.01
805.043	8784.24
805.432	8906.58
805.821	8913.81
806.21	8933.21
806.599	9070.85
806.988	9122.61
807.377	9245.15
807.766	9390.27
808.155	9701.52
808.544	9405.69
808.933	9422.9
809.321	9406.84
809.71	9736.43
810.098	9908.75
810.487	10413.73
810.875	10938.05
811.264	10957.43
811.652	11269.86
812.04	11424.09
812.428	11603.16
812.816	12444.11
813.204	12901.97
813.592	13505.18
813.98	13865.5
814.368	13758.91
814.756	14290.82
815.144	14212.57
815.531	14731.81
815.919	14654.92
816.306	15002.48
816.694	14658.38
817.081	14713.62
817.469	15091.9
817.856	15090.73
818.243	15385.01
818.63	15820.33
819.017	15355.78
819.404	15411.37
819.791	15829.23
820.178	16505.23
820.565	16779.93
820.952	17804.58
821.339	17268.59
821.725	17471.69
822.112	16653.24
822.498	16621.78
822.885	16760.79
823.271	16656.48
823.657	17120.06
824.044	17123.45
824.43	17204.33
824.816	17159.78
825.202	16686.97
825.588	17801.7
825.974	17820.8
826.36	18389.64
826.746	18413.15
827.132	18808.72
827.517	18780.76
827.903	17927.37
828.289	17963.1
828.674	17107.54
829.06	17000.55
829.445	17432.57
829.83	17821.34
830.216	18337.59
830.601	18736.61
830.986	18293.43
831.371	18137.93
831.756	18753.32
832.141	18280.76
832.526	18281.92
832.911	18594.01
833.295	18467.94
833.68	18986.36
834.065	18312.43
834.449	17317.83
834.834	17244.15
835.218	17237.28
835.603	17607.97
835.987	17363.69
836.371	18275.81
836.755	18152.75
837.139	18585.24
837.524	18847.71
837.908	18647.61
838.291	18703.04
838.675	18763.45
839.059	18975.84
839.443	18955.99
839.827	18702.07
840.21	19236.67
840.594	19072.22
840.977	19305.88
841.361	19291.87
841.744	19698.09
842.127	19524.64
842.511	19805.47
842.894	20469.76
843.277	20898.11
843.66	21494.85
844.043	21592.12
844.426	20710.14
844.809	20381.83
845.191	20419.17
845.574	19911.5
845.957	19513.32
846.339	19397.77
846.722	18823.55
847.104	18902.07
847.487	18711.42
847.869	18730.79
848.252	19041.6
848.634	19412.3
849.016	19699.3
849.398	19833.82
849.78	20769.69
850.162	20773.15
850.544	21233.58
850.926	21922.41
851.307	21829.02
851.689	22140.19
852.071	22642.48
852.452	22998.57
852.834	22975.14
853.215	23408.55
853.597	23586.87
853.978	23917.16
854.359	24428.17
854.741	23340.7
855.122	23241.47
855.503	22916.8
855.884	23060.28
856.265	22999.89
856.646	23124.12
857.026	22688.2
857.407	22617.45
857.788	22782.6
858.169	23096.17
858.549	22167.47
858.93	22848.15
859.31	22894.65
859.69	23130.34
860.071	22694.27
860.451	22450.24
860.831	21634.77
861.211	22897.98
861.591	23494.64
861.971	23475.49
862.351	23679.99
862.731	24095.06
863.111	24381.53
863.491	24745.48
863.87	25696.74
864.25	26063.8
864.629	25619.66
865.009	26183.19
865.388	27120.98
865.768	29063.94
866.147	28941
866.526	27343.79
866.905	27675.72
867.284	29227.38
867.663	27748.09
868.042	26596.19
868.421	26521.34
868.8	26961.6
869.179	27226.94
869.558	25634.9
869.936	23619.86
870.315	24034.93
870.693	24609.72
871.072	26536.87
871.45	25281.4
871.828	25600.52
872.207	26919.2
872.585	26513.07
872.963	27228.04
873.341	26289.97
873.719	25980.91
874.097	25669.52
874.475	26157.57
874.853	26759.92
875.23	25642.41
875.608	26703.66
875.986	28883.97
876.363	27609.43
876.741	28448.18
877.118	27744.43
877.495	29107.54
877.873	29579.76
878.25	31135.57
878.627	29873.72
879.004	30295.74
879.381	30161.38
879.758	29377.28
880.135	27345.32
880.512	28922.08
880.889	28162.28
881.265	27866.24
881.642	27644.22
882.019	28128.31
882.395	27554.75
882.772	28643.32
883.148	27391.9
883.524	27266.08
883.901	27105.62
884.277	27515.86
884.653	27339.9
885.029	28118.57
885.405	31128.78
885.781	30875.54
886.157	29603.02
886.532	29977.03
886.908	29960.29
887.284	33316.24
887.659	34409.31
888.035	35481.73
888.411	36407.95
888.786	36892.95
889.161	38181.5
889.537	37492.55
889.912	38704.27
890.287	38669.58
890.662	39655.34
891.037	38953.63
891.412	36327.1
891.787	35964.56
892.162	34723.44
892.536	35530.32
892.911	34200.54
893.286	33483.91
893.66	32121.29
894.035	32933.94
894.409	35877.64
894.784	34451.33
895.158	35021.7
895.532	37112.32
895.906	38123.47
896.281	39017.2
896.655	38387.15
897.029	43872.91
897.402	45670.16
897.776	50861.16
898.15	50701.7
898.524	50134.83
898.898	50776.18
899.271	56834.02
899.645	49215.83
900.018	47276.43
900.392	49022.85
900.765	49438.82
901.138	45749.84
901.511	45086.63
901.884	41399.69
902.258	38175.99
902.631	39462.31
903.003	45407.7
903.376	40987.98
903.749	45961.16
904.122	49210.61
904.495	54190.01
904.867	54879.74
905.24	47637.16
905.612	44327.6
905.985	45348.13
906.357	47415.05
906.729	45224.83
907.102	38645.19
907.474	37148.13
907.846	37392.55
908.218	36915.1
908.59	32614.16
908.962	31545.79
909.334	33967.63
909.705	35683.57
910.077	34634.59
910.449	36044.17
910.82	37059.88
911.192	40759.55
911.563	42339.1
911.935	45280.8
912.306	45301.59
912.677	46773.23
913.048	46280.56
913.419	50216.48
913.79	50479.84
914.161	54090.99
914.532	51695.42
914.903	47510.38
915.274	45132.35
915.645	44490.89
916.015	39162.59
916.386	37344.31
916.756	39731.26
917.127	40981.02
917.497	36596.26
917.868	39840.35
918.238	37861.47
918.608	38951.73
918.978	39754.89
919.348	42083.85
919.718	43470.68
920.088	41869.88
920.458	43505.29
920.828	45804.75
921.198	43429.7
921.567	46412.36
921.937	35932.94
922.306	36292.65
922.676	39134.12
923.045	32652.75
923.415	31027.31
923.784	28258.51
924.153	29068.35
924.522	29045.72
924.891	27307.8
925.26	29253.18
925.629	28569.99
925.998	32837.99
926.367	32051.46
926.736	30532.42
927.104	36357.35
927.473	39071.39
927.842	47157.35
928.21	46682.89
928.578	49073.98
928.947	46409.94
929.315	46676.9
929.683	54719.22
930.051	55137.02
930.42	64060.75
930.788	54764.83
931.156	54385.86
931.523	50979.14
931.891	47184.06
932.259	45332.18
932.627	52546.92
932.994	74298.4
933.362	61419.98
933.729	53336.03
934.097	51093.8
934.464	43225.86
934.831	49888.11
935.199	49168.45
935.566	47712.01
935.933	48362.85
936.3	58515.91
936.667	45546.71
937.034	41119.11
937.401	40707.89
937.767	35133.17
938.134	31270.5
938.501	44109.12
938.867	46982.93
939.234	79436.51
939.6	67780.28
939.967	74530.72
940.333	49953.18
940.699	42511.01
941.065	34132.16
941.431	44751.1
941.798	43141.55
942.163	56663.24
942.529	35396.6
942.895	32598.37
943.261	21098.38
943.627	27666.62
943.992	24231.58
944.358	24282.16
944.723	24390.82
945.089	23764.44
945.454	21936.41
945.82	23434.7
946.185	22543.44
946.55	26119.18
946.915	23447.56
947.28	27473.22
947.645	24214.07
948.01	22349.52
948.375	23298.97
948.74	27927.87
949.104	32587.83
949.469	47074.02
949.834	83196.57
950.198	78832.26
950.562	47228.67
950.927	39327.73
951.291	47319.24
951.655	40304.54
952.02	37862.01
952.384	28634.89
952.748	24913.44
953.112	24281.87
953.476	21117.69
953.839	19555.67
954.203	19349.82
954.567	24202.27
954.931	38141.81
955.294	32648.07
955.658	32799.73
956.021	55833.84
956.385	94667.34
956.748	139767.73
957.111	216725.18
957.474	243241.87
957.837	273732.63
958.2	207295.31
958.563	74638.28
958.926	50426.01
959.289	76468.54
959.652	85552.7
960.015	64149.51
960.377	92062.64
960.74	105047.6
961.102	181506.3
961.465	194991.32
961.827	104339.74
962.189	200090.3
962.552	138621.83
962.914	111214.62
963.276	72213.31
963.638	59690.35
964	59106.41
964.362	39901.16
964.724	38562.26
965.085	27485.18
965.447	22523.34
965.809	25670.44
966.17	25698.58
966.532	27797.34
966.893	25495.68
967.255	23204.45
967.616	27375.8
967.977	21915.09
968.338	23966.02
968.699	19699.03
969.061	19714.88
969.421	19840.69
969.782	22256.25
970.143	18795.18
970.504	19473.24
970.865	22135.95
971.225	22623.02
971.586	22146.52
971.946	31582.64
972.307	27411.92
972.667	35828.91
973.027	36853.54
973.388	44706.99
973.748	30457.26
974.108	33178.5
974.468	44905.4
974.828	34609.09
975.188	26639.56
975.548	24458.05
975.907	20522.88
976.267	23000.05
976.627	19327.46
976.986	20061.25
977.346	19135.24
977.705	18399.76
978.064	16769.48
978.424	13954.39
978.783	14442.69
979.142	16496.27
979.501	15777.81
979.86	16679.43
980.219	16087.37
980.578	20762.87
980.937	23219.58
981.296	20679.17
981.654	21281.22
982.013	33084.24
982.371	42878.87
982.73	40025.68
983.088	45319.07
983.447	48465.34
983.805	69300.46
984.163	144815.22
984.521	160616.89
984.879	235533.11
985.237	-383154.02
985.595	369368.64
985.953	91840.24
986.311	53105.11
986.669	30845.48
987.026	26579.18
987.384	35716.16
987.741	36952
988.099	26419.32
988.456	21056.43
988.814	19712.21
989.171	17124.33
989.528	16878.07
989.885	17842.49
990.242	14121.8
990.599	17585.61
990.956	14401.38
991.313	10067.03
991.67	8264.83
992.027	8752.08
992.383	7777.31
992.74	6829.78
993.096	7177.17
993.453	7443.94
993.809	7704.56
994.165	10258.79
994.522	9397.01
994.878	10355.95
995.234	13004.52
995.59	12820.45
995.946	12144.76
996.302	13867.31
996.658	16013.69
997.013	17627.43
997.369	20930.06
997.725	26788.31
998.08	17370.3
998.436	26821.47
998.791	37039.54
999.147	36958.43
999.502	40360.71
999.857	29248.44
1000.212	47643.61
1000.567	67828.4
1000.922	39088.19
1001.277	24829.49
1001.632	18424.84
1001.987	23766.96
1002.342	17027.21
1002.696	13626.71
1003.051	10880.56
1003.406	13135.04
1003.76	13120.98
1004.114	12935.37
1004.469	10881.19
1004.823	9026.21
1005.177	9742.07
1005.531	7733.71
1005.885	6843.38
1006.239	7722.53
1006.593	9672.24
1006.947	12958.46
1007.301	9745.07
1007.655	10635.4
1008.008	7799.26
1008.362	8752.12
1008.715	12473.55
1009.069	11320.22
1009.422	16987.46
1009.776	34089.16
1010.129	22624.75
1010.482	18849.06
1010.835	15892.12
1011.188	33046.06
1011.541	31056.14
1011.894	-189914.7
1012.247	559017.72
1012.6	38058.73
1012.952	23999.13
1013.305	12397.04
1013.657	8929.55
1014.01	8458.37
1014.362	6981.07
1014.715	6213.24
1015.067	5399.1
1015.419	5282.32
1015.771	4680.26
1016.123	4153.2
1016.475	4259.82
1016.827	4535.19
1017.179	4870.53
1017.531	4910.56
1017.883	5004.18
1018.234	4828.76
1018.586	6079.74
1018.938	6444.95
1019.289	8879
1019.64	10163.42
1019.992	9471.08
1020.343	8655.84
1020.694	6842.03
1021.045	6038.38
1021.396	6902.37
1021.747	7394.58
1022.098	8851.66
1022.449	6405.95
1022.8	5913.94
1023.151	4111.32
1023.501	3644.95
1023.852	3985.78
1024.202	4149.18
1024.553	4544
1024.903	4430.25
1025.253	3765.12
1025.604	3398.64
1025.954	4223.68
1026.304	5169.72
1026.654	6057.24
1027.004	8897.17
1027.354	14418.11
1027.703	13517.8
1028.053	17755.9
1028.403	25719.49
1028.753	37430.48
1029.102	51260.08
1029.452	263453.49
1029.801	11409.81
1030.15	7353.87
1030.499	6244.24
897.758	2500.16
901.051	2452.66
904.343	2484.35
907.636	2485.58
910.928	2550.32
914.22	2463.39
917.511	2469.5
920.803	2524.6
924.094	2539.16
927.384	2528.14
930.675	2492.08
933.965	2448.8
937.255	2465.03
940.544	2431.19
943.834	2397.38
947.123	2335.03
950.411	2426.58
953.7	2401.64
956.988	2375.39
960.276	2314.77
963.563	2385.59
966.851	2387.03
970.138	2437.56
973.424	2430.46
976.711	2385.8
979.997	2485.06
983.283	2526.09
986.568	2442.18
989.853	2451.45
993.138	2480.67
996.423	2560.2
999.708	2505.06
1002.992	2554.88
1006.275	2422.75
1009.559	2450.46
1012.842	2560.99
1016.125	2499.26
1019.408	2480.5
1022.69	2557.67
1025.972	2581.22
1029.254	2554.8
1032.536	2499.26
1035.817	2519.66
1039.098	2474.02
1042.379	2585.32
1045.659	2599.45
1048.939	2536.36
1052.219	2550.6
1055.498	2557.07
1058.778	2546.11
1062.057	2528.53
1065.335	2549.84
1068.614	2565.64
1071.892	2551.52
1075.17	2622.8
1078.447	2613.9
1081.724	2605.75
1085.001	2636.81
1088.278	2616.12
1091.554	2626.69
1094.83	2621.32
1098.106	2650.58
1101.382	2690.85
1104.657	2694.88
1107.932	2693.19
1111.206	2660.21
1114.481	2620.07
1117.755	2621.27
1121.029	2609.11
1124.302	2661.82
1127.575	2620.93
1130.848	2612.67
1134.121	2573.12
1137.393	2528.69
1140.665	2588.63
1143.937	2567.03
1147.208	2522.55
1150.48	2566.95
1153.75	2554.74
1157.021	2576.92
1160.291	2549.99
1163.561	2594.4
1166.831	2578.86
1170.101	2611.64
1173.37	2582.32
1176.639	2532.84
1179.907	2585.44
1183.176	2598.96
1186.444	2602.99
1189.711	2632.12
1192.979	2646.11
1196.246	2601.15
1199.513	2618.1
1202.78	2617.16
1206.046	2627.63
1209.312	2649.3
1212.578	2672.25
1215.843	2629.81
1219.108	2601.31
1222.373	2625.3
1225.638	2589.58
1228.902	2573.6
1232.166	2540.89
1235.43	2522.78
1238.693	2547.31
1241.956	2541.57
1245.219	2586.76
1248.482	2573.86
1251.744	2568.23
1255.006	2708.62
1258.268	2662.39
1261.529	2609.14
1264.79	2614.69
1268.051	2717.85
1271.312	2732.93
1274.572	2696.13
1277.832	2686.49
1281.092	2675.96
1284.351	2655.55
1287.61	2636.96
1290.869	2559.27
1294.128	2542.17
1297.386	2620.41
1300.644	2610.38
1303.902	2618.64
1307.159	2482.4
1310.416	2538.31
1313.673	2561.85
1316.93	2549.75
1320.186	2590.71
1323.442	2631.43
1326.697	2626.39
1329.953	2608.4
1333.208	2634.41
1336.463	2614.82
1339.717	2558.77
1342.972	2684.29
1346.226	2657.69
1349.479	2596.63
1352.733	2568.65
1355.986	2587.39
1359.238	2565.25
1362.491	2565.14
1365.743	2569.24
1368.995	2564.44
1372.247	2575.15
1375.498	2597.57
1378.749	2619.29
1382	2576.34
1385.251	2625.14
1388.501	2583.3
1391.751	2571.97
1395	2539.48
1398.25	2571.89
1401.499	2584.15
1404.748	2515.37
1407.996	2503.51
1411.244	2493.26
1414.492	2474.04
1417.74	2450.63
1420.987	2460.2
1424.234	2516.61
1427.481	2490.85
1430.728	2549.27
1433.974	2523.04
1437.22	2532.01
1440.465	2534.3
1443.711	2508.23
1446.956	2538.5
1450.201	2522.2
1453.445	2568.46
1456.689	2545.14
1459.933	2558.3
1463.177	2593.36
1466.42	2564.96
1469.663	2545.69
1472.906	2547.04
1476.148	2605.52
1479.391	2590.66
1482.633	2557.2
1485.874	2568.84
1489.115	2560.78
1492.356	2565.99
1495.597	2543.97
1498.838	2545.32
1502.078	2520.64
1505.318	2476.71
1508.557	2516.73
1511.797	2505.64
1515.036	2547.82
1518.274	2541.41
1521.513	2510.76
1524.751	2530.07
1527.989	2542.62
1531.227	2558.37
1534.464	2557.91
1537.701	2572.03
1540.938	2591.39
1544.174	2541.29
1547.41	2538.68
1550.646	2577.58
1553.882	2616.18
1557.117	2672.66
1560.352	2684.39
1563.587	2643.5
1566.821	2604.08
1570.055	2632.8
1573.289	2604.95
1576.523	2675.01
1579.756	2686.03
1582.989	2707.08
1586.222	2668.55
1589.454	2704.69
1592.686	2681.32
1595.918	2708.4
1599.15	2700.91
1602.381	2768.19
1605.612	2732.86
1608.843	2829.92
1612.073	2744.05
1615.303	2729.15
1618.533	2720.6
1621.762	2721.93
1624.992	2704.85
1628.221	2697.49
1631.449	2681.31
1634.678	2731.31
1637.906	2688.11
1641.134	2722.58
1644.361	2683.62
1647.588	2670.51
1650.815	2689.82
1654.042	2663.93
1657.269	2695.01
1660.495	2653.7
1663.72	2665.83
1666.946	2632.11
1670.171	2583.7
1673.396	2561.01
1676.621	2543.67
1679.845	2557.42
1683.069	2574.49
1686.293	2612.92
1689.517	2592.78
1692.74	2527.47
1695.963	2555.19
1699.185	2576.49
1702.408	2549.54
1705.63	2587.86
1708.852	2598.78
1712.073	2577.64
1715.294	2567.66
1718.515	2624.06
1721.736	2575.08
1724.956	2560.73
1728.176	2585.67
1731.396	2607.89
1734.616	2594.54
1737.835	2626.47
1741.054	2603.6
1744.272	2596.64
1747.491	2624.93
1750.709	2670.14
1753.927	2588.51
1757.144	2627.89
1760.361	2675.12
1763.578	2660.99
1766.795	2606.59
1770.011	2607.67
1773.227	2643.57
1776.443	2681.36
1779.658	2723.7
1782.874	2665.5
1786.089	2648.71
1789.303	2649.57
1792.518	2651.46
1795.732	2639.02
1798.945	2651.99
1802.159	2698.76
1805.372	2612.27
1808.585	2599.27
1811.797	2598.53
1815.01	2640.68
1818.222	2650.39
1821.434	2624.38
1824.645	2678.76
1827.856	2671.96
1831.067	2703.67
1834.278	2655.1
1837.488	2638.76
1840.698	2780.04
1843.908	2710.29
1847.117	2674.37
1850.326	2571.32
1853.535	2660.3
1856.744	2679.26
1859.952	2594.06
1863.16	2595.03
1866.368	2615.5
1869.575	2719.01
1872.782	2604.54
1875.989	2542.88
1879.196	2612.88
1882.402	2601.48
1885.608	2642.13
1888.814	2555.99
1892.019	2456.06
1895.224	2509.26
1898.429	2486.06
1901.634	2465.56
1904.838	2442.21
1908.042	2489.78
1911.246	2497.48
1914.449	2441.09
1917.652	2435.11
1920.855	2415.29
1924.058	2455.65
1927.26	2495.87
1930.462	2521.16
1933.664	2547.39
1936.865	2489.7
1940.066	2499.38
1943.267	2446.26
1946.467	2459.31
1949.668	2482.55
1952.868	2551.56
1956.067	2532.8
1959.267	2469.49
1962.466	2494.79
1965.665	2481.64
1968.863	2476.37
1972.061	2486.07
1975.259	2483.67
1978.457	2560.7
1981.654	2520.08
1984.852	2522.35
1988.048	2460.12
1991.245	2460.08
1994.441	2545.46
1997.637	2524.99
2000.833	2500.79
2004.028	2541.86
2007.223	2597.2
2010.418	2577.38
2013.613	2538.33
2016.807	2514.96
2020.001	2519.43
2023.194	2557.42
2026.388	2534.84
2029.581	2481.39
2032.774	2531.5
2035.966	2542.22
2039.158	2477.07
2042.35	2503.58
2045.542	2429.22
2048.733	2526.22
2051.924	2539.78
2055.115	2564.7
2058.306	2513.8
2061.496	2571.36
2064.686	2629.42
2067.875	2542.39
2071.065	2554.61
2074.254	2581.08
2077.442	2532.1
2080.631	2621.44
2083.819	2522.75
2087.007	2510.32
2090.195	2484.52
2093.382	2515.29
2096.569	2496.79
2099.756	2453.34
2102.942	2484.83
2106.128	2492.03
2109.314	2482.3
2112.5	2453.11
2115.685	2427.36
2118.87	2435.91
2122.055	2498.6
2125.239	2469.35
2128.424	2448.11
2131.608	2537.03
2134.791	2517.08
2137.974	2570.25
2141.157	2556.71
2144.34	2513.05
2147.523	2523
2150.705	2539.54
2153.887	2515.94
2157.068	2472.02
2160.25	2468.07
2163.431	2497.44
2166.611	2451.17
2169.792	2470.01
2172.972	2369.38
2176.152	2440.06
2179.331	2471.64
2182.511	2456.2
2185.69	2483.74
2188.868	2479.3
2192.047	2531.02
2195.225	2528.11
2198.403	2479.7
2201.58	2470.54
2204.758	2465.81
2207.935	2544.69
2211.111	2439.89
2214.288	2426.95
2217.464	2466.76
2220.64	2432.92
2223.815	2487.21
2226.991	2410.07
2230.166	2427.77
2233.34	2462.31
2236.515	2481.49
2239.689	2549.33
2242.863	2494.71
2246.036	2551.97
2249.209	2546.54
2252.382	2575.95
2255.555	2570.07
2258.727	2512.5
2261.9	2548.21
2265.071	2540.74
2268.243	2540.12
2271.414	2477.86
2274.585	2447.61
2277.756	2513.24
2280.926	2470.08
2284.096	2507.29
2287.266	2421.25
2290.436	2471.64
2293.605	2498.58
2296.774	2529.51
2299.942	2549.33
2303.111	2565.28
2306.279	2615.37
2309.447	2599.96
2312.614	2576.33
2315.781	2593.77
2318.948	2566.52
2322.115	2603.28
2325.281	2507.72
2328.447	2522.8
2331.613	2497.76
2334.779	2473.35
2337.944	2473.69
2341.109	2473.27
2344.274	2456.71
2347.438	2421.97
2350.602	2447.92
2353.766	2462.25
2356.929	2450.09
2360.092	2489.48
2363.255	2446.69
2366.418	2390.94
2369.58	2488.55
2372.742	2307
2375.904	2314.21
2379.066	2295.4
2382.227	2324.28
2385.388	2287.94
2388.548	2221.66
2391.709	2271.86
2394.869	2255.2
2398.029	2341
2401.188	2347.01
2404.347	2290.51
2407.506	2409.9
2410.665	2441.09
2413.823	2442.22
2416.981	2408.16
2420.139	2432.69
2423.296	2481.63
2426.453	2452.86
2429.61	2476.7
2432.767	2421.65
2435.923	2459.6
2439.079	2419.7
2442.235	2463.69
2445.391	2396.81
2448.546	2427.78
2451.701	2473.99
2454.855	2453.95
2458.009	2494.88
2461.163	2497.81
2464.317	2456.71
2467.471	2485.79
2470.624	2524.55
2473.777	2499.6
2476.929	2512.52
2480.082	2536.16
2483.234	2503.16
2486.385	2451.9
2489.537	2444.62
2492.688	2415.54
2495.839	2430.52
2498.989	2446.12
2502.14	2431.72
2505.29	2417.2
2508.439	2438.79
2511.589	2369.92
2514.738	2376.44
2517.887	2405.28
2521.035	2474.81
2524.183	2453.54
2527.331	2434.7
2530.479	2414.68
2533.627	2420.97
