Data from C_2_DIV_IL_4N_Splice17_12-36-47-020.txt Node
Date: Sat Mar 14 12:36:47 EDT 2020
User: sa697716
Spectrometer: FLMS03696
Trigger mode: 0
Integration Time (sec): 3.180400E-1
Scans to average: 20
Electric dark correction enabled: true
Nonlinearity correction enabled: true
Boxcar width: 5
XAxis mode: Wavelengths
Number of Pixels in Spectrum: 2048
>>>>>Begin Spectral Data<<<<<
187.83	-369378.95
188.298	2754.32
188.766	1451.3
189.233	1255.88
189.701	1645.74
190.169	2345.92
190.636	900.07
191.104	653.54
191.571	95.74
192.039	-69.81
192.506	-70.52
192.974	570.16
193.441	-681.72
193.908	-83.45
194.375	-57.58
194.842	-75.12
195.31	89.93
195.777	179.25
196.244	386.93
196.711	537.46
197.177	679.25
197.644	975.22
198.111	1723.71
198.578	2398.37
199.045	1914.23
199.511	3130.87
199.978	3690.03
200.445	3098.17
200.911	3443.17
201.378	3860.77
201.844	3479.4
202.31	5988.53
202.777	6261.93
203.243	3463.06
203.709	3306.46
204.176	3948.3
204.642	3247.54
205.108	3026.04
205.574	2473.42
206.04	2270.57
206.506	2143.59
206.972	2035.21
207.438	1978.02
207.903	2251.16
208.369	1983.51
208.835	1974.21
209.301	2080.58
209.766	2154.91
210.232	2136.88
210.697	2684.35
211.163	3343.19
211.628	5095.63
212.094	4331.53
212.559	5352.52
213.024	3367.33
213.49	4124.92
213.955	4098.3
214.42	4039.02
214.885	3797.79
215.35	3699.03
215.815	3569.32
216.28	3849.55
216.745	3204.61
217.21	3532.56
217.675	3357.26
218.14	3896.13
218.604	4517.44
219.069	5339.86
219.534	5763.6
219.998	6923.33
220.463	8615.47
220.927	10923.59
221.392	10456.73
221.856	10739.11
222.32	13767.34
222.785	17154.84
223.249	21851.83
223.713	24615.96
224.177	24738.65
224.642	31996.48
225.106	39546.25
225.57	43426.56
226.034	32316.88
226.497	49372.93
226.961	44662.19
227.425	52070.74
227.889	57980.67
228.353	58054.78
228.816	120050.33
229.28	114936.85
229.744	96980.02
230.207	58863.43
230.671	57891.47
231.134	95997.68
231.597	110573.92
232.061	110624.26
232.524	107923.25
232.987	74283.04
233.45	66769.14
233.914	59870.14
234.377	61400.74
234.84	56126.87
235.303	66228.06
235.766	73895.43
236.229	76311.14
236.691	48072.91
237.154	54004.4
237.617	40589.05
238.08	41537.04
238.542	48593.59
239.005	34674.39
239.468	34345.24
239.93	32353.65
240.393	29376.25
240.855	25755.48
241.317	26371.62
241.78	32058.98
242.242	33100.27
242.704	35681.05
243.166	31002.79
243.629	28079.77
244.091	32323.08
244.553	35394.45
245.015	37978.5
245.477	49089.56
245.939	71877.99
246.4	76107.06
246.862	73846.89
247.324	69531.46
247.786	77719.23
248.247	101865.77
248.709	105262.25
249.17	78679.87
249.632	73954.89
250.093	85597.68
250.555	73821.34
251.016	44918.33
251.477	42604.12
251.939	45972.89
252.4	48178.32
252.861	57294.88
253.322	53208.57
253.783	63265.81
254.244	81995.47
254.705	64668.56
255.166	57483.04
255.627	56512.36
256.088	79641.16
256.549	84466.74
257.009	72618.14
257.47	88033.08
257.931	71571.7
258.391	53586.4
258.852	55191.89
259.312	57794.15
259.773	71318.7
260.233	60167.96
260.694	50714.35
261.154	57510.51
261.614	46078.97
262.074	41191.71
262.534	42745.03
262.994	40261.33
263.455	53631.96
263.915	45106.97
264.374	42467.74
264.834	46332.01
265.294	51372.51
265.754	53160.23
266.214	50284.55
266.673	47087.43
267.133	59430.92
267.593	58951.18
268.052	72122
268.512	62696.09
268.971	75528.86
269.431	82724.69
269.89	74054.51
270.349	110961.82
270.809	123659.63
271.268	111096.25
271.727	249235.52
272.186	161230.07
272.645	120884.7
273.104	87175.08
273.563	126213.93
274.022	99315.23
274.481	84439.01
274.94	64943.73
275.399	48254.8
275.857	56183.71
276.316	75967.59
276.775	67560.76
277.233	66487.4
277.692	62150.06
278.15	70196.98
278.609	72061.79
279.067	66617.77
279.525	61832.01
279.984	79892.86
280.442	95904.82
280.9	94340.84
281.358	62043.65
281.816	57738.7
282.274	56520.35
282.732	58356.85
283.19	58618.3
283.648	50575.96
284.106	53872.56
284.564	54753.88
285.021	50736.03
285.479	37745.25
285.937	34355.64
286.394	30063.76
286.852	30923
287.309	32450.26
287.767	31296.52
288.224	29734.2
288.682	32592.95
289.139	35697.8
289.596	32610.55
290.053	33837.71
290.511	42700.28
290.968	51700.5
291.425	70222.57
291.882	58326.86
292.339	50709.98
292.796	50315.3
293.252	47338.56
293.709	37548.59
294.166	33644.7
294.623	37154.81
295.079	35643.64
295.536	35769.36
295.992	32448.52
296.449	32051.11
296.905	33275.22
297.362	31864.29
297.818	33508.99
298.274	34728.77
298.731	35407.72
299.187	34999.6
299.643	37565.43
300.099	45378.44
300.555	49722.61
301.011	41523.48
301.467	39937.36
301.923	46813.24
302.379	45709.18
302.835	44893.08
303.291	44925.85
303.746	51059.52
304.202	64434.82
304.658	64666.76
305.113	43470.02
305.569	42558.53
306.024	45370.32
306.479	43225.34
306.935	36333.92
307.39	39658.55
307.845	36547.96
308.301	36761.51
308.756	35811.4
309.211	34459.35
309.666	35235.54
310.121	43712.21
310.576	44369.94
311.031	43935.59
311.486	50284.13
311.94	50254.51
312.395	67126.33
312.85	126022.29
313.305	618565.04
313.759	3191743.02
314.214	231102.01
314.668	183112.29
315.123	153593.22
315.577	54986.8
316.032	48859.53
316.486	61118.44
316.94	48153.97
317.394	33478.5
317.849	26015.93
318.303	24625.33
318.757	23240.61
319.211	25695.98
319.665	22469.83
320.119	22740.94
320.572	32600.69
321.026	30424.1
321.48	25349.9
321.934	27657.32
322.387	27729.34
322.841	29889.62
323.295	26795.37
323.748	30881.18
324.202	31286.63
324.655	37557.03
325.108	52349.33
325.562	36910.93
326.015	43895.44
326.468	33114.06
326.921	36984.86
327.374	34435.71
327.827	35822.05
328.28	40585.38
328.733	27140.17
329.186	23856.94
329.639	22711.61
330.092	19156.85
330.545	18244.16
330.997	18370.59
331.45	20038.06
331.903	23455.71
332.355	40378.57
332.808	39223.5
333.26	32317.23
333.713	35055.65
334.165	35295.03
334.617	47109.96
335.069	38073.77
335.522	68883.44
335.974	76207.74
336.426	69625.91
336.878	48182.8
337.33	24387.86
337.782	23815.2
338.234	29767.49
338.686	35623.21
339.137	42199.59
339.589	39714.88
340.041	31083.08
340.493	26699.74
340.944	27321.38
341.396	29416.56
341.847	24725.71
342.299	29127.28
342.75	35522.59
343.201	31083.38
343.653	35710.27
344.104	43815.99
344.555	34502.66
345.006	53734.71
345.457	41024.76
345.908	32607.57
346.359	30670.21
346.81	24978.18
347.261	26343.11
347.712	25930.47
348.163	27780.81
348.613	28061.1
349.064	26190.89
349.515	22917.31
349.965	23473.81
350.416	28297.93
350.866	31023.37
351.317	35022.72
351.767	58006.7
352.217	73275.52
352.668	60808.25
353.118	55719.75
353.568	53789.75
354.018	42525.65
354.468	44770.65
354.918	32102.96
355.368	28068.39
355.818	39675.01
356.268	114186
356.718	476611.77
357.168	118399.19
357.617	59376
358.067	66002.16
358.517	61840.05
358.966	72418.12
359.416	81151.58
359.865	87605.51
360.315	104228.67
360.764	48601.63
361.213	27214.89
361.663	25815.25
362.112	31871.13
362.561	51470.49
363.01	38805.04
363.459	32652.19
363.908	35309.48
364.357	29971.84
364.806	50635.23
365.255	34778.69
365.703	31772.56
366.152	31776.75
366.601	25694.62
367.05	20826.32
367.498	18881.34
367.947	19704.76
368.395	20429.81
368.844	18081.58
369.292	21764.63
369.74	15001.44
370.189	22958.14
370.637	26933.89
371.085	23217.6
371.533	28294.93
371.981	27268
372.429	25989.11
372.877	27025.95
373.325	22626.2
373.773	23039.59
374.221	20521.91
374.669	25435.08
375.116	21989.32
375.564	22123.6
376.012	24694.62
376.459	20334.55
376.907	24266.88
377.354	29324.17
377.801	27333.57
378.249	31384.68
378.696	40080.26
379.143	48461.87
379.591	51692.71
380.038	87325.17
380.485	63138.49
380.932	68144.6
381.379	62207.33
381.826	45666.66
382.273	32437.51
382.72	28334.04
383.166	27576.38
383.613	17857.77
384.06	16071.07
384.506	18557.38
384.953	13610.54
385.4	13682.68
385.846	11989.09
386.292	11679.57
386.739	11446.06
387.185	11305.22
387.631	11295.28
388.078	10945.9
388.524	11707.78
388.97	10810.81
389.416	9002.54
389.862	9573.41
390.308	9069.35
390.754	9205.92
391.2	9989.41
391.645	10209.34
392.091	9736.55
392.537	9394.84
392.983	9408.62
393.428	9221.04
393.874	9880.13
394.319	9900.11
394.765	9358.53
395.21	9603.01
395.655	8971.26
396.101	8389.04
396.546	7575.72
396.991	7641.72
397.436	7097.31
397.881	6850.58
398.326	6495.35
398.771	6128.91
399.216	5362.24
399.661	4826.36
400.106	4802.57
400.551	4913.48
400.995	4397.52
401.44	4337.14
401.885	4074.55
402.329	4111.86
402.774	3937.85
403.218	3805.09
403.663	3666.62
404.107	3762
404.551	3777.97
404.995	3462.02
405.44	3332.95
405.884	3387.8
406.328	3277.74
406.772	3268.24
407.216	2977.57
407.66	2876.9
408.104	2729.69
408.547	2553.79
408.991	2473.66
409.435	2383.22
409.879	2347.14
410.322	2314.96
410.766	2230.56
411.209	2118.04
411.653	2027.66
412.096	1982.28
412.54	1982.31
412.983	1970.99
413.426	1974.25
413.869	1968.74
414.312	1930.26
414.756	1860.03
415.199	1772.47
415.642	1719.34
416.085	1721.07
416.527	1710.31
416.97	1734.79
417.413	1645.3
417.856	1626.87
418.298	1607.31
418.741	1595.29
419.184	1592.9
419.626	1659.71
420.069	1663.03
420.511	1671.46
420.953	1634.44
421.396	1619.62
421.838	1578.34
422.28	1612.91
422.722	1619.04
423.164	1644.73
423.606	1616.05
424.048	1612.17
424.49	1531.04
424.932	1521.24
425.374	1500.6
425.816	1528.4
426.258	1556.98
426.699	1574.67
427.141	1551.02
427.582	1575.61
428.024	1567.67
428.465	1558.71
428.907	1520.24
429.348	1501.02
429.789	1500.94
430.231	1469.48
430.672	1486.02
431.113	1449.98
431.554	1429.69
431.995	1393.55
432.436	1341.41
432.877	1310.72
433.318	1288.39
433.759	1281.32
434.2	1280.7
434.64	1267.53
435.081	1269.03
435.522	1201.29
435.962	1157.16
436.403	1128.45
436.843	1145.26
437.284	1120.27
437.724	1089.19
438.164	1091.36
438.604	1068.65
439.045	1027.33
439.485	984.63
439.925	962.9
440.365	939.11
440.805	926.2
441.245	914.59
441.685	879.3
442.125	874.56
442.564	879.38
443.004	859.35
443.444	857.28
443.883	859.4
444.323	851.87
444.762	852.78
445.202	864.28
445.641	879.5
446.081	874.72
446.52	879.9
446.959	869.08
447.398	846.35
447.837	835.69
448.276	818.97
448.716	824.29
449.154	830.47
449.593	810.88
450.032	808.65
450.471	792.09
450.91	792.66
451.349	791.91
451.787	788.15
452.226	801.02
452.664	801.19
453.103	802.29
453.541	800.81
453.98	798.61
454.418	804.6
454.856	790.02
455.295	788.99
455.733	796.03
456.171	800.01
456.609	802.25
457.047	801.97
457.485	812.87
457.923	813.8
458.361	803.92
458.798	807.15
459.236	805.66
459.674	812.55
460.111	816.31
460.549	806.13
460.987	802.83
461.424	798.56
461.862	792.3
462.299	779.92
462.736	778.96
463.173	780.46
463.611	771.94
464.048	768.34
464.485	773.34
464.922	764.84
465.359	760.19
465.796	750.44
466.233	744.93
466.67	738.86
467.106	738.26
467.543	731.35
467.98	720.97
468.416	701.83
468.853	696.66
469.29	675.86
469.726	668.26
470.162	651.2
470.599	642.08
471.035	635.34
471.471	620.48
471.907	614.62
472.344	609.85
472.78	611.75
473.216	619.56
473.652	611.9
474.088	609.1
474.523	608.84
474.959	614.74
475.395	609.27
475.831	605.43
476.266	608.23
476.702	606
477.138	598.61
477.573	596.86
478.008	593.36
478.444	595.33
478.879	601.06
479.314	601.64
479.75	600.7
480.185	603.48
480.62	608.78
481.055	611.31
481.49	615.97
481.925	625.31
482.36	635.77
482.795	652.89
483.229	670.39
483.664	684.6
484.099	687.09
484.534	696.86
484.968	702.71
485.403	704.88
485.837	703.54
486.271	701.83
486.706	701.93
487.14	693.01
487.574	681.09
488.009	674.18
488.443	666.86
488.877	673.19
489.311	674.98
489.745	681.75
490.179	686.25
490.613	697.89
491.046	703.29
491.48	707.73
491.914	708.21
492.348	714.02
492.781	717.38
493.215	718.81
493.648	719.09
494.082	724.02
494.515	723.8
494.948	732.03
495.382	736.44
495.815	740.2
496.248	744.89
496.681	757.09
497.114	767.14
497.547	777.06
497.98	789.59
498.413	795.42
498.846	803.73
499.279	811.3
499.711	814.45
500.144	816.15
500.577	826.28
501.009	836.46
501.442	845.33
501.874	846.08
502.306	847.58
502.739	855.1
503.171	869.92
503.603	872.96
504.036	882.86
504.468	889.08
504.9	900.49
505.332	907.32
505.764	911.72
506.196	919.13
506.627	933.97
507.059	947.37
507.491	956.07
507.923	954.57
508.354	971.11
508.786	982.3
509.217	999.88
509.649	1015.4
510.08	1033.8
510.512	1052.35
510.943	1068.05
511.374	1080.4
511.805	1102.02
512.237	1122.63
512.668	1156.13
513.099	1185.03
513.53	1213.75
513.961	1237.28
514.391	1270.32
514.822	1306.77
515.253	1343.96
515.684	1372.29
516.114	1405.23
516.545	1428.86
516.975	1458.74
517.406	1479.98
517.836	1483.91
518.267	1493.79
518.697	1513.52
519.127	1520.54
519.558	1530.2
519.988	1535.54
520.418	1548.64
520.848	1568.93
521.278	1580.25
521.708	1588.66
522.138	1603.03
522.567	1637.9
522.997	1666.86
523.427	1685.73
523.857	1706.31
524.286	1719.05
524.716	1738.39
525.145	1760.16
525.575	1773.81
526.004	1791.18
526.433	1798.18
526.863	1800.1
527.292	1790.87
527.721	1798.31
528.15	1805.64
528.579	1808.27
529.008	1822.3
529.437	1848.55
529.866	1864.94
530.295	1884.82
530.724	1900.8
531.152	1932.07
531.581	1949.82
532.01	1971.56
532.438	1981.51
532.867	1999.8
533.295	2020.09
533.723	2028.31
534.152	2027.43
534.58	2028.35
535.008	2012.34
535.436	2014.73
535.865	2023.35
536.293	2039.16
536.721	2056.75
537.149	2086.46
537.576	2090.08
538.004	2105.66
538.432	2113.92
538.86	2112.43
539.287	2120.66
539.715	2136.05
540.143	2139.18
540.57	2134.91
540.998	2132.08
541.425	2107.39
541.852	2083.92
542.28	2081.95
542.707	2063.76
543.134	2049.09
543.561	2043.6
543.988	2035.52
544.415	2035.32
544.842	2029.22
545.269	2021.54
545.696	2023.2
546.123	2037.11
546.549	2025.64
546.976	2010.84
547.403	2011.14
547.829	2013.53
548.256	2016.19
548.682	2012.08
549.108	2004.55
549.535	2004.21
549.961	2006.3
550.387	1992.49
550.813	1985.22
551.24	1992.33
551.666	1994.66
552.092	1984.24
552.518	1976.59
552.943	1970.61
553.369	1978.69
553.795	1983.84
554.221	1986.15
554.646	1982.11
555.072	1993.52
555.498	2000.28
555.923	2010.18
556.349	2027.45
556.774	2036.03
557.199	2037.82
557.625	2044.32
558.05	2037.5
558.475	2049.52
558.9	2047.88
559.325	2039.15
559.75	2032.03
560.175	2024.14
560.6	2015.61
561.025	2011.35
561.449	2012.74
561.874	2018.19
562.299	2022.42
562.723	2030.47
563.148	2018.42
563.572	2021.56
563.997	2032.39
564.421	2037.59
564.846	2037.26
565.27	2040.01
565.694	2036.02
566.118	2048.13
566.542	2054.68
566.966	2046.22
567.39	2040.35
567.814	2026.65
568.238	2025.21
568.662	2030.31
569.086	2030.71
569.509	2037.9
569.933	2021.35
570.357	2013.14
570.78	1988.41
571.204	1974.02
571.627	1962.45
572.05	1958.98
572.474	1958.87
572.897	1944.5
573.32	1935.23
573.743	1925.7
574.166	1905.58
574.589	1905.27
575.012	1896.98
575.435	1894.97
575.858	1884.62
576.281	1871.4
576.704	1854.74
577.126	1840.35
577.549	1827.87
577.972	1815.92
578.394	1804.13
578.817	1795.52
579.239	1773.54
579.661	1758.5
580.084	1740.92
580.506	1726.39
580.928	1721.74
581.35	1707.94
581.772	1702.95
582.194	1687.53
582.616	1673.02
583.038	1656.91
583.46	1644.68
583.882	1641.59
584.303	1646
584.725	1641.38
585.147	1642.19
585.568	1652.44
585.99	1665.84
586.411	1671.84
586.833	1688.04
587.254	1689.83
587.675	1705.07
588.096	1718.86
588.518	1713.08
588.939	1692.8
589.36	1691.59
589.781	1680.44
590.202	1650.42
590.623	1641.29
591.043	1639.38
591.464	1624.37
591.885	1621.29
592.305	1613.95
592.726	1598.32
593.147	1599.44
593.567	1593.63
593.987	1584.89
594.408	1579.07
594.828	1576.32
595.248	1569.85
595.669	1549.33
596.089	1543.12
596.509	1535.43
596.929	1521.3
597.349	1521.61
597.769	1510.56
598.189	1504.27
598.608	1504.65
599.028	1506.58
599.448	1506.23
599.867	1491.44
600.287	1487.3
600.706	1482.07
601.126	1471
601.545	1468.21
601.965	1466.44
602.384	1460.51
602.803	1462.95
603.222	1457.13
603.641	1449.85
604.061	1446.32
604.48	1441.98
604.898	1449.86
605.317	1453.87
605.736	1455.6
606.155	1453.3
606.574	1443.77
606.992	1449.04
607.411	1443.54
607.829	1434.94
608.248	1430.43
608.666	1426.66
609.085	1425.49
609.503	1415.82
609.921	1408.95
610.339	1411.31
610.758	1409.46
611.176	1404.3
611.594	1394.49
612.012	1390.91
612.43	1393.78
612.847	1399.99
613.265	1400.79
613.683	1404.61
614.101	1405.28
614.518	1401.82
614.936	1390.67
615.353	1375.45
615.771	1370.34
616.188	1368.88
616.606	1364.39
617.023	1355.45
617.44	1340.18
617.857	1332.44
618.274	1322.76
618.691	1315.46
619.108	1304.82
619.525	1297.34
619.942	1303.51
620.359	1307.28
620.776	1301.68
621.192	1297.07
621.609	1295.73
622.026	1303.19
622.442	1308.07
622.859	1311.25
623.275	1304.01
623.691	1309.52
624.108	1321.61
624.524	1335.83
624.94	1335.51
625.356	1346.05
625.772	1360.04
626.188	1371.94
626.604	1372.65
627.02	1369.15
627.436	1368.27
627.852	1375.27
628.268	1387.43
628.683	1377.54
629.099	1367.76
629.514	1362.77
629.93	1365.95
630.345	1369.81
630.761	1364.67
631.176	1367.54
631.591	1360.99
632.007	1353.76
632.422	1352.31
632.837	1339.21
633.252	1335.69
633.667	1325.38
634.082	1315.72
634.497	1303.39
634.911	1282.89
635.326	1279.48
635.741	1262.42
636.155	1252.07
636.57	1253.36
636.984	1252.95
637.399	1255.85
637.813	1255.71
638.228	1254.99
638.642	1258.34
639.056	1247.12
639.47	1247.45
639.884	1238.48
640.298	1232.43
640.712	1231.15
641.126	1218.28
641.54	1207.68
641.954	1201.01
642.368	1188.63
642.781	1181.23
643.195	1164.04
643.609	1164.98
644.022	1159.05
644.436	1155.26
644.849	1141.13
645.262	1128.5
645.676	1129.85
646.089	1124.99
646.502	1110.33
646.915	1104.46
647.328	1085.64
647.741	1081.61
648.154	1067.33
648.567	1063.77
648.98	1049.33
649.393	1050.22
649.805	1045.15
650.218	1036.26
650.631	1019.82
651.043	1013.34
651.456	1007
651.868	1007.96
652.28	1026.31
652.693	1039.51
653.105	1045.14
653.517	1053.16
653.929	1051.28
654.341	1056.55
654.753	1044.08
655.165	1049.72
655.577	1046.61
655.989	1040.81
656.401	1030.84
656.813	992.95
657.224	972.27
657.636	943.74
658.047	926.4
658.459	907.47
658.87	898.54
659.282	886.69
659.693	866.16
660.104	849.94
660.515	836.97
660.926	836.1
661.338	833.26
661.749	826.38
662.159	815.69
662.57	810.37
662.981	805.67
663.392	797.91
663.803	801.99
664.213	798.83
664.624	795.26
665.035	797.92
665.445	783.07
665.855	775.95
666.266	768.78
666.676	767.17
667.086	758.99
667.497	758.9
667.907	754.01
668.317	744.5
668.727	742.65
669.137	743.31
669.547	740.62
669.956	743.44
670.366	745.2
670.776	747.65
671.186	751.87
671.595	755.61
672.005	758.53
672.414	757.64
672.824	754.99
673.233	757.96
673.642	760
674.052	763.75
674.461	765.77
674.87	770.52
675.279	767.92
675.688	767.93
676.097	769.77
676.506	766.23
676.915	780.02
677.323	783.02
677.732	780.58
678.141	779.77
678.549	768.47
678.958	767.21
679.366	765.28
679.775	768.68
680.183	779.63
680.592	783.6
681	789.14
681.408	782.43
681.816	789.96
682.224	798.56
682.632	808.1
683.04	837.1
683.448	861.1
683.856	891.36
684.264	925.28
684.671	955.54
685.079	993.18
685.487	1036.56
685.894	1095.04
686.302	1144.98
686.709	1184.82
687.116	1232.68
687.524	1270.83
687.931	1304.24
688.338	1331.67
688.745	1355.84
689.152	1384.57
689.559	1425.18
689.966	1463.07
690.373	1480.56
690.78	1518.01
691.187	1578.43
691.593	1624.53
692	1664.24
692.407	1723.6
692.813	1800.31
693.22	1860.73
693.626	1922.27
694.032	1972.58
694.439	2051.55
694.845	2114.92
695.251	2192.32
695.657	2262.28
696.063	2364.33
696.469	2443.51
696.875	2518.69
697.281	2562.14
697.687	2614.5
698.093	2660.29
698.498	2743.5
698.904	2806.62
699.31	2903.48
699.715	2973.28
700.12	3074.4
700.526	3099.73
700.931	3180.03
701.337	3239.94
701.742	3280.93
702.147	3375.84
702.552	3416.73
702.957	3487.89
703.362	3518.05
703.767	3552.3
704.172	3604.15
704.577	3561.32
704.981	3619.06
705.386	3640.51
705.791	3638.84
706.195	3726.56
706.6	3743.86
707.004	3835.59
707.408	3807.66
707.813	3841.59
708.217	3835.1
708.621	3842.03
709.025	3952.66
709.43	3958.56
709.834	4030.92
710.237	4112.87
710.641	4101.11
711.045	4129.55
711.449	4130.65
711.853	4168.25
712.256	4221.21
712.66	4270.41
713.064	4359.73
713.467	4410.62
713.87	4541.63
714.274	4598.25
714.677	4726.46
715.08	4911.52
715.484	5106.92
715.887	5336.86
716.29	5565.94
716.693	5802.04
717.096	6074.97
717.499	6227.21
717.901	6262.61
718.304	6295.91
718.707	6330.39
719.109	6216.55
719.512	6186.97
719.915	6035.76
720.317	5972.89
720.719	6025.7
721.122	5998.24
721.524	5947.94
721.926	5906.51
722.328	6023.61
722.731	6017.76
723.133	6048.13
723.535	6272.92
723.937	6299.46
724.338	6364.03
724.74	6414.91
725.142	6333.58
725.544	6333.74
725.945	6363.7
726.347	6359.8
726.748	6353.74
727.15	6371.69
727.551	6333.01
727.952	6302.63
728.354	6270.7
728.755	6270.13
729.156	6226.22
729.557	6225.19
729.958	6088.84
730.359	6028.2
730.76	6008.11
731.161	5940.87
731.562	5915.3
731.962	5921.22
732.363	5848.46
732.763	5778.53
733.164	5823.01
733.564	5747.27
733.965	5641.21
734.365	5603.79
734.766	5637.32
735.166	5592.99
735.566	5533.59
735.966	5505.25
736.366	5500.5
736.766	5434.43
737.166	5470.38
737.566	5424.36
737.966	5397.08
738.365	5441.36
738.765	5436.22
739.165	5351.84
739.564	5323.4
739.964	5375.05
740.363	5323.22
740.763	5322.68
741.162	5310.38
741.561	5277.02
741.96	5225.84
742.36	5247.7
742.759	5254.65
743.158	5295.47
743.557	5312.32
743.955	5363.11
744.354	5311.64
744.753	5379.54
745.152	5331.87
745.55	5392.03
745.949	5382.91
746.348	5384.02
746.746	5402.84
747.144	5355.52
747.543	5333.02
747.941	5390.28
748.339	5305.99
748.737	5295.76
749.136	5283.66
749.534	5356.34
749.932	5325.89
750.33	5351.78
750.727	5415.21
751.125	5386.96
751.523	5368.2
751.921	5416.51
752.318	5377.27
752.716	5444.4
753.113	5462.47
753.511	5489.21
753.908	5489.58
754.305	5469.64
754.703	5540.86
755.1	5611.38
755.497	5682.27
755.894	5901.34
756.291	6104.92
756.688	6480.86
757.085	6981.06
757.482	7681.56
757.878	8451.48
758.275	9148.57
758.672	10105.33
759.068	10877.7
759.465	11985.81
759.861	13416.44
760.258	15081.54
760.654	15941.32
761.05	15812.89
761.447	15097.89
761.843	14056.48
762.239	12984.3
762.635	12501.75
763.031	12038.48
763.427	11373.98
763.822	10666.43
764.218	9968.28
764.614	9058.37
765.01	8453.27
765.405	8058.28
765.801	7755.41
766.196	7374.71
766.592	7159.96
766.987	6797.46
767.382	6550.56
767.778	6445.82
768.173	6297.31
768.568	6213.32
768.963	6069.51
769.358	6088.51
769.753	6037.05
770.148	5941.21
770.542	5940.03
770.937	5904.98
771.332	6010.64
771.726	6034.39
772.121	5963.34
772.515	6023.94
772.91	6007.9
773.304	6091.6
773.699	6015.88
774.093	6075.92
774.487	6140.31
774.881	6190.72
775.275	6185.99
775.669	6137.96
776.063	6189.32
776.457	6230.33
776.851	6146.28
777.245	6138.35
777.638	6175.68
778.032	6307.91
778.425	6266.55
778.819	6313.19
779.212	6265.58
779.606	6214.99
779.999	6237.89
780.392	6219.89
780.786	6313.55
781.179	6336.43
781.572	6385.46
781.965	6397.93
782.358	6329.08
782.751	6393.71
783.143	6340.24
783.536	6423.24
783.929	6475.79
784.322	6605.01
784.714	6635.94
785.107	6629.49
785.499	6712.87
785.891	6686.55
786.284	6664.39
786.676	6829.19
787.068	6806.98
787.46	6866.21
787.852	6888.47
788.245	6983.24
788.636	7017.17
789.028	7095.72
789.42	7143.92
789.812	7153.44
790.204	7265.05
790.595	7380.01
790.987	7157.98
791.378	7186.29
791.77	7332.79
792.161	7485.75
792.553	7554.83
792.944	7431.46
793.335	7357.51
793.726	7443
794.117	7546.44
794.508	7701.16
794.899	7665.08
795.29	7825.52
795.681	7887.4
796.072	7726.18
796.463	7515.71
796.853	7524.99
797.244	7700.1
797.634	7738.56
798.025	7734.17
798.415	7747.82
798.806	7847.07
799.196	7946.98
799.586	8005.35
799.976	7965.48
800.366	8231.17
800.756	8504.6
801.146	8459.88
801.536	8492.34
801.926	8573.15
802.316	8605.77
802.706	8685.39
803.095	8544.88
803.485	8660.36
803.874	8706.92
804.264	9003.01
804.653	8968.18
805.043	9135.75
805.432	9254.59
805.821	9260.46
806.21	9288.36
806.599	9421.86
806.988	9474.46
807.377	9599.84
807.766	9749.14
808.155	10072.86
808.544	9769.49
808.933	9786.09
809.321	9763.88
809.71	10105.62
810.098	10282.15
810.487	10805.85
810.875	11354.88
811.264	11385.52
811.652	11715.43
812.04	11878.78
812.428	12063.14
812.816	12940.96
813.204	13422.88
813.592	14051.64
813.98	14442.14
814.368	14335.18
814.756	14887.3
815.144	14791.33
815.531	15317.82
815.919	15231.99
816.306	15578.6
816.694	15227.3
817.081	15278.18
817.469	15663.75
817.856	15658.37
818.243	15948.69
818.63	16396.71
819.017	15926.12
819.404	16003.38
819.791	16440.01
820.178	17145.5
820.565	17425.02
820.952	18488.05
821.339	17926.42
821.725	18140.7
822.112	17292.5
822.498	17252.67
822.885	17401.72
823.271	17283.17
823.657	17750.83
824.044	17757.39
824.43	17831.12
824.816	17795.6
825.202	17295.69
825.588	18458.37
825.974	18482.96
826.36	19067.36
826.746	19105.68
827.132	19509.97
827.517	19480.69
827.903	18589.67
828.289	18626.73
828.674	17752.12
829.06	17635.19
829.445	18093.23
829.83	18496.5
830.216	19028.27
830.601	19437.59
830.986	18979.03
831.371	18820.44
831.756	19448.42
832.141	18971.03
832.526	18962.16
832.911	19280.61
833.295	19153.53
833.68	19679.61
834.065	18971.95
834.449	17937.83
834.834	17853.24
835.218	17852.83
835.603	18242.28
835.987	18008.39
836.371	18951.55
836.755	18841.91
837.139	19295.78
837.524	19567.17
837.908	19364.64
838.291	19439.27
838.675	19523.15
839.059	19774.07
839.443	19757.2
839.827	19493.11
840.21	20032.52
840.594	19865.09
840.977	20098.2
841.361	20073.82
841.744	20509.12
842.127	20327.86
842.511	20597.06
842.894	21266.18
843.277	21699.12
843.66	22310.41
844.043	22404.1
844.426	21496.82
844.809	21138.01
845.191	21170.68
845.574	20649.43
845.957	20228.24
846.339	20106.51
846.722	19520.97
847.104	19594.38
847.487	19395.14
847.869	19410.36
848.252	19727.52
848.634	20098.7
849.016	20401.85
849.398	20544.81
849.78	21507.77
850.162	21511.53
850.544	21984.07
850.926	22694.44
851.307	22601.1
851.689	22916.46
852.071	23428.42
852.452	23787.04
852.834	23765.77
853.215	24205.06
853.597	24383.37
853.978	24723.02
854.359	25243.64
854.741	24111.03
855.122	23992.75
855.503	23666.52
855.884	23814.78
856.265	23745.63
856.646	23882.77
857.026	23432.75
857.407	23352.59
857.788	23524.2
858.169	23833.38
858.549	22865.67
858.93	23579.61
859.31	23639.78
859.69	23874.41
860.071	23418.42
860.451	23170.29
860.831	22332.28
861.211	23639.57
861.591	24265.21
861.971	24239.13
862.351	24467.28
862.731	24906.73
863.111	25200.89
863.491	25578.7
863.87	26568.15
864.25	26964.12
864.629	26527.71
865.009	27115.14
865.388	28095.08
865.768	30117.35
866.147	30008.18
866.526	28336.99
866.905	28675.81
867.284	30282.49
867.663	28758.15
868.042	27563.04
868.421	27467.7
868.8	27914.54
869.179	28188.55
869.558	26532.94
869.936	24446.24
870.315	24875.7
870.693	25495.11
871.072	27487.68
871.45	26190.9
871.828	26521.53
872.207	27880.9
872.585	27471.27
872.963	28218.45
873.341	27251.55
873.719	26926.46
874.097	26602.25
874.475	27121.01
874.853	27742.06
875.23	26606.1
875.608	27707.4
875.986	29958.52
876.363	28654.51
876.741	29518.27
877.118	28785.72
877.495	30200.81
877.873	30720.11
878.25	32338.21
878.627	31006.19
879.004	31433.14
879.381	31275.35
879.758	30449.24
880.135	28360.54
880.512	30012.42
880.889	29223.5
881.265	28904.79
881.642	28650.38
882.019	29114.12
882.395	28527.11
882.772	29660.48
883.148	28370.08
883.524	28258.56
883.901	28116.89
884.277	28528.52
884.653	28323.69
885.029	29133.04
885.405	32259.84
885.781	32009.18
886.157	30696.78
886.532	31060.67
886.908	31046.05
887.284	34521.35
887.659	35657.82
888.035	36758.22
888.411	37703.13
888.786	38200.39
889.161	39524.78
889.537	38810.23
889.912	40058.89
890.287	40032.67
890.662	41079.62
891.037	40327.4
891.412	37615.84
891.787	37230.1
892.162	35928.34
892.536	36780.58
892.911	35407.42
893.286	34649.11
893.66	33241.73
894.035	34094.67
894.409	37124.3
894.784	35627.6
895.158	36228.89
895.532	38376.57
895.906	39418.99
896.281	40360.1
896.655	39707.67
897.029	45374.61
897.402	47274.5
897.776	52622.26
898.15	52441.82
898.524	51881.43
898.898	52577.03
899.271	58859.66
899.645	50951.71
900.018	48950.99
900.392	50724.07
900.765	51139.08
901.138	47333.79
901.511	46615.24
901.884	42840.29
902.258	39527.88
902.631	40842.85
903.003	46988.34
903.376	42388.82
903.749	47569.53
904.122	50926.05
904.495	56112.28
904.867	56838.49
905.24	49336.83
905.612	45933.58
905.985	46966.17
906.357	49083.48
906.729	46851.61
907.102	40042.11
907.474	38503.06
907.846	38732.6
908.218	38221.34
908.59	33766.32
908.962	32658.99
909.334	35176.23
909.705	36948.43
910.077	35863.95
910.449	37324.42
910.82	38373.65
911.192	42213.28
911.563	43868.29
911.935	46970.16
912.306	47012.6
912.677	48541.43
913.048	48035.85
913.419	52110.48
913.79	52407.4
914.161	56187.28
914.532	53699.54
914.903	49319.5
915.274	46834.06
915.645	46147.48
916.015	40608.75
916.386	38722.35
916.756	41217.23
917.127	42514.82
917.497	37960.6
917.868	41320.7
918.238	39245.93
918.608	40402
918.978	41252.77
919.348	43695.13
919.718	45166.03
920.088	43468.89
920.458	45138.56
920.828	47521.15
921.198	45058.26
921.567	48183.52
921.937	37326.78
922.306	37700.85
922.676	40645.27
923.045	33913.73
923.415	32211.63
923.784	29314.84
924.153	30160.02
924.522	30152.61
924.891	28327.8
925.26	30343.38
925.629	29624.52
925.998	34045.5
926.367	33240.21
926.736	31660.13
927.104	37712.45
927.473	40539.83
927.842	48997.53
928.21	48544.65
928.578	51017.78
928.947	48259.9
929.315	48573.99
929.683	56953.86
930.051	57434.92
930.42	66705.65
930.788	57033.74
931.156	56612.01
931.523	53115.61
931.891	49065.57
932.259	47111.96
932.627	54633.68
932.994	77346.97
933.362	63931.1
933.729	55548.05
934.097	53165.71
934.464	44990.65
934.831	51920.7
935.199	51198.72
935.566	49634.64
935.933	50317.25
936.3	61003.06
936.667	47485.63
937.034	42824.33
937.401	42346.89
937.767	36527.63
938.134	32526.06
938.501	45878.53
938.867	48908.1
939.234	82677.7
939.6	70530.38
939.967	77742.65
940.333	52020.17
940.699	44298.81
941.065	35565.13
941.431	46630.9
941.798	44946.88
942.163	59064.68
942.529	36905.34
942.895	33963.82
943.261	21971.83
943.627	28840.34
943.992	25251.9
944.358	25281.87
944.723	25369.9
945.089	24707.64
945.454	22823.99
945.82	24399.1
946.185	23429.38
946.55	27137.02
946.915	24328.85
947.28	28538.59
947.645	25102.61
948.01	23168.2
948.375	24152.42
948.74	28940.04
949.104	33778.87
949.469	48796.87
949.834	86207.48
950.198	81677.86
950.562	48952.41
950.927	40773.86
951.291	49034.33
951.655	41778.9
952.02	39214.59
952.384	29652.33
952.748	25814.82
953.112	25176.49
953.476	21884.22
953.839	20237.43
954.203	20032.94
954.567	25063.71
954.931	39521.06
955.294	33819.22
955.658	34024.72
956.021	57876.85
956.385	98210.63
956.748	144884.26
957.111	224642.17
957.474	252363.4
957.837	284131.59
958.2	215082.77
958.563	77407.65
958.926	52283.7
959.289	79326.61
959.652	88675.49
960.015	66555.36
960.377	95549.96
960.74	109064.01
961.102	188210.66
961.465	202090.18
961.827	108234.74
962.189	207754.58
962.552	143889.25
962.914	115413.24
963.276	74936.21
963.638	61995.25
964	61414.47
964.362	41465.65
964.724	40073.49
965.085	28589.52
965.447	23429.25
965.809	26717
966.17	26746.64
966.532	28948.74
966.893	26569.27
967.255	24182.19
967.616	28507.35
967.977	22816.1
968.338	24932.76
968.699	20503.96
969.061	20504.98
969.421	20653.8
969.782	23178.82
970.143	19576.05
970.504	20271.5
970.865	23016.29
971.225	23526.9
971.586	23017.15
971.946	32840.83
972.307	28494.1
972.667	37289.99
973.027	38401.88
973.388	46549.93
973.748	31663.64
974.108	34492.09
974.468	46696.89
974.828	36025.81
975.188	27741.89
975.548	25461.52
975.907	21374.17
976.267	23972.91
976.627	20123.96
976.986	20867.39
977.346	19893.65
977.705	19126.35
978.064	17417.47
978.424	14495.23
978.783	15006.06
979.142	17112.68
979.501	16397.17
979.86	17337.56
980.219	16710.58
980.578	21552.79
980.937	24172.05
981.296	21548.19
981.654	22152.2
982.013	34473.51
982.371	44730.51
982.73	41755.9
983.088	47345.43
983.447	50538.56
983.805	72251.24
984.163	151153.72
984.521	167842.47
984.879	245825.72
985.237	-400623.37
985.595	387027.22
985.953	96239.5
986.311	55617.36
986.669	32333.26
987.026	27872.72
987.384	37508.37
987.741	38734.47
988.099	27661.11
988.456	22056.45
988.814	20647.64
989.171	17922
989.528	17696.09
989.885	18674.46
990.242	14786.72
990.599	18367.34
990.956	15027.92
991.313	10509.84
991.67	8628.77
992.027	9143.76
992.383	8132.46
992.74	7127.13
993.096	7478.22
993.453	7735.92
993.809	8022.35
994.165	10689.74
994.522	9810.23
994.878	10808.59
995.234	13569.32
995.59	13391.28
995.946	12682.71
996.302	14455.1
996.658	16731.9
997.013	18409.36
997.369	21825.62
997.725	27968.17
998.08	18093.24
998.436	27913.99
998.791	38506.45
999.147	38465.31
999.502	41994.78
999.857	30564.52
1000.212	49863.21
1000.567	71004.35
1000.922	40957.4
1001.277	26038.41
1001.632	19317.41
1001.987	24916.94
1002.342	17875
1002.696	14336.98
1003.051	11436.66
1003.406	13841.92
1003.76	13775.3
1004.114	13565.67
1004.469	11404.17
1004.823	9457
1005.177	10210.31
1005.531	8088.21
1005.885	7150.67
1006.239	8075.58
1006.593	10102.27
1006.947	13493.94
1007.301	10106.67
1007.655	11030.93
1008.008	8084.82
1008.362	9081.36
1008.715	12962.55
1009.069	11805.54
1009.422	17750.37
1009.776	35692.13
1010.129	23641.88
1010.482	19781.9
1010.835	16726.01
1011.188	34906.56
1011.541	32747.42
1011.894	-200516.59
1012.247	590616.62
1012.6	40257.13
1012.952	25353.29
1013.305	13053.88
1013.657	9416.54
1014.01	8908.6
1014.362	7339.85
1014.715	6534.5
1015.067	5703.41
1015.419	5578.09
1015.771	4936.09
1016.123	4386.62
1016.475	4488.11
1016.827	4790.23
1017.179	5156.34
1017.531	5196.64
1017.883	5311.6
1018.234	5140.91
1018.586	6485.04
1018.938	6868.57
1019.289	9516.53
1019.64	10913.4
1019.992	10173.14
1020.343	9347.35
1020.694	7370.03
1021.045	6532.72
1021.396	7465.67
1021.747	8024.59
1022.098	9634.22
1022.449	7002.5
1022.8	6469.31
1023.151	4503.14
1023.501	3989.2
1023.852	4350.82
1024.202	4507.67
1024.553	4948.46
1024.903	4835.29
1025.253	4123.74
1025.604	3706.38
1025.954	4593.52
1026.304	5598.79
1026.654	6547.68
1027.004	9568.33
1027.354	15469.66
1027.703	14519.99
1028.053	19105.94
1028.403	27825.49
1028.753	40267.75
1029.102	55062.19
1029.452	284101.36
1029.801	12277.68
1030.15	7915.02
1030.499	6701.53
897.758	2908.54
901.051	2884.03
904.343	2922.93
907.636	2916.76
910.928	2982.4
914.22	2886.19
917.511	2898.37
920.803	2970.5
924.094	3002.54
927.384	2967.94
930.675	2938.53
933.965	2886.51
937.255	2882.54
940.544	2849.24
943.834	2757.29
947.123	2707.41
950.411	2811.17
953.7	2779.39
956.988	2734.98
960.276	2680.65
963.563	2779.97
966.851	2765.22
970.138	2833.09
973.424	2820.89
976.711	2765.9
979.997	2949.6
983.283	2976.08
986.568	2864.43
989.853	2898.94
993.138	2928.59
996.423	3003.75
999.708	2931.86
1002.992	3021.47
1006.275	2812.19
1009.559	2884.79
1012.842	3011.54
1016.125	2929.87
1019.408	2907.68
1022.69	3013.16
1025.972	3018.36
1029.254	2993.94
1032.536	2911.11
1035.817	2945.55
1039.098	2869.19
1042.379	3067.09
1045.659	3045.03
1048.939	2970.59
1052.219	2998.29
1055.498	3024.88
1058.778	3001.61
1062.057	2992.24
1065.335	3011.51
1068.614	3033.44
1071.892	3008.59
1075.17	3100.01
1078.447	3081.71
1081.724	3068.74
1085.001	3111.88
1088.278	3086.02
1091.554	3100.13
1094.83	3100.36
1098.106	3124.07
1101.382	3177.29
1104.657	3180.21
1107.932	3173.73
1111.206	3128.4
1114.481	3088.58
1117.755	3097.39
1121.029	3067.57
1124.302	3117.7
1127.575	3059.83
1130.848	3040.46
1134.121	2997.64
1137.393	2939.09
1140.665	3016.77
1143.937	2989.74
1147.208	2955.74
1150.48	2985.14
1153.75	2969.31
1157.021	3019.67
1160.291	2982.66
1163.561	3026.4
1166.831	3028.79
1170.101	3064.23
1173.37	3048.7
1176.639	2979.92
1179.907	3049.95
1183.176	3049.71
1186.444	3060.92
1189.711	3089.02
1192.979	3091.68
1196.246	3051.53
1199.513	3070.85
1202.78	3064.94
1206.046	3074.14
1209.312	3099.77
1212.578	3129.8
1215.843	3074.68
1219.108	3050.34
1222.373	3073.6
1225.638	3031.06
1228.902	3012.68
1232.166	2980.71
1235.43	2961.01
1238.693	2983.12
1241.956	2983.13
1245.219	3016.76
1248.482	3018.07
1251.744	3005.94
1255.006	3173.56
1258.268	3132.57
1261.529	3070.22
1264.79	3081.61
1268.051	3194.7
1271.312	3213.51
1274.572	3169.29
1277.832	3159.92
1281.092	3156.87
1284.351	3115.92
1287.61	3092.4
1290.869	2995.49
1294.128	2958.65
1297.386	3075.28
1300.644	3057.52
1303.902	3068.77
1307.159	2921.33
1310.416	2979.34
1313.673	3000.67
1316.93	2976.95
1320.186	3032.54
1323.442	3084.12
1326.697	3062.84
1329.953	3065.03
1333.208	3076.88
1336.463	3064.76
1339.717	2988.78
1342.972	3131.05
1346.226	3114.2
1349.479	3036.55
1352.733	2999.56
1355.986	3035.97
1359.238	3005.99
1362.491	3007.57
1365.743	3013.49
1368.995	3012.06
1372.247	3024.8
1375.498	3053.05
1378.749	3059.51
1382	3013.59
1385.251	3078.53
1388.501	3045.23
1391.751	3015.35
1395	2991.16
1398.25	3027.71
1401.499	3026.3
1404.748	2936.97
1407.996	2919.09
1411.244	2901.11
1414.492	2878.4
1417.74	2853.26
1420.987	2868.17
1424.234	2920.64
1427.481	2912.59
1430.728	2970.74
1433.974	2943.1
1437.22	2966.97
1440.465	2973.92
1443.711	2928.76
1446.956	2972.15
1450.201	2971.32
1453.445	3019.68
1456.689	2987.77
1459.933	3005.92
1463.177	3035.34
1466.42	3005.18
1469.663	2986.07
1472.906	2966.9
1476.148	3076.71
1479.391	3005.14
1482.633	2983.27
1485.874	2988.2
1489.115	2963.94
1492.356	2984.89
1495.597	2954.25
1498.838	2962.76
1502.078	2922.5
1505.318	2859.52
1508.557	2908.48
1511.797	2855.57
1515.036	2970.06
1518.274	2955.81
1521.513	2937.02
1524.751	2964.05
1527.989	2971.59
1531.227	2984.27
1534.464	2964.42
1537.701	3002.16
1540.938	3025.66
1544.174	2982.05
1547.41	2987.76
1550.646	3027.62
1553.882	3058.85
1557.117	3111.25
1560.352	3130.92
1563.587	3084.62
1566.821	3038.75
1570.055	3085.66
1573.289	3052.61
1576.523	3141.42
1579.756	3144.06
1582.989	3159.17
1586.222	3119.73
1589.454	3162.43
1592.686	3131.97
1595.918	3154.12
1599.15	3138.73
1602.381	3232.08
1605.612	3173.06
1608.843	3273.82
1612.073	3177.29
1615.303	3158.04
1618.533	3147.57
1621.762	3154.25
1624.992	3150.36
1628.221	3126.14
1631.449	3111.46
1634.678	3187.1
1637.906	3135.45
1641.134	3183.82
1644.361	3130.21
1647.588	3117.32
1650.815	3131.8
1654.042	3117
1657.269	3151.56
1660.495	3095.91
1663.72	3082.79
1666.946	3055.04
1670.171	2974.32
1673.396	2950.85
1676.621	2944.24
1679.845	2982.51
1683.069	3010.38
1686.293	3060.47
1689.517	3023.77
1692.74	2935.05
1695.963	2964.41
1699.185	3016.76
1702.408	2982.72
1705.63	3031.97
1708.852	3040.75
1712.073	3011.68
1715.294	2979.74
1718.515	3051.37
1721.736	2990.46
1724.956	2987.72
1728.176	3017
1731.396	3038.91
1734.616	3028.39
1737.835	3049.44
1741.054	3036.44
1744.272	3029.19
1747.491	3052.49
1750.709	3123.4
1753.927	3001.96
1757.144	3061.7
1760.361	3094.67
1763.578	3099.79
1766.795	3032.79
1770.011	3047.41
1773.227	3101.25
1776.443	3128.25
1779.658	3172.8
1782.874	3120.85
1786.089	3088.4
1789.303	3091.35
1792.518	3100.77
1795.732	3089.2
1798.945	3091.43
1802.159	3151.62
1805.372	3030.56
1808.585	3005.42
1811.797	3009.07
1815.01	3074.16
1818.222	3071.19
1821.434	3003.17
1824.645	3083.88
1827.856	3049.51
1831.067	3086.86
1834.278	3060.2
1837.488	3037.07
1840.698	3204.84
1843.908	3116.89
1847.117	3079.55
1850.326	2934.22
1853.535	3056.48
1856.744	3126.31
1859.952	3022.41
1863.16	3024.68
1866.368	3050.04
1869.575	3147.08
1872.782	3036.68
1875.989	2973.87
1879.196	3080.14
1882.402	3070.72
1885.608	3115.25
1888.814	2995.4
1892.019	2880.61
1895.224	2932.15
1898.429	2920.56
1901.634	2894.45
1904.838	2873.76
1908.042	2915.62
1911.246	2920.95
1914.449	2831.3
1917.652	2836.35
1920.855	2821.21
1924.058	2883.93
1927.26	2914.49
1930.462	2947.94
1933.664	2964.72
1936.865	2901.24
1940.066	2900.57
1943.267	2852.1
1946.467	2871.63
1949.668	2903.81
1952.868	2973.19
1956.067	2942.99
1959.267	2868.1
1962.466	2898.5
1965.665	2882.38
1968.863	2886.11
1972.061	2905.87
1975.259	2910.44
1978.457	2993.52
1981.654	2947.5
1984.852	2946.28
1988.048	2865.6
1991.245	2876.89
1994.441	2962.74
1997.637	2963.41
2000.833	2948.11
2004.028	2985.82
2007.223	3040.08
2010.418	3006.21
2013.613	2970.62
2016.807	2929.37
2020.001	2944.78
2023.194	3000.95
2026.388	2972.85
2029.581	2920.25
2032.774	2960.06
2035.966	2959.6
2039.158	2882.14
2042.35	2910.34
2045.542	2841.33
2048.733	2955.78
2051.924	3000.37
2055.115	3036.88
2058.306	2966.31
2061.496	3028.32
2064.686	3102.49
2067.875	3020.33
2071.065	3046.02
2074.254	3077.88
2077.442	3027.17
2080.631	3123.65
2083.819	2987.77
2087.007	2962.86
2090.195	2923.29
2093.382	2971.07
2096.569	2949.01
2099.756	2894.31
2102.942	2906.87
2106.128	2901.72
2109.314	2897.24
2112.5	2848.52
2115.685	2827.73
2118.87	2840.32
2122.055	2906.61
2125.239	2863.76
2128.424	2827.23
2131.608	2957.84
2134.791	2941.48
2137.974	3011.07
2141.157	2995.31
2144.34	2932.28
2147.523	2966.56
2150.705	2972.52
2153.887	2958.66
2157.068	2893.27
2160.25	2910.86
2163.431	2960.39
2166.611	2889.41
2169.792	2900.87
2172.972	2785.2
2176.152	2884.07
2179.331	2924.4
2182.511	2888.86
2185.69	2920.9
2188.868	2906.47
2192.047	2977.61
2195.225	2950.42
2198.403	2898.23
2201.58	2898.15
2204.758	2901.19
2207.935	2987.92
2211.111	2853.65
2214.288	2835.5
2217.464	2880.05
2220.64	2862.94
2223.815	2926.41
2226.991	2836.52
2230.166	2858.32
2233.34	2880.07
2236.515	2911.91
2239.689	2985.13
2242.863	2927.14
2246.036	2991.43
2249.209	2998.19
2252.382	3044.04
2255.555	3018.32
2258.727	2945.13
2261.9	2993.19
2265.071	2985.64
2268.243	2989.54
2271.414	2909.4
2274.585	2857.24
2277.756	2928.63
2280.926	2884.87
2284.096	2935.38
2287.266	2826.34
2290.436	2887.4
2293.605	2922.77
2296.774	2945.4
2299.942	2978.73
2303.111	2996.43
2306.279	3043.31
2309.447	3034.85
2312.614	3012.27
2315.781	3024.82
2318.948	2993.27
2322.115	3031.68
2325.281	2935.59
2328.447	2963.15
2331.613	2942.14
2334.779	2902.4
2337.944	2911.94
2341.109	2904.83
2344.274	2880.89
2347.438	2846.37
2350.602	2876.27
2353.766	2892.31
2356.929	2877.46
2360.092	2919.68
2363.255	2858.48
2366.418	2771.13
2369.58	2912.37
2372.742	2649.64
2375.904	2676.29
2379.066	2646.02
2382.227	2688.3
2385.388	2649.59
2388.548	2562.18
2391.709	2626.98
2394.869	2600.19
2398.029	2727.84
2401.188	2753.48
2404.347	2667.26
2407.506	2841.85
2410.665	2870.05
2413.823	2888.35
2416.981	2829.96
2420.139	2872.73
2423.296	2927.92
2426.453	2898.54
2429.61	2929.76
2432.767	2838.85
2435.923	2874.9
2439.079	2812.86
2442.235	2874.97
2445.391	2789.64
2448.546	2807.26
2451.701	2867.73
2454.855	2820.76
2458.009	2889.54
2461.163	2902.06
2464.317	2849.22
2467.471	2888.5
2470.624	2932.8
2473.777	2931.14
2476.929	2940.69
2480.082	2966.47
2483.234	2927.64
2486.385	2862.95
2489.537	2855.29
2492.688	2801.32
2495.839	2818.35
2498.989	2824.09
2502.14	2806.34
2505.29	2784.03
2508.439	2810.83
2511.589	2722.83
2514.738	2745.12
2517.887	2779.53
2521.035	2866.35
2524.183	2862.86
2527.331	2832.88
2530.479	2794.83
2533.627	2811.4
