Data from C_2_DEC_OH_4N_Splice17_12-05-01-491.txt Node
Date: Sat Mar 14 12:05:01 EDT 2020
User: sa697716
Spectrometer: FLMS03696
Trigger mode: 0
Integration Time (sec): 3.180400E-1
Scans to average: 20
Electric dark correction enabled: true
Nonlinearity correction enabled: true
Boxcar width: 5
XAxis mode: Wavelengths
Number of Pixels in Spectrum: 2048
>>>>>Begin Spectral Data<<<<<
187.83	-250370.6
188.298	1865.41
188.766	964.08
189.233	781.73
189.701	1136.02
190.169	1594.44
190.636	576.59
191.104	439.93
191.571	19.42
192.039	-96.65
192.506	-193.92
192.974	74.59
193.441	-336.86
193.908	-40.04
194.375	-40.7
194.842	-8.52
195.31	23.9
195.777	153.58
196.244	353.21
196.711	382.52
197.177	466.05
197.644	645.11
198.111	1122.22
198.578	1589.07
199.045	1249.88
199.511	2022.43
199.978	2358.18
200.445	2020.21
200.911	2179.66
201.378	2397.42
201.844	2212.7
202.31	3738.95
202.777	3902.47
203.243	2168.77
203.709	2069.25
204.176	2492.19
204.642	2062.46
205.108	1915.42
205.574	1568.12
206.04	1434.97
206.506	1339.71
206.972	1243.92
207.438	1226.48
207.903	1380.55
208.369	1224.36
208.835	1232.15
209.301	1288.99
209.766	1309.13
210.232	1307.71
210.697	1592.88
211.163	1965.75
211.628	2973.51
212.094	2488.81
212.559	3029.83
213.024	1884.73
213.49	2286.73
213.955	2216.42
214.42	2147.12
214.885	2000.13
215.35	1923.97
215.815	1872.43
216.28	1964.88
216.745	1584.56
217.21	1703.95
217.675	1519.69
218.14	1679.63
218.604	1837.11
219.069	2073.21
219.534	2163.45
219.998	2474.76
220.463	2946.32
220.927	3564
221.392	3329.03
221.856	3370.2
222.32	4180.97
222.785	5188.7
223.249	6511.04
223.713	7232.92
224.177	7192.64
224.642	9161.97
225.106	11239.65
225.57	12282.77
226.034	9142.05
226.497	13890.8
226.961	12525.47
227.425	14629.58
227.889	16176.08
228.353	16141.15
228.816	33296.18
229.28	31874.63
229.744	26812.06
230.207	16329.44
230.671	16070.5
231.134	26502.61
231.597	30569.19
232.061	30514.26
232.524	29698.06
232.987	20423.6
233.45	18367.39
233.914	16473.79
234.377	16826.91
234.84	15457.01
235.303	18182.61
235.766	20247.72
236.229	20899.46
236.691	13159.58
237.154	14745.78
237.617	11115.13
238.08	11400.16
238.542	13370.61
239.005	9565.68
239.468	9514.53
239.93	8956.02
240.393	8155.77
240.855	7169.67
241.317	7348.9
241.78	8939.44
242.242	9264.96
242.704	10020.45
243.166	8737.69
243.629	7957.63
244.091	9181.77
244.553	10082.66
245.015	10857.84
245.477	14027.92
245.939	20556.49
246.4	21842.86
246.862	21268.35
247.324	20082.68
247.786	22472.76
248.247	29413.86
248.709	30325.59
249.17	22723.67
249.632	21449.61
250.093	24902.08
250.555	21534.5
251.016	13178.47
251.477	12519.31
251.939	13534.84
252.4	14215.21
252.861	16933.01
253.322	15807.49
253.783	18801.02
254.244	24369.01
254.705	19209.28
255.166	17068.38
255.627	16829.01
256.088	23738.77
256.549	25245.75
257.009	21730.55
257.47	26428.44
257.931	21514.07
258.391	16110.94
258.852	16656.65
259.312	17486.87
259.773	21609.66
260.233	18331.12
260.694	15494.05
261.154	17591.44
261.614	14142.39
262.074	12680.6
262.534	13187.49
262.994	12465.56
263.455	16647.92
263.915	14052.51
264.374	13258.49
264.834	14502.22
265.294	16075.93
265.754	16716.49
266.214	15851.18
266.673	14901.92
267.133	18833.93
267.593	18727.55
268.052	22976.58
268.512	20037.75
268.971	24222.1
269.431	26599.4
269.89	23880.32
270.349	35925.7
270.809	40061.99
271.268	36105.06
271.727	81116.32
272.186	52652.96
272.645	39536.66
273.104	28536.12
273.563	41342.17
274.022	32581.82
274.481	27842.74
274.94	21505.39
275.399	15989.08
275.857	18647.38
276.316	25247.22
276.775	22490.62
277.233	22185.96
277.692	20816.3
278.15	23577.97
278.609	24343.13
279.067	22568.2
279.525	20980.05
279.984	27116.66
280.442	32630.21
280.9	32264.55
281.358	21259.85
281.816	19850.91
282.274	19431.64
282.732	20058.38
283.19	20150.22
283.648	17382.95
284.106	18485.29
284.564	18804.15
285.021	17451.5
285.479	13043.84
285.937	11863.06
286.394	10433.75
286.852	10734.35
287.309	11315.9
287.767	10957.67
288.224	10481.6
288.682	11532.25
289.139	12712.36
289.596	11631.37
290.053	12105.39
290.511	15277.9
290.968	18561.15
291.425	25198.27
291.882	21050.13
292.339	18340.21
292.796	18240.73
293.252	17203.82
293.709	13692.02
294.166	12270.82
294.623	13600.25
295.079	13071.82
295.536	13150.91
295.992	11956.15
296.449	11834.12
296.905	12278.74
297.362	11798.01
297.818	12412.08
298.274	12874.55
298.731	13101.66
299.187	12978
299.643	13926.72
300.099	16857.64
300.555	18496.24
301.011	15445.29
301.467	14921.41
301.923	17482.47
302.379	17089.4
302.835	16817.9
303.291	16854.43
303.746	19191.11
304.202	24275.55
304.658	24443.46
305.113	16447.69
305.569	16135.7
306.024	17245.11
306.479	16449.18
306.935	13898.02
307.39	15176.79
307.845	14021.69
308.301	14120.74
308.756	13776.27
309.211	13280.26
309.666	13592.2
310.121	16883.11
310.576	17136.41
311.031	17000.89
311.486	19446.15
311.94	19455.6
312.395	26004.91
312.85	48914.85
313.305	240510.11
313.759	1249332.38
314.214	90712.44
314.668	72091.81
315.123	60762.69
315.577	21842.82
316.032	19457.19
316.486	24394.05
316.94	19254.67
317.394	13445.49
317.849	10460.77
318.303	9892.45
318.757	9316.84
319.211	10298.88
319.665	9020.11
320.119	9149.73
320.572	13125.01
321.026	12284.13
321.48	10245.57
321.934	11180.39
322.387	11214.44
322.841	12131.77
323.295	10962.67
323.748	12654.03
324.202	12884.11
324.655	15507.33
325.108	21694.14
325.562	15337.34
326.015	18216.13
326.468	13769.67
326.921	15397.57
327.374	14372.74
327.827	14950.79
328.28	16913.51
328.733	11336.94
329.186	9932.83
329.639	9461.37
330.092	7956
330.545	7590.32
330.997	7685.61
331.45	8410.9
331.903	9885.92
332.355	16975.09
332.808	16519.63
333.26	13634.75
333.713	14837.48
334.165	15002.74
334.617	20016.96
335.069	16204.89
335.522	29297.64
335.974	32399.33
336.426	29619.87
336.878	20470.55
337.33	10417.56
337.782	10170.74
338.234	12761.47
338.686	15250.08
339.137	18044.13
339.589	16982.51
340.041	13329.09
340.493	11439.86
340.944	11702.16
341.396	12602.1
341.847	10625.73
342.299	12518.91
342.75	15312.44
343.201	13349.84
343.653	15361.53
344.104	18857.84
344.555	14894.21
345.006	23136.26
345.457	17755.47
345.908	14128.85
346.359	13306.7
346.81	10822.67
347.261	11416.31
347.712	11250.6
348.163	12083.19
348.613	12280.87
349.064	11487.07
349.515	10044.24
349.965	10338.1
350.416	12476.09
350.866	13713.21
351.317	15527.91
351.767	25783.81
352.217	32600.04
352.668	27109.01
353.118	24841.6
353.568	23916.83
354.018	18934.01
354.468	19993.5
354.918	14327.53
355.368	12510.16
355.818	17683.55
356.268	50888.24
356.718	213004.11
357.168	53077.37
357.617	26618.26
358.067	29624.55
358.517	27742.54
358.966	32555.84
359.416	36579.22
359.865	39472.63
360.315	47037.17
360.764	21966.28
361.213	12304.02
361.663	11668.74
362.112	14414.72
362.561	23262.13
363.01	17567.73
363.459	14779.87
363.908	16029.11
364.357	13640.71
364.806	23082.72
365.255	15884.72
365.703	14554.18
366.152	14620.8
366.601	11865.2
367.05	9647.75
367.498	8779.97
367.947	9161.76
368.395	9533.82
368.844	8443.45
369.292	10158.87
369.74	7031
370.189	10761.6
370.637	12588.74
371.085	10825.78
371.533	13160.73
371.981	12692.78
372.429	12074.38
372.877	12574.81
373.325	10539.46
373.773	10714.02
374.221	9523.43
374.669	11769.97
375.116	10180.7
375.564	10277.44
376.012	11500.5
376.459	9476.21
376.907	11283.43
377.354	13661.25
377.801	12735.19
378.249	14609.68
378.696	18677.35
379.143	22584.46
379.591	24143.67
380.038	40900.91
380.485	29574.61
380.932	31889.24
381.379	29160.65
381.826	21470.55
382.273	15241.22
382.72	13325.98
383.166	12984.37
383.613	8403.71
384.06	7565.29
384.506	8740.66
384.953	6408.85
385.4	6444.24
385.846	5645.33
386.292	5496.08
386.739	5373.53
387.185	5312.39
387.631	5308.92
388.078	5167.61
388.524	5532.11
388.97	5125.26
389.416	4281.98
389.862	4538.59
390.308	4304.42
390.754	4376.28
391.2	4751.47
391.645	4860.73
392.091	4667.33
392.537	4525.18
392.983	4523.71
393.428	4459.69
393.874	4775
394.319	4801.79
394.765	4571.87
395.21	4691.26
395.655	4398.08
396.101	4124.65
396.546	3734.99
396.991	3756.27
397.436	3482.74
397.881	3372.63
398.326	3203.78
398.771	3043.23
399.216	2651.96
399.661	2390.22
400.106	2388.66
400.551	2457.05
400.995	2211.3
401.44	2196.22
401.885	2069.46
402.329	2098.16
402.774	2017.14
403.218	1955.2
403.663	1884.08
404.107	1945.55
404.551	1966.12
404.995	1803.59
405.44	1733.4
405.884	1762.68
406.328	1701.75
406.772	1699.1
407.216	1548.79
407.66	1496.91
408.104	1421.96
408.547	1335.56
408.991	1294.68
409.435	1245.87
409.879	1234.53
410.322	1224.56
410.766	1185.38
411.209	1131.38
411.653	1088.26
412.096	1070.49
412.54	1070.6
412.983	1066.41
413.426	1069.98
413.869	1071.14
414.312	1053.65
414.756	1014.64
415.199	966.04
415.642	938.28
416.085	940.24
416.527	933.43
416.97	945.38
417.413	901.41
417.856	890.81
418.298	882.64
418.741	878.05
419.184	875.81
419.626	911.68
420.069	913.01
420.511	920.05
420.953	904.69
421.396	900.3
421.838	879.23
422.28	900.67
422.722	907.12
423.164	919.58
423.606	904.5
424.048	902.12
424.49	859.95
424.932	858.74
425.374	845.36
425.816	855.7
426.258	871.36
426.699	878.47
427.141	864.87
427.582	876.78
428.024	871.53
428.465	865.63
428.907	845.69
429.348	834.13
429.789	832.64
430.231	814.15
430.672	825.25
431.113	802.64
431.554	794.26
431.995	773.33
432.436	745.05
432.877	727.35
433.318	713.67
433.759	710.02
434.2	709.51
434.64	701.06
435.081	703.05
435.522	664.53
435.962	641.21
436.403	626.84
436.843	633.68
437.284	618.86
437.724	602.61
438.164	603.44
438.604	590.56
439.045	568.31
439.485	545.54
439.925	534.4
440.365	521.17
440.805	514.04
441.245	506.29
441.685	487.56
442.125	484.06
442.564	485.08
443.004	473.46
443.444	471.12
443.883	472.06
444.323	465.88
444.762	463.55
445.202	467.84
445.641	474.88
446.081	470.86
446.52	472.85
446.959	468.22
447.398	457.99
447.837	452.64
448.276	444.11
448.716	446.71
449.154	449.76
449.593	440.38
450.032	438.94
450.471	429.96
450.91	429.15
451.349	429.68
451.787	425.43
452.226	431.55
452.664	429.51
453.103	429.23
453.541	426.69
453.98	427.04
454.418	429.16
454.856	422.57
455.295	420.48
455.733	424.07
456.171	425.11
456.609	428.09
457.047	426.99
457.485	434.36
457.923	434.97
458.361	429
458.798	430.05
459.236	429.49
459.674	432.36
460.111	435.89
460.549	431.66
460.987	429.66
461.424	427.2
461.862	426.22
462.299	420.22
462.736	420.31
463.173	423.15
463.611	421.06
464.048	420.74
464.485	426.24
464.922	422.29
465.359	420.73
465.796	420.3
466.233	418.22
466.67	415.1
467.106	414.48
467.543	410.28
467.98	404.85
468.416	393.1
468.853	389.53
469.29	377.31
469.726	372.73
470.162	363.56
470.599	355.67
471.035	352.15
471.471	343.12
471.907	340.91
472.344	338.82
472.78	339.74
473.216	343
473.652	339.02
474.088	337.19
474.523	336.96
474.959	340
475.395	337.02
475.831	335.43
476.266	337.29
476.702	336.56
477.138	334.35
477.573	333.75
478.008	333.08
478.444	335.41
478.879	339.3
479.314	340.58
479.75	340.19
480.185	341.69
480.62	343.61
481.055	345.32
481.49	347.57
481.925	352.03
482.36	358.63
482.795	367.89
483.229	376.62
483.664	384.79
484.099	386.21
484.534	392.31
484.968	396.63
485.403	398.34
485.837	398.21
486.271	397.73
486.706	397.71
487.14	392.75
487.574	387.32
488.009	384.1
488.443	380.96
488.877	386
489.311	386.99
489.745	391.91
490.179	395.73
490.613	404.21
491.046	408.37
491.48	412.46
491.914	413.95
492.348	417.66
492.781	421.43
493.215	423.03
493.648	423.91
494.082	427.97
494.515	429.14
494.948	435.48
495.382	439.33
495.815	443.56
496.248	448.59
496.681	457.87
497.114	466.34
497.547	474.67
497.98	485.65
498.413	492.57
498.846	501.1
499.279	507.88
499.711	512.73
500.144	515.67
500.577	524.02
501.009	531.95
501.442	541.13
501.874	545.15
502.306	547.79
502.739	555.06
503.171	566.62
503.603	570.98
504.036	579.9
504.468	586.69
504.9	596.92
505.332	604.52
505.764	611.05
506.196	618.82
506.627	631.19
507.059	643.99
507.491	652.6
507.923	654.53
508.354	668.34
508.786	678.82
509.217	693.74
509.649	707.51
510.08	723.95
510.512	739.15
510.943	752.84
511.374	763.41
511.805	780.73
512.237	797.58
512.668	823.38
513.099	846.89
513.53	869.94
513.961	889.1
514.391	914.61
514.822	942.1
515.253	971.77
515.684	993.77
516.114	1018.99
516.545	1037.09
516.975	1059.17
517.406	1075.23
517.836	1078.36
518.267	1085.64
518.697	1101.11
519.127	1107.38
519.558	1114.68
519.988	1119.73
520.418	1128.97
520.848	1143.3
521.278	1152.53
521.708	1175.02
522.138	1186.23
522.567	1211.73
522.997	1233
523.427	1245.84
523.857	1260.41
524.286	1269.7
524.716	1282.22
525.145	1297.75
525.575	1308.18
526.004	1319.79
526.433	1308.73
526.863	1310.01
527.292	1303.1
527.721	1307.96
528.15	1313.26
528.579	1313.58
529.008	1321.81
529.437	1339.61
529.866	1350.44
530.295	1363.98
530.724	1375.57
531.152	1397.28
531.581	1408.93
532.01	1424.39
532.438	1431.96
532.867	1444.42
533.295	1459.86
533.723	1466.02
534.152	1464.67
534.58	1465.3
535.008	1454.28
535.436	1455.78
535.865	1462.63
536.293	1475.19
536.721	1487.61
537.149	1508.18
537.576	1510.61
538.004	1522.46
538.432	1530.04
538.86	1530.65
539.287	1537.93
539.715	1549.89
540.143	1552.97
540.57	1551.2
540.998	1548.62
541.425	1531.46
541.852	1515.86
542.28	1515.2
542.707	1501.3
543.134	1490.74
543.561	1488.28
543.988	1482.24
544.415	1481.57
544.842	1476.97
545.269	1471.01
545.696	1473.48
546.123	1484.51
546.549	1476.06
546.976	1465.63
547.403	1466.28
547.829	1467.31
548.256	1468.01
548.682	1465.28
549.108	1460.49
549.535	1461.23
549.961	1462.71
550.387	1451.23
550.813	1446.05
551.24	1451.15
551.666	1451.74
552.092	1443.82
552.518	1438.12
552.943	1433.17
553.369	1438.64
553.795	1441.51
554.221	1441.5
554.646	1438.79
555.072	1447.84
555.498	1451.81
555.923	1458.23
556.349	1471.41
556.774	1478.54
557.199	1480.42
557.625	1485.37
558.05	1480.6
558.475	1489.08
558.9	1488.01
559.325	1480.88
559.75	1475.87
560.175	1469.73
560.6	1464.98
561.025	1462.77
561.449	1463.57
561.874	1467.51
562.299	1470.79
562.723	1476.91
563.148	1469.3
563.572	1472.24
563.997	1480.77
564.421	1483.71
564.846	1484.12
565.27	1488.27
565.694	1485.96
566.118	1494.88
566.542	1501.25
566.966	1496.17
567.39	1490.98
567.814	1481.23
568.238	1480.68
568.662	1484.6
569.086	1487.48
569.509	1494.11
569.933	1480.58
570.357	1474.85
570.78	1457.9
571.204	1447.25
571.627	1438.66
572.05	1438.22
572.474	1438.67
572.897	1429.26
573.32	1423.55
573.743	1415.48
574.166	1399.69
574.589	1399.06
575.012	1393.03
575.435	1392.15
575.858	1384.13
576.281	1375.07
576.704	1361.88
577.126	1352.17
577.549	1342.89
577.972	1333.62
578.394	1325.17
578.817	1320.32
579.239	1305.22
579.661	1294.55
580.084	1281.01
580.506	1270.52
580.928	1266.71
581.35	1257.74
581.772	1253.56
582.194	1242
582.616	1231.68
583.038	1219.25
583.46	1209.94
583.882	1206.79
584.303	1208.54
584.725	1204.74
585.147	1206.99
585.568	1215.86
585.99	1225.47
586.411	1229.74
586.833	1241.16
587.254	1242.88
587.675	1255.18
588.096	1265.92
588.518	1262.43
588.939	1248.99
589.36	1247.96
589.781	1238.39
590.202	1215.08
590.623	1207.44
591.043	1205.84
591.464	1195.97
591.885	1192.27
592.305	1186.59
592.726	1174.84
593.147	1175.54
593.567	1172.11
593.987	1166.59
594.408	1161.79
594.828	1159.73
595.248	1155.87
595.669	1142.07
596.089	1136.78
596.509	1132.07
596.929	1121.75
597.349	1121.91
597.769	1113.77
598.189	1107.69
598.608	1108.83
599.028	1110.45
599.448	1110.36
599.867	1099.91
600.287	1095.06
600.706	1091.04
601.126	1082.26
601.545	1080.25
601.965	1079.04
602.384	1074.47
602.803	1076
603.222	1071.41
603.641	1065.72
604.061	1063.26
604.48	1059.23
604.898	1065.55
605.317	1068.51
605.736	1069.66
606.155	1067.7
606.574	1059.63
606.992	1063.35
607.411	1060.56
607.829	1052.65
608.248	1049.18
608.666	1045.65
609.085	1045.22
609.503	1037.82
609.921	1033.44
610.339	1035.34
610.758	1033.94
611.176	1030.44
611.594	1022.24
612.012	1018.64
612.43	1021
612.847	1025.56
613.265	1025.94
613.683	1028.74
614.101	1029.46
614.518	1025.15
614.936	1016.43
615.353	1005.17
615.771	1002.24
616.188	1003.13
616.606	999.09
617.023	993.82
617.44	982.62
617.857	977.05
618.274	970.04
618.691	964.94
619.108	957.41
619.525	952.59
619.942	956.65
620.359	958.46
620.776	952.25
621.192	949.78
621.609	947.75
622.026	952.51
622.442	957.34
622.859	959.12
623.275	953.9
623.691	957.68
624.108	966.6
624.524	978.23
624.94	977.54
625.356	986.86
625.772	997.51
626.188	1005.89
626.604	1008
627.02	1004.9
627.436	1003.7
627.852	1008.74
628.268	1019.46
628.683	1012.49
629.099	1006.39
629.514	1003.58
629.93	1006.48
630.345	1008.51
630.761	1006.16
631.176	1008.31
631.591	1003.61
632.007	999.17
632.422	997.56
632.837	987.87
633.252	985.34
633.667	976.45
634.082	969.07
634.497	959.17
634.911	944.87
635.326	941.55
635.741	928.09
636.155	919.99
636.57	920.29
636.984	919.84
637.399	921.03
637.813	919.85
638.228	917.53
638.642	918.92
639.056	909.35
639.47	908.65
639.884	901.07
640.298	894.99
640.712	892.39
641.126	881.73
641.54	872.08
641.954	865.44
642.368	854.9
642.781	847.84
643.195	833.72
643.609	833.4
644.022	824.94
644.436	819.03
644.849	807.4
645.262	797.27
645.676	796.08
646.089	791.26
646.502	778.65
646.915	772.12
647.328	757.58
647.741	753.57
648.154	741.19
648.567	738.74
648.98	728.54
649.393	727.28
649.805	722.66
650.218	715.16
650.631	702.89
651.043	696.87
651.456	691.97
651.868	691.15
652.28	701.77
652.693	710.07
653.105	712.65
653.517	717.34
653.929	717.53
654.341	720.63
654.753	711.73
655.165	714.7
655.577	713.07
655.989	709.14
656.401	701.85
656.813	676.42
657.224	661.38
657.636	641.13
658.047	628.1
658.459	612.23
658.87	603.44
659.282	593.35
659.693	578.52
660.104	566.49
660.515	556.06
660.926	552.7
661.338	549.18
661.749	542.24
662.159	534.79
662.57	529.99
662.981	526.45
663.392	520.02
663.803	521.18
664.213	517.44
664.624	513.26
665.035	512.82
665.445	503.14
665.855	497.09
666.266	492.71
666.676	489.33
667.086	482.45
667.497	480.5
667.907	476.41
668.317	470.01
668.727	468.8
669.137	468.37
669.547	465.8
669.956	466.23
670.366	467
670.776	468.19
671.186	470.7
671.595	472.89
672.005	474.36
672.414	473.9
672.824	473.52
673.233	474.21
673.642	476.02
674.052	478.89
674.461	482.83
674.87	486.02
675.279	484.1
675.688	484.8
676.097	485.82
676.506	484.29
676.915	493.54
677.323	495.71
677.732	495.41
678.141	495.39
678.549	489.67
678.958	488.99
679.366	489
679.775	491.41
680.183	499.73
680.592	504.88
681	510.65
681.408	508.51
681.816	514.52
682.224	521.36
682.632	530.72
683.04	552.52
683.448	570.24
683.856	594.19
684.264	621.64
684.671	647.08
685.079	677.69
685.487	711.7
685.894	758.22
686.302	798.11
686.709	834.36
687.116	874.88
687.524	909.06
687.931	940.96
688.338	969.07
688.745	994.16
689.152	1023.28
689.559	1059.64
689.966	1096.06
690.373	1116.56
690.78	1153.22
691.187	1204.83
691.593	1244.8
692	1282.92
692.407	1334.86
692.813	1395.98
693.22	1446.97
693.626	1497.98
694.032	1539.22
694.439	1601.13
694.845	1650.67
695.251	1711.08
695.657	1766.07
696.063	1846.68
696.469	1906.68
696.875	1963.84
697.281	1998.24
697.687	2037.95
698.093	2070.68
698.498	2133.76
698.904	2183.99
699.31	2256.6
699.715	2309.24
700.12	2384.03
700.526	2399.12
700.931	2455.44
701.337	2496.39
701.742	2523.82
702.147	2592.09
702.552	2615.9
702.957	2665.12
703.362	2680.67
703.767	2702.86
704.172	2734.76
704.577	2697.54
704.981	2736.26
705.386	2748.23
705.791	2741.52
706.195	2799.72
706.6	2805.09
707.004	2869.05
707.408	2843.31
707.813	2863.76
708.217	2853.35
708.621	2853.43
709.025	2928.84
709.43	2928.87
709.834	2977.51
710.237	3034.41
710.641	3020.68
711.045	3037.61
711.449	3034.39
711.853	3058.6
712.256	3091.76
712.66	3123.04
713.064	3182.21
713.467	3216.84
713.87	3305.78
714.274	3341.16
714.677	3427.76
715.08	3557.5
715.484	3692.02
715.887	3852.06
716.29	4006.74
716.693	4173.29
717.096	4364.03
717.499	4470.15
717.901	4489.98
718.304	4510.05
718.707	4525.45
719.109	4439.23
719.512	4413.72
719.915	4302.85
720.317	4258.11
720.719	4292.26
721.122	4267.1
721.524	4224.37
721.926	4191.67
722.328	4269.42
722.731	4259.48
723.133	4283.99
723.535	4438.77
723.937	4451.98
724.338	4494.41
724.74	4524.64
725.142	4487.58
725.544	4483.87
725.945	4503.84
726.347	4499.11
726.748	4494.67
727.15	4505.79
727.551	4474.96
727.952	4453.02
728.354	4429.7
728.755	4427.14
729.156	4391.81
729.557	4367.32
729.958	4270.53
730.359	4225.48
730.76	4205.72
731.161	4152.91
731.562	4131.74
731.962	4133.64
732.363	4079.65
732.763	4029.04
733.164	4058.93
733.564	4006.42
733.965	3930.26
734.365	3899.31
734.766	3921.73
735.166	3891.41
735.566	3848.36
735.966	3828.63
736.366	3821.91
736.766	3775.02
737.166	3799.56
737.566	3764.04
737.966	3742.48
738.365	3773.41
738.765	3770.82
739.165	3709.65
739.564	3690.38
739.964	3725.84
740.363	3689.03
740.763	3687.77
741.162	3678.6
741.561	3652.63
741.96	3618.28
742.36	3633.38
742.759	3634.6
743.158	3664.56
743.557	3677.59
743.955	3709.25
744.354	3673.9
744.753	3719.19
745.152	3686.1
745.55	3728.22
745.949	3723.74
746.348	3724.38
746.746	3739.82
747.144	3711.94
747.543	3693.57
747.941	3731.66
748.339	3674.27
748.737	3668.6
749.136	3662.86
749.534	3714.79
749.932	3693.73
750.33	3711.27
750.727	3755.03
751.125	3733.12
751.523	3720.38
751.921	3756.2
752.318	3730.08
752.716	3778.81
753.113	3788.29
753.511	3805.53
753.908	3806.05
754.305	3792.15
754.703	3840.18
755.1	3888.64
755.497	3937.62
755.894	4087.82
756.291	4227.56
756.688	4484.62
757.085	4824.76
757.482	5308.11
757.878	5838.94
758.275	6316.05
758.672	6970.92
759.068	7507.73
759.465	8269.8
759.861	9251.36
760.258	10386
760.654	10973.77
761.05	10885.87
761.447	10395.78
761.843	9682.58
762.239	8936.99
762.635	8602.13
763.031	8284.84
763.427	7823.29
763.822	7338.57
764.218	6856.31
764.614	6231.4
765.01	5815.66
765.405	5545.86
765.801	5340.88
766.196	5076.89
766.592	4931.75
766.987	4685.22
767.382	4518.1
767.778	4445.28
768.173	4344.23
768.568	4289.43
768.963	4195.17
769.358	4207.84
769.753	4171.88
770.148	4103.4
770.542	4102.92
770.937	4077.38
771.332	4146.62
771.726	4161.49
772.121	4114.5
772.515	4155.43
772.91	4143.03
773.304	4195.64
773.699	4143.35
774.093	4185.18
774.487	4226.31
774.881	4262.64
775.275	4260.49
775.669	4229.9
776.063	4266.05
776.457	4293.13
776.851	4234.75
777.245	4228.94
777.638	4254.97
778.032	4343.55
778.425	4315.81
778.819	4353.38
779.212	4317.75
779.606	4286.78
779.999	4300.79
780.392	4286.95
780.786	4353.69
781.179	4373.4
781.572	4405.44
781.965	4415.91
782.358	4372.91
782.751	4416.36
783.143	4379.08
783.536	4437.07
783.929	4471.05
784.322	4562.73
784.714	4585.16
785.107	4578.99
785.499	4631.74
785.891	4617.13
786.284	4599.97
786.676	4711.48
787.068	4696.36
787.46	4736.55
787.852	4751.66
788.245	4818.36
788.636	4841.39
789.028	4893.72
789.42	4927.71
789.812	4933.28
790.204	5007.89
790.595	5088.72
790.987	4934.38
791.378	4951.72
791.77	5053.72
792.161	5161.61
792.553	5202.67
792.944	5111.79
793.335	5059.99
793.726	5113.35
794.117	5186.85
794.508	5293.16
794.899	5269.47
795.29	5376.99
795.681	5418.62
796.072	5305.32
796.463	5162.68
796.853	5172.24
797.244	5299.01
797.634	5324.71
798.025	5324.64
798.415	5330.31
798.806	5398.61
799.196	5467.08
799.586	5510.64
799.976	5484.84
800.366	5661.95
800.756	5843.11
801.146	5809.99
801.536	5829.34
801.926	5885.95
802.316	5903.37
802.706	5959.94
803.095	5863.57
803.485	5938.24
803.874	5967.96
804.264	6169.34
804.653	6150.52
805.043	6266.79
805.432	6352
805.821	6356.17
806.21	6369.46
806.599	6462.29
806.988	6494.7
807.377	6580.33
807.766	6683.42
808.155	6903.68
808.544	6696.18
808.933	6710.06
809.321	6689.71
809.71	6920.23
810.098	7042.64
810.487	7403.09
810.875	7778.17
811.264	7796.07
811.652	8025.27
812.04	8138.15
812.428	8265.97
812.816	8858.9
813.204	9181.67
813.592	9618.58
813.98	9881.05
814.368	9801.74
814.756	10173.58
815.144	10108.2
815.531	10472.62
815.919	10406.68
816.306	10639.78
816.694	10396.77
817.081	10435.66
817.469	10704.99
817.856	10695.68
818.243	10900.3
818.63	11204.9
819.017	10881.03
819.404	10929.58
819.791	11224.85
820.178	11700.82
820.565	11901.24
820.952	12623.43
821.339	12239.67
821.725	12384.69
822.112	11805.73
822.498	11774.4
822.885	11882.43
823.271	11805.99
823.657	12131.39
824.044	12133.35
824.43	12188.54
824.816	12158.25
825.202	11816.75
825.588	12610.01
825.974	12615.65
826.36	13016.75
826.746	13043.69
827.132	13315.35
827.517	13297.47
827.903	12688.86
828.289	12716.21
828.674	12114.82
829.06	12035.16
829.445	12348.52
829.83	12622.36
830.216	12993.82
830.601	13278.91
830.986	12963.98
831.371	12859.75
831.756	13292.11
832.141	12959.56
832.526	12962.01
832.911	13183.79
833.295	13093.55
833.68	13455.06
834.065	12974.93
834.449	12279.07
834.834	12222.78
835.218	12224.47
835.603	12487.52
835.987	12325.39
836.371	12973
836.755	12897.54
837.139	13208.43
837.524	13401.13
837.908	13272.31
838.291	13325.86
838.675	13376.66
839.059	13542.86
839.443	13529.98
839.827	13352.07
840.21	13726.58
840.594	13618.02
840.977	13778.83
841.361	13761.76
841.744	14058.44
842.127	13934.35
842.511	14126.38
842.894	14585.93
843.277	14878.65
843.66	15303.44
844.043	15365.75
844.426	14744.85
844.809	14506.33
845.191	14526.85
845.574	14172.58
845.957	13892.38
846.339	13814.06
846.722	13408.77
847.104	13465.69
847.487	13335.97
847.869	13348.11
848.252	13564.42
848.634	13819.13
849.016	14022.85
849.398	14126.84
849.78	14794.08
850.162	14791.45
850.544	15105.17
850.926	15598.24
851.307	15528.85
851.689	15747.12
852.071	16100.16
852.452	16360.69
852.834	16354.29
853.215	16671.58
853.597	16790.16
853.978	17019.58
854.359	17381.79
854.741	16609.06
855.122	16524.6
855.503	16290.81
855.884	16391.69
856.265	16339.95
856.646	16432.3
857.026	16111.36
857.407	16054.02
857.788	16167.7
858.169	16382.75
858.549	15717.59
858.93	16199.65
859.31	16231.85
859.69	16402.91
860.071	16088.28
860.451	15924.05
860.831	15338.46
861.211	16245.29
861.591	16662.95
861.971	16645.82
862.351	16800.46
862.731	17099.32
863.111	17302.54
863.491	17568.28
863.87	18239.16
864.25	18513.14
864.629	18202.19
865.009	18603.5
865.388	19263.67
865.768	20650.14
866.147	20565.85
866.526	19425.4
866.905	19660.66
867.284	20761.59
867.663	19699.95
868.042	18891.27
868.421	18821.62
868.8	19124.98
869.179	19305.51
869.558	18181
869.936	16753.87
870.315	17047
870.693	17465.06
871.072	18829.13
871.45	17933.03
871.828	18173.96
872.207	19094.92
872.585	18813.28
872.963	19327.54
873.341	18664.31
873.719	18437.65
874.097	18213.9
874.475	18559.11
874.853	18978.13
875.23	18189.59
875.608	18952.6
875.986	20489.48
876.363	19598.89
876.741	20196.66
877.118	19690.88
877.495	20668.57
877.873	21010.86
878.25	22114.82
878.627	21217.56
879.004	21522.62
879.381	21413.19
879.758	20852.09
880.135	19412.13
880.512	20527.07
880.889	19981.81
881.265	19770.4
881.642	19604.19
882.019	19934.24
882.395	19524.53
882.772	20306.67
883.148	19422.96
883.524	19356.86
883.901	19248.69
884.277	19536.92
884.653	19408.7
885.029	19976.75
885.405	22127.66
885.781	21957.87
886.157	21057.58
886.532	21314.16
886.908	21296.33
887.284	23679.19
887.659	24450.53
888.035	25208.88
888.411	25872.37
888.786	26221.75
889.161	27116.61
889.537	26621.96
889.912	27476.09
890.287	27447.71
890.662	28170.4
891.037	27674.12
891.412	25808.02
891.787	25551.27
892.162	24681.89
892.536	25251.07
892.911	24305.02
893.286	23793.57
893.66	22832.83
894.035	23421.05
894.409	25503.78
894.784	24475.25
895.158	24877.86
895.532	26348.28
895.906	27066.74
896.281	27685.65
896.655	27247.46
897.029	31132.92
897.402	32415.09
897.776	36072.27
898.15	35948.22
898.524	35577.13
898.898	36024.7
899.271	40314.38
899.645	34935.4
900.018	33546.09
900.392	34777.92
900.765	35067.43
901.138	32459.88
901.511	31966.24
901.884	29350.55
902.258	27068.22
902.631	27962.56
903.003	32190.72
903.376	29060.01
903.749	32581.82
904.122	34862.28
904.495	38398.56
904.867	38855.79
905.24	33712.99
905.612	31406.88
905.985	32112.71
906.357	33568.29
906.729	32034.57
907.102	27363.31
907.474	26303.35
907.846	26457.06
908.218	26111.2
908.59	23069.2
908.962	22326.31
909.334	24049.41
909.705	25253.6
910.077	24532.59
910.449	25524.74
910.82	26237.45
911.192	28861.07
911.563	29993.18
911.935	32088.58
912.306	32134.96
912.677	33186.95
913.048	32838.99
913.419	35596.3
913.79	35800.37
914.161	38379.04
914.532	36699.8
914.903	33724.55
915.274	32045.9
915.645	31579.17
916.015	27789.72
916.386	26499.71
916.756	28192.39
917.127	29090.73
917.497	26017.31
917.868	28314.51
918.238	26911.96
918.608	27671.54
918.978	28231.64
919.348	29908.86
919.718	30889.39
920.088	29759.42
920.458	30929.46
920.828	32555.04
921.198	30860.66
921.567	32962.89
921.937	25534.45
922.306	25772.28
922.676	27803.35
923.045	23203.23
923.415	22032.58
923.784	20075.91
924.153	20649.43
924.522	20624.05
924.891	19374.66
925.26	20751.1
925.629	20253.7
925.998	23271.34
926.367	22704.96
926.736	21628.87
927.104	25754.44
927.473	27680.61
927.842	33431.08
928.21	33109.05
928.578	34813.61
928.947	32932.38
929.315	33128.07
929.683	38817.59
930.051	39132.93
930.42	45481.64
930.788	38867.63
931.156	38592.16
931.523	36197.8
931.891	33424.08
932.259	32118.71
932.627	37184.36
932.994	52621.93
933.362	43480.91
933.729	37808.94
934.097	36187.3
934.464	30595.16
934.831	35280.31
935.199	34805.35
935.566	33721.11
935.933	34258.67
936.3	41515.6
936.667	32359.35
937.034	29217.07
937.401	28930.4
937.767	24973.59
938.134	22227.58
938.501	31388.8
938.867	33497.93
939.234	56612.87
939.6	48362.39
939.967	53174.53
940.333	35540.07
940.699	30256.65
941.065	24255.91
941.431	31751.4
941.798	30611.52
942.163	40276.23
942.529	25141.21
942.895	23151.43
943.261	14992.97
943.627	19670.14
943.992	17216.5
944.358	17227.74
944.723	17273.59
945.089	16846.24
945.454	15572.25
945.82	16630.56
946.185	15969.57
946.55	18510.99
946.915	16599.19
947.28	19470.47
947.645	17153.36
948.01	15845.2
948.375	16537.37
948.74	19809.97
949.104	23104.66
949.469	33371.06
949.834	58958.67
950.198	55863.81
950.562	33494.91
950.927	27877.12
951.291	33452.22
951.655	28465.82
952.02	26703.59
952.384	20224.78
952.748	17625.07
953.112	17191.51
953.476	14955.71
953.839	13828.91
954.203	13682.86
954.567	17077.79
954.931	26896.86
955.294	23046.74
955.658	23211.65
956.021	39504.44
956.385	66810.76
956.748	98639.33
957.111	153068.45
957.474	171739.81
957.837	193492.31
958.2	146340.78
958.563	52664.91
958.926	35616.24
959.289	54038.97
959.652	60333.53
960.015	45239.83
960.377	64994.6
960.74	74129.4
961.102	127750.31
961.465	137205.95
961.827	73555.35
962.189	141197.16
962.552	97880.79
962.914	78447.02
963.276	50882.22
963.638	42090.19
964	41723.3
964.362	28234.27
964.724	27280.92
965.085	19469.56
965.447	15976.16
965.809	18176.09
966.17	18207.27
966.532	19725.56
966.893	18123.23
967.255	16495.45
967.616	19470.59
967.977	15579.84
968.338	16977.69
968.699	13948.71
969.061	13944.67
969.421	14020.81
969.782	15724.79
970.143	13267.64
970.504	13745.18
970.865	15604.42
971.225	15958.95
971.586	15584.27
971.946	22225.97
972.307	19316.28
972.667	25255.17
973.027	26003.01
973.388	31514.55
973.748	21457.22
974.108	23412.04
974.468	31654.38
974.828	24443.33
975.188	18802.73
975.548	17264.78
975.907	14490.46
976.267	16239.58
976.627	13659.34
976.986	14170.02
977.346	13502.26
977.705	12980.08
978.064	11805.19
978.424	9820.34
978.783	10126.47
979.142	11560.1
979.501	11054.48
979.86	11659.77
980.219	11241.16
980.578	14485.51
980.937	16214.45
981.296	14466.91
981.654	14882.46
982.013	23192.16
982.371	30127.09
982.73	28188.09
983.088	31889.96
983.447	34091.44
983.805	48864.56
984.163	102091.2
984.521	113102.3
984.879	165874.02
985.237	-269698.04
985.595	260162.87
985.953	64462.12
986.311	37222.59
986.669	21618.63
987.026	18666.2
987.384	25099.96
987.741	25900.79
988.099	18521.85
988.456	14806.65
988.814	13865.6
989.171	12071.08
989.528	11898.39
989.885	12585.78
990.242	9968.1
990.599	12401.82
990.956	10170.52
991.313	7134.36
991.67	5861.02
992.027	6216.25
992.383	5518.06
992.74	4837.82
993.096	5071.3
993.453	5254.37
993.809	5434.86
994.165	7241.69
994.522	6644.6
994.878	7299.05
995.234	9135.49
995.59	9028.49
995.946	8546.58
996.302	9754.11
996.658	11267.64
997.013	12435.86
997.369	14771.06
997.725	18953.69
998.08	12247.34
998.436	18846.23
998.791	26062.02
999.147	25977.36
999.502	28309.53
999.857	20548.42
1000.212	33532.02
1000.567	47735.84
1000.922	27514.45
1001.277	17495.45
1001.632	12979.79
1001.987	16769.88
1002.342	12030.97
1002.696	9609.64
1003.051	7686.49
1003.406	9300.62
1003.76	9253.96
1004.114	9112.81
1004.469	7682.26
1004.823	6375.03
1005.177	6891.59
1005.531	5468.74
1005.885	4841.03
1006.239	5479.69
1006.593	6879.44
1006.947	9224.03
1007.301	6905.21
1007.655	7536.16
1008.008	5521.33
1008.362	6182.35
1008.715	8792.17
1009.069	7969.86
1009.422	12028.84
1009.776	24155.09
1010.129	15981.74
1010.482	13361.53
1010.835	11242.21
1011.188	23468.57
1011.541	22045.42
1011.894	-135343.68
1012.247	399297.75
1012.6	27202.18
1012.952	17210.98
1013.305	8846.98
1013.657	6386.01
1014.01	6073.17
1014.362	4997.74
1014.715	4472.68
1015.067	3899.05
1015.419	3819.96
1015.771	3388.72
1016.123	3015.38
1016.475	3092.45
1016.827	3290.99
1017.179	3526.33
1017.531	3554.37
1017.883	3619.89
1018.234	3500.32
1018.586	4389.54
1018.938	4649.37
1019.289	6417.21
1019.64	7318.73
1019.992	6797.68
1020.343	6225.74
1020.694	4924.81
1021.045	4382.01
1021.396	4982.11
1021.747	5356.34
1022.098	6440.5
1022.449	4684.75
1022.8	4366.31
1023.151	3045.14
1023.501	2703.46
1023.852	2943.33
1024.202	3056.98
1024.553	3342.84
1024.903	3260.97
1025.253	2806.2
1025.604	2525.54
1025.954	3144.73
1026.304	3850.26
1026.654	4471.66
1027.004	6546.84
1027.354	10607.36
1027.703	10066.1
1028.053	13279.68
1028.403	19657.64
1028.753	28319.07
1029.102	38271.93
1029.452	195339.52
1029.801	8337.8
1030.15	5370.5
1030.499	4545.64
897.758	2226.11
901.051	2154.56
904.343	2189.71
907.636	2197.7
910.928	2259.33
914.22	2178.13
917.511	2181.87
920.803	2234.22
924.094	2231.27
927.384	2234.35
930.675	2197.53
933.965	2159.39
937.255	2191.09
940.544	2157.96
943.834	2158.47
947.123	2098.94
950.411	2187.02
953.7	2167.85
956.988	2150.74
960.276	2085.97
963.563	2135.15
966.851	2145.45
970.138	2186.79
973.424	2188.21
976.711	2142.47
979.997	2189.46
983.283	2233.81
986.568	2164.45
989.853	2154.93
993.138	2181.45
996.423	2268.38
999.708	2226.58
1002.992	2257.8
1006.275	2171.44
1009.559	2177.63
1012.842	2276.3
1016.125	2227.6
1019.408	2205.45
1022.69	2264.61
1025.972	2301.85
1029.254	2274.58
1032.536	2234.97
1035.817	2244.4
1039.098	2214.48
1042.379	2264.1
1045.659	2292.35
1048.939	2237.7
1052.219	2246.54
1055.498	2241.2
1058.778	2235.31
1062.057	2209.42
1065.335	2234.14
1068.614	2246.59
1071.892	2243
1075.17	2295.82
1078.447	2298.86
1081.724	2291.7
1085.001	2319.36
1088.278	2297.02
1091.554	2301.85
1094.83	2297.7
1098.106	2333.02
1101.382	2364.02
1104.657	2361.68
1107.932	2362.22
1111.206	2338.42
1114.481	2293.05
1117.755	2293.99
1121.029	2286.6
1124.302	2345
1127.575	2311.94
1130.848	2308.36
1134.121	2277.38
1137.393	2238.52
1140.665	2299.25
1143.937	2275.59
1147.208	2225.34
1150.48	2282.7
1153.75	2269.99
1157.021	2273.45
1160.291	2250.7
1163.561	2303.96
1166.831	2271.29
1170.101	2298.78
1173.37	2260.39
1176.639	2216.08
1179.907	2260.91
1183.176	2283.01
1186.444	2282.57
1189.711	2309.71
1192.979	2333
1196.246	2289.48
1199.513	2300.94
1202.78	2308.28
1206.046	2315.76
1209.312	2342.81
1212.578	2360.08
1215.843	2327.47
1219.108	2294.43
1222.373	2320.53
1225.638	2291.33
1228.902	2283.14
1232.166	2239.3
1235.43	2228.21
1238.693	2252.31
1241.956	2244.92
1245.219	2291.52
1248.482	2276.69
1251.744	2274.3
1255.006	2397.74
1258.268	2346.15
1261.529	2301.91
1264.79	2302.13
1268.051	2400.65
1271.312	2408.53
1274.572	2378.55
1277.832	2366.25
1281.092	2346.63
1284.351	2336.23
1287.61	2320.45
1290.869	2254.8
1294.128	2249.39
1297.386	2299.35
1300.644	2292.21
1303.902	2302.25
1307.159	2173.88
1310.416	2224.05
1313.673	2252.17
1316.93	2253.82
1320.186	2283.41
1323.442	2318.23
1326.697	2317.77
1329.953	2293.27
1333.208	2329.74
1336.463	2300.84
1339.717	2261.03
1342.972	2367.4
1346.226	2342.87
1349.479	2290.82
1352.733	2267.83
1355.986	2272.78
1359.238	2252.52
1362.491	2261.24
1365.743	2260.92
1368.995	2252.85
1372.247	2265.8
1375.498	2284.51
1378.749	2324.36
1382	2273.5
1385.251	2310.69
1388.501	2265.1
1391.751	2266.52
1395	2234.22
1398.25	2258.25
1401.499	2281.08
1404.748	2229.3
1407.996	2208.77
1411.244	2198.74
1414.492	2184.47
1417.74	2168.94
1420.987	2174.7
1424.234	2234.51
1427.481	2197.38
1430.728	2253.61
1433.974	2229.69
1437.22	2225.18
1440.465	2223.98
1443.711	2222.82
1446.956	2245.94
1450.201	2218.6
1453.445	2260.08
1456.689	2247.58
1459.933	2258.34
1463.177	2297.5
1466.42	2270.95
1469.663	2253.9
1472.906	2271.72
1476.148	2316.21
1479.391	2289.72
1482.633	2264.45
1485.874	2288.08
1489.115	2292.15
1492.356	2275.87
1495.597	2255.4
1498.838	2249.95
1502.078	2232.84
1505.318	2202.45
1508.557	2236.82
1511.797	2234.08
1515.036	2276.96
1518.274	2249.04
1521.513	2201.98
1524.751	2215.6
1527.989	2239.5
1531.227	2255.36
1534.464	2269.02
1537.701	2261.92
1540.938	2274.43
1544.174	2222.01
1547.41	2213.77
1550.646	2249.9
1553.882	2300.05
1557.117	2356.1
1560.352	2363.88
1563.587	2325.17
1566.821	2292.44
1570.055	2305.31
1573.289	2288.9
1576.523	2347.32
1579.756	2359.51
1582.989	2378.06
1586.222	2341.3
1589.454	2368.64
1592.686	2353.38
1595.918	2378.58
1599.15	2376.2
1602.381	2422.56
1605.612	2405.18
1608.843	2496.42
1612.073	2422.17
1615.303	2409.79
1618.533	2408.97
1621.762	2407.82
1624.992	2383.33
1628.221	2384.36
1631.449	2374.41
1634.678	2403.5
1637.906	2369.55
1641.134	2396.17
1644.361	2362.07
1647.588	2350.44
1650.815	2373.31
1654.042	2337.87
1657.269	2364.24
1660.495	2344.07
1663.72	2330.23
1666.946	2298.47
1670.171	2270.33
1673.396	2245.52
1676.621	2228.45
1679.845	2225.43
1683.069	2232.92
1686.293	2261.56
1689.517	2252.24
1692.74	2203.3
1695.963	2226.57
1699.185	2265.13
1702.408	2238.01
1705.63	2266.99
1708.852	2284.74
1712.073	2257.08
1715.294	2267.27
1718.515	2308.56
1721.736	2269.12
1724.956	2247.81
1728.176	2270.39
1731.396	2291.33
1734.616	2278.45
1737.835	2314.91
1741.054	2285.64
1744.272	2278.62
1747.491	2315.91
1750.709	2340.16
1753.927	2289.19
1757.144	2312.03
1760.361	2369.8
1763.578	2346.04
1766.795	2295.23
1770.011	2287.34
1773.227	2312.34
1776.443	2355.24
1779.658	2396.18
1782.874	2338.7
1786.089	2330.94
1789.303	2332.79
1792.518	2333.75
1795.732	2319.42
1798.945	2335.89
1802.159	2375.89
1805.372	2315.9
1808.585	2312.37
1811.797	2313.33
1815.01	2335.96
1818.222	2357.2
1821.434	2317.58
1824.645	2360.94
1827.856	2370.65
1831.067	2403.63
1834.278	2340.61
1837.488	2324.91
1840.698	2448.47
1843.908	2389.08
1847.117	2357.96
1850.326	2281.92
1853.535	2342.37
1856.744	2377.01
1859.952	2299.46
1863.16	2302.24
1866.368	2315.43
1869.575	2427.91
1872.782	2312.56
1875.989	2246.94
1879.196	2296.99
1882.402	2287.67
1885.608	2324.38
1888.814	2266.15
1892.019	2173.39
1895.224	2225.61
1898.429	2190.14
1901.634	2174.88
1904.838	2150.53
1908.042	2208.74
1911.246	2218.4
1914.449	2180.99
1917.652	2162.92
1920.855	2141.54
1924.058	2168.6
1927.26	2215.28
1930.462	2236.96
1933.664	2275.76
1936.865	2218.36
1940.066	2235.8
1943.267	2179.21
1946.467	2190.28
1949.668	2209
1952.868	2280.51
1956.067	2271.59
1959.267	2209.89
1962.466	2233.22
1965.665	2214.55
1968.863	2209.13
1972.061	2209.64
1975.259	2204.1
1978.457	2278.34
1981.654	2239.27
1984.852	2243.46
1988.048	2194.94
1991.245	2183.45
1994.441	2271.64
1997.637	2232.78
2000.833	2213.66
2004.028	2250.92
2007.223	2314.4
2010.418	2301.18
2013.613	2252.05
2016.807	2246.04
2020.001	2240.39
2023.194	2263.62
2026.388	2250.43
2029.581	2192.35
2032.774	2254.08
2035.966	2268.84
2039.158	2210.77
2042.35	2229.84
2045.542	2155.19
2048.733	2238.9
2051.924	2232.06
2055.115	2247.19
2058.306	2210.97
2061.496	2264.25
2064.686	2316.13
2067.875	2223.2
2071.065	2227.2
2074.254	2246.9
2077.442	2201.22
2080.631	2283.54
2083.819	2213.23
2087.007	2205.43
2090.195	2189.39
2093.382	2206.01
2096.569	2188.3
2099.756	2148.21
2102.942	2194.52
2106.128	2205.2
2109.314	2195.59
2112.5	2179.87
2115.685	2149.13
2118.87	2157.43
2122.055	2219.01
2125.239	2198.98
2128.424	2182.78
2131.608	2244.78
2134.791	2230.3
2137.974	2269.67
2141.157	2259.72
2144.34	2230.17
2147.523	2221.9
2150.705	2246.96
2153.887	2214.67
2157.068	2185.54
2160.25	2168.13
2163.431	2195.11
2166.611	2163.46
2169.792	2183.85
2172.972	2094.64
2176.152	2146.87
2179.331	2173.43
2182.511	2177.95
2185.69	2201.3
2188.868	2206.5
2192.047	2243.25
2195.225	2258.8
2198.403	2206.57
2201.58	2195.49
2204.758	2184.58
2207.935	2258.81
2211.111	2172.4
2214.288	2160.76
2217.464	2192.72
2220.64	2149.14
2223.815	2198.9
2226.991	2132.16
2230.166	2148.23
2233.34	2189.44
2236.515	2202.05
2239.689	2265.22
2242.863	2217.77
2246.036	2270.55
2249.209	2252.97
2252.382	2274.42
2255.555	2280.81
2258.727	2230.24
2261.9	2256.42
2265.071	2248.18
2268.243	2247.4
2271.414	2193.6
2274.585	2176.82
2277.756	2235.39
2280.926	2195.56
2284.096	2224.64
2287.266	2152.41
2290.436	2200.97
2293.605	2220.95
2296.774	2259.98
2299.942	2263.17
2303.111	2279.89
2306.279	2333.98
2309.447	2320.8
2312.614	2290.31
2315.781	2310.92
2318.948	2290.08
2322.115	2327.46
2325.281	2227.21
2328.447	2234.46
2331.613	2203.73
2334.779	2196.93
2337.944	2194.05
2341.109	2193.74
2344.274	2179.8
2347.438	2150.46
2350.602	2171.25
2353.766	2183.94
2356.929	2172.6
2360.092	2206.8
2363.255	2178.97
2366.418	2144.46
2369.58	2212.61
2372.742	2080.02
2375.904	2076.52
2379.066	2062.62
2382.227	2086.45
2385.388	2049.32
2388.548	1997.15
2391.709	2039.46
2394.869	2031.24
2398.029	2087.3
2401.188	2085.01
2404.347	2046.06
2407.506	2130.63
2410.665	2167.29
2413.823	2151.24
2416.981	2130.55
2420.139	2147.34
2423.296	2188.22
2426.453	2160.09
2429.61	2180.09
2432.767	2149.38
2435.923	2189.51
2439.079	2137.99
2442.235	2172.51
2445.391	2113.71
2448.546	2157.95
2451.701	2191.81
2454.855	2189.03
2458.009	2215.48
2461.163	2208.18
2464.317	2179.41
2467.471	2205.88
2470.624	2234.78
2473.777	2222.05
2476.929	2237.54
2480.082	2261.92
2483.234	2235.76
2486.385	2176.71
2489.537	2169.85
2492.688	2160.69
2495.839	2175.85
2498.989	2191.02
2502.14	2177.96
2505.29	2167.05
2508.439	2192.92
2511.589	2132.88
2514.738	2133.49
2517.887	2155.83
2521.035	2231.75
2524.183	2192.44
2527.331	2178.57
2530.479	2170.77
2533.627	2173.96
