Data from C_2_DEC_NC_4N_Splice17_12-26-12-019.txt Node
Date: Sat Mar 14 12:26:12 EDT 2020
User: sa697716
Spectrometer: FLMS03696
Trigger mode: 0
Integration Time (sec): 3.180400E-1
Scans to average: 20
Electric dark correction enabled: true
Nonlinearity correction enabled: true
Boxcar width: 5
XAxis mode: Wavelengths
Number of Pixels in Spectrum: 2048
>>>>>Begin Spectral Data<<<<<
187.83	-321127.49
188.298	2393.46
188.766	1316.84
189.233	1174.28
189.701	1596.93
190.169	2190.64
190.636	833.3
191.104	613.45
191.571	100.68
192.039	-38
192.506	-33.04
192.974	567.97
193.441	-929.94
193.908	-218.19
194.375	-55.39
194.842	7.51
195.31	41.93
195.777	122.97
196.244	280.33
196.711	390.94
197.177	513.24
197.644	732.37
198.111	1296.39
198.578	1793.42
199.045	1452.73
199.511	2367.22
199.978	2696.1
200.445	2328.36
200.911	2584.93
201.378	2904.66
201.844	2628.88
202.31	4494.42
202.777	4691.68
203.243	2594.2
203.709	2497.79
204.176	2949.24
204.642	2430.32
205.108	2295.18
205.574	1864.52
206.04	1695.52
206.506	1585.63
206.972	1483.67
207.438	1422.88
207.903	1614.89
208.369	1417.35
208.835	1409.67
209.301	1477.44
209.766	1504.24
210.232	1486.61
210.697	1842.28
211.163	2257.42
211.628	3396.54
212.094	2862.23
212.559	3567.09
213.024	2234.26
213.49	2719.67
213.955	2638.45
214.42	2577.74
214.885	2397.48
215.35	2284.75
215.815	2182.34
216.28	2329.6
216.745	1878.96
217.21	2012.29
217.675	1806.35
218.14	1997.81
218.604	2189.66
219.069	2483.42
219.534	2588.67
219.998	2981.22
220.463	3589.11
220.927	4384.53
221.392	4110.09
221.856	4161.19
222.32	5236.81
222.785	6464.7
223.249	8146.26
223.713	9120.6
224.177	9113.14
224.642	11657.33
225.106	14360.31
225.57	15693.92
226.034	11699.55
226.497	17808.81
226.961	16082.42
227.425	18744.63
227.889	20808.05
228.353	20813.2
228.816	43011.19
229.28	41253.89
229.744	34921.03
230.207	21292.97
230.671	21022.73
231.134	34839.25
231.597	40328.32
232.061	40425.24
232.524	39441.62
232.987	27273.19
233.45	24641.58
233.914	22128.53
234.377	22720.36
234.84	20825.44
235.303	24625.13
235.766	27563.11
236.229	28535.94
236.691	17993.38
237.154	20307.31
237.617	15350.16
238.08	15753.9
238.542	18519.47
239.005	13286.76
239.468	13254.17
239.93	12518.53
240.393	11409.64
240.855	10035.43
241.317	10298.82
241.78	12556.68
242.242	13010.12
242.704	14059.19
243.166	12268.18
243.629	11148.38
244.091	12882.47
244.553	14122.22
245.015	15228.65
245.477	19715.66
245.939	28964.87
246.4	30810.41
246.862	29993.86
247.324	28324
247.786	31800.6
248.247	41784.8
248.709	43166.82
249.17	32376.56
249.632	30614.02
250.093	35565.87
250.555	30764.48
251.016	18797.92
251.477	17870.75
251.939	19330.7
252.4	20321.27
252.861	24207.65
253.322	22558.62
253.783	26898.07
254.244	34901.78
254.705	27515.97
255.166	24485.61
255.627	24171.63
256.088	34193.32
256.549	36386.15
257.009	31409.62
257.47	38137.12
257.931	31104.48
258.391	23337.73
258.852	24151.32
259.312	25363.14
259.773	31421.43
260.233	26624.96
260.694	22533.95
261.154	25565.66
261.614	20546.4
262.074	18414.94
262.534	19188.89
262.994	18139.25
263.455	24216.27
263.915	20413.11
264.374	19280.1
264.834	21063.64
265.294	23383.14
265.754	24219.55
266.214	22966.77
266.673	21556.94
267.133	27258
267.593	27071.53
268.052	33141.62
268.512	28865.58
268.971	34871.58
269.431	38298.75
269.89	34388.28
270.349	51640.34
270.809	57723.19
271.268	51966.42
271.727	116708.83
272.186	75694.04
272.645	56886.87
273.104	41116.97
273.563	59675.38
274.022	47019.59
274.481	40022.91
274.94	30895.64
275.399	22991.61
275.857	26796.64
276.316	36303.28
276.775	32404.5
277.233	31980.3
277.692	29987.88
278.15	33970.57
278.609	34995.31
279.067	32415.07
279.525	30208.44
279.984	39043.92
280.442	46988.32
280.9	46430.38
281.358	30605.49
281.816	28533.94
282.274	27949.11
282.732	28927.79
283.19	29145.05
283.648	25200.87
284.106	26886.54
284.564	27349.7
285.021	25396.92
285.479	18965.58
285.937	17269.65
286.394	15191.61
286.852	15672.63
287.309	16501.28
287.767	15964.08
288.224	15203.66
288.682	16694.39
289.139	18363.4
289.596	16836.06
290.053	17530.36
290.511	22125.56
290.968	26839.46
291.425	36477.53
291.882	30393.48
292.339	26484.2
292.796	26262.88
293.252	24766.23
293.709	19675.75
294.166	17650.57
294.623	19520.05
295.079	18755.15
295.536	18883.56
295.992	17167.45
296.449	17000.18
296.905	17692.51
297.362	16991.03
297.818	17904.49
298.274	18580.99
298.731	18957.93
299.187	18773.64
299.643	20188.06
300.099	24434.52
300.555	26811.05
301.011	22417.42
301.467	21616.78
301.923	25293.9
302.379	24703.74
302.835	24290.65
303.291	24357.77
303.746	27763.83
304.202	35163.28
304.658	35317.54
305.113	23762.92
305.569	23318.62
306.024	24896.32
306.479	23711.18
306.935	20011.35
307.39	21885.22
307.845	20217.98
308.301	20340.57
308.756	19832.65
309.211	19089.25
309.666	19548.86
310.121	24280.63
310.576	24665.52
311.031	24482.97
311.486	28027.38
311.94	28021.19
312.395	37495.42
312.85	70461.29
313.305	346929.76
313.759	1798378.12
314.214	130409.42
314.668	103634.12
315.123	87250.83
315.577	31297
316.032	27895.87
316.486	35027.36
316.94	27683.04
317.394	19285.16
317.849	15012.12
318.303	14221.14
318.757	13420.62
319.211	14847.83
319.665	12996.53
320.119	13143.1
320.572	18848.81
321.026	17600.3
321.48	14649.14
321.934	15980.83
322.387	16011.17
322.841	17297.66
323.295	15511.56
323.748	17876.25
324.202	18143.27
324.655	21792.34
325.108	30449.14
325.562	21530.85
326.015	25590.07
326.468	19364.06
326.921	21671.68
327.374	20233.39
327.827	21086.92
328.28	23926.04
328.733	16024.89
329.186	14096.77
329.639	13428.92
330.092	11345.73
330.545	10810.24
330.997	10914.11
331.45	11941.89
331.903	14000.25
332.355	24087.5
332.808	23388.2
333.26	19306.85
333.713	21017.3
334.165	21180.97
334.617	28317.29
335.069	22869.7
335.522	41295.93
335.974	45725.92
336.426	41735.7
336.878	28850.45
337.33	14598.85
337.782	14284.99
338.234	17900.73
338.686	21375.47
339.137	25352.39
339.589	23906.3
340.041	18750.98
340.493	16167.7
340.944	16550.5
341.396	17826.67
341.847	15027.29
342.299	17765.55
342.75	21718.79
343.201	18947.98
343.653	21828.16
344.104	26806.84
344.555	21095.39
345.006	32859.74
345.457	25174.88
345.908	20057.31
346.359	18872.03
346.81	15381.95
347.261	16218.45
347.712	15965.28
348.163	17169.58
348.613	17368.81
349.064	16255.06
349.515	14241.41
349.965	14605.73
350.416	17569.93
350.866	19281.49
351.317	21835.73
351.767	36157.27
352.217	45770.2
352.668	37933.64
353.118	34728.99
353.568	33521.12
354.018	26476.03
354.468	27926.15
354.918	20072.87
355.368	17600.02
355.818	24838.67
356.268	71511.37
356.718	299452.7
357.168	74517.6
357.617	37448.54
358.067	41668.15
358.517	39021.69
358.966	45900.77
359.416	51491.54
359.865	55725.62
360.315	66407.61
360.764	31061.71
361.213	17391.4
361.663	16486.79
362.112	20422.89
362.561	33017.33
363.01	24916.88
363.459	21013.25
363.908	22698.29
364.357	19281.96
364.806	32522.45
365.255	22352.31
365.703	20476.15
366.152	20537.2
366.601	16674.55
367.05	13508.64
367.498	12290.39
367.947	12840.79
368.395	13341.42
368.844	11831.53
369.292	14280.34
369.74	9886.11
370.189	15128.37
370.637	17732.19
371.085	15278.48
371.533	18595.27
371.981	17954.41
372.429	17148.2
372.877	17884.14
373.325	14961.81
373.773	15246.07
374.221	13589.4
374.669	16827.72
375.116	14585.64
375.564	14715.11
376.012	16488.7
376.459	13587.91
376.907	16204.45
377.354	19572.42
377.801	18277.38
378.249	21073.42
378.696	26880.54
379.143	32534.49
379.591	34735.41
380.038	58731.66
380.485	42530.17
380.932	45991.41
381.379	42147.79
381.826	31022.1
382.273	22044.16
382.72	19221.68
383.166	18729.5
383.613	12195.98
384.06	10986.32
384.506	12714.8
384.953	9342.46
385.4	9392.52
385.846	8221.69
386.292	7998.13
386.739	7834.49
387.185	7755.02
387.631	7776.25
388.078	7544.12
388.524	8058.81
388.97	7453.61
389.416	6216.55
389.862	6610.58
390.308	6269.58
390.754	6359.79
391.2	6923.46
391.645	7094.52
392.091	6779.93
392.537	6556.58
392.983	6566.91
393.428	6454.53
393.874	6918.55
394.319	6952.81
394.765	6587.23
395.21	6771.96
395.655	6367.08
396.101	5960.89
396.546	5383.89
396.991	5441.29
397.436	5052.98
397.881	4885.62
398.326	4628.71
398.771	4378.58
399.216	3824.55
399.661	3446.38
400.106	3433.28
400.551	3507.77
400.995	3150.13
401.44	3111.46
401.885	2922
402.329	2951.5
402.774	2832.12
403.218	2747.89
403.663	2645.37
404.107	2722.92
404.551	2747.41
404.995	2521.9
405.44	2430.97
405.884	2462.48
406.328	2388.44
406.772	2381.64
407.216	2172.22
407.66	2099.15
408.104	1992.94
408.547	1869.18
408.991	1805.68
409.435	1737.95
409.879	1714.69
410.322	1695.82
410.766	1640.03
411.209	1560.72
411.653	1500.58
412.096	1472.65
412.54	1473.69
412.983	1464.13
413.426	1470.03
413.869	1472.03
414.312	1446.28
414.756	1393.39
415.199	1328.4
415.642	1289.71
416.085	1291.3
416.527	1281.31
416.97	1299.53
417.413	1234.66
417.856	1222.71
418.298	1210.36
418.741	1200.81
419.184	1195.82
419.626	1246.27
420.069	1249.59
420.511	1259.32
420.953	1231.89
421.396	1222.92
421.838	1191.68
422.28	1222.37
422.722	1227.7
423.164	1244.85
423.606	1225.24
424.048	1225.7
424.49	1164.5
424.932	1156.4
425.374	1137.74
425.816	1157.12
426.258	1176.95
426.699	1191.43
427.141	1168.69
427.582	1187.23
428.024	1181.51
428.465	1173.7
428.907	1144.69
429.348	1130.6
429.789	1132.15
430.231	1109.87
430.672	1123.72
431.113	1097.7
431.554	1080.73
431.995	1054.84
432.436	1019.01
432.877	996.9
433.318	983.18
433.759	978.9
434.2	979.37
434.64	967.23
435.081	971.37
435.522	919.2
435.962	886.77
436.403	870.11
436.843	880.82
437.284	859.82
437.724	837.51
438.164	837.18
438.604	819.18
439.045	788.5
439.485	759.14
439.925	742.12
440.365	727
440.805	715.96
441.245	706.53
441.685	683.81
442.125	678.81
442.564	683.18
443.004	669.6
443.444	669.04
443.883	672.4
444.323	667.58
444.762	668.49
445.202	679.15
445.641	693.67
446.081	691.04
446.52	698.31
446.959	694.1
447.398	680.1
447.837	672.99
448.276	661.72
448.716	666.74
449.154	672.64
449.593	660.23
450.032	658.88
450.471	648.11
450.91	650.02
451.349	649.05
451.787	647.95
452.226	657.12
452.664	657.11
453.103	659.92
453.541	660.91
453.98	660.31
454.418	664.69
454.856	654.71
455.295	653.99
455.733	659.52
456.171	663.5
456.609	664.9
457.047	666.4
457.485	677.49
457.923	679.13
458.361	670.63
458.798	674.08
459.236	672.21
459.674	676.57
460.111	679.64
460.549	672.74
460.987	670.48
461.424	667.04
461.862	663.28
462.299	652.48
462.736	651.77
463.173	654.09
463.611	648.02
464.048	647.9
464.485	653.75
464.922	647.71
465.359	644.04
465.796	637.5
466.233	633.23
466.67	626.7
467.106	625.68
467.543	618.87
467.98	611.02
468.416	594.87
468.853	590.1
469.29	572.75
469.726	567.8
470.162	554.1
470.599	544.85
471.035	540.36
471.471	528.74
471.907	525.81
472.344	523.08
472.78	525.61
473.216	531.9
473.652	526.34
474.088	525.13
474.523	523.5
474.959	527.68
475.395	523.54
475.831	520.49
476.266	522.36
476.702	521.44
477.138	516.32
477.573	513.7
478.008	510.83
478.444	511.88
478.879	516.57
479.314	518.6
479.75	518.42
480.185	521.22
480.62	526.03
481.055	529.3
481.49	533.22
481.925	540.86
482.36	551.03
482.795	567.4
483.229	583.19
483.664	595.14
484.099	597.68
484.534	607.44
484.968	613.73
485.403	616.02
485.837	615.9
486.271	615.65
486.706	616.7
487.14	609.72
487.574	600.58
488.009	596.05
488.443	591.73
488.877	599.09
489.311	601.14
489.745	608.04
490.179	614.65
490.613	626.87
491.046	631.75
491.48	636.5
491.914	638.33
492.348	644.33
492.781	649.62
493.215	652.61
493.648	654.76
494.082	661.31
494.515	663.65
494.948	672.35
495.382	677.98
495.815	684.75
496.248	692.48
496.681	707.03
497.114	719.02
497.547	730.24
497.98	744.41
498.413	752.23
498.846	763.68
499.279	773.08
499.711	778.65
500.144	782.88
500.577	795.08
501.009	807.48
501.442	818.57
501.874	821.68
502.306	825.86
502.739	835.49
503.171	851.91
503.603	856.92
504.036	868.01
504.468	875.9
504.9	889.13
505.332	897.09
505.764	902.34
506.196	910.65
506.627	927.29
507.059	940.85
507.491	949.93
507.923	948.45
508.354	964.53
508.786	976.54
509.217	995.89
509.649	1012.12
510.08	1032.16
510.512	1050.54
510.943	1067.12
511.374	1078.89
511.805	1100.63
512.237	1121.64
512.668	1154.91
513.099	1183.22
513.53	1211.61
513.961	1232.44
514.391	1264.12
514.822	1297.71
515.253	1333.59
515.684	1358.74
516.114	1388.09
516.545	1408.47
516.975	1433.84
517.406	1451.9
517.836	1453.1
518.267	1458.66
518.697	1475.28
519.127	1478.07
519.558	1484.01
519.988	1485.03
520.418	1493.73
520.848	1509.27
521.278	1515.37
521.708	1532.13
522.138	1543.78
522.567	1573.13
522.997	1595.71
523.427	1609.43
523.857	1624.88
524.286	1632.91
524.716	1647.18
525.145	1664.16
525.575	1673.98
526.004	1688.76
526.433	1679.59
526.863	1678.15
527.292	1667.02
527.721	1672.36
528.15	1676.74
528.579	1676.72
529.008	1687.94
529.437	1710.08
529.866	1722.98
530.295	1739.78
530.724	1750.18
531.152	1775.13
531.581	1787.44
532.01	1805.12
532.438	1814.16
532.867	1828.06
533.295	1846.5
533.723	1851.78
534.152	1849.5
534.58	1849.07
535.008	1833.42
535.436	1835.8
535.865	1844.59
536.293	1859.87
536.721	1874.48
537.149	1899.7
537.576	1903.23
538.004	1915.04
538.432	1921.6
538.86	1918.93
539.287	1927
539.715	1940.6
540.143	1943.39
540.57	1939.63
540.998	1935.55
541.425	1913.11
541.852	1890.93
542.28	1889.76
542.707	1873.62
543.134	1860.81
543.561	1857.69
543.988	1850.12
544.415	1848.63
544.842	1843.56
545.269	1836.3
545.696	1837.84
546.123	1850.48
546.549	1840.63
546.976	1826.55
547.403	1825.73
547.829	1828.22
548.256	1830.04
548.682	1825.81
549.108	1818.99
549.535	1818.87
549.961	1820.55
550.387	1808.05
550.813	1803.09
551.24	1808.65
551.666	1809.67
552.092	1800.72
552.518	1793.06
552.943	1787.41
553.369	1794.51
553.795	1799.86
554.221	1800.21
554.646	1797.43
555.072	1807.26
555.498	1811.97
555.923	1822.99
556.349	1839.28
556.774	1848.25
557.199	1851.26
557.625	1858.12
558.05	1852.95
558.475	1864.16
558.9	1864.28
559.325	1857.41
559.75	1852.56
560.175	1847.45
560.6	1841.23
561.025	1840.25
561.449	1842.28
561.874	1849.06
562.299	1854.01
562.723	1862.36
563.148	1854.58
563.572	1859.92
563.997	1871.12
564.421	1878.22
564.846	1879.98
565.27	1885.17
565.694	1883.79
566.118	1898.03
566.542	1906.96
566.966	1901.64
567.39	1899.4
567.814	1889.52
568.238	1891.24
568.662	1899.14
569.086	1903.6
569.509	1913.67
569.933	1899.31
570.357	1893.82
570.78	1872.84
571.204	1861.09
571.627	1852.59
572.05	1851.66
572.474	1853.45
572.897	1841.73
573.32	1834.51
573.743	1826.79
574.166	1808.2
574.589	1810.44
575.012	1803.57
575.435	1803.72
575.858	1795.19
576.281	1785.64
576.704	1770.4
577.126	1757.37
577.549	1746.78
577.972	1737.56
578.394	1727.02
578.817	1721.64
579.239	1700.88
579.661	1686.96
580.084	1672.37
580.506	1658.54
580.928	1654.38
581.35	1643.91
581.772	1640.92
582.194	1628.99
582.616	1617.23
583.038	1602.92
583.46	1592.09
583.882	1591.12
584.303	1597.74
584.725	1592.18
585.147	1594.88
585.568	1606.38
585.99	1619.25
586.411	1627.27
586.833	1642.01
587.254	1642.9
587.675	1658.08
588.096	1670.9
588.518	1665.65
588.939	1648.39
589.36	1647.83
589.781	1638.27
590.202	1608.77
590.623	1600.83
591.043	1597.07
591.464	1584.92
591.885	1581.52
592.305	1575.44
592.726	1561.42
593.147	1563.67
593.567	1557.49
593.987	1549.13
594.408	1544.13
594.828	1542.33
595.248	1536.13
595.669	1517.42
596.089	1509.46
596.509	1503.42
596.929	1490.1
597.349	1490.93
597.769	1479.89
598.189	1473.59
598.608	1475.57
599.028	1478
599.448	1478.28
599.867	1465.29
600.287	1460.88
600.706	1457.87
601.126	1448.24
601.545	1446.94
601.965	1446.25
602.384	1440.33
602.803	1444.65
603.222	1440.75
603.641	1433.8
604.061	1430.21
604.48	1426.3
604.898	1436.51
605.317	1440.72
605.736	1442.97
606.155	1440.37
606.574	1431.36
606.992	1437.34
607.411	1431.88
607.829	1422.37
608.248	1419.85
608.666	1417.71
609.085	1417.48
609.503	1408.15
609.921	1401.63
610.339	1404.32
610.758	1404.93
611.176	1401.54
611.594	1393.13
612.012	1390.14
612.43	1394.74
612.847	1400.67
613.265	1403
613.683	1407.75
614.101	1409.65
614.518	1406.39
614.936	1396.29
615.353	1381.11
615.771	1377.36
616.188	1378.5
616.606	1374.96
617.023	1368.6
617.44	1354.63
617.857	1346.15
618.274	1337.43
618.691	1331.74
619.108	1322.71
619.525	1317.05
619.942	1323.97
620.359	1326.89
620.776	1320.99
621.192	1317.98
621.609	1315.26
622.026	1321.6
622.442	1329.98
622.859	1334.02
623.275	1325.73
623.691	1331.77
624.108	1342.97
624.524	1358.07
624.94	1358.16
625.356	1370.72
625.772	1383.53
626.188	1396.36
626.604	1399.17
627.02	1393.42
627.436	1392.29
627.852	1400.34
628.268	1412.94
628.683	1403.92
629.099	1394.63
629.514	1389.38
629.93	1392.33
630.345	1396.13
630.761	1392.77
631.176	1396.5
631.591	1390.92
632.007	1384.61
632.422	1382.16
632.837	1369.03
633.252	1365.21
633.667	1353.78
634.082	1344.27
634.497	1329.07
634.911	1309.22
635.326	1303.51
635.741	1283.65
636.155	1271.97
636.57	1271.44
636.984	1269.67
637.399	1271.72
637.813	1271.16
638.228	1269.05
638.642	1272.19
639.056	1260.32
639.47	1258.86
639.884	1249.07
640.298	1241.47
640.712	1238.86
641.126	1223.89
641.54	1213.06
641.954	1205.01
642.368	1190.08
642.781	1180.89
643.195	1161.64
643.609	1161.15
644.022	1153.43
644.436	1146.77
644.849	1133.52
645.262	1120.03
645.676	1120.66
646.089	1114.2
646.502	1098.16
646.915	1091.61
647.328	1072.65
647.741	1068.22
648.154	1052.88
648.567	1049.1
648.98	1034.25
649.393	1032.86
649.805	1027.17
650.218	1018.09
650.631	1002.41
651.043	994.4
651.456	988.08
651.868	986.59
652.28	1002.17
652.693	1016.14
653.105	1020.37
653.517	1029.63
653.929	1030.31
654.341	1035.74
654.753	1023.06
655.165	1026.7
655.577	1023.97
655.989	1017.79
656.401	1010.13
656.813	973.58
657.224	951.39
657.636	923.32
658.047	904.77
658.459	883.08
658.87	871.79
659.282	858.52
659.693	836.74
660.104	820.62
660.515	806.12
660.926	801.62
661.338	797.23
661.749	788.2
662.159	776.47
662.57	769.94
662.981	762.37
663.392	754.09
663.803	755.1
664.213	751.42
664.624	743.97
665.035	743.62
665.445	727.98
665.855	718.67
666.266	708.96
666.676	704.58
667.086	693.11
667.497	691.21
667.907	682.76
668.317	671.32
668.727	666.3
669.137	665.15
669.547	660.36
669.956	660.88
670.366	659.91
670.776	660.38
671.186	661.44
671.595	662.99
672.005	662.65
672.414	660.29
672.824	658.78
673.233	659.53
673.642	660.61
674.052	662.39
674.461	664.01
674.87	667.96
675.279	664.78
675.688	665.19
676.097	665.57
676.506	664.03
676.915	675.63
677.323	676.96
677.732	676.4
678.141	675.62
678.549	666.81
678.958	665.51
679.366	664.51
679.775	669.15
680.183	680.24
680.592	687.52
681	693.93
681.408	690.83
681.816	700.49
682.224	711.02
682.632	722.92
683.04	752.89
683.448	779.73
683.856	811.97
684.264	850.04
684.671	885.51
685.079	927.48
685.487	975.57
685.894	1041.14
686.302	1096.68
686.709	1144.44
687.116	1201.71
687.524	1249.22
687.931	1290.2
688.338	1329.86
688.745	1360.98
689.152	1395.82
689.559	1442.16
689.966	1487.06
690.373	1508.53
690.78	1549.51
691.187	1611.49
691.593	1658.4
692	1698.12
692.407	1758.86
692.813	1831.51
693.22	1890.8
693.626	1951.14
694.032	1998.15
694.439	2071.5
694.845	2127.72
695.251	2199.46
695.657	2262.63
696.063	2358.82
696.469	2430.63
696.875	2495.13
697.281	2528.39
697.687	2567.88
698.093	2599.62
698.498	2669.06
698.904	2721.52
699.31	2803.97
699.715	2861.13
700.12	2947.17
700.526	2960.15
700.931	3021.42
701.337	3066.19
701.742	3092.95
702.147	3172.32
702.552	3199.16
702.957	3253.64
703.362	3267.4
703.767	3289.61
704.172	3323.74
704.577	3271.54
704.981	3311.89
705.386	3324.1
705.791	3313.23
706.195	3382.53
706.6	3388.72
707.004	3460.76
707.408	3425.47
707.813	3449.41
708.217	3434.52
708.621	3432.13
709.025	3523.85
709.43	3520.32
709.834	3575.32
710.237	3638.69
710.641	3619.86
711.045	3636.16
711.449	3628.71
711.853	3653.88
712.256	3688.04
712.66	3719.56
713.064	3789.08
713.467	3826.23
713.87	3930.87
714.274	3972.45
714.677	4074.83
715.08	4225.97
715.484	4384.57
715.887	4575.14
716.29	4762.07
716.693	4958.27
717.096	5183.82
717.499	5306.38
717.901	5326.23
718.304	5348.41
718.707	5363.31
719.109	5261.86
719.512	5226.28
719.915	5093.89
720.317	5035.44
720.719	5074.06
721.122	5040.74
721.524	4990.6
721.926	4948.16
722.328	5036.37
722.731	5023.26
723.133	5049.78
723.535	5227.42
723.937	5244.85
724.338	5288.61
724.74	5324.59
725.142	5261.36
725.544	5261.22
725.945	5286.34
726.347	5278.09
726.748	5269.93
727.15	5281.92
727.551	5242.73
727.952	5213.57
728.354	5186.35
728.755	5186.27
729.156	5142.92
729.557	5128.6
729.958	5010.6
730.359	4954.05
730.76	4936.75
731.161	4879.48
731.562	4853.18
731.962	4855.71
732.363	4794.9
732.763	4733.52
733.164	4765.72
733.564	4702.88
733.965	4613.05
734.365	4580.87
734.766	4606.74
735.166	4565.44
735.566	4513.92
735.966	4490.05
736.366	4480.89
736.766	4424
737.166	4449.12
737.566	4410.48
737.966	4386.65
738.365	4421.6
738.765	4414.62
739.165	4344.96
739.564	4322.74
739.964	4364.76
740.363	4320.82
740.763	4319.51
741.162	4308.3
741.561	4280.48
741.96	4237.95
742.36	4257.8
742.759	4263.19
743.158	4300.54
743.557	4313.46
743.955	4350.46
744.354	4308.51
744.753	4360.81
745.152	4323.87
745.55	4374.95
745.949	4370.51
746.348	4372.77
746.746	4386.46
747.144	4348.94
747.543	4327.21
747.941	4372.43
748.339	4308.74
748.737	4301.28
749.136	4293.23
749.534	4354.39
749.932	4329.32
750.33	4349.23
750.727	4397.83
751.125	4376.32
751.523	4361.39
751.921	4402.83
752.318	4370.63
752.716	4423.48
753.113	4439.33
753.511	4461.96
753.908	4459.69
754.305	4443.64
754.703	4498.68
755.1	4555.9
755.497	4611.29
755.894	4788.51
756.291	4949.16
756.688	5252.76
757.085	5658.28
757.482	6223.42
757.878	6846.78
758.275	7411.55
758.672	8182.5
759.068	8817.42
759.465	9715.16
759.861	10873.89
760.258	12218.66
760.654	12923.39
761.05	12823.71
761.447	12236.53
761.843	11392.46
762.239	10523.02
762.635	10133.49
763.031	9753.8
763.427	9208.52
763.822	8640.44
764.218	8073.29
764.614	7337.88
765.01	6841.9
765.405	6524.04
765.801	6283.57
766.196	5975.58
766.592	5801.45
766.987	5507.5
767.382	5311.75
767.778	5230.45
768.173	5105.55
768.568	5041.15
768.963	4925
769.358	4942.91
769.753	4898.52
770.148	4821.92
770.542	4820.52
770.937	4791.8
771.332	4877.16
771.726	4898.35
772.121	4839.72
772.515	4893.89
772.91	4875.56
773.304	4941.61
773.699	4883.14
774.093	4934.32
774.487	4984.73
774.881	5028.08
775.275	5025.19
775.669	4983.99
776.063	5023.09
776.457	5057.82
776.851	4986.57
777.245	4982.6
777.638	5014.23
778.032	5117.39
778.425	5083.47
778.819	5122.12
779.212	5079.47
779.606	5042.33
779.999	5062.99
780.392	5047.71
780.786	5124.89
781.179	5145.28
781.572	5185.06
781.965	5196.99
782.358	5145.31
782.751	5199.67
783.143	5155.3
783.536	5222.85
783.929	5262.37
784.322	5366.02
784.714	5393.44
785.107	5386.32
785.499	5454.42
785.891	5434.2
786.284	5415.44
786.676	5546.12
787.068	5528.57
787.46	5578.9
787.852	5597.76
788.245	5676.87
788.636	5705.27
789.028	5769.49
789.42	5809.2
789.812	5816.71
790.204	5908.44
790.595	6001.77
790.987	5821.61
791.378	5842.7
791.77	5962.36
792.161	6089.85
792.553	6142.64
792.944	6041.98
793.335	5978.9
793.726	6043.8
794.117	6127.43
794.508	6249.88
794.899	6220.92
795.29	6351.75
795.681	6407.01
796.072	6273.41
796.463	6102.84
796.853	6109.68
797.244	6253.37
797.634	6285.44
798.025	6284.43
798.415	6294
798.806	6377.05
799.196	6457.14
799.586	6506.46
799.976	6469.65
800.366	6685.65
800.756	6905.32
801.146	6867.52
801.536	6893.83
801.926	6960.83
802.316	6990.95
802.706	7059.99
803.095	6948.34
803.485	7045.15
803.874	7079.24
804.264	7318.69
804.653	7291.29
805.043	7432.42
805.432	7541.36
805.821	7548.93
806.21	7572
806.599	7681.94
806.988	7723.44
807.377	7824.04
807.766	7942.41
808.155	8209.63
808.544	7963.71
808.933	7981.2
809.321	7956.73
809.71	8227.69
810.098	8373.51
810.487	8799.33
810.875	9235.11
811.264	9256.31
811.652	9526.85
812.04	9663.05
812.428	9811.07
812.816	10522.9
813.204	10908.29
813.592	11422.84
813.98	11733.74
814.368	11645.55
814.756	12085.67
815.144	12022.53
815.531	12449.14
815.919	12379.1
816.306	12660.57
816.694	12374.13
817.081	12420.07
817.469	12743.96
817.856	12735.07
818.243	12983.04
818.63	13343.09
819.017	12958.17
819.404	13016.29
819.791	13375.21
820.178	13945.98
820.565	14181.95
820.952	15052.98
821.339	14600.45
821.725	14772.96
822.112	14094.56
822.498	14066.43
822.885	14191.43
823.271	14107.49
823.657	14492.17
824.044	14494.66
824.43	14564
824.816	14533.79
825.202	14130.45
825.588	15075.39
825.974	15088.3
826.36	15565.09
826.746	15590
827.132	15916.36
827.517	15891.34
827.903	15170.01
828.289	15211.65
828.674	14493.42
829.06	14399.43
829.445	14761.84
829.83	15087.76
830.216	15528
830.601	15872.49
830.986	15496.81
831.371	15379.1
831.756	15900.21
832.141	15500.41
832.526	15494.98
832.911	15755.34
833.295	15642.36
833.68	16082.25
834.065	15516.79
834.449	14670.48
834.834	14599.13
835.218	14602.84
835.603	14925.3
835.987	14729.7
836.371	15502.65
836.755	15407.8
837.139	15782.46
837.524	16018.13
837.908	15851.58
838.291	15913.47
838.675	15981.42
839.059	16179.55
839.443	16168.97
839.827	15949.73
840.21	16395.38
840.594	16264.43
840.977	16458.12
841.361	16441.42
841.744	16786.26
842.127	16642.92
842.511	16868.43
842.894	17420.07
843.277	17775.55
843.66	18273.77
844.043	18353.53
844.426	17614.94
844.809	17328.99
845.191	17356.23
845.574	16928.86
845.957	16586.92
846.339	16494.36
846.722	15999.53
847.104	16065.79
847.487	15908.15
847.869	15927.23
848.252	16185.89
848.634	16487.76
849.016	16727.01
849.398	16844.67
849.78	17629.19
850.162	17638.94
850.544	18017.05
850.926	18607.21
851.307	18524.45
851.689	18772.96
852.071	19190.74
852.452	19492.3
852.834	19475.49
853.215	19843.22
853.597	19992.99
853.978	20269.88
854.359	20694.41
854.741	19776.13
855.122	19687.72
855.503	19419.86
855.884	19557.92
856.265	19503.86
856.646	19609.48
857.026	19246.36
857.407	19187.2
857.788	19332.31
858.169	19599.85
858.549	18807.35
858.93	19394.58
859.31	19441.69
859.69	19638.87
860.071	19254.76
860.451	19048.47
860.831	18362.12
861.211	19435.22
861.591	19950.44
861.971	19919.55
862.351	20098.18
862.731	20461.9
863.111	20698.52
863.491	21006.43
863.87	21817.77
864.25	22152.04
864.629	21780.33
865.009	22262.94
865.388	23062.35
865.768	24715.7
866.147	24637.01
866.526	23264.2
866.905	23541.32
867.284	24857.66
867.663	23589.38
868.042	22616.97
868.421	22536.3
868.8	22905.49
869.179	23116.68
869.558	21768.01
869.936	20059.29
870.315	20406.8
870.693	20919.37
871.072	22568.29
871.45	21512.24
871.828	21793.17
872.207	22907.59
872.585	22562.01
872.963	23183.76
873.341	22388.13
873.719	22127.32
874.097	21862.25
874.475	22285.35
874.853	22791.49
875.23	21847.45
875.608	22745.62
875.986	24614.26
876.363	23545.65
876.741	24267.38
877.118	23667.8
877.495	24855.61
877.873	25268.79
878.25	26596.04
878.627	25515.97
879.004	25878.79
879.381	25740.63
879.758	25080.94
880.135	23352.43
880.512	24691.93
880.889	24033.17
881.265	23786.59
881.642	23569.92
882.019	23966.41
882.395	23482.37
882.772	24410.12
883.148	23358.39
883.524	23269.99
883.901	23128.38
884.277	23466.8
884.653	23317.51
885.029	23990.35
885.405	26555.29
885.781	26357.89
886.157	25267.3
886.532	25579.67
886.908	25569.39
887.284	28431.63
887.659	29360
888.035	30268.55
888.411	31042.85
888.786	31459.87
889.161	32558.56
889.537	31972.88
889.912	32990.49
890.287	32964.8
890.662	33806.52
891.037	33197.26
891.412	30942.32
891.787	30647.42
892.162	29587.3
892.536	30283.96
892.911	29141.36
893.286	28528.1
893.66	27366.18
894.035	28073.2
894.409	30571.1
894.784	29341.49
895.158	29811.5
895.532	31586.02
895.906	32423.22
896.281	33182.13
896.655	32657.14
897.029	37312
897.402	38853.98
897.776	43266.5
898.15	43131.58
898.524	42688.79
898.898	43246.33
899.271	48431.94
899.645	41947.05
900.018	40300.39
900.392	41800.89
900.765	42142.93
901.138	39019.31
901.511	38424.79
901.884	35290.85
902.258	32541.25
902.631	33611.29
903.003	38673.86
903.376	34903.49
903.749	39136.32
904.122	41889.36
904.495	46108.41
904.867	46688.76
905.24	40525.1
905.612	37727.41
905.985	38562.76
906.357	40330.25
906.729	38489.95
907.102	32899.5
907.474	31651.17
907.846	31861.35
908.218	31454.48
908.59	27808.17
908.962	26890.9
909.334	28978.62
909.705	30454.54
910.077	29567.1
910.449	30770.37
910.82	31651.1
911.192	34822.49
911.563	36180.91
911.935	38722.25
912.306	38779.18
912.677	40044.43
913.048	39664.39
913.419	42996.11
913.79	43226.95
914.161	46354.12
914.532	44304.29
914.903	40677.23
915.274	38650.71
915.645	38085.53
916.015	33520.85
916.386	31978.14
916.756	34023.5
917.127	35105.18
917.497	31371.63
917.868	34149.58
918.238	32451.67
918.608	33380.21
918.978	34092.66
919.348	36095.05
919.718	37275.54
920.088	35904.95
920.458	37271.2
920.828	39245.9
921.198	37214.29
921.567	39747.63
921.937	30781.84
922.306	31091.29
922.676	33540.21
923.045	27973.99
923.415	26586.06
923.784	24213.08
924.153	24890.26
924.522	24875.62
924.891	23381.53
925.26	25032.1
925.629	24441.62
925.998	28111.27
926.367	27438.23
926.736	26128.94
927.104	31123.58
927.473	33457.95
927.842	40414.82
928.21	40043.71
928.578	42090.37
928.947	39809.32
929.315	40067.87
929.683	47040.04
930.051	47384.2
930.42	55004.27
930.788	47030.88
931.156	46663.28
931.523	43739.73
931.891	40434.11
932.259	38839.29
932.627	45018.22
932.994	63731.04
933.362	52638.76
933.729	45674.48
934.097	43738.64
934.464	37010.56
934.831	42682.31
935.199	42119.47
935.566	40859.24
935.933	41479.29
936.3	50245.78
936.667	39136.83
937.034	35294.9
937.401	34943.72
937.767	30194.9
938.134	26891.84
938.501	37982.46
938.867	40469.66
939.234	68447.44
939.6	58403.66
939.967	64190
940.333	42951.96
940.699	36552.43
941.065	29338.72
941.431	38449.12
941.798	37028.97
942.163	48621.15
942.529	30321.38
942.895	27955.01
943.261	18075.88
943.627	23725.72
943.992	20785.75
944.358	20835.97
944.723	20922.41
945.089	20392.17
945.454	18842.81
945.82	20119.07
946.185	19324.03
946.55	22416.77
946.915	20091.69
947.28	23566.57
947.645	20706.67
948.01	19109.11
948.375	19906.64
948.74	23840.52
949.104	27821.89
949.469	40200.56
949.834	71047.54
950.198	67387.19
950.562	40388.57
950.927	33650.64
951.291	40516.93
951.655	34574.19
952.02	32483.85
952.384	24600.92
952.748	21453.92
953.112	20898.67
953.476	18156.91
953.839	16788
954.203	16606.41
954.567	20753.16
954.931	32668.1
955.294	27908.33
955.658	28046.74
956.021	47674.09
956.385	80764.34
956.748	118983.64
957.111	184445.12
957.474	207123.72
957.837	233433.82
958.2	176689.93
958.563	63559.05
958.926	42981.48
959.289	65262.23
959.652	72889.53
960.015	54658.19
960.377	78410.36
960.74	89530.63
961.102	154663.73
961.465	166142.84
961.827	88938.13
962.189	170828.49
962.552	118413.23
962.914	95005.34
963.276	61685.77
963.638	51034.61
964	50617.14
964.362	34221.45
964.724	33078.26
965.085	23596.24
965.447	19359.09
965.809	22082.83
966.17	22084.65
966.532	23915.18
966.893	21929.94
967.255	19946.18
967.616	23546.97
967.977	18839.48
968.338	20590.86
968.699	16918.09
969.061	16914.42
969.421	17013.75
969.782	19066.04
970.143	16133.96
970.504	16713.79
970.865	18995.15
971.225	19415.66
971.586	18973.32
971.946	27028.46
972.307	23449.89
972.667	30664.16
973.027	31589.52
973.388	38286.14
973.748	26036.87
974.108	28303.18
974.468	38294.3
974.828	29564.58
975.188	22746.48
975.548	20900.5
975.907	17577.8
976.267	19712.37
976.627	16573.52
976.986	17175.59
977.346	16385.4
977.705	15771.36
978.064	14358.06
978.424	11948.74
978.783	12344.11
979.142	14103.6
979.501	13503.52
979.86	14270.77
980.219	13743.3
980.578	17706.27
980.937	19815.61
981.296	17659.04
981.654	18161.03
982.013	28306.25
982.371	36746.94
982.73	34306.53
983.088	38788.94
983.447	41377.43
983.805	59020.32
984.163	123439.64
984.521	136860.58
984.879	200766.33
985.237	-326584.25
985.595	315382.69
985.953	78286.76
986.311	45191.16
986.669	26260.43
987.026	22674.34
987.384	30541.65
987.741	31586.03
988.099	22531.07
988.456	17980.81
988.814	16838.9
989.171	14619.92
989.528	14411.7
989.885	15231.32
990.242	12060.88
990.599	15043.5
990.956	12318.48
991.313	8608.63
991.67	7090.28
992.027	7533.59
992.383	6690.99
992.74	5871.41
993.096	6170.8
993.453	6393.09
993.809	6617.6
994.165	8822.16
994.522	8072.6
994.878	8883.28
995.234	11139.19
995.59	10958.16
995.946	10371.26
996.302	11830.99
996.658	13651.47
997.013	15007.92
997.369	17800.42
997.725	22746.09
998.08	14723.49
998.436	22677.28
998.791	31282.2
999.147	31285.05
999.502	34103.92
999.857	24792.29
1000.212	40371.65
1000.567	57476.72
1000.922	33175.08
1001.277	21065.43
1001.632	15656.19
1001.987	20121.89
1002.342	14449.84
1002.696	11572.86
1003.051	9229.53
1003.406	11180.54
1003.76	11133.61
1004.114	10989.84
1004.469	9264.02
1004.823	7679.28
1005.177	8297.12
1005.531	6571.69
1005.885	5829.47
1006.239	6571.81
1006.593	8222.71
1006.947	11017.04
1007.301	8287.29
1007.655	9011.51
1008.008	6624.22
1008.362	7423.38
1008.715	10601.36
1009.069	9623.01
1009.422	14505.26
1009.776	29129.16
1010.129	19364.12
1010.482	16211.91
1010.835	13668.62
1011.188	28413.55
1011.541	26843.59
1011.894	-164414.7
1012.247	484522.75
1012.6	32848.44
1012.952	20744.36
1013.305	10687.86
1013.657	7703.14
1014.01	7294.79
1014.362	6016.82
1014.715	5341.06
1015.067	4640.2
1015.419	4521.88
1015.771	3994.31
1016.123	3551.45
1016.475	3645.44
1016.827	3882.97
1017.179	4180.98
1017.531	4220.82
1017.883	4311.22
1018.234	4163.39
1018.586	5274.56
1018.938	5596.1
1019.289	7725.54
1019.64	8869.66
1019.992	8269.68
1020.343	7601.29
1020.694	6019.13
1021.045	5308.81
1021.396	6068.58
1021.747	6513.18
1022.098	7816.03
1022.449	5675.13
1022.8	5253.96
1023.151	3665.23
1023.501	3237.7
1023.852	3509.11
1024.202	3630.88
1024.553	3979.63
1024.903	3909.66
1025.253	3357.1
1025.604	3010.81
1025.954	3745.53
1026.304	4545.24
1026.654	5328.52
1027.004	7813.74
1027.354	12624.44
1027.703	11850.58
1028.053	15546.3
1028.403	22780.7
1028.753	32820.78
1029.102	44216.63
1029.452	226809.72
1029.801	9727.66
1030.15	6292.18
1030.499	5304.89
897.758	2616.27
901.051	2576.83
904.343	2609.74
907.636	2610.06
910.928	2675.15
914.22	2585.56
917.511	2592.22
920.803	2654.62
924.094	2672.87
927.384	2657.38
930.675	2622.43
933.965	2576.66
937.255	2586.75
940.544	2554.88
943.834	2503.18
947.123	2444.79
950.411	2540.45
953.7	2514.44
956.988	2482.51
960.276	2422.95
963.563	2500.16
966.851	2494.48
970.138	2550.08
973.424	2541.63
976.711	2493.24
979.997	2616.22
983.283	2651.91
986.568	2558.98
989.853	2574.58
993.138	2601.61
996.423	2682.45
999.708	2621.99
1002.992	2683.5
1006.275	2530.16
1009.559	2571.76
1012.842	2681.75
1016.125	2613.57
1019.408	2595.86
1022.69	2681.06
1025.972	2697.15
1029.254	2673.03
1032.536	2606.78
1035.817	2631.76
1039.098	2579.02
1042.379	2713.3
1045.659	2716.2
1048.939	2653.54
1052.219	2672.41
1055.498	2681.44
1058.778	2666.52
1062.057	2651.73
1065.335	2673.58
1068.614	2689.68
1071.892	2676.84
1075.17	2748.98
1078.447	2739.05
1081.724	2727.44
1085.001	2762.39
1088.278	2739.35
1091.554	2750.64
1094.83	2746.74
1098.106	2775.23
1101.382	2816.63
1104.657	2820.13
1107.932	2813.33
1111.206	2780.97
1114.481	2739.53
1117.755	2740.6
1121.029	2719.79
1124.302	2770.99
1127.575	2725.6
1130.848	2712.53
1134.121	2673.59
1137.393	2625.4
1140.665	2691.69
1143.937	2664.44
1147.208	2626.18
1150.48	2665.37
1153.75	2654.16
1157.021	2686.2
1160.291	2657.34
1163.561	2701.97
1166.831	2691.84
1170.101	2725.19
1173.37	2700.2
1176.639	2644.4
1179.907	2703.27
1183.176	2708.21
1186.444	2713.6
1189.711	2740.66
1192.979	2756.13
1196.246	2711.48
1199.513	2729.38
1202.78	2727.45
1206.046	2735.92
1209.312	2761.04
1212.578	2784.68
1215.843	2738.51
1219.108	2713.49
1222.373	2739.24
1225.638	2703.69
1228.902	2684.48
1232.166	2652.73
1235.43	2632.89
1238.693	2656.2
1241.956	2652.14
1245.219	2691.36
1248.482	2683.79
1251.744	2678.83
1255.006	2825.35
1258.268	2776.28
1261.529	2722.13
1264.79	2728.72
1268.051	2832.15
1271.312	2848.51
1274.572	2811.33
1277.832	2802.62
1281.092	2793.25
1284.351	2767.75
1287.61	2746.8
1290.869	2662.07
1294.128	2641.96
1297.386	2728.38
1300.644	2716.42
1303.902	2725.57
1307.159	2588.48
1310.416	2642.14
1313.673	2664.35
1316.93	2649.09
1320.186	2694.36
1323.442	2736.58
1326.697	2727.26
1329.953	2718.12
1333.208	2739.89
1336.463	2721.65
1339.717	2662.57
1342.972	2795.38
1346.226	2770.8
1349.479	2706.75
1352.733	2676.57
1355.986	2700.13
1359.238	2677.1
1362.491	2678.54
1365.743	2680.21
1368.995	2675.62
1372.247	2689.46
1375.498	2713.92
1378.749	2725.38
1382	2686.78
1385.251	2739.33
1388.501	2700.44
1391.751	2683.69
1395	2656.84
1398.25	2688.07
1401.499	2697.99
1404.748	2627.14
1407.996	2614.81
1411.244	2599.08
1414.492	2583.01
1417.74	2558.46
1420.987	2566.15
1424.234	2623.98
1427.481	2602.91
1430.728	2660.39
1433.974	2635.09
1437.22	2648.19
1440.465	2651.13
1443.711	2617.05
1446.956	2653.19
1450.201	2638.94
1453.445	2682.81
1456.689	2662.83
1459.933	2673.26
1463.177	2704.74
1466.42	2677.95
1469.663	2657.98
1472.906	2651.09
1476.148	2718.3
1479.391	2690.17
1482.633	2657.84
1485.874	2667.62
1489.115	2655.81
1492.356	2660.91
1495.597	2636.57
1498.838	2641.17
1502.078	2608.68
1505.318	2561.09
1508.557	2603.46
1511.797	2583.19
1515.036	2642.75
1518.274	2634.96
1521.513	2608.08
1524.751	2629.27
1527.989	2640.68
1531.227	2655.05
1534.464	2647.46
1537.701	2666.69
1540.938	2685.49
1544.174	2637.06
1547.41	2638.07
1550.646	2675.36
1553.882	2711.27
1557.117	2765.43
1560.352	2776.2
1563.587	2734.95
1566.821	2696.58
1570.055	2731.41
1573.289	2701.64
1576.523	2774.54
1579.756	2785.75
1582.989	2800.4
1586.222	2764.09
1589.454	2798.01
1592.686	2770.69
1595.918	2797.8
1599.15	2787.41
1602.381	2859.18
1605.612	2815.26
1608.843	2912.07
1612.073	2827.1
1615.303	2808.12
1618.533	2801.94
1621.762	2802
1624.992	2794.47
1628.221	2779.77
1631.449	2765.55
1634.678	2821.14
1637.906	2775.43
1641.134	2814.39
1644.361	2770.23
1647.588	2757.92
1650.815	2776.05
1654.042	2756.05
1657.269	2787.01
1660.495	2737.16
1663.72	2761.96
1666.946	2726.3
1670.171	2670.48
1673.396	2649.57
1676.621	2634.03
1679.845	2655.77
1683.069	2676.48
1686.293	2717.21
1689.517	2688.52
1692.74	2620.31
1695.963	2649.65
1699.185	2664.41
1702.408	2641.06
1705.63	2681.99
1708.852	2692.28
1712.073	2667.18
1715.294	2650.57
1718.515	2710.23
1721.736	2658.12
1724.956	2651.54
1728.176	2676.67
1731.396	2698.17
1734.616	2686.63
1737.835	2715.1
1741.054	2694.47
1744.272	2685.08
1747.491	2716.23
1750.709	2770.93
1753.927	2678.58
1757.144	2724.51
1760.361	2764.53
1763.578	2758.84
1766.795	2701.95
1770.011	2706.93
1773.227	2743.71
1776.443	2779.57
1779.658	2826.11
1782.874	2769.8
1786.089	2744.43
1789.303	2747.29
1792.518	2752.33
1795.732	2743.02
1798.945	2748.14
1802.159	2798.78
1805.372	2703.48
1808.585	2689.41
1811.797	2691.39
1815.01	2738.28
1818.222	2740.44
1821.434	2728.38
1824.645	2785.94
1827.856	2769.06
1831.067	2802.44
1834.278	2762.39
1837.488	2744.64
1840.698	2890.45
1843.908	2817.72
1847.117	2782.62
1850.326	2669.2
1853.535	2772.13
1856.744	2783.41
1859.952	2698.57
1863.16	2701.66
1866.368	2723.33
1869.575	2825
1872.782	2712.62
1875.989	2651.87
1879.196	2735.72
1882.402	2725.33
1885.608	2765.43
1888.814	2668.51
1892.019	2568
1895.224	2619.55
1898.429	2602.61
1901.634	2581.93
1904.838	2559.97
1908.042	2607.38
1911.246	2616.83
1914.449	2548.76
1917.652	2544.8
1920.855	2530.01
1924.058	2576.99
1927.26	2613.57
1930.462	2642.38
1933.664	2668.02
1936.865	2606.37
1940.066	2611.85
1943.267	2562.65
1946.467	2579.14
1949.668	2605.39
1952.868	2668.85
1956.067	2646.86
1959.267	2579.64
1962.466	2606.33
1965.665	2591.22
1968.863	2585.27
1972.061	2600.54
1975.259	2601.63
1978.457	2676.46
1981.654	2634.02
1984.852	2633.98
1988.048	2572.13
1991.245	2574.72
1994.441	2656.67
1997.637	2642.8
2000.833	2623.14
2004.028	2666.02
2007.223	2719.84
2010.418	2694.6
2013.613	2657.57
2016.807	2628.15
2020.001	2637.26
2023.194	2678.33
2026.388	2656.27
2029.581	2603.32
2032.774	2650.56
2035.966	2654.69
2039.158	2585.34
2042.35	2611.18
2045.542	2544.07
2048.733	2641.43
2051.924	2664.12
2055.115	2690.93
2058.306	2637.14
2061.496	2696.1
2064.686	2758.61
2067.875	2674.51
2071.065	2691.42
2074.254	2716.21
2077.442	2668.35
2080.631	2755.04
2083.819	2650.92
2087.007	2633.42
2090.195	2603.71
2093.382	2638.17
2096.569	2617.03
2099.756	2573.46
2102.942	2598.26
2106.128	2602.6
2109.314	2595.7
2112.5	2560.66
2115.685	2536.44
2118.87	2547.2
2122.055	2609.96
2125.239	2579.25
2128.424	2554.08
2131.608	2654.45
2134.791	2636.42
2137.974	2693.88
2141.157	2679.32
2144.34	2630.21
2147.523	2647.05
2150.705	2661.75
2153.887	2640.09
2157.068	2592.87
2160.25	2592.24
2163.431	2628.39
2166.611	2575.58
2169.792	2591.35
2172.972	2485.78
2176.152	2563.72
2179.331	2600.33
2182.511	2578.96
2185.69	2608.36
2188.868	2603.81
2192.047	2656.19
2195.225	2645.98
2198.403	2597.28
2201.58	2588.67
2204.758	2587.78
2207.935	2670.2
2211.111	2556.83
2214.288	2539.04
2217.464	2580.9
2220.64	2550.49
2223.815	2603.28
2226.991	2525.99
2230.166	2547.41
2233.34	2576.59
2236.515	2600.54
2239.689	2667.98
2242.863	2613.41
2246.036	2674.04
2249.209	2673.42
2252.382	2707.82
2255.555	2695.57
2258.727	2633.58
2261.9	2675.41
2265.071	2666.03
2268.243	2668.26
2271.414	2601.37
2274.585	2565.22
2277.756	2631.79
2280.926	2585.1
2284.096	2626.85
2287.266	2533.22
2290.436	2588.13
2293.605	2617.95
2296.774	2645.43
2299.942	2666.26
2303.111	2683.76
2306.279	2732.33
2309.447	2719.26
2312.614	2695.93
2315.781	2717.74
2318.948	2686.4
2322.115	2725.04
2325.281	2627.86
2328.447	2647.88
2331.613	2624.38
2334.779	2598.64
2337.944	2598.77
2341.109	2597.07
2344.274	2578.06
2347.438	2543.45
2350.602	2569.11
2353.766	2588.19
2356.929	2575.07
2360.092	2617.97
2363.255	2569.13
2366.418	2503.69
2369.58	2614.5
2372.742	2410.52
2375.904	2424.18
2379.066	2402.94
2382.227	2435.89
2385.388	2399.35
2388.548	2325.46
2391.709	2379.58
2394.869	2356.7
2398.029	2454.76
2401.188	2467.86
2404.347	2403.25
2407.506	2539.23
2410.665	2569.02
2413.823	2573.15
2416.981	2532.39
2420.139	2561.74
2423.296	2610.88
2426.453	2582.61
2429.61	2610.55
2432.767	2544.25
2435.923	2581.68
2439.079	2547.21
2442.235	2595.52
2445.391	2521.57
2448.546	2553.17
2451.701	2599.81
2454.855	2572.51
2458.009	2624.62
2461.163	2624.9
2464.317	2583.5
2467.471	2617.13
2470.624	2653.3
2473.777	2622.47
2476.929	2636.02
2480.082	2663.97
2483.234	2627.23
2486.385	2582.33
2489.537	2574.81
2492.688	2538.43
2495.839	2558.52
2498.989	2569.59
2502.14	2554.65
2505.29	2539.36
2508.439	2561.91
2511.589	2486.42
2514.738	2498.22
2517.887	2529.89
2521.035	2593.92
2524.183	2577.06
2527.331	2554.94
2530.479	2529.39
2533.627	2538.37
