Data from C_2_DEC_CT_2N_Splice17_12-29-45-550.txt Node
Date: Sat Mar 14 12:29:45 EDT 2020
User: sa697716
Spectrometer: FLMS03696
Trigger mode: 0
Integration Time (sec): 3.180400E-1
Scans to average: 20
Electric dark correction enabled: true
Nonlinearity correction enabled: true
Boxcar width: 5
XAxis mode: Wavelengths
Number of Pixels in Spectrum: 2048
>>>>>Begin Spectral Data<<<<<
187.83	-303700.24
188.298	2254.04
188.766	1263.2
189.233	1049.07
189.701	1452.31
190.169	1958.25
190.636	724.29
191.104	580.87
191.571	66.32
192.039	-85.69
192.506	-70.41
192.974	346.95
193.441	-447.48
193.908	39.31
194.375	-69.86
194.842	-14.5
195.31	34.75
195.777	169.54
196.244	405.18
196.711	455.11
197.177	572.27
197.644	786.49
198.111	1301.14
198.578	1808.92
199.045	1457.38
199.511	2376.04
199.978	2743.17
200.445	2297.62
200.911	2509.13
201.378	2741.18
201.844	2507.45
202.31	4253.22
202.777	4465.79
203.243	2480.27
203.709	2344.72
204.176	2791.1
204.642	2313.44
205.108	2171.1
205.574	1774.74
206.04	1610.83
206.506	1531.96
206.972	1427.23
207.438	1371.82
207.903	1552.09
208.369	1371.92
208.835	1372
209.301	1445.44
209.766	1478.31
210.232	1467.27
210.697	1830.14
211.163	2279.58
211.628	3433.63
212.094	2897.99
212.559	3591.18
213.024	2242.01
213.49	2753.7
213.955	2718.63
214.42	2629.91
214.885	2477.82
215.35	2376.21
215.815	2319.62
216.28	2458.79
216.745	2011.07
217.21	2201.82
217.675	2042.68
218.14	2329.05
218.604	2633.72
219.069	3038.34
219.534	3246.9
219.998	3804.76
220.463	4682.88
220.927	5836.37
221.392	5567.55
221.856	5686.58
222.32	7228.78
222.785	8999.01
223.249	11395.87
223.713	12803.86
224.177	12907.3
224.642	16680.04
225.106	20670.45
225.57	22701.92
226.034	16951.92
226.497	25898.65
226.961	23452.68
227.425	27414.47
227.889	30516.35
228.353	30651.46
228.816	63499.1
229.28	60874.3
229.744	51504.16
230.207	31383.73
230.671	30945.91
231.134	51279.15
231.597	59258.88
232.061	59495.06
232.524	58113.44
232.987	40080.05
233.45	36138.55
233.914	32443.22
234.377	33294.07
234.84	30474.71
235.303	35955.28
235.766	40191.58
236.229	41570.71
236.691	26211.5
237.154	29454.29
237.617	22184.03
238.08	22762.54
238.542	26653.35
239.005	19076.5
239.468	18966.78
239.93	17900.85
240.393	16274.72
240.855	14283.34
241.317	14648.36
241.78	17837.62
242.242	18462.51
242.704	19953.57
243.166	17382.74
243.629	15783.5
244.091	18206.46
244.553	19957.52
245.015	21470.2
245.477	27824.38
245.939	40878.93
246.4	43442.13
246.862	42247.81
247.324	39872.71
247.786	44680.36
248.247	58675.43
248.709	60711.83
249.17	45462.85
249.632	42906.19
250.093	49782.13
250.555	43019.86
251.016	26250.63
251.477	24917.4
251.939	26931.37
252.4	28302.1
252.861	33683.27
253.322	31352.21
253.783	37358.53
254.244	48483.64
254.705	38263.36
255.166	34042.98
255.627	33569.38
256.088	47402.45
256.549	50420.28
257.009	43496.92
257.47	52837.65
257.931	43103.85
258.391	32366.28
258.852	33423.8
259.312	35110.14
259.773	43430.54
260.233	36803.64
260.694	31118.59
261.154	35372.21
261.614	28432.57
262.074	25458.03
262.534	26493.56
262.994	25009.04
263.455	33367.02
263.915	28171.64
264.374	26604.91
264.834	29112.98
265.294	32332.61
265.754	33535.52
266.214	31806.74
266.673	29880.47
267.133	37800.02
267.593	37614.92
268.052	46137.77
268.512	40218.14
268.971	48539.38
269.431	53320.51
269.89	47827.02
270.349	71809.84
270.809	80265.54
271.268	72295.8
271.727	162333.43
272.186	105431.31
272.645	79242.31
273.104	57266.84
273.563	83033.96
274.022	65471.86
274.481	55829.92
274.94	43107.3
275.399	32113.71
275.857	37453.16
276.316	50763.71
276.775	45266.71
277.233	44619.81
277.692	41756.1
278.15	47257.53
278.609	48671.48
279.067	45076.05
279.525	41886.44
279.984	54145.4
280.442	65103.65
280.9	64217.69
281.358	42267.7
281.816	39438.28
282.274	38658.66
282.732	40021.91
283.19	40287.48
283.648	34813.8
284.106	37139.9
284.564	37809.32
285.021	35087.58
285.479	26157.44
285.937	23797.16
286.394	20882.82
286.852	21491.2
287.309	22598.94
287.767	21848.81
288.224	20798.77
288.682	22856.24
289.139	25096.2
289.596	22987.02
290.053	23910.76
290.511	30251.68
290.968	36811.13
291.425	50101.22
291.882	41756.82
292.339	36380.37
292.796	36175.4
293.252	34128.85
293.709	27128.96
294.166	24351.33
294.623	26944.27
295.079	25905.07
295.536	26031.47
295.992	23611.36
296.449	23341.87
296.905	24283.9
297.362	23281.23
297.818	24484.74
298.274	25423.47
298.731	25949.37
299.187	25702.72
299.643	27621.53
300.099	33421.63
300.555	36689.05
301.011	30707.19
301.467	29624.14
301.923	34718.19
302.379	33967.06
302.835	33392.88
303.291	33430.12
303.746	38055.83
304.202	48104.02
304.658	48339.17
305.113	32522.19
305.569	31892.73
306.024	34020.77
306.479	32406.44
306.935	27317.66
307.39	29846.14
307.845	27587.04
308.301	27787.87
308.756	27080.26
309.211	26099.46
309.666	26740.12
310.121	33211.23
310.576	33733.32
311.031	33510.84
311.486	38420.42
311.94	38456.13
312.395	51505.61
312.85	96796.05
313.305	476298.31
313.759	2463422.95
314.214	178621.04
314.668	141627.25
315.123	119063.4
315.577	42708.37
316.032	38035.24
316.486	47694.62
316.94	37622.31
317.394	26202.31
317.849	20395.8
318.303	19334.56
318.757	18279.49
319.211	20278.94
319.665	17792.35
320.119	18056.11
320.572	25943.49
321.026	24233.04
321.48	20188.62
321.934	22063.49
322.387	22132.46
322.841	23902.38
323.295	21465.48
323.748	24776.26
324.202	25095.7
324.655	30096.13
325.108	42003.08
325.562	29665.1
326.015	35261.75
326.468	26672.53
326.921	29822.59
327.374	27804.53
327.827	28960.16
328.28	32846.43
328.733	22005.82
329.186	19371.38
329.639	18505.17
330.092	15611.97
330.545	14875.12
330.997	15011.28
331.45	16387.48
331.903	19194.06
332.355	33106.8
332.808	32216.57
333.26	26577.85
333.713	28873.22
334.165	29091.13
334.617	38818.5
335.069	31422.28
335.522	56845.54
335.974	62984.98
336.426	57675.19
336.878	40003.05
337.33	20261.87
337.782	19803.85
338.234	24798.99
338.686	29708.17
339.137	35212.51
339.589	33223.01
340.041	26079.88
340.493	22428.55
340.944	22982.51
341.396	24748.81
341.847	20821.33
342.299	24555.13
342.75	29967.17
343.201	26234.38
343.653	30205.39
344.104	37164.52
344.555	29209.79
345.006	45478.98
345.457	34836.79
345.908	27742.81
346.359	26123.03
346.81	21301.8
347.261	22494.68
347.712	22191.32
348.163	23801.41
348.613	24064.4
349.064	22506.01
349.515	19741.55
349.965	20246.32
350.416	24405.81
350.866	26753.52
351.317	30315.05
351.767	50187.69
352.217	63419.56
352.668	52695
353.118	48305.5
353.568	46622.74
354.018	36820.3
354.468	38808.28
354.918	27860.64
355.368	24387.84
355.818	34504.32
356.268	99269.3
356.718	415365.72
357.168	103429.81
357.617	51844.75
358.067	57750.59
358.517	54115.57
358.966	63536.96
359.416	71243.86
359.865	76989.2
360.315	91647.52
360.764	42760.81
361.213	23928.39
361.663	22731.41
362.112	28067.77
362.561	45358.1
363.01	34171.11
363.459	28787.25
363.908	31134.26
364.357	26439.35
364.806	44682.11
365.255	30740.88
365.703	28162.53
366.152	28242.44
366.601	22889.23
367.05	18575.77
367.498	16854.79
367.947	17627.89
368.395	18318.57
368.844	16216.32
369.292	19565.46
369.74	13494.39
370.189	20685.18
370.637	24244.61
371.085	20861.62
371.533	25378.12
371.981	24473.08
372.429	23319.83
372.877	24266.29
373.325	20309.58
373.773	20711.98
374.221	18433.03
374.669	22872.88
375.116	19759.25
375.564	19892.13
376.012	22284.25
376.459	18371.63
376.907	21952.19
377.354	26562.41
377.801	24738.85
378.249	28404.33
378.696	36256.45
379.143	43871.19
379.591	46766.19
380.038	79030.41
380.485	57093.96
380.932	61628.17
381.379	56279.33
381.826	41361.02
382.273	29390.76
382.72	25697.48
383.166	25037.52
383.613	16240.31
384.06	14644.98
384.506	16915.66
384.953	12420.36
385.4	12505.16
385.846	10928.2
386.292	10650.77
386.739	10409.2
387.185	10274.74
387.631	10267.37
388.078	9936.98
388.524	10620.85
388.97	9793.6
389.416	8166.18
389.862	8669.48
390.308	8202.98
390.754	8328.79
391.2	9033.95
391.645	9242.73
392.091	8834.17
392.537	8544.5
392.983	8568.93
393.428	8413.24
393.874	9015.58
394.319	9039.22
394.765	8579.7
395.21	8831.84
395.655	8286.2
396.101	7755.53
396.546	7005.8
396.991	7077.33
397.436	6573.21
397.881	6354.38
398.326	6031
398.771	5713.13
399.216	5008.56
399.661	4510.85
400.106	4492.24
400.551	4609.37
400.995	4140.3
401.44	4096.18
401.885	3858.17
402.329	3904.49
402.774	3748.91
403.218	3627.62
403.663	3496.79
404.107	3594.63
404.551	3619.91
404.995	3323.85
405.44	3199.37
405.884	3255.97
406.328	3156.42
406.772	3150.81
407.216	2870.61
407.66	2776.08
408.104	2642.29
408.547	2477.29
408.991	2398.85
409.435	2314.86
409.879	2286.28
410.322	2260
410.766	2182.23
411.209	2076.9
411.653	1993.98
412.096	1956.19
412.54	1960.8
412.983	1951.09
413.426	1957.51
413.869	1962.72
414.312	1926.34
414.756	1858.07
415.199	1773.8
415.642	1722.91
416.085	1729.64
416.527	1718.76
416.97	1746.05
417.413	1660.56
417.856	1645.8
418.298	1632.7
418.741	1621.06
419.184	1620.68
419.626	1692.79
420.069	1699.13
420.511	1712.87
420.953	1674.66
421.396	1660.84
421.838	1618.87
422.28	1655.92
422.722	1661.55
423.164	1683.57
423.606	1655.53
424.048	1650.83
424.49	1567.59
424.932	1557.23
425.374	1534.74
425.816	1561.63
426.258	1592.41
426.699	1610.97
427.141	1583.8
427.582	1611.51
428.024	1605.71
428.465	1597.13
428.907	1556.76
429.348	1536.24
429.789	1531.94
430.231	1497.52
430.672	1517.78
431.113	1477.21
431.554	1455.87
431.995	1419.13
432.436	1364.31
432.877	1329.32
433.318	1304.65
433.759	1299.97
434.2	1296.62
434.64	1284.55
435.081	1287.6
435.522	1216.72
435.962	1174.96
436.403	1146.94
436.843	1161.24
437.284	1135.62
437.724	1103.65
438.164	1103.93
438.604	1079.52
439.045	1037.17
439.485	993.46
439.925	971.39
440.365	946.65
440.805	930.53
441.245	917.43
441.685	882.4
442.125	873.52
442.564	880.24
443.004	859.37
443.444	853.12
443.883	853.05
444.323	842.48
444.762	841.79
445.202	851.98
445.641	865.9
446.081	858.54
446.52	863.99
446.959	855.12
447.398	831.93
447.837	820.98
448.276	806.64
448.716	813.18
449.154	821.79
449.593	802.61
450.032	797.41
450.471	780.92
450.91	780.72
451.349	779.08
451.787	776.89
452.226	787.67
452.664	787.44
453.103	789.5
453.541	788.35
453.98	785.03
454.418	789.43
454.856	778.48
455.295	779.23
455.733	786.31
456.171	789.63
456.609	789.81
457.047	790.45
457.485	801.15
457.923	801.92
458.361	792.02
458.798	796.14
459.236	793.4
459.674	797.83
460.111	799.69
460.549	790.99
460.987	788.62
461.424	785.45
461.862	780.72
462.299	768.32
462.736	767.64
463.173	769.52
463.611	760.34
464.048	759.36
464.485	766.61
464.922	759.64
465.359	755.9
465.796	745.81
466.233	739.82
466.67	734.3
467.106	733.08
467.543	726.15
467.98	717.08
468.416	697.83
468.853	692.31
469.29	670.31
469.726	663.16
470.162	646.06
470.599	638.4
471.035	632.51
471.471	615.74
471.907	611.35
472.344	606.5
472.78	607.54
473.216	615.56
473.652	608.14
474.088	607.26
474.523	605.6
474.959	611.42
475.395	604.33
475.831	600.29
476.266	603.85
476.702	602.61
477.138	596.11
477.573	593.86
478.008	591.62
478.444	594.34
478.879	599.24
479.314	602.09
479.75	601.75
480.185	605.3
480.62	611.22
481.055	614.42
481.49	618.54
481.925	627.67
482.36	638.83
482.795	657.17
483.229	674.42
483.664	688.96
484.099	691.98
484.534	702.5
484.968	709.5
485.403	711.72
485.837	711.49
486.271	710.81
486.706	711.67
487.14	703.9
487.574	692.15
488.009	686.54
488.443	680.9
488.877	687.24
489.311	689.08
489.745	697.02
490.179	703.4
490.613	715.45
491.046	720.68
491.48	724.98
491.914	725.12
492.348	730.25
492.781	734.52
493.215	734.54
493.648	735.25
494.082	740.83
494.515	740.84
494.948	748.27
495.382	752.45
495.815	757.12
496.248	762.73
496.681	776.58
497.114	788.28
497.547	797.95
497.98	812.44
498.413	818.65
498.846	827.22
499.279	835.56
499.711	839.31
500.144	842.19
500.577	852.12
501.009	863.75
501.442	872.78
501.874	873
502.306	873.77
502.739	880.35
503.171	894.31
503.603	897.4
504.036	905.82
504.468	910.24
504.9	919.7
505.332	925.11
505.764	927.84
506.196	933.5
506.627	947.57
507.059	959.65
507.491	965.66
507.923	962.02
508.354	975.32
508.786	984.03
509.217	1001.09
509.649	1014.29
510.08	1032.32
510.512	1047.08
510.943	1059.09
511.374	1068.73
511.805	1086.65
512.237	1104.4
512.668	1134.26
513.099	1159.11
513.53	1183.92
513.961	1201.41
514.391	1230.62
514.822	1260.61
515.253	1292
515.684	1314.23
516.114	1339.73
516.545	1357.51
516.975	1379.68
517.406	1393.18
517.836	1392.14
518.267	1395.13
518.697	1408.66
519.127	1408.57
519.558	1411.3
519.988	1411.48
520.418	1419.06
520.848	1431.44
521.278	1436.12
521.708	1453.86
522.138	1463.07
522.567	1489.34
522.997	1510.35
523.427	1521.5
523.857	1536.74
524.286	1544.32
524.716	1556.81
525.145	1571.49
525.575	1579.58
526.004	1590.64
526.433	1577.11
526.863	1575.65
527.292	1564.15
527.721	1567.89
528.15	1571.76
528.579	1568.97
529.008	1577.12
529.437	1596.15
529.866	1607.06
530.295	1621.28
530.724	1631.62
531.152	1656.45
531.581	1668.37
532.01	1683.6
532.438	1689.61
532.867	1702.14
533.295	1718.9
533.723	1723.12
534.152	1719.56
534.58	1719.04
535.008	1705.27
535.436	1707.1
535.865	1713.56
536.293	1726.13
536.721	1740.85
537.149	1764.04
537.576	1767.81
538.004	1778.43
538.432	1785.32
538.86	1784.88
539.287	1791.65
539.715	1802.09
540.143	1804.42
540.57	1799.16
540.998	1794.97
541.425	1773.21
541.852	1753.7
542.28	1751.24
542.707	1736.89
543.134	1723.95
543.561	1719.47
543.988	1711.85
544.415	1711.15
544.842	1706.71
545.269	1700.2
545.696	1702.36
546.123	1714.5
546.549	1704.05
546.976	1690.29
547.403	1689.22
547.829	1690.96
548.256	1692.98
548.682	1690.43
549.108	1683.71
549.535	1682.47
549.961	1684.62
550.387	1672.84
550.813	1667.09
551.24	1672.61
551.666	1673.25
552.092	1664.69
552.518	1658.04
552.943	1652.32
553.369	1657.92
553.795	1663.9
554.221	1664.98
554.646	1662.61
555.072	1672.69
555.498	1676.58
555.923	1685.58
556.349	1701.36
556.774	1709.27
557.199	1712.13
557.625	1717.76
558.05	1713.28
558.475	1723.09
558.9	1722.3
559.325	1716.06
559.75	1710.97
560.175	1706.52
560.6	1701.54
561.025	1699.99
561.449	1701.86
561.874	1706.96
562.299	1712.2
562.723	1719.78
563.148	1711.85
563.572	1716.09
563.997	1726.12
564.421	1731.73
564.846	1733.3
565.27	1739.38
565.694	1737.97
566.118	1751.07
566.542	1760.44
566.966	1755.71
567.39	1753.6
567.814	1745.33
568.238	1747.57
568.662	1754.21
569.086	1759.71
569.509	1768.36
569.933	1754.47
570.357	1750.16
570.78	1731.99
571.204	1720.27
571.627	1711.72
572.05	1710.84
572.474	1711.96
572.897	1701
573.32	1695.2
573.743	1686.49
574.166	1670.46
574.589	1672.48
575.012	1667.31
575.435	1665.93
575.858	1659.08
576.281	1650.02
576.704	1636.08
577.126	1626.12
577.549	1616.72
577.972	1607.58
578.394	1598.54
578.817	1593.72
579.239	1575.87
579.661	1563.44
580.084	1551.19
580.506	1540.54
580.928	1537.63
581.35	1527.99
581.772	1523.44
582.194	1511.74
582.616	1500.68
583.038	1487.3
583.46	1477.17
583.882	1475.17
584.303	1479.71
584.725	1474.96
585.147	1477.75
585.568	1489.51
585.99	1503.53
586.411	1512.12
586.833	1527.7
587.254	1530.8
587.675	1545.92
588.096	1559.81
588.518	1556.03
588.939	1541.05
589.36	1540.22
589.781	1529.64
590.202	1501.57
590.623	1493.37
591.043	1490.52
591.464	1479.17
591.885	1475.2
592.305	1469.67
592.726	1455.79
593.147	1458.22
593.567	1453.53
593.987	1447.61
594.408	1442.89
594.828	1441.65
595.248	1435.2
595.669	1417.03
596.089	1409.32
596.509	1403.5
596.929	1391.14
597.349	1392.3
597.769	1382.23
598.189	1376.11
598.608	1376.68
599.028	1378.56
599.448	1379.59
599.867	1367.52
600.287	1363.78
600.706	1359.65
601.126	1349.87
601.545	1349.73
601.965	1348.12
602.384	1342.64
602.803	1345.71
603.222	1341.62
603.641	1336.79
604.061	1333.72
604.48	1330.98
604.898	1339.97
605.317	1346.13
605.736	1349.98
606.155	1347.27
606.574	1339.52
606.992	1346.28
607.411	1341.92
607.829	1334.84
608.248	1331.32
608.666	1328.74
609.085	1329.02
609.503	1321.33
609.921	1315.91
610.339	1318.54
610.758	1318.27
611.176	1315.91
611.594	1307.68
612.012	1305.13
612.43	1309.54
612.847	1317.41
613.265	1319.33
613.683	1323.58
614.101	1325.92
614.518	1323.29
614.936	1313.73
615.353	1301.26
615.771	1297.93
616.188	1298.52
616.606	1295.88
617.023	1289.42
617.44	1276.14
617.857	1270.35
618.274	1263.05
618.691	1257.46
619.108	1249.14
619.525	1243.94
619.942	1250.76
620.359	1254.43
620.776	1250.04
621.192	1246.42
621.609	1244.3
622.026	1250.33
622.442	1256.18
622.859	1260.02
623.275	1253.43
623.691	1258.96
624.108	1271.17
624.524	1285.16
624.94	1285.55
625.356	1295.35
625.772	1309.05
626.188	1322.62
626.604	1325.57
627.02	1322.41
627.436	1320.52
627.852	1328.19
628.268	1340.03
628.683	1331.21
629.099	1322.68
629.514	1318.26
629.93	1323.03
630.345	1327.61
630.761	1322.91
631.176	1327.44
631.591	1322.24
632.007	1316.82
632.422	1314.22
632.837	1302.28
633.252	1299.97
633.667	1290.36
634.082	1280.53
634.497	1267.99
634.911	1249.46
635.326	1247.06
635.741	1229.51
636.155	1220.24
636.57	1222.32
636.984	1223.43
637.399	1227.84
637.813	1228.07
638.228	1228.93
638.642	1234.76
639.056	1225.85
639.47	1228.08
639.884	1220.41
640.298	1214.99
640.712	1215.09
641.126	1203.93
641.54	1195.86
641.954	1191.63
642.368	1180.92
642.781	1173.58
643.195	1158.42
643.609	1161.82
644.022	1157.33
644.436	1153.46
644.849	1142.56
645.262	1130.45
645.676	1132.43
646.089	1129
646.502	1114.36
646.915	1109.85
647.328	1093
647.741	1090.68
648.154	1076.19
648.567	1072.72
648.98	1060.57
649.393	1062.77
649.805	1060.79
650.218	1053.97
650.631	1037.31
651.043	1030.45
651.456	1025.56
651.868	1025.84
652.28	1043.73
652.693	1057.87
653.105	1064.52
653.517	1075.12
653.929	1074.84
654.341	1080.34
654.753	1069.57
655.165	1077.86
655.577	1076.57
655.989	1072.17
656.401	1065.76
656.813	1029.85
657.224	1009.95
657.636	981.59
658.047	963.2
658.459	942.81
658.87	934.41
659.282	921.78
659.693	900.69
660.104	886.06
660.515	871.85
660.926	870.92
661.338	867.93
661.749	861.72
662.159	852.09
662.57	847.57
662.981	844.31
663.392	836.94
663.803	841.66
664.213	838.81
664.624	834.83
665.035	837.88
665.445	823.89
665.855	815.61
666.266	808.01
666.676	806.32
667.086	797.24
667.497	796.48
667.907	790.45
668.317	780.95
668.727	777.91
669.137	778.49
669.547	774.84
669.956	776.93
670.366	779.58
670.776	780.59
671.186	784.61
671.595	787.9
672.005	791.12
672.414	789.99
672.824	786.82
673.233	790.24
673.642	792.4
674.052	796.22
674.461	797.84
674.87	801.69
675.279	798.5
675.688	797.28
676.097	797.35
676.506	791.46
676.915	805.14
677.323	807.17
677.732	805.06
678.141	804.18
678.549	793.04
678.958	790.98
679.366	788.95
679.775	792.54
680.183	803.36
680.592	809.35
681	816.09
681.408	808.69
681.816	817.24
682.224	825.48
682.632	835.3
683.04	864.87
683.448	889.99
683.856	920.82
684.264	956.52
684.671	988.94
685.079	1027.97
685.487	1070.92
685.894	1132.11
686.302	1181.29
686.709	1222.33
687.116	1267.71
687.524	1305.04
687.931	1334.87
688.338	1360.37
688.745	1379.97
689.152	1403.64
689.559	1437.02
689.966	1470.77
690.373	1480.65
690.78	1510.09
691.187	1560.5
691.593	1596.74
692	1625.13
692.407	1674.53
692.813	1737.07
693.22	1784.4
693.626	1832.36
694.032	1869.89
694.439	1931.21
694.845	1976.48
695.251	2035.86
695.657	2088.9
696.063	2172.6
696.469	2233.09
696.875	2287.67
697.281	2313.84
697.687	2349.87
698.093	2378.69
698.498	2439.68
698.904	2486.62
699.31	2561.88
699.715	2614.12
700.12	2690.42
700.526	2701.14
700.931	2757.95
701.337	2798.96
701.742	2824.56
702.147	2894.04
702.552	2917.09
702.957	2966.3
703.362	2977.23
703.767	2997.84
704.172	3027.15
704.577	2980.28
704.981	3015.88
705.386	3027.49
705.791	3015.94
706.195	3077.58
706.6	3084.5
707.004	3151.25
707.408	3119.9
707.813	3140.28
708.217	3126.78
708.621	3126.27
709.025	3208.43
709.43	3207.61
709.834	3255.62
710.237	3313.97
710.641	3298.17
711.045	3312.24
711.449	3304.19
711.853	3328.35
712.256	3363.02
712.66	3392.63
713.064	3457.1
713.467	3493.61
713.87	3588.19
714.274	3626.69
714.677	3721.23
715.08	3858.78
715.484	4004.7
715.887	4181.01
716.29	4351.95
716.693	4531.4
717.096	4739.2
717.499	4849.58
717.901	4866.76
718.304	4889.2
718.707	4910.13
719.109	4820.18
719.512	4792.29
719.915	4671.74
720.317	4618.71
720.719	4653.99
721.122	4627.22
721.524	4582.26
721.926	4545.07
722.328	4630.83
722.731	4619.82
723.133	4640.03
723.535	4802.92
723.937	4816.39
724.338	4860.96
724.74	4893.78
725.142	4845.38
725.544	4841.68
725.945	4866.18
726.347	4860.73
726.748	4853.21
727.15	4863.74
727.551	4831.39
727.952	4804.28
728.354	4778.05
728.755	4773.53
729.156	4738.5
729.557	4720.41
729.958	4613.9
730.359	4561.76
730.76	4545.76
731.161	4491.58
731.562	4467.69
731.962	4468.92
732.363	4415
732.763	4359.64
733.164	4391.4
733.564	4333.43
733.965	4250.03
734.365	4218.34
734.766	4240.69
735.166	4205.39
735.566	4158.21
735.966	4138.26
736.366	4133.51
736.766	4078.76
737.166	4104.97
737.566	4070.18
737.966	4046.38
738.365	4079.13
738.765	4076.47
739.165	4014.14
739.564	3992.1
739.964	4031.72
740.363	3990.03
740.763	3986.45
741.162	3978.55
741.561	3951.77
741.96	3911.39
742.36	3927.46
742.759	3930.43
743.158	3962.42
743.557	3973.28
743.955	4005.89
744.354	3965.89
744.753	4015.67
745.152	3981.93
745.55	4029.07
745.949	4022.46
746.348	4023.6
746.746	4038.86
747.144	4007.39
747.543	3987.26
747.941	4028.89
748.339	3970.48
748.737	3965.04
749.136	3958.56
749.534	4012.74
749.932	3988.69
750.33	4009.73
750.727	4056.69
751.125	4034.58
751.523	4018.9
751.921	4057.66
752.318	4029.39
752.716	4079.33
753.113	4090.73
753.511	4110.88
753.908	4112.11
754.305	4098.35
754.703	4150.78
755.1	4202.7
755.497	4253.3
755.894	4417.46
756.291	4569.36
756.688	4849.26
757.085	5221.63
757.482	5750.15
757.878	6323.05
758.275	6840.95
758.672	7556.02
759.068	8138.23
759.465	8965.41
759.861	10038.75
760.258	11275.4
760.654	11916.91
761.05	11822.44
761.447	11280.23
761.843	10494.21
762.239	9690.06
762.635	9325.08
763.031	8972.77
763.427	8467.79
763.822	7944.67
764.218	7419.54
764.614	6743.02
765.01	6288.01
765.405	5992.83
765.801	5771.62
766.196	5486.88
766.592	5328.9
766.987	5059.84
767.382	4877.61
767.778	4801.83
768.173	4690.58
768.568	4631.15
768.963	4524.84
769.358	4539.78
769.753	4503.1
770.148	4432.56
770.542	4432.53
770.937	4405.62
771.332	4486.03
771.726	4502.94
772.121	4454.2
772.515	4501.77
772.91	4487.7
773.304	4549.56
773.699	4495.84
774.093	4540.46
774.487	4586.4
774.881	4624.36
775.275	4624.18
775.669	4586.61
776.063	4626.05
776.457	4653.91
776.851	4590.27
777.245	4588.12
777.638	4615.67
778.032	4713.55
778.425	4682.51
778.819	4722.51
779.212	4685.97
779.606	4652.3
779.999	4672.22
780.392	4656.57
780.786	4727.87
781.179	4744.29
781.572	4779.79
781.965	4790.46
782.358	4741.14
782.751	4789.42
783.143	4746.37
783.536	4809.13
783.929	4844.22
784.322	4940.12
784.714	4969.05
785.107	4964.82
785.499	5028.23
785.891	5008.64
786.284	4990.58
786.676	5109.87
787.068	5092.69
787.46	5135.22
787.852	5151.74
788.245	5225.42
788.636	5250.83
789.028	5304.93
789.42	5339.79
789.812	5345.49
790.204	5428.19
790.595	5515.15
790.987	5350.11
791.378	5369.7
791.77	5481.77
792.161	5593.07
792.553	5636.64
792.944	5539.53
793.335	5481.64
793.726	5539.99
794.117	5615.46
794.508	5729.84
794.899	5702.87
795.29	5820.28
795.681	5865.25
796.072	5744.33
796.463	5598.32
796.853	5608.79
797.244	5740.75
797.634	5767.79
798.025	5766.36
798.415	5775.61
798.806	5850.88
799.196	5921.28
799.586	5962.03
799.976	5935.36
800.366	6130.65
800.756	6324.16
801.146	6287.27
801.536	6313.49
801.926	6374.78
802.316	6398.26
802.706	6457.43
803.095	6351.82
803.485	6442.13
803.874	6476.38
804.264	6694.73
804.653	6669.55
805.043	6794.71
805.432	6885.62
805.821	6887.12
806.21	6909.97
806.599	7005.13
806.988	7045.71
807.377	7137.74
807.766	7243.81
808.155	7483.34
808.544	7257.62
808.933	7273.48
809.321	7253.86
809.71	7507.52
810.098	7646.23
810.487	8033.74
810.875	8444.62
811.264	8464.31
811.652	8711.2
812.04	8841.11
812.428	8983.12
812.816	9631.61
813.204	9981.29
813.592	10447.73
813.98	10735.33
814.368	10651
814.756	11055.71
815.144	10986.63
815.531	11380.47
815.919	11316.39
816.306	11564.48
816.694	11302.47
817.081	11343.82
817.469	11641.51
817.856	11636.87
818.243	11853.48
818.63	12183.05
819.017	11824.76
819.404	11884.36
819.791	12200.13
820.178	12718.71
820.565	12931.61
820.952	13722.15
821.339	13309.48
821.725	13460.94
822.112	12834.97
822.498	12807.23
822.885	12916.53
823.271	12838.82
823.657	13183.29
824.044	13190.62
824.43	13248.84
824.816	13218.77
825.202	12844.05
825.588	13701.43
825.974	13716.37
826.36	14151.73
826.746	14174.13
827.132	14473.38
827.517	14457.98
827.903	13798.59
828.289	13836.42
828.674	13179.09
829.06	13090.61
829.445	13422.47
829.83	13719.48
830.216	14117.46
830.601	14426.98
830.986	14090.4
831.371	13981.17
831.756	14447.63
832.141	14087.37
832.526	14077.85
832.911	14324.83
833.295	14230.39
833.68	14624.91
834.065	14101.43
834.449	13329.71
834.834	13262.32
835.218	13259.36
835.603	13545.37
835.987	13368.49
836.371	14073.82
836.755	13989.46
837.139	14321.09
837.524	14521.17
837.908	14376.8
838.291	14426.82
838.675	14487.39
839.059	14673.98
839.443	14660.07
839.827	14467.33
840.21	14874.75
840.594	14743.72
840.977	14917.49
841.361	14905.73
841.744	15227.07
842.127	15091.96
842.511	15306.68
842.894	15808.73
843.277	16122.69
843.66	16588.05
844.043	16654.46
844.426	15975.12
844.809	15716.9
845.191	15743.96
845.574	15346.02
845.957	15039.18
846.339	14960.79
846.722	14518.14
847.104	14579.75
847.487	14437.29
847.869	14445.09
848.252	14680.33
848.634	14957.84
849.016	15182.85
849.398	15285.83
849.78	16013.37
850.162	16019.57
850.544	16372.36
850.926	16905.96
851.307	16830.37
851.689	17073.27
852.071	17455.5
852.452	17733.89
852.834	17716.43
853.215	18043.47
853.597	18180.51
853.978	18427.86
854.359	18817.08
854.741	17967.93
855.122	17883.24
855.503	17642.6
855.884	17753.17
856.265	17700.99
856.646	17797.68
857.026	17466.76
857.407	17417.44
857.788	17551.62
858.169	17791.72
858.549	17072.58
858.93	17598.41
859.31	17643.09
859.69	17818.49
860.071	17476.18
860.451	17294.72
860.831	16669.43
861.211	17640.31
861.591	18101.45
861.971	18073.34
862.351	18237.46
862.731	18568.35
863.111	18790.28
863.491	19061.57
863.87	19797.86
864.25	20082.9
864.629	19745.36
865.009	20168.49
865.388	20895.7
865.768	22392.84
866.147	22313.9
866.526	21077.97
866.905	21313.92
867.284	22499.5
867.663	21363.15
868.042	20481.86
868.421	20421.47
868.8	20762.59
869.179	20971.53
869.558	19746.67
869.936	18196.63
870.315	18520.62
870.693	18972.06
871.072	20466.79
871.45	19501.1
871.828	19744.67
872.207	20746.27
872.585	20432.26
872.963	20983.04
873.341	20261.2
873.719	20021.05
874.097	19774.6
874.475	20136.3
874.853	20586.51
875.23	19726.42
875.608	20552.28
875.986	22242.54
876.363	21278.72
876.741	21934.8
877.118	21389.69
877.495	22439.42
877.873	22811.9
878.25	24016.07
878.627	23033.52
879.004	23362.54
879.381	23258.43
879.758	22657.98
880.135	21088.45
880.512	22294.77
880.889	21693.18
881.265	21460.54
881.642	21285.54
882.019	21648.98
882.395	21210.69
882.772	22067.67
883.148	21120.08
883.524	21045.31
883.901	20918.38
884.277	21239.36
884.653	21120.47
885.029	21741.83
885.405	24093.95
885.781	23910.26
886.157	22931.55
886.532	23216.22
886.908	23205.43
887.284	25805.61
887.659	26651.14
888.035	27484.13
888.411	28198.44
888.786	28556.07
889.161	29538.52
889.537	28987.82
889.912	29923.86
890.287	29917.55
890.662	30700.6
891.037	30143.94
891.412	28104.12
891.787	27804.75
892.162	26845.51
892.536	27469.68
892.911	26442.04
893.286	25879.63
893.66	24839.51
894.035	25471.82
894.409	27718.61
894.784	26601.55
895.158	27048.16
895.532	28656.71
895.906	29456.94
896.281	30140.05
896.655	29666.74
897.029	33901.87
897.402	35308.07
897.776	39276.86
898.15	39129.02
898.524	38712.62
898.898	39221.4
899.271	43913.87
899.645	38030.09
900.018	36518.34
900.392	37868.53
900.765	38166.04
901.138	35316.17
901.511	34793.63
901.884	31981.85
902.258	29509.2
902.631	30488.96
903.003	35092.43
903.376	31658.48
903.749	35506.85
904.122	38011.81
904.495	41857.18
904.867	42392.39
905.24	36814.11
905.612	34279.07
905.985	35056.25
906.357	36648.79
906.729	34984.7
907.102	29880.49
907.474	28745.52
907.846	28927.49
908.218	28554.16
908.59	25246.67
908.962	24417.91
909.334	26291.69
909.705	27607.27
910.077	26784.26
910.449	27879.46
910.82	28659.38
911.192	31540.59
911.563	32766.22
911.935	35065.06
912.306	35093.76
912.677	36222.9
913.048	35872.86
913.419	38937.28
913.79	39171.31
914.161	42008.83
914.532	40153.39
914.903	36903.18
915.274	35022.5
915.645	34506.64
916.015	30371.07
916.386	28971.54
916.756	30844.71
917.127	31795.2
917.497	28405.26
917.868	30932.32
918.238	29399.49
918.608	30250.81
918.978	30880.34
919.348	32737.87
919.718	33829.65
920.088	32586.51
920.458	33852.12
920.828	35609.74
921.198	33783.04
921.567	36092.51
921.937	27941.29
922.306	28204.35
922.676	30428.98
923.045	25395.63
923.415	24128.7
923.784	21974.45
924.153	22584.9
924.522	22566.07
924.891	21233.13
925.26	22741.37
925.629	22213.25
925.998	25554.95
926.367	24967.9
926.736	23795.98
927.104	28325.95
927.473	30452.17
927.842	36795
928.21	36493.75
928.578	38357
928.947	36274.8
929.315	36513.47
929.683	42844.05
930.051	43173.16
930.42	50136.3
930.788	42833.24
931.156	42533.46
931.523	39875.35
931.891	36850.64
932.259	35388.93
932.627	41049.05
932.994	58050.26
933.362	47949.68
933.729	41617.41
934.097	39846.54
934.464	33723.01
934.831	38904.29
935.199	38382.18
935.566	37231.72
935.933	37714.81
936.3	45661.08
936.667	35586.32
937.034	32148.61
937.401	31815.8
937.767	27468.82
938.134	24464.91
938.501	34517.7
938.867	36800.66
939.234	62200.78
939.6	53079.77
939.967	58566.64
940.333	39235.48
940.699	33362.76
941.065	26726.51
941.431	35033.25
941.798	33762.82
942.163	44289
942.529	27664.86
942.895	25471.76
943.261	16464.87
943.627	21589.59
943.992	18890.6
944.358	18896.69
944.723	18971.7
945.089	18489.04
945.454	17103.87
945.82	18257.8
946.185	17529.44
946.55	20307.37
946.915	18248.48
947.28	21388.09
947.645	18839.65
948.01	17388.19
948.375	18143.64
948.74	21725.99
949.104	25376.29
949.469	36636.48
949.834	64772.3
950.198	61498.43
950.562	36849.66
950.927	30675.27
951.291	36944.5
951.655	31485.42
952.02	29578.95
952.384	22376.89
952.748	19491
953.112	19011.54
953.476	16536.99
953.839	15295.25
954.203	15145.35
954.567	18929.25
954.931	29797.39
955.294	25504.31
955.658	25626.06
956.021	43579.83
956.385	73911.49
956.748	108979.83
957.111	168822.17
957.474	189560.83
957.837	213377.84
958.2	161449.99
958.563	58126.68
958.926	39344.04
959.289	59744.51
959.652	66849.17
960.015	50129.2
960.377	71889.31
960.74	82124.96
961.102	141869.22
961.465	152530.87
961.827	81901
962.189	157118.1
962.552	109026.74
962.914	87390.26
963.276	56706.28
963.638	46864.12
964	46467.12
964.362	31424.37
964.724	30400.25
965.085	21695.51
965.447	17772.76
965.809	20219.19
966.17	20248.98
966.532	21905.86
966.893	20125.52
967.255	18324.31
967.616	21633.01
967.977	17334.43
968.338	18962.13
968.699	15580.27
969.061	15586.11
969.421	15698.45
969.782	17620.38
970.143	14887.18
970.504	15434.06
970.865	17539.11
971.225	17916.83
971.586	17529.95
971.946	24996.92
972.307	21687.89
972.667	28329.53
973.027	29210.51
973.388	35416.62
973.748	24109.1
974.108	26294.04
974.468	35565.37
974.828	27435.22
975.188	21131.35
975.548	19414.33
975.907	16299.81
976.267	18264.77
976.627	15377.17
976.986	15929.5
977.346	15195.81
977.705	14622.31
978.064	13294.92
978.424	11060.68
978.783	11427.21
979.142	13039.05
979.501	12483.27
979.86	13197.82
980.219	12722.97
980.578	16395.95
980.937	18344.05
981.296	16347.52
981.654	16826.74
982.013	26223.48
982.371	34057.81
982.73	31823.4
983.088	36024.04
983.447	38466.05
983.805	54977.62
984.163	115227.56
984.521	127914.77
984.879	187484.39
985.237	-304860.7
985.595	293557.73
985.953	72841.41
986.311	42036.96
986.669	24402.34
987.026	21081.58
987.384	28362.98
987.741	29305.47
988.099	20922.85
988.456	16693.72
988.814	15661.95
989.171	13624.47
989.528	13453.44
989.885	14207.29
990.242	11264.77
990.599	14061.31
990.956	11505.15
991.313	8051.8
991.67	6629.25
992.027	7022.86
992.383	6235.78
992.74	5468.07
993.096	5733.63
993.453	5957.8
993.809	6189.4
994.165	8240.65
994.522	7553.36
994.878	8316.93
995.234	10418.63
995.59	10264.27
995.946	9730.59
996.302	11105.9
996.658	12834.01
997.013	14130.73
997.369	16739.88
997.725	21440.47
998.08	13896.55
998.436	21401.41
998.791	29603.73
999.147	29597.53
999.502	32245.94
999.857	23383.77
1000.212	38108.93
1000.567	54282.99
1000.922	31360.55
1001.277	19897.78
1001.632	14743.18
1001.987	19004.79
1002.342	13629.36
1002.696	10881.88
1003.051	8668.95
1003.406	10528.28
1003.76	10505.82
1004.114	10371.14
1004.469	8723.93
1004.823	7214.62
1005.177	7786.23
1005.531	6179.05
1005.885	5478.18
1006.239	6184.99
1006.593	7749.53
1006.947	10389.97
1007.301	7788.18
1007.655	8492.88
1008.008	6232.8
1008.362	7002.87
1008.715	10028.77
1009.069	9094.64
1009.422	13666.74
1009.776	27449.89
1010.129	18178.4
1010.482	15238.83
1010.835	12893.53
1011.188	26811.5
1011.541	25226.44
1011.894	-153941.02
1012.247	452292.61
1012.6	30583.18
1012.952	19365.88
1013.305	9990.17
1013.657	7178.71
1014.01	6802.62
1014.362	5623.2
1014.715	5001.76
1015.067	4348.8
1015.419	4268.63
1015.771	3795.61
1016.123	3370.47
1016.475	3475.91
1016.827	3709.56
1017.179	3983.53
1017.531	4023.54
1017.883	4118.06
1018.234	3968.51
1018.586	5008.2
1018.938	5331.41
1019.289	7336.61
1019.64	8386.74
1019.992	7828.11
1020.343	7187.39
1020.694	5708.86
1021.045	5051.72
1021.396	5758.26
1021.747	6194.26
1022.098	7436.08
1022.449	5404.41
1022.8	5026.81
1023.151	3498.47
1023.501	3098.43
1023.852	3371.81
1024.202	3489.16
1024.553	3794.66
1024.903	3707.58
1025.253	3185.7
1025.604	2849.01
1025.954	3536.63
1026.304	4271.87
1026.654	4957.54
1027.004	7259.98
1027.354	11687.66
1027.703	11070.51
1028.053	14615.41
1028.403	21277.11
1028.753	30855.1
1029.102	41674.95
1029.452	213992.26
1029.801	9172.36
1030.15	5959.9
1030.499	5027.47
897.758	2717.63
901.051	2681.64
904.343	2716.35
907.636	2717.01
910.928	2781.01
914.22	2688.98
917.511	2698.12
920.803	2764.51
924.094	2786.67
927.384	2761.55
930.675	2728.88
933.965	2681.43
937.255	2685.79
940.544	2654.49
943.834	2587.19
947.123	2532.42
950.411	2629.78
953.7	2601.27
956.988	2563.91
960.276	2509.45
963.563	2595.48
966.851	2588.91
970.138	2647.57
973.424	2637.97
976.711	2588.38
979.997	2732
983.283	2764.02
986.568	2665.81
989.853	2688.68
993.138	2716.26
996.423	2793.26
999.708	2726.65
1002.992	2796.02
1006.275	2625.11
1009.559	2678.79
1012.842	2791.01
1016.125	2720.19
1019.408	2699.36
1022.69	2790.95
1025.972	2801.74
1029.254	2778.11
1032.536	2705.22
1035.817	2734.7
1039.098	2673.11
1042.379	2828.51
1045.659	2821.22
1048.939	2756.33
1052.219	2776.48
1055.498	2792.7
1058.778	2774.85
1062.057	2764.71
1065.335	2783.3
1068.614	2803.88
1071.892	2783.59
1075.17	2863.31
1078.447	2849.75
1081.724	2837.44
1085.001	2872.42
1088.278	2847.83
1091.554	2862.25
1094.83	2858.17
1098.106	2881.05
1101.382	2929.33
1104.657	2928.91
1107.932	2922.67
1111.206	2884.52
1114.481	2842.63
1117.755	2850.76
1121.029	2829.76
1124.302	2878.04
1127.575	2828.76
1130.848	2815.24
1134.121	2775.8
1137.393	2721.04
1140.665	2792.75
1143.937	2766.94
1147.208	2731.43
1150.48	2767.6
1153.75	2749.41
1157.021	2786.59
1160.291	2758.86
1163.561	2798.38
1166.831	2794.46
1170.101	2825.92
1173.37	2809.22
1176.639	2748.27
1179.907	2811.07
1183.176	2811.2
1186.444	2819.68
1189.711	2848.01
1192.979	2858.57
1196.246	2814.27
1199.513	2834.56
1202.78	2827.81
1206.046	2836.81
1209.312	2858.83
1212.578	2885.35
1215.843	2834.02
1219.108	2814.06
1222.373	2837.4
1225.638	2801.47
1228.902	2779.41
1232.166	2748.73
1235.43	2728.8
1238.693	2751.21
1241.956	2751.96
1245.219	2788.14
1248.482	2782.05
1251.744	2778.49
1255.006	2927.26
1258.268	2882.79
1261.529	2824.25
1264.79	2835.18
1268.051	2938.83
1271.312	2956.06
1274.572	2918.65
1277.832	2909.06
1281.092	2901.11
1284.351	2871.46
1287.61	2847.02
1290.869	2760.7
1294.128	2733.62
1297.386	2831.88
1300.644	2818.63
1303.902	2830.03
1307.159	2692.84
1310.416	2747.29
1313.673	2769.28
1316.93	2754.09
1320.186	2800.42
1323.442	2849.23
1326.697	2832.21
1329.953	2829.16
1333.208	2846.8
1336.463	2830.33
1339.717	2764.28
1342.972	2904
1346.226	2884.21
1349.479	2813.15
1352.733	2779.93
1355.986	2811.15
1359.238	2784.62
1362.491	2786.11
1365.743	2791.56
1368.995	2789
1372.247	2803.9
1375.498	2828.63
1378.749	2831.09
1382	2790.86
1385.251	2848.33
1388.501	2814.68
1391.751	2793.49
1395	2764.29
1398.25	2802.31
1401.499	2804.66
1404.748	2727.03
1407.996	2719.61
1411.244	2705.04
1414.492	2687.36
1417.74	2664.22
1420.987	2675.28
1424.234	2730.64
1427.481	2713.2
1430.728	2775.17
1433.974	2749.65
1437.22	2766.42
1440.465	2770.8
1443.711	2727.35
1446.956	2764.37
1450.201	2756.74
1453.445	2799.47
1456.689	2774.22
1459.933	2787.78
1463.177	2817.73
1466.42	2790.42
1469.663	2767.28
1472.906	2758.26
1476.148	2841.84
1479.391	2798.63
1482.633	2772.28
1485.874	2776.91
1489.115	2760.33
1492.356	2773.56
1495.597	2742.79
1498.838	2749.65
1502.078	2712.81
1505.318	2660.04
1508.557	2703.93
1511.797	2669.55
1515.036	2748.71
1518.274	2738.15
1521.513	2715.35
1524.751	2739.19
1527.989	2746.37
1531.227	2760.19
1534.464	2748.88
1537.701	2775.47
1540.938	2796.29
1544.174	2747.55
1547.41	2750.67
1550.646	2786.51
1553.882	2821.9
1557.117	2874.14
1560.352	2890.54
1563.587	2845.24
1566.821	2804.92
1570.055	2843.35
1573.289	2810.8
1576.523	2889.17
1579.756	2895.14
1582.989	2909.59
1586.222	2872.07
1589.454	2906.84
1592.686	2879.66
1595.918	2902.73
1599.15	2890.78
1602.381	2972.85
1605.612	2920.6
1608.843	3018.31
1612.073	2927.53
1615.303	2912.25
1618.533	2903.2
1621.762	2906.56
1624.992	2898.66
1628.221	2878.34
1631.449	2863.46
1634.678	2928
1637.906	2880
1641.134	2922.96
1644.361	2876.1
1647.588	2867.06
1650.815	2883
1654.042	2864.54
1657.269	2894.45
1660.495	2841.58
1663.72	2863.6
1666.946	2825.93
1670.171	2762.53
1673.396	2738.09
1676.621	2727.61
1679.845	2754.21
1683.069	2775.81
1686.293	2820.35
1689.517	2790.39
1692.74	2715.52
1695.963	2746.83
1699.185	2765.82
1702.408	2743.75
1705.63	2787.41
1708.852	2795.88
1712.073	2769.44
1715.294	2747.73
1718.515	2814.29
1721.736	2757.92
1724.956	2753.36
1728.176	2780.65
1731.396	2803.07
1734.616	2791.4
1737.835	2814.68
1741.054	2797.24
1744.272	2791.74
1747.491	2817.77
1750.709	2880.07
1753.927	2774.94
1757.144	2826.1
1760.361	2862.61
1763.578	2860.4
1766.795	2800.52
1770.011	2809.27
1773.227	2854.99
1776.443	2887.54
1779.658	2930.84
1782.874	2879.28
1786.089	2853.11
1789.303	2854.44
1792.518	2862.72
1795.732	2850.73
1798.945	2857.52
1802.159	2907.75
1805.372	2804.05
1808.585	2784.1
1811.797	2785.96
1815.01	2843.81
1818.222	2838.96
1821.434	2806.8
1824.645	2869.19
1827.856	2847.35
1831.067	2880.31
1834.278	2847.72
1837.488	2828.52
1840.698	2982.86
1843.908	2906.32
1847.117	2870.98
1850.326	2743.03
1853.535	2858.36
1856.744	2889.48
1859.952	2802.22
1863.16	2804.7
1866.368	2829.58
1869.575	2928.62
1872.782	2822.87
1875.989	2762.92
1879.196	2856.5
1882.402	2849.38
1885.608	2892.5
1888.814	2788.2
1892.019	2681.67
1895.224	2737.85
1898.429	2720.59
1901.634	2698.39
1904.838	2677.61
1908.042	2723.99
1911.246	2730.79
1914.449	2653.63
1917.652	2653.14
1920.855	2639.23
1924.058	2691.01
1927.26	2725.39
1930.462	2752.92
1933.664	2777.76
1936.865	2716.88
1940.066	2720.83
1943.267	2668.8
1946.467	2683.6
1949.668	2711.59
1952.868	2778.7
1956.067	2751.61
1959.267	2682.76
1962.466	2711.67
1965.665	2697.83
1968.863	2691.02
1972.061	2711.32
1975.259	2709.18
1978.457	2790.88
1981.654	2749.41
1984.852	2748.86
1988.048	2676.71
1991.245	2681.6
1994.441	2766.59
1997.637	2758.05
2000.833	2742.12
2004.028	2783.32
2007.223	2833.9
2010.418	2806.95
2013.613	2767.31
2016.807	2732.51
2020.001	2748.29
2023.194	2792.73
2026.388	2768.88
2029.581	2715.54
2032.774	2759.76
2035.966	2758.91
2039.158	2687.61
2042.35	2716.34
2045.542	2647.64
2048.733	2750.18
2051.924	2783.24
2055.115	2808.92
2058.306	2750.81
2061.496	2811.24
2064.686	2876.08
2067.875	2794.64
2071.065	2812.18
2074.254	2842.56
2077.442	2790.65
2080.631	2883.69
2083.819	2769.04
2087.007	2745.69
2090.195	2717.09
2093.382	2754.59
2096.569	2733.36
2099.756	2687.01
2102.942	2705.63
2106.128	2709.13
2109.314	2700.55
2112.5	2661.73
2115.685	2636.45
2118.87	2646.59
2122.055	2714.45
2125.239	2674.09
2128.424	2648.37
2131.608	2760.74
2134.791	2742.11
2137.974	2803.31
2141.157	2788.24
2144.34	2735
2147.523	2757.96
2150.705	2770.6
2153.887	2754.08
2157.068	2698.04
2160.25	2705.52
2163.431	2744.86
2166.611	2685.81
2169.792	2697.13
2172.972	2591.37
2176.152	2675.88
2179.331	2711.37
2182.511	2686.85
2185.69	2714.94
2188.868	2706.68
2192.047	2765.64
2195.225	2749.29
2198.403	2700.15
2201.58	2693.17
2204.758	2695.03
2207.935	2774.89
2211.111	2655.71
2214.288	2641.29
2217.464	2681.85
2220.64	2661.61
2223.815	2715.57
2226.991	2634.9
2230.166	2655.24
2233.34	2682.08
2236.515	2708.65
2239.689	2781.34
2242.863	2723.17
2246.036	2783.67
2249.209	2787.6
2252.382	2825.11
2255.555	2804.96
2258.727	2741.71
2261.9	2786.49
2265.071	2778.55
2268.243	2778.74
2271.414	2708.99
2274.585	2665.97
2277.756	2738.76
2280.926	2694.05
2284.096	2737.05
2287.266	2638.79
2290.436	2696.87
2293.605	2728.45
2296.774	2750.71
2299.942	2776.59
2303.111	2796.6
2306.279	2841.19
2309.447	2830.26
2312.614	2804.16
2315.781	2824.49
2318.948	2792.3
2322.115	2831.38
2325.281	2733.96
2328.447	2755.45
2331.613	2735.63
2334.779	2704.71
2337.944	2709.38
2341.109	2706.82
2344.274	2686.51
2347.438	2654.37
2350.602	2678.49
2353.766	2696.28
2356.929	2681.64
2360.092	2726.44
2363.255	2674.4
2366.418	2600.96
2369.58	2721.25
2372.742	2495.15
2375.904	2514.36
2379.066	2487.77
2382.227	2525.44
2385.388	2489.08
2388.548	2410.37
2391.709	2469.39
2394.869	2440.78
2398.029	2550.75
2401.188	2566.81
2404.347	2498.21
2407.506	2647.77
2410.665	2675.65
2413.823	2687.5
2416.981	2638.67
2420.139	2672.24
2423.296	2725.42
2426.453	2697.03
2429.61	2726.01
2432.767	2649.05
2435.923	2686.13
2439.079	2650.04
2442.235	2702.33
2445.391	2626.01
2448.546	2649.08
2451.701	2701.5
2454.855	2668.9
2458.009	2726.16
2461.163	2729.51
2464.317	2685.09
2467.471	2721
2470.624	2760.85
2473.777	2729.77
2476.929	2742.3
2480.082	2764.76
2483.234	2728.62
2486.385	2689.86
2489.537	2681.24
2492.688	2634.92
2495.839	2653.89
2498.989	2664.43
2502.14	2646.12
2505.29	2631.15
2508.439	2654.59
2511.589	2574.4
2514.738	2594.37
2517.887	2626.78
2521.035	2684.61
2524.183	2675.88
2527.331	2652.9
2530.479	2623.56
2533.627	2635.04
