Data from C_2_DEC_CT_2N_Splice17_12-29-18-841.txt Node
Date: Sat Mar 14 12:29:18 EDT 2020
User: sa697716
Spectrometer: FLMS03696
Trigger mode: 0
Integration Time (sec): 3.180400E-1
Scans to average: 20
Electric dark correction enabled: true
Nonlinearity correction enabled: true
Boxcar width: 5
XAxis mode: Wavelengths
Number of Pixels in Spectrum: 2048
>>>>>Begin Spectral Data<<<<<
187.83	-308768.7
188.298	2205.16
188.766	1238.74
189.233	1125.59
189.701	1635.88
190.169	2148.53
190.636	829.76
191.104	692.45
191.571	138.64
192.039	5.48
192.506	45.58
192.974	590.48
193.441	-1040.42
193.908	-285.44
194.375	-51.16
194.842	68.09
195.31	63.72
195.777	188.17
196.244	404.38
196.711	435.67
197.177	524.86
197.644	715.23
198.111	1187.8
198.578	1689.57
199.045	1347.88
199.511	2207.61
199.978	2539.06
200.445	2142.23
200.911	2341.75
201.378	2589.55
201.844	2390.46
202.31	4150.77
202.777	4300.16
203.243	2401.86
203.709	2272.11
204.176	2735.17
204.642	2263.83
205.108	2141.58
205.574	1775.64
206.04	1604.99
206.506	1525.73
206.972	1417.57
207.438	1356.97
207.903	1557.75
208.369	1386.05
208.835	1385.65
209.301	1432.8
209.766	1465.22
210.232	1437.05
210.697	1770.47
211.163	2210.02
211.628	3309.07
212.094	2822.1
212.559	3514.75
213.024	2210.25
213.49	2702.72
213.955	2641.21
214.42	2607.31
214.885	2430.85
215.35	2336.01
215.815	2283.9
216.28	2444.37
216.745	2016.86
217.21	2196.23
217.675	2038.97
218.14	2318.24
218.604	2629.91
219.069	3058.58
219.534	3279.05
219.998	3866.29
220.463	4780.86
220.927	5952.23
221.392	5682.4
221.856	5817.67
222.32	7417.28
222.785	9219.33
223.249	11696.94
223.713	13154.67
224.177	13258.36
224.642	17097.01
225.106	21189.06
225.57	23281.45
226.034	17379.26
226.497	26543.71
226.961	24027.16
227.425	28110.49
227.889	31321.38
228.353	31400.1
228.816	64977.29
229.28	62416.96
229.744	52791.95
230.207	32162.78
230.671	31720.42
231.134	52701.97
231.597	60908.32
232.061	61016.9
232.524	59613.59
232.987	41136.59
233.45	37149.38
233.914	33390.29
234.377	34248.03
234.84	31363.44
235.303	37036.9
235.766	41378.5
236.229	42727.55
236.691	26936.63
237.154	30293.76
237.617	22809.12
238.08	23369.27
238.542	27384.76
239.005	19593.46
239.468	19455.82
239.93	18373.93
240.393	16688.42
240.855	14659.33
241.317	15044.12
241.78	18326.24
242.242	18979.53
242.704	20482.58
243.166	17860.57
243.629	16231.73
244.091	18738.69
244.553	20545.28
245.015	22088.57
245.477	28637.79
245.939	42074.06
246.4	44714.84
246.862	43508.2
247.324	41090.86
247.786	46122.46
248.247	60550.88
248.709	62568.38
249.17	46800.2
249.632	44189.54
250.093	51280.08
250.555	44335.5
251.016	27012.89
251.477	25652.64
251.939	27720.55
252.4	29082.55
252.861	34608.03
253.322	32211.86
253.783	38384.33
254.244	49817.6
254.705	39280.44
255.166	34950.53
255.627	34450.03
256.088	48654.8
256.549	51744.76
257.009	44607.12
257.47	54233.68
257.931	44243.8
258.391	33234.84
258.852	34294.51
259.312	36061.47
259.773	44698.09
260.233	37872.98
260.694	32020.88
261.154	36394.87
261.614	29244.56
262.074	26216.26
262.534	27281.89
262.994	25737.59
263.455	34357.44
263.915	29005.55
264.374	27371.72
264.834	29907.2
265.294	33221.13
265.754	34445.26
266.214	32701.02
266.673	30727.33
267.133	38837.39
267.593	38630.85
268.052	47424.37
268.512	41322.63
268.971	49948.59
269.431	54853.43
269.89	49204.96
270.349	73899.02
270.809	82617.21
271.268	74454.62
271.727	167303.96
272.186	108597.72
272.645	81612.57
273.104	58990.53
273.563	85500.22
274.022	67386.12
274.481	57471.89
274.94	44343.68
275.399	33025.23
275.857	38513.27
276.316	52122.6
276.775	46412.83
277.233	45782.3
277.692	42913.4
278.15	48537.62
278.609	49999.89
279.067	46296.23
279.525	42994.4
279.984	55624.88
280.442	66874.23
280.9	65921.41
281.358	43396.18
281.816	40487.55
282.274	39671.86
282.732	41016.43
283.19	41264.55
283.648	35639.01
284.106	38007.32
284.564	38702.36
285.021	35920.9
285.479	26774.87
285.937	24391.21
286.394	21433.45
286.852	22088.78
287.309	23228.75
287.767	22438.42
288.224	21364.02
288.682	23480.02
289.139	25772.66
289.596	23609.69
290.053	24559.66
290.511	31072.19
290.968	37747.37
291.425	51321.15
291.882	42770.2
292.339	37285.64
292.796	37072.05
293.252	34989.54
293.709	27803.31
294.166	24950.77
294.623	27611.87
295.079	26524.36
295.536	26663.97
295.992	24226.34
296.449	23951.57
296.905	24872.07
297.362	23851.58
297.818	25102.65
298.274	26058.44
298.731	26588.76
299.187	26340.86
299.643	28293.91
300.099	34271.27
300.555	37612.27
301.011	31448.69
301.467	30304.65
301.923	35551.57
302.379	34750.07
302.835	34167.82
303.291	34242.13
303.746	39022.64
304.202	49351.64
304.658	49597.48
305.113	33355.37
305.569	32697.17
306.024	34862.47
306.479	33279.42
306.935	28063.14
307.39	30677.58
307.845	28360.92
308.301	28527.65
308.756	27785.95
309.211	26764.96
309.666	27404.12
310.121	33999.78
310.576	34494.16
311.031	34249.12
311.486	39225.94
311.94	39225.67
312.395	52448.45
312.85	98569.62
313.305	484537.73
313.759	2509697.16
314.214	182009.52
314.668	144394.33
315.123	121575.47
315.577	43660.67
316.032	38833.91
316.486	48648.21
316.94	38409.26
317.394	26748.69
317.849	20801.72
318.303	19726.11
318.757	18611.19
319.211	20606.01
319.665	18078.46
320.119	18332.73
320.572	26332.86
321.026	24654.56
321.48	20571.09
321.934	22469.59
322.387	22567.77
322.841	24406.79
323.295	21942.94
323.748	25359.39
324.202	25731.32
324.655	30909.53
325.108	43189.06
325.562	30514.94
326.015	36304.9
326.468	27466.96
326.921	30755.59
327.374	28636.71
327.827	29802.49
328.28	33759.83
328.733	22602.89
329.186	19910.9
329.639	18992.15
330.092	16021.15
330.545	15276.03
330.997	15408.27
331.45	16807.56
331.903	19682.3
332.355	33952.84
332.808	33021.84
333.26	27236.1
333.713	29554.48
334.165	29746.79
334.617	39739.18
335.069	32162.79
335.522	58181.72
335.974	64421.37
336.426	58850.92
336.878	40820.58
337.33	20692.08
337.782	20212.38
338.234	25313.93
338.686	30327.48
339.137	35954.37
339.589	33859.05
340.041	26528.7
340.493	22798.87
340.944	23368.66
341.396	25240.49
341.847	21209.04
342.299	25016.63
342.75	30540.57
343.201	26752.6
343.653	30798.06
344.104	37913.35
344.555	29886.25
345.006	46565.05
345.457	35675.78
345.908	28389.51
346.359	26740.77
346.81	21813.39
347.261	23049.73
347.712	22743.93
348.163	24413.11
348.613	24705.05
349.064	23088.34
349.515	20217.34
349.965	20757.15
350.416	25012.69
350.866	27451
351.317	31014.41
351.767	51334.14
352.217	64809.34
352.668	53770.11
353.118	49284.03
353.568	47615.64
354.018	37609.88
354.468	39652.41
354.918	28404.64
355.368	24851.71
355.818	35062.76
356.268	101006.44
356.718	422572.01
357.168	105160.73
357.617	52815.38
358.067	58795.78
358.517	55121.46
358.966	64677.58
359.416	72602.6
359.865	78505.95
360.315	93582.7
360.764	43774.94
361.213	24560.7
361.663	23300.4
362.112	28819.12
362.561	46556.43
363.01	35066.18
363.459	29475.08
363.908	31907.19
364.357	27079.94
364.806	45795.02
365.255	31510.72
365.703	28862.11
366.152	28869.26
366.601	23406.14
367.05	18985.08
367.498	17243.03
367.947	18029.78
368.395	18768.89
368.844	16621.59
369.292	20052.96
369.74	13845.06
370.189	21196.17
370.637	24833
371.085	21413.08
371.533	26084.38
371.981	25148.1
372.429	23935.58
372.877	24908.43
373.325	20836.06
373.773	21227.27
374.221	18886.74
374.669	23429.13
375.116	20242.69
375.564	20400.07
376.012	22797.4
376.459	18790.45
376.907	22421.93
377.354	27156.13
377.801	25314.41
378.249	29057.95
378.696	37081.15
379.143	44873.03
379.591	47816.85
380.038	80816.57
380.485	58351.01
380.932	62899.46
381.379	57298.76
381.826	42143.16
382.273	29929.11
382.72	26177.03
383.166	25489.58
383.613	16523.93
384.06	14878.95
384.506	17213.16
384.953	12622.11
385.4	12698.97
385.846	11124.19
386.292	10854.23
386.739	10612.49
387.185	10470.95
387.631	10452.56
388.078	10140.28
388.524	10845.16
388.97	10016.83
389.416	8339.57
389.862	8857.73
390.308	8392.9
390.754	8529.26
391.2	9260.27
391.645	9477.07
392.091	9059.34
392.537	8753.66
392.983	8758.93
393.428	8601.17
393.874	9213.52
394.319	9241.38
394.765	8768.34
395.21	8999.29
395.655	8432.24
396.101	7900.73
396.546	7126.98
396.991	7202.37
397.436	6700.06
397.881	6476.36
398.326	6138.15
398.771	5805.52
399.216	5074.79
399.661	4574.74
400.106	4567.9
400.551	4678.96
400.995	4196.1
401.44	4158.68
401.885	3908.1
402.329	3953.75
402.774	3801.9
403.218	3683.63
403.663	3561.15
404.107	3669.17
404.551	3698.71
404.995	3397.7
405.44	3279.48
405.884	3338.6
406.328	3238.13
406.772	3235.25
407.216	2947.87
407.66	2848.45
408.104	2711.73
408.547	2536.39
408.991	2456.76
409.435	2368.91
409.879	2332.89
410.322	2302.92
410.766	2223.7
411.209	2116.53
411.653	2032.68
412.096	1992.49
412.54	1993.15
412.983	1982.14
413.426	1989.44
413.869	1989.01
414.312	1952.59
414.756	1884.87
415.199	1799.83
415.642	1750.3
416.085	1753.23
416.527	1743.95
416.97	1771.64
417.413	1683.67
417.856	1668.04
418.298	1651.97
418.741	1641.65
419.184	1640.35
419.626	1714.47
420.069	1717.72
420.511	1725.24
420.953	1688.92
421.396	1672.43
421.838	1632.4
422.28	1671.57
422.722	1679.92
423.164	1706.11
423.606	1679.75
424.048	1675.88
424.49	1590.41
424.932	1582.7
425.374	1563.41
425.816	1591.97
426.258	1620.94
426.699	1636.43
427.141	1611.29
427.582	1636.09
428.024	1624.75
428.465	1614.61
428.907	1574.01
429.348	1552.74
429.789	1550.25
430.231	1513.44
430.672	1531.07
431.113	1496.71
431.554	1474.32
431.995	1437.57
432.436	1382.72
432.877	1351.02
433.318	1323.96
433.759	1317.95
434.2	1316.3
434.64	1297.73
435.081	1300.29
435.522	1228.26
435.962	1181.29
436.403	1152.95
436.843	1166.95
437.284	1140.89
437.724	1107.89
438.164	1111.36
438.604	1085.04
439.045	1043.76
439.485	1001.76
439.925	981.38
440.365	955.74
440.805	940.87
441.245	928.57
441.685	891.61
442.125	884.43
442.564	890.62
443.004	868.96
443.444	864.15
443.883	864.02
444.323	855.32
444.762	855.17
445.202	866.76
445.641	880.29
446.081	872.51
446.52	879.49
446.959	866.99
447.398	843.22
447.837	832.07
448.276	816.42
448.716	821.32
449.154	828.73
449.593	807.9
450.032	803.02
450.471	788.09
450.91	789.88
451.349	788.51
451.787	785.13
452.226	797.52
452.664	796.55
453.103	798.6
453.541	798
453.98	795.19
454.418	799.99
454.856	787.5
455.295	784.61
455.733	790.79
456.171	795.21
456.609	796.73
457.047	796.08
457.485	807.26
457.923	808.37
458.361	797.91
458.798	801.36
459.236	798.89
459.674	805.42
460.111	809.96
460.549	800.88
460.987	797
461.424	794.05
461.862	790.25
462.299	777.61
462.736	774.65
463.173	776.49
463.611	767.82
464.048	767.07
464.485	772.94
464.922	766.77
465.359	762.41
465.796	752.44
466.233	746.28
466.67	738.94
467.106	736.88
467.543	731.15
467.98	722.18
468.416	704.27
468.853	697.78
469.29	676.62
469.726	668.95
470.162	652.08
470.599	643.75
471.035	638.45
471.471	623.65
471.907	621.1
472.344	617.81
472.78	618.2
473.216	625.12
473.652	617.77
474.088	615.83
474.523	613.43
474.959	617.94
475.395	610.81
475.831	608.48
476.266	611.19
476.702	609.31
477.138	601.79
477.573	601.1
478.008	597.88
478.444	601.05
478.879	606.59
479.314	609.99
479.75	610.31
480.185	613.71
480.62	617.98
481.055	620.93
481.49	625.29
481.925	634.84
482.36	644.96
482.795	663.36
483.229	680.78
483.664	695.76
484.099	697.79
484.534	708.39
484.968	716.13
485.403	718.87
485.837	718.69
486.271	717.51
486.706	718.06
487.14	710.39
487.574	699.3
488.009	692.31
488.443	685.63
488.877	692.58
489.311	694.99
489.745	702.31
490.179	708.8
490.613	721.73
491.046	727.59
491.48	732.97
491.914	733.83
492.348	739.35
492.781	744.18
493.215	745.84
493.648	747.17
494.082	752.16
494.515	752.82
494.948	760.3
495.382	764.72
495.815	768.81
496.248	774.26
496.681	786.64
497.114	797.96
497.547	808.45
497.98	821.61
498.413	826.75
498.846	836.13
499.279	844.4
499.711	847.64
500.144	849.46
500.577	859.62
501.009	870.61
501.442	880.39
501.874	880.8
502.306	882.28
502.739	889.54
503.171	904.53
503.603	907.57
504.036	916.06
504.468	920.76
504.9	930.69
505.332	937.28
505.764	939.7
506.196	945.7
506.627	958.86
507.059	970.8
507.491	978.51
507.923	974.23
508.354	987.45
508.786	995.76
509.217	1012.27
509.649	1025.44
510.08	1041.84
510.512	1057.37
510.943	1070.09
511.374	1079.98
511.805	1098.07
512.237	1114.79
512.668	1145.19
513.099	1169.26
513.53	1195.04
513.961	1212.62
514.391	1241.35
514.822	1272.02
515.253	1303.74
515.684	1325.7
516.114	1350.91
516.545	1366.79
516.975	1388.59
517.406	1402.38
517.836	1401.93
518.267	1404.38
518.697	1418.73
519.127	1419.88
519.558	1423.44
519.988	1423.39
520.418	1430.89
520.848	1444.57
521.278	1450.42
521.708	1467.52
522.138	1476.59
522.567	1503.63
522.997	1525.1
523.427	1536.9
523.857	1550.03
524.286	1555.8
524.716	1567.68
525.145	1582.62
525.575	1589.85
526.004	1602.17
526.433	1589
526.863	1587.69
527.292	1576.57
527.721	1579.45
528.15	1583.04
528.579	1582.26
529.008	1591
529.437	1609.93
529.866	1620.85
530.295	1636.45
530.724	1645.56
531.152	1670.38
531.581	1681.27
532.01	1696.36
532.438	1703.88
532.867	1716.57
533.295	1732.94
533.723	1738.36
534.152	1736.63
534.58	1735.7
535.008	1719
535.436	1720.15
535.865	1726.09
536.293	1739.35
536.721	1753.93
537.149	1777.21
537.576	1779.31
538.004	1789.97
538.432	1796.45
538.86	1794.5
539.287	1799.87
539.715	1813.46
540.143	1815.63
540.57	1812.43
540.998	1808.83
541.425	1786.34
541.852	1765.76
542.28	1763.76
542.707	1747.54
543.134	1733.6
543.561	1729.31
543.988	1722
544.415	1721.28
544.842	1716.21
545.269	1708.77
545.696	1709.71
546.123	1721.45
546.549	1711.69
546.976	1699.58
547.403	1699.48
547.829	1702.07
548.256	1703.15
548.682	1700.41
549.108	1693.77
549.535	1693.33
549.961	1695.24
550.387	1682.83
550.813	1677.69
551.24	1682.7
551.666	1683.49
552.092	1674.68
552.518	1667.73
552.943	1662.82
553.369	1669.73
553.795	1674.54
554.221	1675.51
554.646	1671.96
555.072	1683.4
555.498	1687.89
555.923	1697.17
556.349	1710.78
556.774	1719.64
557.199	1721.64
557.625	1726.91
558.05	1722.63
558.475	1732.97
558.9	1732.17
559.325	1726.17
559.75	1720.49
560.175	1715.34
560.6	1709.74
561.025	1708.46
561.449	1710.23
561.874	1716.09
562.299	1721.6
562.723	1729.13
563.148	1720.79
563.572	1725.94
563.997	1736.7
564.421	1743.58
564.846	1744.09
565.27	1748.78
565.694	1748.67
566.118	1761.21
566.542	1770.84
566.966	1766.31
567.39	1764.13
567.814	1755.09
568.238	1757.18
568.662	1764.32
569.086	1767.58
569.509	1777.09
569.933	1764.43
570.357	1759.38
570.78	1741.11
571.204	1729.86
571.627	1721.87
572.05	1720.64
572.474	1722.86
572.897	1712.03
573.32	1705.28
573.743	1698.69
574.166	1682.87
574.589	1685.24
575.012	1680.68
575.435	1681.52
575.858	1674.37
576.281	1664.54
576.704	1651.47
577.126	1638.9
577.549	1629.87
577.972	1620.65
578.394	1610.17
578.817	1605.5
579.239	1588.34
579.661	1575.81
580.084	1562.34
580.506	1550.78
580.928	1548.32
581.35	1538.71
581.772	1536.51
582.194	1524.65
582.616	1514.01
583.038	1501.69
583.46	1491.87
583.882	1489.52
584.303	1493.29
584.725	1488.77
585.147	1491.86
585.568	1504.19
585.99	1517.04
586.411	1525.46
586.833	1540.98
587.254	1543.62
587.675	1558.93
588.096	1572.7
588.518	1568.12
588.939	1553.54
589.36	1553.12
589.781	1543.51
590.202	1515.9
590.623	1507.78
591.043	1505.32
591.464	1492.43
591.885	1489.67
592.305	1484.25
592.726	1470.99
593.147	1472.82
593.567	1467.3
593.987	1459.43
594.408	1453.77
594.828	1451.2
595.248	1446.02
595.669	1428.34
596.089	1421.95
596.509	1415.2
596.929	1402.12
597.349	1402.3
597.769	1392.56
598.189	1387.58
598.608	1388.94
599.028	1392.18
599.448	1392.75
599.867	1379.85
600.287	1376.04
600.706	1372.52
601.126	1363.62
601.545	1362.51
601.965	1362.74
602.384	1358.55
602.803	1362.23
603.222	1358.33
603.641	1351.9
604.061	1348.92
604.48	1345.07
604.898	1353.48
605.317	1358.54
605.736	1360.93
606.155	1358.76
606.574	1349.77
606.992	1355.49
607.411	1351.1
607.829	1343.66
608.248	1341.22
608.666	1339.12
609.085	1340.14
609.503	1333.52
609.921	1328.34
610.339	1331.45
610.758	1331.91
611.176	1328.18
611.594	1320.52
612.012	1316.78
612.43	1321.52
612.847	1328.93
613.265	1330.68
613.683	1336.46
614.101	1336.37
614.518	1333.49
614.936	1324.57
615.353	1310.58
615.771	1308.92
616.188	1309.43
616.606	1307.4
617.023	1300.61
617.44	1287.29
617.857	1282.12
618.274	1274.4
618.691	1270.14
619.108	1260.94
619.525	1254.82
619.942	1263.54
620.359	1266
620.776	1261.79
621.192	1257.89
621.609	1256.13
622.026	1263.35
622.442	1268.35
622.859	1271.18
623.275	1265.18
623.691	1272.15
624.108	1285.04
624.524	1299.75
624.94	1300.92
625.356	1310.27
625.772	1324.62
626.188	1337.53
626.604	1338.69
627.02	1335.74
627.436	1333.67
627.852	1340.37
628.268	1351.39
628.683	1343.11
629.099	1333.72
629.514	1328.14
629.93	1332.83
630.345	1336.58
630.761	1332.06
631.176	1336.82
631.591	1331.96
632.007	1327.41
632.422	1326.01
632.837	1316.23
633.252	1312.99
633.667	1302.76
634.082	1295.35
634.497	1283.34
634.911	1265.1
635.326	1262.65
635.741	1245.43
636.155	1235.74
636.57	1237.97
636.984	1238.73
637.399	1242.02
637.813	1242.02
638.228	1242.59
638.642	1247.32
639.056	1237.6
639.47	1240.05
639.884	1234.15
640.298	1229.21
640.712	1230.12
641.126	1218.34
641.54	1210.74
641.954	1205.04
642.368	1195.25
642.781	1189.34
643.195	1171.85
643.609	1174.51
644.022	1168.97
644.436	1164.53
644.849	1153.29
645.262	1140.99
645.676	1142.72
646.089	1139.18
646.502	1126.07
646.915	1121.39
647.328	1103.95
647.741	1103.29
648.154	1090.35
648.567	1088.63
648.98	1074.98
649.393	1075.84
649.805	1072.45
650.218	1066.07
650.631	1048.7
651.043	1042.38
651.456	1036
651.868	1037
652.28	1054.59
652.693	1068.5
653.105	1074.52
653.517	1084.92
653.929	1085.51
654.341	1091.55
654.753	1079.62
655.165	1087.49
655.577	1085.4
655.989	1082.39
656.401	1075.26
656.813	1038.62
657.224	1018.25
657.636	988.76
658.047	971.79
658.459	952.62
658.87	944.7
659.282	932.17
659.693	911.86
660.104	898.13
660.515	884.47
660.926	883.78
661.338	882.79
661.749	877.22
662.159	868.35
662.57	863.55
662.981	860.09
663.392	852.12
663.803	857.14
664.213	853.64
664.624	848.69
665.035	851.16
665.445	835.61
665.855	826.41
666.266	819.09
666.676	817.85
667.086	807.79
667.497	804.92
667.907	798.46
668.317	788.83
668.727	786.63
669.137	787.41
669.547	785.9
669.956	789.24
670.366	791.39
670.776	791.38
671.186	794.54
671.595	798.94
672.005	802.94
672.414	802.39
672.824	800.38
673.233	803.3
673.642	804.46
674.052	806.31
674.461	807.43
674.87	811.66
675.279	809.58
675.688	810.05
676.097	809.86
676.506	805.53
676.915	819.53
677.323	822.34
677.732	820.24
678.141	818.64
678.549	806.03
678.958	804.43
679.366	803.23
679.775	807.13
680.183	817.72
680.592	823.44
681	829.54
681.408	821.07
681.816	827.2
682.224	835.51
682.632	846.28
683.04	876.61
683.448	900.31
683.856	930.43
684.264	964.77
684.671	996.46
685.079	1035.87
685.487	1078.46
685.894	1141.53
686.302	1191.19
686.709	1230.35
687.116	1277.13
687.524	1315.65
687.931	1347.53
688.338	1371.66
688.745	1391.27
689.152	1413.85
689.559	1448.82
689.966	1483.21
690.373	1492.73
690.78	1521.86
691.187	1573.98
691.593	1609.78
692	1638.25
692.407	1686.13
692.813	1749.52
693.22	1798.08
693.626	1846.74
694.032	1883.37
694.439	1944.65
694.845	1990.39
695.251	2054.23
695.657	2106.6
696.063	2190.2
696.469	2248.76
696.875	2304.8
697.281	2330.71
697.687	2365.7
698.093	2393.55
698.498	2455.61
698.904	2501.79
699.31	2577.07
699.715	2624.88
700.12	2702.76
700.526	2712.48
700.931	2770.77
701.337	2810.57
701.742	2836.33
702.147	2905.28
702.552	2929.74
702.957	2976.58
703.362	2987.78
703.767	3008.36
704.172	3040.42
704.577	2990.3
704.981	3027.5
705.386	3036.8
705.791	3027.67
706.195	3088.9
706.6	3092.51
707.004	3158.48
707.408	3128.81
707.813	3151.7
708.217	3136.63
708.621	3134.48
709.025	3219.38
709.43	3216.73
709.834	3269.42
710.237	3325.21
710.641	3309.02
711.045	3326.36
711.449	3317.8
711.853	3341.59
712.256	3372.34
712.66	3403.16
713.064	3466.79
713.467	3500.06
713.87	3597.23
714.274	3633.21
714.677	3728.55
715.08	3867.94
715.484	4013.42
715.887	4189.04
716.29	4357.72
716.693	4537.75
717.096	4744.95
717.499	4857.82
717.901	4878.5
718.304	4899.44
718.707	4918.09
719.109	4823.52
719.512	4793.94
719.915	4674.97
720.317	4622.72
720.719	4657.5
721.122	4633.16
721.524	4585.1
721.926	4546.14
722.328	4631.73
722.731	4620.42
723.133	4641.58
723.535	4809.43
723.937	4825.39
724.338	4867.34
724.74	4901.69
725.142	4856.79
725.544	4854.53
725.945	4879.28
726.347	4874.24
726.748	4864.78
727.15	4875.42
727.551	4845.36
727.952	4818.43
728.354	4791.43
728.755	4792.3
729.156	4756.37
729.557	4735.01
729.958	4622.99
730.359	4571.32
730.76	4554.19
731.161	4501.01
731.562	4479.12
731.962	4478
732.363	4422.89
732.763	4367.14
733.164	4394.38
733.564	4335.02
733.965	4252.7
734.365	4224.58
734.766	4249.08
735.166	4214.94
735.566	4168.72
735.966	4145.79
736.366	4140.76
736.766	4085.67
737.166	4112.83
737.566	4079.43
737.966	4056.44
738.365	4088.74
738.765	4084.2
739.165	4020.89
739.564	3995.54
739.964	4033.66
740.363	3992.88
740.763	3991.23
741.162	3981.13
741.561	3953.04
741.96	3911.88
742.36	3926.61
742.759	3932.54
743.158	3962.15
743.557	3973.36
743.955	4009.8
744.354	3968.29
744.753	4016.02
745.152	3981.41
745.55	4028.42
745.949	4021.3
746.348	4022.24
746.746	4037.32
747.144	4000.93
747.543	3982.49
747.941	4023.08
748.339	3961.18
748.737	3957
749.136	3952.43
749.534	4006.45
749.932	3980.92
750.33	4002.65
750.727	4048.98
751.125	4028.3
751.523	4015.31
751.921	4053.94
752.318	4025.17
752.716	4077.09
753.113	4087.68
753.511	4106.97
753.908	4106.83
754.305	4095.71
754.703	4146.63
755.1	4199.55
755.497	4250.94
755.894	4412.78
756.291	4565.75
756.688	4847.28
757.085	5221.8
757.482	5751.07
757.878	6325.09
758.275	6842.94
758.672	7555.63
759.068	8140.2
759.465	8969.79
759.861	10036.34
760.258	11275.5
760.654	11907.35
761.05	11807.45
761.447	11259.14
761.843	10476.04
762.239	9670.32
762.635	9309.93
763.031	8962.28
763.427	8458.21
763.822	7931.74
764.218	7414.11
764.614	6738.47
765.01	6289.43
765.405	5997.98
765.801	5776.83
766.196	5491.19
766.592	5333.06
766.987	5064.66
767.382	4884.08
767.778	4809.34
768.173	4698.81
768.568	4637.84
768.963	4532.61
769.358	4545.98
769.753	4506.26
770.148	4436.73
770.542	4436.94
770.937	4411.63
771.332	4488.55
771.726	4505.43
772.121	4451.79
772.515	4496.76
772.91	4482.22
773.304	4540.35
773.699	4485.02
774.093	4532.72
774.487	4579.65
774.881	4616.76
775.275	4613.77
775.669	4577.89
776.063	4614.98
776.457	4644.81
776.851	4584.11
777.245	4580.53
777.638	4610.56
778.032	4709.07
778.425	4676.46
778.819	4714.05
779.212	4677.67
779.606	4642.04
779.999	4660.25
780.392	4647.31
780.786	4720.33
781.179	4738.9
781.572	4775.9
781.965	4786.81
782.358	4740.62
782.751	4788.9
783.143	4744.22
783.536	4810.18
783.929	4849.8
784.322	4948.81
784.714	4972.91
785.107	4965.91
785.499	5027.19
785.891	5007.48
786.284	4990.97
786.676	5109.51
787.068	5092.58
787.46	5138.88
787.852	5151.9
788.245	5222.97
788.636	5245.6
789.028	5302.53
789.42	5336.25
789.812	5340.79
790.204	5420.46
790.595	5505.93
790.987	5340.72
791.378	5360.47
791.77	5470.55
792.161	5583.47
792.553	5630.96
792.944	5537.27
793.335	5479.2
793.726	5542.01
794.117	5616.52
794.508	5733.45
794.899	5705.79
795.29	5824.69
795.681	5872.88
796.072	5750.69
796.463	5601.73
796.853	5608.71
797.244	5741.82
797.634	5770.23
798.025	5764.8
798.415	5776.46
798.806	5851.61
799.196	5921.43
799.586	5964.33
799.976	5931.82
800.366	6125.49
800.756	6321.11
801.146	6282.41
801.536	6305.92
801.926	6368.4
802.316	6389.28
802.706	6448.93
803.095	6344
803.485	6431.85
803.874	6465.2
804.264	6687.34
804.653	6666.97
805.043	6791.29
805.432	6892.87
805.821	6893.75
806.21	6917.39
806.599	7020.15
806.988	7057.94
807.377	7150.48
807.766	7260.61
808.155	7498.65
808.544	7269.38
808.933	7282.89
809.321	7265.08
809.71	7511.22
810.098	7642.72
810.487	8030.06
810.875	8442.97
811.264	8461.15
811.652	8706.65
812.04	8835.57
812.428	8975.7
812.816	9623.46
813.204	9978.35
813.592	10445.6
813.98	10730.62
814.368	10655.65
814.756	11056.93
815.144	10981.56
815.531	11375
815.919	11305.92
816.306	11551.74
816.694	11290.5
817.081	11335.01
817.469	11629.22
817.856	11626.47
818.243	11851.28
818.63	12182.2
819.017	11828.85
819.404	11887.44
819.791	12214.94
820.178	12740.15
820.565	12959.47
820.952	13753.06
821.339	13339.25
821.725	13490.62
822.112	12863.04
822.498	12827.96
822.885	12935.56
823.271	12844.9
823.657	13190.82
824.044	13197.58
824.43	13255.24
824.816	13223.97
825.202	12853.41
825.588	13703.48
825.974	13720.7
826.36	14155.56
826.746	14179.39
827.132	14477.26
827.517	14459.39
827.903	13794.81
828.289	13820.97
828.674	13170.07
829.06	13087.86
829.445	13417.06
829.83	13720.21
830.216	14116.62
830.601	14423.94
830.986	14085.34
831.371	13973.6
831.756	14446.2
832.141	14091.5
832.526	14083.58
832.911	14312.49
833.295	14206.99
833.68	14601.39
834.065	14084.53
834.449	13313.78
834.834	13249.14
835.218	13246.96
835.603	13532.74
835.987	13357.63
836.371	14063.24
836.755	13979.43
837.139	14319.31
837.524	14529.69
837.908	14379.58
838.291	14419.63
838.675	14481.78
839.059	14658.78
839.443	14645.96
839.827	14457.04
840.21	14860.65
840.594	14728.66
840.977	14903.45
841.361	14889.15
841.744	15200.35
842.127	15071.11
842.511	15285.2
842.894	15781.3
843.277	16103.66
843.66	16566.61
844.043	16642.93
844.426	15965.66
844.809	15709.83
845.191	15740.96
845.574	15350.92
845.957	15053.84
846.339	14961.62
846.722	14520.35
847.104	14585.85
847.487	14434.77
847.869	14449.03
848.252	14682.28
848.634	14955.44
849.016	15176.33
849.398	15284.2
849.78	16010.63
850.162	16010.74
850.544	16362.13
850.926	16894.04
851.307	16822.66
851.689	17068.25
852.071	17450.95
852.452	17718.27
852.834	17711.7
853.215	18049.75
853.597	18177.42
853.978	18421.34
854.359	18805.59
854.741	17965.34
855.122	17887.45
855.503	17638.27
855.884	17751.8
856.265	17689.34
856.646	17785.86
857.026	17457.87
857.407	17394.98
857.788	17524.35
858.169	17767.52
858.549	17049.9
858.93	17583.73
859.31	17625.79
859.69	17804.97
860.071	17460.05
860.451	17292.41
860.831	16669.8
861.211	17633.53
861.591	18098.73
861.971	18085.65
862.351	18247.9
862.731	18576.34
863.111	18794.38
863.491	19069.84
863.87	19798.68
864.25	20090.59
864.629	19746.11
865.009	20176.43
865.388	20905.87
865.768	22406.34
866.147	22306.7
866.526	21070.98
866.905	21315.73
867.284	22511.6
867.663	21368.87
868.042	20496.46
868.421	20429.87
868.8	20771.32
869.179	20976.98
869.558	19744
869.936	18200.01
870.315	18522.54
870.693	18976.99
871.072	20472.71
871.45	19497.98
871.828	19755.49
872.207	20755.53
872.585	20440.2
872.963	20992.08
873.341	20276.48
873.719	20049.42
874.097	19808.49
874.475	20182.19
874.853	20643.28
875.23	19769.14
875.608	20601.56
875.986	22285.79
876.363	21308.53
876.741	21958.36
877.118	21400.94
877.495	22439
877.873	22797.94
878.25	23984.7
878.627	23009.78
879.004	23326.24
879.381	23216.42
879.758	22604.32
880.135	21029.68
880.512	22247.69
880.889	21665.56
881.265	21443.18
881.642	21272.34
882.019	21647.01
882.395	21216.3
882.772	22064.22
883.148	21121.52
883.524	21057.25
883.901	20945.34
884.277	21280.16
884.653	21142.52
885.029	21746.81
885.405	24096.9
885.781	23905.6
886.157	22910.87
886.532	23186.79
886.908	23176.93
887.284	25766.5
887.659	26602.31
888.035	27425.07
888.411	28129.13
888.786	28504.95
889.161	29509.37
889.537	28968.8
889.912	29914.84
890.287	29915.69
890.662	30695.17
891.037	30148.58
891.412	28107.81
891.787	27824.04
892.162	26861.89
892.536	27486.49
892.911	26461.47
893.286	25897.81
893.66	24843.67
894.035	25461.4
894.409	27711.17
894.784	26593.74
895.158	27021.92
895.532	28625.8
895.906	29416.19
896.281	30087.01
896.655	29597.64
897.029	33813.89
897.402	35223.63
897.776	39224.32
898.15	39089.26
898.524	38671.12
898.898	39189.72
899.271	43899.58
899.645	38044.58
900.018	36540.45
900.392	37923.63
900.765	38240.19
901.138	35384.32
901.511	34833.33
901.884	31961.11
902.258	29492.01
902.631	30465.95
903.003	35051.14
903.376	31620.28
903.749	35444.67
904.122	37936.21
904.495	41754.25
904.867	42296.92
905.24	36739.63
905.612	34215.67
905.985	35014.14
906.357	36611.96
906.729	34963.64
907.102	29870.63
907.474	28725.11
907.846	28912.31
908.218	28538.09
908.59	25221.12
908.962	24395.41
909.334	26276.3
909.705	27593.06
910.077	26781.99
910.449	27879.72
910.82	28641.25
911.192	31516.89
911.563	32735.99
911.935	35022.1
912.306	35054.26
912.677	36201.59
913.048	35827.57
913.419	38841.55
913.79	39054.86
914.161	41878.88
914.532	40054.95
914.903	36811.53
915.274	34972.25
915.645	34487.56
916.015	30346.86
916.386	28948.98
916.756	30818.85
917.127	31788.26
917.497	28410.28
917.868	30938.35
918.238	29406.61
918.608	30239.64
918.978	30899.58
919.348	32712.64
919.718	33801.56
920.088	32569.66
920.458	33827.19
920.828	35583.84
921.198	33742.86
921.567	36063.06
921.937	27933.57
922.306	28198.33
922.676	30411.61
923.045	25363.17
923.415	24104.35
923.784	21945.43
924.153	22567.58
924.522	22554.56
924.891	21212.1
925.26	22720.4
925.629	22185.51
925.998	25520.76
926.367	24914.6
926.736	23730.32
927.104	28253.48
927.473	30362.34
927.842	36669.45
928.21	36329.81
928.578	38213.6
928.947	36152.64
929.315	36403.69
929.683	42696.22
930.051	43029.14
930.42	50020.09
930.788	42785.12
931.156	42477.36
931.523	39869.8
931.891	36856.11
932.259	35397.66
932.627	41016.7
932.994	58052.72
933.362	47983.96
933.729	41689.3
934.097	39905.15
934.464	33761.39
934.831	38957.41
935.199	38425.95
935.566	37259.21
935.933	37759.84
936.3	45770.82
936.667	35626.07
937.034	32152.09
937.401	31802.48
937.767	27446.35
938.134	24429.24
938.501	34457.8
938.867	36711.44
939.234	62125.59
939.6	52985.19
939.967	58452.06
940.333	39121.79
940.699	33291.09
941.065	26685.54
941.431	34961.8
941.798	33696.9
942.163	44267.87
942.529	27643.64
942.895	25464.29
943.261	16448.48
943.627	21560.64
943.992	18852.36
944.358	18857.11
944.723	18957.13
945.089	18468.54
945.454	17066.14
945.82	18222.82
946.185	17489.96
946.55	20267.87
946.915	18156.36
947.28	21297.17
947.645	18767.92
948.01	17356.54
948.375	18110.17
948.74	21694.4
949.104	25329.47
949.469	36571.37
949.834	64664.03
950.198	61409.9
950.562	36831.92
950.927	30699.19
951.291	36931.41
951.655	31480.93
952.02	29546.25
952.384	22360.2
952.748	19476.01
953.112	18982.3
953.476	16515.1
953.839	15259.51
954.203	15104.22
954.567	18868.81
954.931	29733.21
955.294	25472.24
955.658	25595.29
956.021	43497.88
956.385	73806.3
956.748	108995.62
957.111	169132.58
957.474	190019.63
957.837	214241.66
958.2	162245.93
958.563	58447.8
958.926	39547.86
959.289	60027.42
959.652	67158.23
960.015	50439.31
960.377	72453.66
960.74	82649.41
961.102	142765.49
961.465	153462.29
961.827	82258.96
962.189	157742.03
962.552	109311.97
962.914	87547.28
963.276	56806.5
963.638	46928.06
964	46418.71
964.362	31347.84
964.724	30285.59
965.085	21588.1
965.447	17684.78
965.809	20140.38
966.17	20171.83
966.532	21831.26
966.893	20042.66
967.255	18246.46
967.616	21556.91
967.977	17277.47
968.338	18860.98
968.699	15523.73
969.061	15549.07
969.421	15660.08
969.782	17600.81
970.143	14865.93
970.504	15420.61
970.865	17540.18
971.225	17933.17
971.586	17545.86
971.946	25041.59
972.307	21755.84
972.667	28405.5
973.027	29242.43
973.388	35431.4
973.748	24076.73
974.108	26223.79
974.468	35441
974.828	27342.35
975.188	21058.39
975.548	19358.3
975.907	16253.63
976.267	18229.35
976.627	15347.84
976.986	15906.2
977.346	15164.37
977.705	14598.4
978.064	13305.7
978.424	11086.9
978.783	11463.11
979.142	13072.69
979.501	12503.36
979.86	13205.93
980.219	12734.67
980.578	16441.15
980.937	18418.42
981.296	16445.69
981.654	16902.35
982.013	26306.93
982.371	34104.09
982.73	31850.92
983.088	36084.07
983.447	38540.89
983.805	55116.58
984.163	115168.88
984.521	127536.46
984.879	186873.13
985.237	-303637.33
985.595	293268.42
985.953	72780.5
986.311	41996.2
986.669	24391.18
987.026	21064.45
987.384	28332.43
987.741	29360.41
988.099	20995.1
988.456	16761.36
988.814	15672.41
989.171	13653.72
989.528	13470.53
989.885	14257.8
990.242	11300.93
990.599	14071.3
990.956	11515.99
991.313	8058.76
991.67	6603.5
992.027	7010.28
992.383	6228.75
992.74	5477.65
993.096	5738.51
993.453	5941.69
993.809	6161.45
994.165	8226.07
994.522	7543.05
994.878	8303.21
995.234	10419.13
995.59	10286.26
995.946	9716.74
996.302	11080
996.658	12792.78
997.013	14114.1
997.369	16778.28
997.725	21475.94
998.08	13883.39
998.436	21403.41
998.791	29621.11
999.147	29521.57
999.502	32164.2
999.857	23378.75
1000.212	38095.68
1000.567	54237.12
1000.922	31308.14
1001.277	19829.76
1001.632	14707.68
1001.987	18957.25
1002.342	13616.11
1002.696	10839.08
1003.051	8685.64
1003.406	10549.56
1003.76	10526.74
1004.114	10377.56
1004.469	8741.42
1004.823	7229.62
1005.177	7804.43
1005.531	6179.9
1005.885	5485.42
1006.239	6180.53
1006.593	7766.06
1006.947	10355.8
1007.301	7770.55
1007.655	8458.92
1008.008	6223.58
1008.362	6990.94
1008.715	9975.54
1009.069	9079.98
1009.422	13672.58
1009.776	27407.7
1010.129	18217.95
1010.482	15204.94
1010.835	12888.57
1011.188	26803.93
1011.541	25167.56
1011.894	-153485.34
1012.247	451880.18
1012.6	30656.22
1012.952	19347.76
1013.305	9989.01
1013.657	7215.31
1014.01	6843.93
1014.362	5673.39
1014.715	5041.55
1015.067	4374.09
1015.419	4286.34
1015.771	3794.3
1016.123	3371.16
1016.475	3468.75
1016.827	3691.15
1017.179	3962.98
1017.531	3984.96
1017.883	4050.13
1018.234	3915.07
1018.586	4927.05
1018.938	5235.73
1019.289	7229.47
1019.64	8286.14
1019.992	7744.61
1020.343	7077.92
1020.694	5590.89
1021.045	4946.72
1021.396	5637.72
1021.747	6066.82
1022.098	7234.76
1022.449	5253.94
1022.8	4877.38
1023.151	3396.03
1023.501	3006.61
1023.852	3265.12
1024.202	3404.37
1024.553	3748.93
1024.903	3672.26
1025.253	3165.13
1025.604	2851.24
1025.954	3539.88
1026.304	4319.32
1026.654	5038.14
1027.004	7336.09
1027.354	11929.57
1027.703	11268.44
1028.053	14776.25
1028.403	21424.18
1028.753	30738.84
1029.102	41455.21
1029.452	211972.21
1029.801	9130.85
1030.15	5876.54
1030.499	4951.85
897.758	2707
901.051	2672.14
904.343	2709.06
907.636	2706.94
910.928	2771.17
914.22	2678.45
917.511	2686.55
920.803	2750.79
924.094	2772.17
927.384	2746.54
930.675	2715.33
933.965	2667.84
937.255	2672.42
940.544	2638.39
943.834	2575.04
947.123	2520.52
950.411	2617.75
953.7	2590.46
956.988	2553.61
960.276	2498.28
963.563	2584.46
966.851	2576.84
970.138	2635.73
973.424	2625
976.711	2574.04
979.997	2717.02
983.283	2748.66
986.568	2651.46
989.853	2673.53
993.138	2700.78
996.423	2780.01
999.708	2711.97
1002.992	2782.32
1006.275	2613.27
1009.559	2665.66
1012.842	2781.87
1016.125	2708.37
1019.408	2688.79
1022.69	2779.26
1025.972	2790.73
1029.254	2767.82
1032.536	2695.45
1035.817	2726.77
1039.098	2664.35
1042.379	2818.26
1045.659	2810.75
1048.939	2743.12
1052.219	2765.12
1055.498	2780.45
1058.778	2762.09
1062.057	2751.09
1065.335	2770.46
1068.614	2788.8
1071.892	2768.2
1075.17	2848.43
1078.447	2834.42
1081.724	2824.33
1085.001	2860.45
1088.278	2837.79
1091.554	2850.85
1094.83	2847.59
1098.106	2872.9
1101.382	2920.03
1104.657	2921.47
1107.932	2915.23
1111.206	2875.23
1114.481	2834.04
1117.755	2839.53
1121.029	2820.35
1124.302	2865.86
1127.575	2817.25
1130.848	2804.22
1134.121	2762.1
1137.393	2707.63
1140.665	2777.7
1143.937	2751.15
1147.208	2716.97
1150.48	2753.25
1153.75	2737.36
1157.021	2772.08
1160.291	2743
1163.561	2783.25
1166.831	2778.78
1170.101	2811.76
1173.37	2792.75
1176.639	2733.17
1179.907	2796.72
1183.176	2798.03
1186.444	2805.52
1189.711	2834.62
1192.979	2844.46
1196.246	2802.69
1199.513	2823.35
1202.78	2815
1206.046	2824.21
1209.312	2847.98
1212.578	2873.95
1215.843	2823.72
1219.108	2802.13
1222.373	2824.65
1225.638	2787.75
1228.902	2768.09
1232.166	2737.42
1235.43	2716.76
1238.693	2744
1241.956	2742.02
1245.219	2778.26
1248.482	2772.2
1251.744	2767.69
1255.006	2917.81
1258.268	2872.7
1261.529	2815.87
1264.79	2824.27
1268.051	2927.93
1271.312	2944.98
1274.572	2904.51
1277.832	2895.42
1281.092	2890.85
1284.351	2862.42
1287.61	2838.13
1290.869	2748.18
1294.128	2722.62
1297.386	2818.47
1300.644	2804.08
1303.902	2818.96
1307.159	2678.53
1310.416	2733.68
1313.673	2756.07
1316.93	2737.52
1320.186	2785.52
1323.442	2833.66
1326.697	2821.81
1329.953	2818.17
1333.208	2836.38
1336.463	2823.47
1339.717	2753.14
1342.972	2894.94
1346.226	2874.69
1349.479	2805.74
1352.733	2773.52
1355.986	2800.21
1359.238	2772.8
1362.491	2775.64
1365.743	2780.41
1368.995	2778.48
1372.247	2789.91
1375.498	2815.1
1378.749	2822.96
1382	2780.71
1385.251	2836.5
1388.501	2803.05
1391.751	2782.39
1395	2755.04
1398.25	2789.8
1401.499	2792.64
1404.748	2715.62
1407.996	2710.09
1411.244	2695.25
1414.492	2674.06
1417.74	2649.48
1420.987	2662.28
1424.234	2716.06
1427.481	2700.31
1430.728	2760.4
1433.974	2734.24
1437.22	2752.95
1440.465	2755.08
1443.711	2711.26
1446.956	2748.82
1450.201	2740.78
1453.445	2786.75
1456.689	2761.59
1459.933	2773.07
1463.177	2802.55
1466.42	2776.07
1469.663	2753.87
1472.906	2742.71
1476.148	2826.35
1479.391	2785.38
1482.633	2757.94
1485.874	2762.42
1489.115	2744.79
1492.356	2757.7
1495.597	2731.01
1498.838	2737.88
1502.078	2701.06
1505.318	2649.07
1508.557	2693.25
1511.797	2660.05
1515.036	2736.21
1518.274	2727.13
1521.513	2703.66
1524.751	2727.93
1527.989	2737.21
1531.227	2750.28
1534.464	2738.33
1537.701	2764.54
1540.938	2785.82
1544.174	2738.23
1547.41	2738.65
1550.646	2776.36
1553.882	2810.5
1557.117	2861.05
1560.352	2879.5
1563.587	2831.92
1566.821	2791.01
1570.055	2828.4
1573.289	2798.48
1576.523	2874
1579.756	2880.58
1582.989	2899.88
1586.222	2861.24
1589.454	2895.43
1592.686	2870.29
1595.918	2892.21
1599.15	2881.36
1602.381	2960.88
1605.612	2911.35
1608.843	3006.07
1612.073	2920.95
1615.303	2902.88
1618.533	2893.07
1621.762	2890.32
1624.992	2888.23
1628.221	2868.85
1631.449	2851.61
1634.678	2916.72
1637.906	2869.3
1641.134	2911.94
1644.361	2865.86
1647.588	2853.23
1650.815	2868.83
1654.042	2848.9
1657.269	2885.73
1660.495	2829.03
1663.72	2853.01
1666.946	2816.02
1670.171	2750.45
1673.396	2726.01
1676.621	2715.99
1679.845	2739.65
1683.069	2764.32
1686.293	2809.71
1689.517	2777.78
1692.74	2701.98
1695.963	2733.29
1699.185	2748.96
1702.408	2727.78
1705.63	2771.42
1708.852	2781.92
1712.073	2754.22
1715.294	2735.24
1718.515	2796.41
1721.736	2741.03
1724.956	2739.08
1728.176	2766.6
1731.396	2787.02
1734.616	2775.88
1737.835	2799.99
1741.054	2784.45
1744.272	2777.81
1747.491	2805.16
1750.709	2864.59
1753.927	2762.74
1757.144	2809.9
1760.361	2846.75
1763.578	2848.19
1766.795	2789.16
1770.011	2797.99
1773.227	2841.81
1776.443	2873.66
1779.658	2917.59
1782.874	2865.39
1786.089	2841.8
1789.303	2842.44
1792.518	2854.63
1795.732	2839.19
1798.945	2841.69
1802.159	2896.38
1805.372	2792
1808.585	2773.5
1811.797	2775.51
1815.01	2830.79
1818.222	2826.02
1821.434	2796.06
1824.645	2859.11
1827.856	2835.98
1831.067	2874.12
1834.278	2840.59
1837.488	2818.26
1840.698	2974.41
1843.908	2896.85
1847.117	2861
1850.326	2735.79
1853.535	2848.95
1856.744	2876.76
1859.952	2792.26
1863.16	2793.51
1866.368	2814.94
1869.575	2915.19
1872.782	2807.93
1875.989	2748.7
1879.196	2838.96
1882.402	2832.13
1885.608	2875.94
1888.814	2773.57
1892.019	2667.16
1895.224	2718.84
1898.429	2705.38
1901.634	2685.34
1904.838	2662.46
1908.042	2710.48
1911.246	2717.54
1914.449	2644.49
1917.652	2641.55
1920.855	2625.15
1924.058	2678.03
1927.26	2714.38
1930.462	2743.81
1933.664	2766.46
1936.865	2706.52
1940.066	2710.28
1943.267	2656.02
1946.467	2672.77
1949.668	2698.73
1952.868	2766.83
1956.067	2742.22
1959.267	2671.91
1962.466	2700.46
1965.665	2682.99
1968.863	2677.16
1972.061	2695.41
1975.259	2695.99
1978.457	2779.97
1981.654	2734.15
1984.852	2736.81
1988.048	2665.34
1991.245	2671.64
1994.441	2754.88
1997.637	2746.78
2000.833	2732.85
2004.028	2771.62
2007.223	2823.2
2010.418	2797.53
2013.613	2756.23
2016.807	2722.92
2020.001	2734.67
2023.194	2781.79
2026.388	2756.62
2029.581	2705.34
2032.774	2749.94
2035.966	2748.91
2039.158	2679.49
2042.35	2708.9
2045.542	2638.08
2048.733	2741.91
2051.924	2773.96
2055.115	2800.18
2058.306	2740.05
2061.496	2800.4
2064.686	2860.91
2067.875	2779.35
2071.065	2798.77
2074.254	2829.06
2077.442	2776.54
2080.631	2867.59
2083.819	2751.29
2087.007	2732.69
2090.195	2704.51
2093.382	2739.68
2096.569	2718.82
2099.756	2674.47
2102.942	2693.11
2106.128	2694.77
2109.314	2687.63
2112.5	2648.64
2115.685	2626.64
2118.87	2637.78
2122.055	2702.15
2125.239	2662.96
2128.424	2638.72
2131.608	2748.54
2134.791	2731.72
2137.974	2792.07
2141.157	2777.49
2144.34	2723.63
2147.523	2745.23
2150.705	2756.31
2153.887	2738.88
2157.068	2682.61
2160.25	2690.83
2163.431	2730.13
2166.611	2672.7
2169.792	2684.27
2172.972	2576.15
2176.152	2660.4
2179.331	2698.14
2182.511	2673.55
2185.69	2702.56
2188.868	2694.85
2192.047	2753.62
2195.225	2736.44
2198.403	2689.92
2201.58	2681.58
2204.758	2680.89
2207.935	2765.3
2211.111	2646.49
2214.288	2629.25
2217.464	2668.6
2220.64	2647.68
2223.815	2702.89
2226.991	2622.49
2230.166	2644.19
2233.34	2669.58
2236.515	2699.32
2239.689	2772.37
2242.863	2715.34
2246.036	2772.42
2249.209	2777.21
2252.382	2816.18
2255.555	2795.55
2258.727	2731.3
2261.9	2775.28
2265.071	2765.27
2268.243	2768.87
2271.414	2694.42
2274.585	2654.33
2277.756	2723.87
2280.926	2681.39
2284.096	2723.28
2287.266	2625.15
2290.436	2683.69
2293.605	2715.49
2296.774	2738.78
2299.942	2765.55
2303.111	2779.73
2306.279	2828.24
2309.447	2817.71
2312.614	2792.3
2315.781	2813
2318.948	2780.4
2322.115	2820.15
2325.281	2724.89
2328.447	2746.78
2331.613	2724.92
2334.779	2694.78
2337.944	2700.59
2341.109	2697.67
2344.274	2676.36
2347.438	2644.16
2350.602	2667.3
2353.766	2685.45
2356.929	2672.11
2360.092	2713.24
2363.255	2660.66
2366.418	2589.04
2369.58	2707.44
2372.742	2483.86
2375.904	2502.19
2379.066	2475.47
2382.227	2512.35
2385.388	2478.16
2388.548	2398.44
2391.709	2456.99
2394.869	2430.65
2398.029	2538.34
2401.188	2555.18
2404.347	2486
2407.506	2634.87
2410.665	2662.08
2413.823	2673.77
2416.981	2625.28
2420.139	2657.26
2423.296	2712.9
2426.453	2683.84
2429.61	2710.38
2432.767	2637.1
2435.923	2672.8
2439.079	2640.73
2442.235	2690.8
2445.391	2615.63
2448.546	2637.43
2451.701	2692.21
2454.855	2661.42
2458.009	2715.03
2461.163	2718.29
2464.317	2676.95
2467.471	2711.61
2470.624	2753.49
2473.777	2716.84
2476.929	2731.18
2480.082	2757.58
2483.234	2722.91
2486.385	2679.61
2489.537	2670.62
2492.688	2628.88
2495.839	2648.76
2498.989	2658.04
2502.14	2639.92
2505.29	2622.14
2508.439	2650.93
2511.589	2569.41
2514.738	2585.73
2517.887	2617.63
2521.035	2673.64
2524.183	2666.09
2527.331	2641.67
2530.479	2611.14
2533.627	2623.27
