Data from C_2_DEC_OH_4N_Splice17_12-05-13-367.txt Node
Date: Sat Mar 14 12:05:13 EDT 2020
User: sa697716
Spectrometer: FLMS03696
Trigger mode: 0
Integration Time (sec): 3.180400E-1
Scans to average: 20
Electric dark correction enabled: true
Nonlinearity correction enabled: true
Boxcar width: 5
XAxis mode: Wavelengths
Number of Pixels in Spectrum: 2048
>>>>>Begin Spectral Data<<<<<
187.83	-275277.65
188.298	2009.8
188.766	1047.94
189.233	973.88
189.701	1395.54
190.169	1976.83
190.636	752.96
191.104	598.18
191.571	76.26
192.039	-89.6
192.506	-116.04
192.974	327.3
193.441	-539.4
193.908	-264.38
194.375	-29.16
194.842	29.52
195.31	80.18
195.777	152.44
196.244	338.98
196.711	336.33
197.177	423.26
197.644	575.03
198.111	990.61
198.578	1394.74
199.045	1117.77
199.511	1798.01
199.978	2127.09
200.445	1835.86
200.911	2020.1
201.378	2212.25
201.844	2033.8
202.31	3423.02
202.777	3599.51
203.243	1997.92
203.709	1908.03
204.176	2289.45
204.642	1897.19
205.108	1723.57
205.574	1406.89
206.04	1278.76
206.506	1201.46
206.972	1130.8
207.438	1099.39
207.903	1235.86
208.369	1107.57
208.835	1111.1
209.301	1166.73
209.766	1182.7
210.232	1190.82
210.697	1464.77
211.163	1794.59
211.628	2704.44
212.094	2286.36
212.559	2840.4
213.024	1755.98
213.49	2113.54
213.955	2024.35
214.42	1940.47
214.885	1823.54
215.35	1749.57
215.815	1689.79
216.28	1787.3
216.745	1439.08
217.21	1538.53
217.675	1367.96
218.14	1522.01
218.604	1666.97
219.069	1877.23
219.534	1976.73
219.998	2247.43
220.463	2687.81
220.927	3238.98
221.392	3013.18
221.856	3048.12
222.32	3782.74
222.785	4643.53
223.249	5816.36
223.713	6467.15
224.177	6466.14
224.642	8235.06
225.106	10090.86
225.57	10958.84
226.034	8153.86
226.497	12413.95
226.961	11182.9
227.425	13048.87
227.889	14437.63
228.353	14405.9
228.816	29688.33
229.28	28369.6
229.744	23840.01
230.207	14541.31
230.671	14305.77
231.134	23619.75
231.597	27213.68
232.061	27164.06
232.524	26408.23
232.987	18237.2
233.45	16447.56
233.914	14718.62
234.377	15002.85
234.84	13738.89
235.303	16165.04
235.766	18040.05
236.229	18608.15
236.691	11706.96
237.154	13159.62
237.617	9931.34
238.08	10134.76
238.542	11847.06
239.005	8485.94
239.468	8459.56
239.93	7982.66
240.393	7260.33
240.855	6389.53
241.317	6548.38
241.78	7971.69
242.242	8258.72
242.704	8946.78
243.166	7815
243.629	7124.15
244.091	8235.11
244.553	9035.64
245.015	9725.71
245.477	12623.6
245.939	18508.62
246.4	19694.2
246.862	19145.71
247.324	18063.15
247.786	20174.69
248.247	26468.71
248.709	27248.97
249.17	20373.69
249.632	19272.08
250.093	22411.17
250.555	19321.56
251.016	11805.44
251.477	11207.86
251.939	12136.61
252.4	12739.66
252.861	15172.97
253.322	14148.29
253.783	16876.38
254.244	21944.7
254.705	17263.02
255.166	15350.93
255.627	15166.56
256.088	21446.94
256.549	22781.72
257.009	19600.21
257.47	23787.67
257.931	19351.37
258.391	14501.48
258.852	14966.57
259.312	15699.87
259.773	19450.32
260.233	16445.72
260.694	13893.01
261.154	15750.96
261.614	12702.05
262.074	11389.03
262.534	11870.93
262.994	11227.6
263.455	14996.59
263.915	12656.11
264.374	11930.93
264.834	13052.98
265.294	14511.98
265.754	15041.46
266.214	14271.12
266.673	13394.69
267.133	16905.92
267.593	16773.92
268.052	20566.87
268.512	17917.7
268.971	21677.87
269.431	23804.58
269.89	21332.94
270.349	32024.74
270.809	35757.53
271.268	32207.37
271.727	72244.59
272.186	46920.19
272.645	35249.3
273.104	25431.98
273.563	36850.25
274.022	28987.59
274.481	24756.48
274.94	19108.15
275.399	14206.86
275.857	16558.97
276.316	22399.8
276.775	19970.08
277.233	19710.76
277.692	18498.48
278.15	20975.48
278.609	21637.52
279.067	20046.93
279.525	18645.38
279.984	24082.92
280.442	29019.65
280.9	28723.09
281.358	18924.8
281.816	17657.43
282.274	17281.91
282.732	17849.99
283.19	17946.94
283.648	15479.79
284.106	16499
284.564	16773.51
285.021	15596.3
285.479	11606.59
285.937	10537.87
286.394	9261.73
286.852	9529.58
287.309	10030.51
287.767	9716.78
288.224	9264.76
288.682	10190.31
289.139	11202.04
289.596	10268.49
290.053	10662.77
290.511	13466.98
290.968	16366.2
291.425	22221.02
291.882	18551.88
292.339	16164.39
292.796	16057.19
293.252	15126.93
293.709	12049.56
294.166	10827.02
294.623	11988.45
295.079	11523.93
295.536	11627.43
295.992	10579.96
296.449	10479.23
296.905	10897.53
297.362	10476.57
297.818	11032.29
298.274	11465.8
298.731	11669.13
299.187	11543.6
299.643	12368.19
300.099	14992.28
300.555	16413.21
301.011	13714.29
301.467	13277.35
301.923	15525.34
302.379	15179.07
302.835	14919.92
303.291	14949.92
303.746	17060.47
304.202	21600.2
304.658	21724.56
305.113	14636.79
305.569	14397.94
306.024	15351.97
306.479	14582.66
306.935	12331.67
307.39	13450.95
307.845	12443.41
308.301	12547.04
308.756	12200.91
309.211	11740.87
309.666	12042.47
310.121	14927.32
310.576	15133.56
311.031	15038.3
311.486	17213.28
311.94	17214.59
312.395	23058.42
312.85	43242.87
313.305	212153.3
313.759	1101139.07
314.214	79912.1
314.668	63351.17
315.123	53420.18
315.577	19175.35
316.032	17059.29
316.486	21411.32
316.94	16887.12
317.394	11771.34
317.849	9167.22
318.303	8686.91
318.757	8208.42
319.211	9084.35
319.665	7956.11
320.119	8043.6
320.572	11529.85
321.026	10787.31
321.48	8981.43
321.934	9808.36
322.387	9856.87
322.841	10689.58
323.295	9643.99
323.748	11087.56
324.202	11267.52
324.655	13572.68
325.108	19023.3
325.562	13470.06
326.015	16032.54
326.468	12121.5
326.921	13568.48
327.374	12640.3
327.827	13135.57
328.28	14856.91
328.733	9978.79
329.186	8774.53
329.639	8357.98
330.092	7055.19
330.545	6729.46
330.997	6792.39
331.45	7444.58
331.903	8747.81
332.355	15045.09
332.808	14663.9
333.26	12113.77
333.713	13192.98
334.165	13314.13
334.617	17770.93
335.069	14288.76
335.522	25789.45
335.974	28547.99
336.426	26120.44
336.878	18040.16
337.33	9161.44
337.782	8927.43
338.234	11191.66
338.686	13335.12
339.137	15808.01
339.589	14912.97
340.041	11735.95
340.493	10082.83
340.944	10331.5
341.396	11134.36
341.847	9389.69
342.299	11108.24
342.75	13599.66
343.201	11861.2
343.653	13663.43
344.104	16806.16
344.555	13258.89
345.006	20639.55
345.457	15892.09
345.908	12632.65
346.359	11912.83
346.81	9723.65
347.261	10239.32
347.712	10047.46
348.163	10791.26
348.613	10967.96
349.064	10241.62
349.515	8961.88
349.965	9194.27
350.416	11071.92
350.866	12193.11
351.317	13770.14
351.767	22742.97
352.217	28785.62
352.668	24028.76
353.118	22071.89
353.568	21228.49
354.018	16805.57
354.468	17739.8
354.918	12761.03
355.368	11148.91
355.818	15686.58
356.268	45011.03
356.718	188848.95
357.168	46840.38
357.617	23443.03
358.067	26037.67
358.517	24394.35
358.966	28628.89
359.416	32197.49
359.865	34780.82
360.315	41322
360.764	19355.78
361.213	10874.49
361.663	10273.06
362.112	12695.34
362.561	20534.26
363.01	15466.72
363.459	13078.05
363.908	14152.88
364.357	12004.74
364.806	20272.29
365.255	13979.89
365.703	12822.91
366.152	12828.74
366.601	10448.03
367.05	8524.2
367.498	7736.39
367.947	8099.16
368.395	8397.54
368.844	7456.17
369.292	8964.45
369.74	6188.44
370.189	9490.55
370.637	11104.83
371.085	9598.39
371.533	11669.99
371.981	11203.45
372.429	10712.29
372.877	11156.6
373.325	9352.06
373.773	9480.21
374.221	8447.82
374.669	10491.69
375.116	9029.47
375.564	9116.07
376.012	10180.91
376.459	8393.44
376.907	10033.25
377.354	12105.8
377.801	11293.15
378.249	12992.64
378.696	16660.12
379.143	20202.99
379.591	21483.43
380.038	36365.57
380.485	26269.15
380.932	28328.31
381.379	25941.52
381.826	19094.65
382.273	13583.62
382.72	11852.55
383.166	11556.37
383.613	7485.73
384.06	6745.89
384.506	7827.11
384.953	5756.12
385.4	5797.18
385.846	5074.9
386.292	4937.11
386.739	4842.21
387.185	4774.98
387.631	4778.63
388.078	4638.99
388.524	4955.8
388.97	4579.59
389.416	3826.66
389.862	4074.41
390.308	3854.87
390.754	3932.36
391.2	4277
391.645	4369.6
392.091	4197.98
392.537	4074.89
392.983	4074.45
393.428	4031.76
393.874	4320.06
394.319	4342.14
394.765	4137.98
395.21	4261.43
395.655	3997.28
396.101	3744.57
396.546	3395.62
396.991	3429.79
397.436	3178.73
397.881	3086.65
398.326	2918.16
398.771	2775.81
399.216	2430.25
399.661	2189.19
400.106	2191.54
400.551	2254.76
400.995	2026.51
401.44	2008.22
401.885	1890.25
402.329	1918.84
402.774	1840.95
403.218	1796.69
403.663	1736.01
404.107	1792.73
404.551	1811.78
404.995	1661.57
405.44	1599.4
405.884	1630.36
406.328	1577.37
406.772	1579.56
407.216	1442.08
407.66	1395.24
408.104	1321.95
408.547	1239.73
408.991	1198.03
409.435	1150.79
409.879	1137.57
410.322	1124.17
410.766	1083.94
411.209	1036.88
411.653	995.45
412.096	976.74
412.54	978.6
412.983	974.63
413.426	978.54
413.869	977.21
414.312	965.03
414.756	931.08
415.199	890.65
415.642	869.71
416.085	870.71
416.527	866.47
416.97	882.05
417.413	837.29
417.856	827.74
418.298	818.55
418.741	815.08
419.184	812.27
419.626	846.59
420.069	850.34
420.511	855.07
420.953	837.4
421.396	830.72
421.838	810.37
422.28	829.84
422.722	836.23
423.164	847.15
423.606	834.97
424.048	831.34
424.49	791
424.932	784.06
425.374	771.21
425.816	783.14
426.258	797.69
426.699	808.36
427.141	798.81
427.582	811.97
428.024	811.71
428.465	803.6
428.907	784.07
429.348	771.52
429.789	771.9
430.231	759.39
430.672	768.32
431.113	748.64
431.554	732.72
431.995	711.75
432.436	684.3
432.877	666.67
433.318	656.79
433.759	653.31
434.2	653.06
434.64	644.24
435.081	642.22
435.522	608.61
435.962	585.64
436.403	575.04
436.843	582.66
437.284	566.96
437.724	549.09
438.164	548.6
438.604	536.23
439.045	518.68
439.485	498.83
439.925	489.33
440.365	477.47
440.805	469.85
441.245	463.46
441.685	447.44
442.125	445.09
442.564	447.16
443.004	437.04
443.444	436.32
443.883	435.96
444.323	430.63
444.762	428.4
445.202	434.13
445.641	443.31
446.081	438.42
446.52	440.69
446.959	437.67
447.398	428.34
447.837	423.31
448.276	413.29
448.716	416.51
449.154	418.55
449.593	410.55
450.032	408
450.471	396.57
450.91	397.63
451.349	397
451.787	392.92
452.226	398.01
452.664	397.07
453.103	399.56
453.541	397.4
453.98	398.54
454.418	399.88
454.856	394.43
455.295	396.28
455.733	398.93
456.171	400.15
456.609	401.77
457.047	402.27
457.485	408.95
457.923	409.79
458.361	404.46
458.798	404.81
459.236	404.28
459.674	405.93
460.111	407.53
460.549	403.47
460.987	401.84
461.424	400.02
461.862	397.48
462.299	391.91
462.736	392.11
463.173	393.11
463.611	391.25
464.048	390.33
464.485	395.1
464.922	392.15
465.359	389.83
465.796	388.98
466.233	387.2
466.67	385.88
467.106	385.45
467.543	381.44
467.98	377.54
468.416	368.05
468.853	363.8
469.29	351.63
469.726	347.36
470.162	338.16
470.599	331.68
471.035	327.7
471.471	318.19
471.907	315.48
472.344	313.37
472.78	314.58
473.216	317.07
473.652	314.7
474.088	314.2
474.523	312.78
474.959	316.76
475.395	313.2
475.831	311.91
476.266	313.91
476.702	312.4
477.138	308.96
477.573	306.5
478.008	305.8
478.444	307.17
478.879	310.81
479.314	313.46
479.75	312.67
480.185	313.65
480.62	316.31
481.055	318.04
481.49	321.07
481.925	325.95
482.36	333.55
482.795	342.06
483.229	351.42
483.664	358.87
484.099	360.03
484.534	366.33
484.968	370.44
485.403	371.57
485.837	371.41
486.271	370.79
486.706	370.69
487.14	366.21
487.574	361.83
488.009	358.74
488.443	355.61
488.877	359.89
489.311	361.11
489.745	366.11
490.179	370.59
490.613	378.68
491.046	382.58
491.48	386.46
491.914	388.36
492.348	391.33
492.781	394.88
493.215	396.78
493.648	397.65
494.082	401.77
494.515	403.19
494.948	409.09
495.382	412.33
495.815	416.74
496.248	421.52
496.681	430.08
497.114	438.7
497.547	446.07
497.98	455.98
498.413	461.8
498.846	469.04
499.279	475.61
499.711	479.83
500.144	482.48
500.577	491.32
501.009	500.02
501.442	508.64
501.874	511.34
502.306	516.02
502.739	524.13
503.171	535.86
503.603	540.15
504.036	548.47
504.468	555
504.9	565.69
505.332	571.83
505.764	578.06
506.196	584.67
506.627	597.17
507.059	607.78
507.491	615.02
507.923	617.25
508.354	630.67
508.786	641.45
509.217	655.99
509.649	669.02
510.08	684.76
510.512	698.74
510.943	712.88
511.374	724.12
511.805	740.97
512.237	757.05
512.668	782.01
513.099	803.98
513.53	825.43
513.961	842.99
514.391	867.94
514.822	894.22
515.253	921.41
515.684	940.65
516.114	962.55
516.545	979.85
516.975	1000.81
517.406	1015.13
517.836	1019.1
518.267	1026.06
518.697	1041.11
519.127	1046.03
519.558	1053.05
519.988	1058.68
520.418	1068.59
520.848	1083.13
521.278	1091.43
521.708	1115.71
522.138	1127.26
522.567	1151.36
522.997	1171.48
523.427	1183.48
523.857	1197.35
524.286	1206.59
524.716	1218.54
525.145	1233.99
525.575	1242.75
526.004	1254.72
526.433	1241.17
526.863	1242.53
527.292	1236.27
527.721	1240.9
528.15	1246.02
528.579	1246.72
529.008	1255.29
529.437	1272.1
529.866	1282.76
530.295	1296.89
530.724	1306.71
531.152	1327.33
531.581	1339
532.01	1352.89
532.438	1359.77
532.867	1371.93
533.295	1387.56
533.723	1392.64
534.152	1392.69
534.58	1392.91
535.008	1382.26
535.436	1384.37
535.865	1391.78
536.293	1403.48
536.721	1416.46
537.149	1436.99
537.576	1439.44
538.004	1450.23
538.432	1456.23
538.86	1455
539.287	1461.44
539.715	1472.43
540.143	1474.74
540.57	1472.94
540.998	1468.43
541.425	1451.43
541.852	1435.64
542.28	1434.76
542.707	1421.75
543.134	1412.29
543.561	1409.63
543.988	1404.36
544.415	1404.39
544.842	1400.83
545.269	1395.29
545.696	1397.63
546.123	1407.15
546.549	1399.24
546.976	1389.26
547.403	1390.04
547.829	1391.78
548.256	1393.45
548.682	1390.49
549.108	1385.07
549.535	1384.61
549.961	1385.19
550.387	1375.59
550.813	1371.82
551.24	1376.14
551.666	1378.3
552.092	1369.6
552.518	1363.89
552.943	1359.96
553.369	1365.35
553.795	1368.88
554.221	1369.14
554.646	1367.34
555.072	1376.02
555.498	1379.11
555.923	1386.31
556.349	1396.23
556.774	1403.26
557.199	1403.89
557.625	1407.17
558.05	1402.49
558.475	1409.62
558.9	1408.94
559.325	1402.2
559.75	1396.9
560.175	1391.99
560.6	1387.1
561.025	1384.16
561.449	1384.07
561.874	1388.85
562.299	1392.31
562.723	1397.83
563.148	1390.34
563.572	1393.47
563.997	1401.13
564.421	1403.74
564.846	1403.46
565.27	1406.01
565.694	1405.54
566.118	1414.82
566.542	1420.72
566.966	1415.38
567.39	1411.3
567.814	1403.34
568.238	1402.86
568.662	1405.97
569.086	1408.66
569.509	1415.22
569.933	1403.99
570.357	1398.62
570.78	1382.42
571.204	1372.48
571.627	1365.54
572.05	1363.54
572.474	1364.07
572.897	1354.96
573.32	1349.45
573.743	1342.14
574.166	1328.35
574.589	1327.6
575.012	1321.45
575.435	1320.26
575.858	1313.23
576.281	1303.54
576.704	1291.31
577.126	1281.54
577.549	1272.49
577.972	1264.76
578.394	1256.63
578.817	1251.15
579.239	1236.2
579.661	1226.46
580.084	1214.54
580.506	1203.51
580.928	1199.95
581.35	1192.12
581.772	1187.24
582.194	1177.05
582.616	1166.95
583.038	1154.93
583.46	1145.42
583.882	1144
584.303	1145.51
584.725	1142.27
585.147	1144.81
585.568	1152.88
585.99	1161.73
586.411	1167.08
586.833	1177.43
587.254	1179.33
587.675	1190.31
588.096	1199.45
588.518	1194.76
588.939	1182.54
589.36	1179.64
589.781	1169.9
590.202	1148.76
590.623	1140.98
591.043	1138.72
591.464	1129.17
591.885	1125.35
592.305	1120.48
592.726	1110.22
593.147	1111.04
593.567	1106.59
593.987	1101.35
594.408	1097.21
594.828	1095.61
595.248	1092.15
595.669	1079.2
596.089	1074.11
596.509	1069.6
596.929	1059.66
597.349	1059.96
597.769	1051.97
598.189	1047.09
598.608	1048.22
599.028	1050.05
599.448	1048.93
599.867	1038.41
600.287	1034.33
600.706	1031.31
601.126	1023.53
601.545	1022.11
601.965	1020.82
602.384	1016.65
602.803	1018.22
603.222	1013.7
603.641	1007.76
604.061	1005.26
604.48	1002.35
604.898	1007.36
605.317	1009.35
605.736	1009.95
606.155	1007.66
606.574	1000.79
606.992	1003.9
607.411	1000.23
607.829	993.38
608.248	990.74
608.666	988.51
609.085	987.97
609.503	981.53
609.921	976.45
610.339	977.21
610.758	975.87
611.176	971.14
611.594	964.43
612.012	961.17
612.43	963.72
612.847	968.08
613.265	967.82
613.683	970.28
614.101	970.45
614.518	967.38
614.936	960.2
615.353	950.58
615.771	948.62
616.188	947.98
616.606	944.84
617.023	938.86
617.44	928.52
617.857	922.71
618.274	915.7
618.691	911.62
619.108	905
619.525	900.11
619.942	903.63
620.359	904.72
620.776	901.02
621.192	898.88
621.609	897.46
622.026	901.44
622.442	906.55
622.859	909.65
623.275	903.62
623.691	907.53
624.108	915.99
624.524	925.83
624.94	926.15
625.356	933.4
625.772	941.37
626.188	948.86
626.604	949.69
627.02	946.07
627.436	943.84
627.852	949.71
628.268	957.81
628.683	951.64
629.099	945.41
629.514	941.51
629.93	943.98
630.345	948.21
630.761	946.15
631.176	948.86
631.591	945.38
632.007	941.89
632.422	939.85
632.837	931.08
633.252	928.66
633.667	921.23
634.082	915.11
634.497	904.8
634.911	889.82
635.326	886.78
635.741	873.9
636.155	864.95
636.57	864.64
636.984	863.95
637.399	865.45
637.813	863.82
638.228	861.42
638.642	862.78
639.056	854.94
639.47	853.58
639.884	846.24
640.298	840.28
640.712	838.18
641.126	827.51
641.54	818.11
641.954	810.32
642.368	800.63
642.781	794.5
643.195	779.45
643.609	777.63
644.022	771.68
644.436	766.63
644.849	756.37
645.262	745.78
645.676	744.71
646.089	739.88
646.502	729.81
646.915	722.99
647.328	709.3
647.741	706.42
648.154	696.26
648.567	693.53
648.98	682.59
649.393	680.98
649.805	678.44
650.218	671.53
650.631	660.7
651.043	654.69
651.456	650.12
651.868	649.46
652.28	659.63
652.693	665.83
653.105	668.46
653.517	675.02
653.929	674.64
654.341	676.4
654.753	667.78
655.165	670.7
655.577	667.82
655.989	664.42
656.401	657.83
656.813	633.55
657.224	620.92
657.636	599.96
658.047	586.72
658.459	572.26
658.87	564.6
659.282	554.64
659.693	539.84
660.104	529.05
660.515	518.06
660.926	514.24
661.338	509.99
661.749	502.62
662.159	496.71
662.57	491.73
662.981	488.05
663.392	482.24
663.803	483.74
664.213	480.01
664.624	476.57
665.035	477.03
665.445	468.03
665.855	464.06
666.266	459.07
666.676	456.21
667.086	449.74
667.497	448.2
667.907	442.72
668.317	436.26
668.727	435.83
669.137	434.31
669.547	431.32
669.956	431.84
670.366	431.99
670.776	432.24
671.186	433.41
671.595	435.12
672.005	436.74
672.414	436.14
672.824	436.26
673.233	437.32
673.642	438.95
674.052	442.12
674.461	444.18
674.87	446.55
675.279	446.46
675.688	447.82
676.097	449.38
676.506	447.53
676.915	456.95
677.323	458.53
677.732	458.46
678.141	458.92
678.549	453.68
678.958	453.41
679.366	453.08
679.775	455.73
680.183	464.71
680.592	469.19
681	474.24
681.408	472.96
681.816	479.12
682.224	485.1
682.632	494.7
683.04	514.91
683.448	532.06
683.856	554.8
684.264	581.5
684.671	602.91
685.079	631.8
685.487	664.03
685.894	707
686.302	744.47
686.709	776.05
687.116	813.41
687.524	845.85
687.931	876.86
688.338	904.21
688.745	926.16
689.152	955.33
689.559	990.15
689.966	1024.35
690.373	1045.31
690.78	1079
691.187	1130.65
691.593	1169.95
692	1204.03
692.407	1251.53
692.813	1310.99
693.22	1359.75
693.626	1407.74
694.032	1449.19
694.439	1509.04
694.845	1556.17
695.251	1615.14
695.657	1666.54
696.063	1741.98
696.469	1800.5
696.875	1854.92
697.281	1884.48
697.687	1922.69
698.093	1954.35
698.498	2011.4
698.904	2056.88
699.31	2125.41
699.715	2174.49
700.12	2244.6
700.526	2259.6
700.931	2313.36
701.337	2353.69
701.742	2381.3
702.147	2445.41
702.552	2470.36
702.957	2516.41
703.362	2531.39
703.767	2551.76
704.172	2580.89
704.577	2545.02
704.981	2581.29
705.386	2592.92
705.791	2587.95
706.195	2643.29
706.6	2650.34
707.004	2709.59
707.408	2685.52
707.813	2705.35
708.217	2696.02
708.621	2697.62
709.025	2772.46
709.43	2772.69
709.834	2818.32
710.237	2868.94
710.641	2856.4
711.045	2872.24
711.449	2867.08
711.853	2888.61
712.256	2919.15
712.66	2946.18
713.064	3003.36
713.467	3030.88
713.87	3113.53
714.274	3146.48
714.677	3228.77
715.08	3351.21
715.484	3478.6
715.887	3630.95
716.29	3780.65
716.693	3938.33
717.096	4119.1
717.499	4217.03
717.901	4234.75
718.304	4256.69
718.707	4274.17
719.109	4196.01
719.512	4168.37
719.915	4063.21
720.317	4019.32
720.719	4051.4
721.122	4027.19
721.524	3987.89
721.926	3953.73
722.328	4031.32
722.731	4021.57
723.133	4042.57
723.535	4185.47
723.937	4199.88
724.338	4239.28
724.74	4269.96
725.142	4233.71
725.544	4231.71
725.945	4255.46
726.347	4250.11
726.748	4244.31
727.15	4254.24
727.551	4224.88
727.952	4204.74
728.354	4183.22
728.755	4182.23
729.156	4148.18
729.557	4126.04
729.958	4033.25
730.359	3987.56
730.76	3975.51
731.161	3928
731.562	3908.36
731.962	3910.62
732.363	3861.77
732.763	3814.41
733.164	3838.61
733.564	3787.82
733.965	3714.62
734.365	3690.56
734.766	3713.69
735.166	3682.61
735.566	3643.87
735.966	3625.04
736.366	3619.63
736.766	3572.52
737.166	3594.22
737.566	3563.68
737.966	3543.91
738.365	3574.33
738.765	3569.76
739.165	3512.48
739.564	3494.07
739.964	3526.21
740.363	3490.43
740.763	3488.28
741.162	3479.88
741.561	3454.67
741.96	3423.23
742.36	3437.76
742.759	3441.68
743.158	3467.05
743.557	3477.72
743.955	3506.36
744.354	3470.01
744.753	3512
745.152	3483.41
745.55	3524.18
745.949	3521.7
746.348	3520.46
746.746	3533.27
747.144	3502.9
747.543	3485.79
747.941	3520.96
748.339	3467.09
748.737	3463.44
749.136	3457.56
749.534	3504.59
749.932	3485.12
750.33	3503.28
750.727	3544.86
751.125	3526.5
751.523	3512.73
751.921	3548.05
752.318	3523.4
752.716	3569.55
753.113	3579.12
753.511	3597.47
753.908	3597.04
754.305	3584.22
754.703	3627.52
755.1	3670.91
755.497	3715.66
755.894	3858.56
756.291	3989.77
756.688	4230.86
757.085	4553.19
757.482	5005.98
757.878	5500.42
758.275	5948.14
758.672	6560.17
759.068	7064.12
759.465	7778.35
759.861	8700.96
760.258	9770.49
760.654	10327.42
761.05	10248.84
761.447	9780.21
761.843	9112
762.239	8419.2
762.635	8102.46
763.031	7802.22
763.427	7366.06
763.822	6909.39
764.218	6457.93
764.614	5871.09
765.01	5474.5
765.405	5218.08
765.801	5026.93
766.196	4778.72
766.592	4641.59
766.987	4409.03
767.382	4254.03
767.778	4188.64
768.173	4094.96
768.568	4043.6
768.963	3951.27
769.358	3965.93
769.753	3933.17
770.148	3871.26
770.542	3871.72
770.937	3848.45
771.332	3918.41
771.726	3931.68
772.121	3887.08
772.515	3926.92
772.91	3913.49
773.304	3965.51
773.699	3916.44
774.093	3951.97
774.487	3991.78
774.881	4021.73
775.275	4018.96
775.669	3987.13
776.063	4019.32
776.457	4045.93
776.851	3992.66
777.245	3988.19
777.638	4014.11
778.032	4099.1
778.425	4075.82
778.819	4108.68
779.212	4081.89
779.606	4051.62
779.999	4066.05
780.392	4055.07
780.786	4115.01
781.179	4127.01
781.572	4159.75
781.965	4168.07
782.358	4125.97
782.751	4168.3
783.143	4130.66
783.536	4180.74
783.929	4213.21
784.322	4296.15
784.714	4316.31
785.107	4312.09
785.499	4367.3
785.891	4350.98
786.284	4336.45
786.676	4440.09
787.068	4424.07
787.46	4463.16
787.852	4479.69
788.245	4541.08
788.636	4563.27
789.028	4614.05
789.42	4642.9
789.812	4649.36
790.204	4719.11
790.595	4791.25
790.987	4644.3
791.378	4662.85
791.77	4758.39
792.161	4855.43
792.553	4897.26
792.944	4817.67
793.335	4768.36
793.726	4822.62
794.117	4890.1
794.508	4990.91
794.899	4968.2
795.29	5072.09
795.681	5111.21
796.072	5003.94
796.463	4872.08
796.853	4877.01
797.244	4991.88
797.634	5015.21
798.025	5014.44
798.415	5018.44
798.806	5082.06
799.196	5149.07
799.586	5185.74
799.976	5158.8
800.366	5326.29
800.756	5497.04
801.146	5468.44
801.536	5483.31
801.926	5538.51
802.316	5555.35
802.706	5607.8
803.095	5518.39
803.485	5589.72
803.874	5621.89
804.264	5810.25
804.653	5793.38
805.043	5898.83
805.432	5978.35
805.821	5983.73
806.21	5995.96
806.599	6081.21
806.988	6115.26
807.377	6190.47
807.766	6280.01
808.155	6486.82
808.544	6295.4
808.933	6307.79
809.321	6297.56
809.71	6510.52
810.098	6626.06
810.487	6961.5
810.875	7310.8
811.264	7326.31
811.652	7542.25
812.04	7654.72
812.428	7769.93
812.816	8324.32
813.204	8625.27
813.592	9018.17
813.98	9265.96
814.368	9192.96
814.756	9549.85
815.144	9495.75
815.531	9831.83
815.919	9770.22
816.306	9983.86
816.694	9756.96
817.081	9794.16
817.469	10043.35
817.856	10036.39
818.243	10229.85
818.63	10513.61
819.017	10201.94
819.404	10238.21
819.791	10518.25
820.178	10964.25
820.565	11145.75
820.952	11817.95
821.339	11461.04
821.725	11591.45
822.112	11056.88
822.498	11029.16
822.885	11127.92
823.271	11056.53
823.657	11363.3
824.044	11365.74
824.43	11416.34
824.816	11401.23
825.202	11095.03
825.588	11832.7
825.974	11847.95
826.36	12220.8
826.746	12239.67
827.132	12494.32
827.517	12477.34
827.903	11912.18
828.289	11938.56
828.674	11373.92
829.06	11286.48
829.445	11567.52
829.83	11824.22
830.216	12165.33
830.601	12436.77
830.986	12144.86
831.371	12054.13
831.756	12459.02
832.141	12149.66
832.526	12153.49
832.911	12367.27
833.295	12291.2
833.68	12632.83
834.065	12182.89
834.449	11523.07
834.834	11474.43
835.218	11474.2
835.603	11722.56
835.987	11568.84
836.371	12171.58
836.755	12096.61
837.139	12381.83
837.524	12554.47
837.908	12425.38
838.291	12475.39
838.675	12526.72
839.059	12677.4
839.443	12666.68
839.827	12494.85
840.21	12846.46
840.594	12746.03
840.977	12893.08
841.361	12876.94
841.744	13159.85
842.127	13049.56
842.511	13225.7
842.894	13658.5
843.277	13936.66
843.66	14332.64
844.043	14393.12
844.426	13808.19
844.809	13571.55
845.191	13600.2
845.574	13269.1
845.957	12999.59
846.339	12925.57
846.722	12542.06
847.104	12593.64
847.487	12465.63
847.869	12482.88
848.252	12689.09
848.634	12925.52
849.016	13117.1
849.398	13206.54
849.78	13826.37
850.162	13831.97
850.544	14132.14
850.926	14600.77
851.307	14543.48
851.689	14746.85
852.071	15075.02
852.452	15302.86
852.834	15301.02
853.215	15596.85
853.597	15704.36
853.978	15917.06
854.359	16241.04
854.741	15514.6
855.122	15438.49
855.503	15220.88
855.884	15318.49
856.265	15271.39
856.646	15358.02
857.026	15063.17
857.407	15013.93
857.788	15128.53
858.169	15332.32
858.549	14723.15
858.93	15178
859.31	15210.8
859.69	15359.11
860.071	15064.84
860.451	14896.95
860.831	14362.23
861.211	15206.11
861.591	15603.86
861.971	15582.94
862.351	15728.87
862.731	16007.56
863.111	16190.41
863.491	16430.3
863.87	17071.07
864.25	17321.19
864.629	17034.89
865.009	17407.82
865.388	18026.19
865.768	19314.22
866.147	19235.31
866.526	18175.09
866.905	18383.17
867.284	19427.19
867.663	18439.55
868.042	17674.61
868.421	17614.57
868.8	17910.11
869.179	18086.12
869.558	17033.37
869.936	15709.53
870.315	15995.41
870.693	16379.63
871.072	17668.53
871.45	16819.35
871.828	17038.28
872.207	17906.54
872.585	17633.77
872.963	18107.25
873.341	17479.9
873.719	17268.4
874.097	17052.02
874.475	17375.36
874.853	17771.75
875.23	17037.01
875.608	17758.14
875.986	19208.41
876.363	18364.43
876.741	18937.78
877.118	18466.93
877.495	19366.44
877.873	19684.21
878.25	20715.71
878.627	19854.17
879.004	20130.44
879.381	20031.91
879.758	19513.15
880.135	18175.06
880.512	19228.18
880.889	18709.05
881.265	18518.5
881.642	18365.29
882.019	18685.81
882.395	18303.31
882.772	19051.6
883.148	18238.57
883.524	18176.7
883.901	18066
884.277	18326.61
884.653	18206.98
885.029	18732.28
885.405	20747.83
885.781	20599.84
886.157	19757.19
886.532	20006.3
886.908	19985.41
887.284	22216.87
887.659	22936.45
888.035	23655.19
888.411	24274.37
888.786	24606.94
889.161	25476.3
889.537	25016.72
889.912	25831.56
890.287	25803.54
890.662	26471.81
891.037	25998.24
891.412	24245.59
891.787	24003.7
892.162	23175.4
892.536	23714.39
892.911	22818.77
893.286	22322.53
893.66	21412.33
894.035	21948.32
894.409	23899.15
894.784	22931.48
895.158	23324.01
895.532	24705.06
895.906	25369.78
896.281	25947.12
896.655	25535.55
897.029	29172.78
897.402	30380.86
897.776	33818.77
898.15	33700.12
898.524	33329.98
898.898	33772.14
899.271	37783.65
899.645	32728.8
900.018	31424.8
900.392	32589.91
900.765	32838.22
901.138	30401.54
901.511	29945.92
901.884	27491.56
902.258	25358.32
902.631	26200.28
903.003	30166.14
903.376	27218.61
903.749	30512.22
904.122	32682.15
904.495	35978.11
904.867	36450.12
905.24	31667.49
905.612	29495.69
905.985	30166.46
906.357	31533.31
906.729	30114.24
907.102	25714.35
907.474	24723.7
907.846	24893.78
908.218	24560.69
908.59	21712.65
908.962	20996.23
909.334	22591.46
909.705	23726.23
910.077	23034.57
910.449	23980.39
910.82	24638.72
911.192	27096.89
911.563	28155.14
911.935	30110.28
912.306	30164.99
912.677	31151.86
913.048	30844.24
913.419	33466.79
913.79	33629.18
914.161	36050.74
914.532	34457.71
914.903	31654.46
915.274	30074.13
915.645	29655.41
916.015	26091.38
916.386	24862.57
916.756	26442.32
917.127	27266.52
917.497	24353.22
917.868	26541.43
918.238	25222.54
918.608	25944.09
918.978	26483.11
919.348	28063.14
919.718	28992.44
920.088	27942.59
920.458	29030.86
920.828	30563.73
921.198	28997.56
921.567	30980.62
921.937	23974.89
922.306	24224.37
922.676	26131.05
923.045	21816.34
923.415	20724.19
923.784	18878.48
924.153	19412.96
924.522	19401.04
924.891	18244.95
925.26	19535.38
925.629	19086.26
925.998	21943.6
926.367	21422.41
926.736	20388.42
927.104	24294.61
927.473	26097.92
927.842	31493.36
928.21	31174.41
928.578	32772.49
928.947	30981.37
929.315	31159.99
929.683	36543.94
930.051	36829.49
930.42	42723.95
930.788	36550.39
931.156	36226.92
931.523	33958.41
931.891	31391.75
932.259	30174.93
932.627	34968.92
932.994	49464.56
933.362	40899.69
933.729	35523.74
934.097	34007.18
934.464	28773.22
934.831	33174.52
935.199	32742.25
935.566	31782.26
935.933	32276.43
936.3	39109.04
936.667	30462.02
937.034	27508.22
937.401	27208.03
937.767	23485.51
938.134	20924.2
938.501	29564.18
938.867	31550.25
939.234	53339.44
939.6	45464.78
939.967	49958.22
940.333	33440.18
940.699	28475.07
941.065	22867.65
941.431	30025.62
941.798	28928.93
942.163	37968.31
942.529	23683.72
942.895	21820.44
943.261	14104.11
943.627	18522
943.992	16210.59
944.358	16214.49
944.723	16265.21
945.089	15848.29
945.454	14629.57
945.82	15627.76
946.185	15011
946.55	17422.45
946.915	15611.06
947.28	18329.53
947.645	16117.52
948.01	14882.12
948.375	15535.01
948.74	18618.86
949.104	21677.56
949.469	31262.45
949.834	55269.54
950.198	52494.65
950.562	31456.15
950.927	26202.71
951.291	31514.98
951.655	26886.71
952.02	25228.95
952.384	19094.62
952.748	16618.95
953.112	16226.01
953.476	14119.73
953.839	13036.34
954.203	12875.54
954.567	16114.98
954.931	25386.03
955.294	21698.38
955.658	21811.9
956.021	37119.22
956.385	62793.91
956.748	92661.96
957.111	143652.02
957.474	161152.21
957.837	181666.78
958.2	137615.81
958.563	49391.25
958.926	33439.5
959.289	50754.31
959.652	56747.33
960.015	42628.03
960.377	61272.7
960.74	69915.39
961.102	120595.06
961.465	129647.89
961.827	69483.11
962.189	133268.77
962.552	92462.76
962.914	74000.92
963.276	48027.98
963.638	39645.49
964	39236.34
964.362	26511.08
964.724	25617.45
965.085	18288.18
965.447	14990.74
965.809	17059.19
966.17	17080.9
966.532	18485.21
966.893	16955.36
967.255	15443.14
967.616	18244.71
967.977	14598.09
968.338	15942.44
968.699	13114.39
969.061	13112
969.421	13206.34
969.782	14830.62
970.143	12526.93
970.504	12980.88
970.865	14785.49
971.225	15109.9
971.586	14790.38
971.946	21093.2
972.307	18285.93
972.667	23878.27
973.027	24621.39
973.388	29873.63
973.748	20334.14
974.108	22175.95
974.468	30002.87
974.828	23128.02
975.188	17820.51
975.548	16344.21
975.907	13730.24
976.267	15406.55
976.627	12949.05
976.986	13401.06
977.346	12741.37
977.705	12239.55
978.064	11126.62
978.424	9255.38
978.783	9563.17
979.142	10908.4
979.501	10453.55
979.86	11049.43
980.219	10655.88
980.578	13746.5
980.937	15403.31
981.296	13745.36
981.654	14151.18
982.013	22011.96
982.371	28555.61
982.73	26656.99
983.088	30128.4
983.447	32168.97
983.805	46027.13
984.163	96309.52
984.521	106732.67
984.879	156053.56
985.237	-254118.52
985.595	245267.46
985.953	61071.61
986.311	35256.99
986.669	20469.23
987.026	17689.83
987.384	23769.75
987.741	24520.44
988.099	17520.21
988.456	13985.31
988.814	13124.2
989.171	11410.56
989.528	11243.81
989.885	11861.22
990.242	9415.1
990.599	11728.93
990.956	9600.73
991.313	6713.57
991.67	5514.5
992.027	5848.21
992.383	5200.67
992.74	4562.15
993.096	4787.58
993.453	4961.89
993.809	5144.32
994.165	6841.75
994.522	6290.18
994.878	6928.13
995.234	8702.45
995.59	8591.47
995.946	8127.25
996.302	9262.64
996.658	10733.11
997.013	11805.71
997.369	14005.6
997.725	17948.67
998.08	11613.18
998.436	17858.02
998.791	24632.09
999.147	24551.08
999.502	26701.73
999.857	19407.68
1000.212	31611.69
1000.567	44907.85
1000.922	25925.17
1001.277	16445.01
1001.632	12169.4
1001.987	15702.45
1002.342	11245.45
1002.696	8987.2
1003.051	7189.36
1003.406	8733.18
1003.76	8678.9
1004.114	8549.6
1004.469	7179.61
1004.823	5937.66
1005.177	6407.89
1005.531	5099.33
1005.885	4521.94
1006.239	5097.67
1006.593	6390.07
1006.947	8550.54
1007.301	6413.36
1007.655	6984.29
1008.008	5150.61
1008.362	5797.5
1008.715	8289.68
1009.069	7554.32
1009.422	11310.15
1009.776	22717.39
1010.129	15095.52
1010.482	12665.24
1010.835	10701.31
1011.188	22285.23
1011.541	21041.62
1011.894	-128648.76
1012.247	379920.7
1012.6	25742.16
1012.952	16216.63
1013.305	8397.49
1013.657	6041.91
1014.01	5743.36
1014.362	4721.86
1014.715	4218.2
1015.067	3666.24
1015.419	3587.32
1015.771	3168.66
1016.123	2817.45
1016.475	2910.01
1016.827	3096.72
1017.179	3324.55
1017.531	3345.07
1017.883	3395.24
1018.234	3289.25
1018.586	4133.08
1018.938	4408.29
1019.289	6053.11
1019.64	6941.31
1019.992	6463.56
1020.343	5942.58
1020.694	4720.64
1021.045	4169.73
1021.396	4771.54
1021.747	5159.03
1022.098	6162.63
1022.449	4454.13
1022.8	4108.96
1023.151	2886.05
1023.501	2563.39
1023.852	2784.58
1024.202	2887.52
1024.553	3170.58
1024.903	3115.55
1025.253	2672.4
1025.604	2402.28
1025.954	2988.99
1026.304	3646.12
1026.654	4254.59
1027.004	6179.64
1027.354	9946.54
1027.703	9361.23
1028.053	12252.87
1028.403	17881.64
1028.753	25672.25
1029.102	34794.74
1029.452	177787.97
1029.801	7681.88
1030.15	4967.7
1030.499	4199.19
897.758	2223.9
901.051	2155.37
904.343	2188.09
907.636	2196.42
910.928	2258.67
914.22	2176.83
917.511	2180.43
920.803	2230.94
924.094	2229.23
927.384	2233.35
930.675	2196.4
933.965	2157.81
937.255	2187.9
940.544	2156.11
943.834	2154.79
947.123	2094.96
950.411	2184.39
953.7	2165.09
956.988	2147.84
960.276	2082.81
963.563	2130.72
966.851	2143.43
970.138	2184.42
973.424	2185.87
976.711	2140.93
979.997	2188.23
983.283	2231.78
986.568	2161.73
989.853	2153.04
993.138	2180.5
996.423	2265.93
999.708	2225.73
1002.992	2254.25
1006.275	2169.11
1009.559	2176.88
1012.842	2271.3
1016.125	2225.04
1019.408	2204.78
1022.69	2263.34
1025.972	2296.8
1029.254	2269.63
1032.536	2230.69
1035.817	2239.16
1039.098	2208.94
1042.379	2259.42
1045.659	2285.09
1048.939	2234.73
1052.219	2241.94
1055.498	2235.74
1058.778	2230.99
1062.057	2205.25
1065.335	2229.89
1068.614	2242.27
1071.892	2237.85
1075.17	2290.61
1078.447	2292.86
1081.724	2287.7
1085.001	2314.48
1088.278	2292.59
1091.554	2296.8
1094.83	2289.94
1098.106	2328.59
1101.382	2359.34
1104.657	2357.09
1107.932	2357.85
1111.206	2336.28
1114.481	2287.74
1117.755	2286.26
1121.029	2278.52
1124.302	2337.25
1127.575	2303.19
1130.848	2300.81
1134.121	2268.69
1137.393	2229.6
1140.665	2289.97
1143.937	2266.48
1147.208	2214.46
1150.48	2273.76
1153.75	2262.01
1157.021	2265.52
1160.291	2241.3
1163.561	2295.24
1166.831	2262.53
1170.101	2288.98
1173.37	2251.56
1176.639	2206.87
1179.907	2251.98
1183.176	2275.32
1186.444	2274.14
1189.711	2300.78
1192.979	2324.26
1196.246	2280.58
1199.513	2292.06
1202.78	2298.99
1206.046	2308.03
1209.312	2333.45
1212.578	2352.11
1215.843	2318.71
1219.108	2286.55
1222.373	2311.97
1225.638	2283.6
1228.902	2275.91
1232.166	2231.92
1235.43	2221.24
1238.693	2245.47
1241.956	2237.66
1245.219	2285
1248.482	2268.14
1251.744	2267.03
1255.006	2389.05
1258.268	2337.74
1261.529	2293.72
1264.79	2292.72
1268.051	2392.69
1271.312	2399.91
1274.572	2371.02
1277.832	2358.55
1281.092	2339.48
1284.351	2328.54
1287.61	2313.27
1290.869	2246.84
1294.128	2243.03
1297.386	2291.71
1300.644	2285.62
1303.902	2295.53
1307.159	2166.02
1310.416	2215.77
1313.673	2243.74
1316.93	2243.99
1320.186	2275.82
1323.442	2308.79
1326.697	2310.27
1329.953	2283.23
1333.208	2319.49
1336.463	2291.7
1339.717	2251.42
1342.972	2356.13
1346.226	2331.84
1349.479	2280.56
1352.733	2259.85
1355.986	2265.14
1359.238	2246.17
1362.491	2253.88
1365.743	2255.4
1368.995	2246.52
1372.247	2262.4
1375.498	2282.72
1378.749	2326.56
1382	2275.13
1385.251	2311.61
1388.501	2264.3
1391.751	2266.72
1395	2233.53
1398.25	2257.16
1401.499	2278.31
1404.748	2229.28
1407.996	2203.61
1411.244	2192.81
1414.492	2178.96
1417.74	2162.76
1420.987	2170.27
1424.234	2229.06
1427.481	2190.41
1430.728	2248.83
1433.974	2223.93
1437.22	2224.41
1440.465	2220.36
1443.711	2220.83
1446.956	2245.28
1450.201	2215.46
1453.445	2257.57
1456.689	2243.43
1459.933	2255.17
1463.177	2295.73
1466.42	2266.97
1469.663	2250.6
1472.906	2265.42
1476.148	2314.5
1479.391	2286.16
1482.633	2258.49
1485.874	2285.09
1489.115	2290.28
1492.356	2273
1495.597	2250.79
1498.838	2244.59
1502.078	2227.42
1505.318	2197.74
1508.557	2230.79
1511.797	2226.3
1515.036	2270.95
1518.274	2242.44
1521.513	2195.9
1524.751	2206.81
1527.989	2231.45
1531.227	2249.42
1534.464	2260.32
1537.701	2255.03
1540.938	2268.02
1544.174	2215.46
1547.41	2206.01
1550.646	2241.67
1553.882	2292.91
1557.117	2347.71
1560.352	2357.08
1563.587	2319.34
1566.821	2285.82
1570.055	2299.41
1573.289	2282.95
1576.523	2338.99
1579.756	2352.49
1582.989	2373.47
1586.222	2335.26
1589.454	2361.61
1592.686	2344.58
1595.918	2371
1599.15	2367.78
1602.381	2413.59
1605.612	2396.42
1608.843	2485.98
1612.073	2412.74
1615.303	2401.72
1618.533	2398.1
1621.762	2397.82
1624.992	2374.37
1628.221	2375.61
1631.449	2365.83
1634.678	2392.46
1637.906	2361.85
1641.134	2388.95
1644.361	2353.97
1647.588	2341.77
1650.815	2363.74
1654.042	2328.38
1657.269	2356.27
1660.495	2336
1663.72	2323.06
1666.946	2288.93
1670.171	2262.54
1673.396	2236.76
1676.621	2219.06
1679.845	2216.8
1683.069	2224.91
1686.293	2254.07
1689.517	2244.06
1692.74	2194.11
1695.963	2216.33
1699.185	2256.04
1702.408	2229.93
1705.63	2258.62
1708.852	2275.71
1712.073	2246.72
1715.294	2257.47
1718.515	2300.03
1721.736	2258.19
1724.956	2239.26
1728.176	2261.64
1731.396	2282.89
1734.616	2268
1737.835	2305.51
1741.054	2276.85
1744.272	2269.4
1747.491	2310.39
1750.709	2334.34
1753.927	2282.24
1757.144	2307.75
1760.361	2363.34
1763.578	2342.74
1766.795	2291.48
1770.011	2281.75
1773.227	2307.77
1776.443	2350.52
1779.658	2391.54
1782.874	2331.4
1786.089	2325.44
1789.303	2327.56
1792.518	2328.96
1795.732	2313.71
1798.945	2327.32
1802.159	2368.46
1805.372	2311.57
1808.585	2305.82
1811.797	2305.84
1815.01	2329.16
1818.222	2352.03
1821.434	2309.41
1824.645	2352.56
1827.856	2359.79
1831.067	2394.3
1834.278	2331.03
1837.488	2316.18
1840.698	2439.38
1843.908	2380.39
1847.117	2350.27
1850.326	2275.06
1853.535	2334.34
1856.744	2370.49
1859.952	2293.22
1863.16	2296.24
1866.368	2309.44
1869.575	2422.6
1872.782	2306.5
1875.989	2240.77
1879.196	2291.72
1882.402	2282.45
1885.608	2318.66
1888.814	2262.35
1892.019	2169.61
1895.224	2222.59
1898.429	2187.46
1901.634	2174.48
1904.838	2148.3
1908.042	2206.78
1911.246	2218.94
1914.449	2181.37
1917.652	2161
1920.855	2140.25
1924.058	2166.29
1927.26	2213.21
1930.462	2234.64
1933.664	2274.91
1936.865	2215.15
1940.066	2233.57
1943.267	2178.18
1946.467	2187.21
1949.668	2206.38
1952.868	2280.9
1956.067	2270.84
1959.267	2210.11
1962.466	2232.12
1965.665	2214.81
1968.863	2208.9
1972.061	2210.83
1975.259	2204.32
1978.457	2278.73
1981.654	2240.41
1984.852	2244.23
1988.048	2195.47
1991.245	2184.03
1994.441	2271.61
1997.637	2231.81
2000.833	2211.04
2004.028	2249.07
2007.223	2314.12
2010.418	2301.12
2013.613	2251.2
2016.807	2244.2
2020.001	2237.35
2023.194	2260.57
2026.388	2246.67
2029.581	2189.29
2032.774	2252.82
2035.966	2268.13
2039.158	2209.12
2042.35	2226.89
2045.542	2153.38
2048.733	2234.5
2051.924	2228.51
2055.115	2244.32
2058.306	2208.34
2061.496	2262.48
2064.686	2314.41
2067.875	2220.27
2071.065	2223.25
2074.254	2243.14
2077.442	2195.31
2080.631	2278.53
2083.819	2210.39
2087.007	2203.2
2090.195	2187.94
2093.382	2204.51
2096.569	2186.68
2099.756	2147.03
2102.942	2194.53
2106.128	2206.24
2109.314	2195.95
2112.5	2182.27
2115.685	2150.92
2118.87	2158.63
2122.055	2218.31
2125.239	2197.94
2128.424	2183.55
2131.608	2244.03
2134.791	2231.29
2137.974	2268.3
2141.157	2258.75
2144.34	2227.79
2147.523	2219.35
2150.705	2244.18
2153.887	2212.09
2157.068	2184.17
2160.25	2167.1
2163.431	2190.76
2166.611	2160.6
2169.792	2179.45
2172.972	2092.37
2176.152	2143.74
2179.331	2170.92
2182.511	2174.46
2185.69	2196.63
2188.868	2201.83
2192.047	2238.03
2195.225	2253.06
2198.403	2203.56
2201.58	2191.21
2204.758	2179.56
2207.935	2254.04
2211.111	2167.79
2214.288	2157.42
2217.464	2190.52
2220.64	2147.2
2223.815	2196.25
2226.991	2128.94
2230.166	2145.95
2233.34	2187.39
2236.515	2200.58
2239.689	2262.91
2242.863	2214.69
2246.036	2269.46
2249.209	2253.01
2252.382	2272.92
2255.555	2280.15
2258.727	2230.68
2261.9	2258.41
2265.071	2249.08
2268.243	2248.13
2271.414	2194.86
2274.585	2178.21
2277.756	2237.33
2280.926	2195.49
2284.096	2222.97
2287.266	2152.53
2290.436	2199.5
2293.605	2219.9
2296.774	2258.8
2299.942	2261.53
2303.111	2277.87
2306.279	2331.2
2309.447	2317.12
2312.614	2287.53
2315.781	2309.68
2318.948	2288.4
2322.115	2324.88
2325.281	2225.85
2328.447	2233.73
2331.613	2203.28
2334.779	2196.38
2337.944	2191.55
2341.109	2192.26
2344.274	2180.87
2347.438	2149.43
2350.602	2171.14
2353.766	2181.88
2356.929	2170.99
2360.092	2205.9
2363.255	2177.88
2366.418	2141.63
2369.58	2210.93
2372.742	2079.76
2375.904	2075.26
2379.066	2060.7
2382.227	2086.32
2385.388	2047.02
2388.548	1997.63
2391.709	2039.1
2394.869	2030.29
2398.029	2083.53
2401.188	2081.04
2404.347	2043.93
2407.506	2127.26
2410.665	2164.89
2413.823	2150.34
2416.981	2128.71
2420.139	2146.71
2423.296	2186.21
2426.453	2159.03
2429.61	2179.81
2432.767	2150.61
2435.923	2191.48
2439.079	2137.45
2442.235	2171.83
2445.391	2114.51
2448.546	2157.68
2451.701	2192.9
2454.855	2187.89
2458.009	2215.14
2461.163	2206.54
2464.317	2179.27
2467.471	2204.94
2470.624	2232.85
2473.777	2221.64
2476.929	2238.29
2480.082	2260.02
2483.234	2232.5
2486.385	2172.77
2489.537	2167.14
2492.688	2157.69
2495.839	2173.71
2498.989	2187.47
2502.14	2174.9
2505.29	2168.28
2508.439	2189.91
2511.589	2130.29
2514.738	2131.07
2517.887	2155
2521.035	2229.16
2524.183	2189.72
2527.331	2176.28
2530.479	2168.68
2533.627	2171
