Data from C_2_DIV_PA_2N_Splice17_12-40-47-428.txt Node
Date: Sat Mar 14 12:40:47 EDT 2020
User: sa697716
Spectrometer: FLMS03696
Trigger mode: 0
Integration Time (sec): 3.180400E-1
Scans to average: 20
Electric dark correction enabled: true
Nonlinearity correction enabled: true
Boxcar width: 5
XAxis mode: Wavelengths
Number of Pixels in Spectrum: 2048
>>>>>Begin Spectral Data<<<<<
187.83	-429792.89
188.298	3087.31
188.766	1685.75
189.233	1557.73
189.701	2221.4
190.169	2950.17
190.636	1155.81
191.104	875.44
191.571	167.92
192.039	-64.68
192.506	-36.43
192.974	674.63
193.441	-980.45
193.908	-107.22
194.375	-12.35
194.842	60.6
195.31	81.31
195.777	168.21
196.244	345.3
196.711	362.62
197.177	458.55
197.644	653.16
198.111	1106.84
198.578	1543.11
199.045	1209.79
199.511	1944.94
199.978	2266.53
200.445	1956.85
200.911	2152.01
201.378	2363.69
201.844	2160.82
202.31	3658.29
202.777	3757.16
203.243	2087.5
203.709	1943.82
204.176	2322.54
204.642	1946.93
205.108	1820.2
205.574	1475.65
206.04	1327.58
206.506	1254.63
206.972	1192.9
207.438	1162.9
207.903	1333.3
208.369	1194.1
208.835	1220.06
209.301	1286.67
209.766	1307.76
210.232	1312.1
210.697	1623.03
211.163	1993.91
211.628	3035.13
212.094	2553.95
212.559	3198.76
213.024	2006.81
213.49	2442.18
213.955	2378.82
214.42	2311.78
214.885	2164.7
215.35	2066.81
215.815	2045.37
216.28	2205.57
216.745	1788.55
217.21	1957.1
217.675	1783
218.14	2038.23
218.604	2306.86
219.069	2680.02
219.534	2884.95
219.998	3408.01
220.463	4198.68
220.927	5181.45
221.392	4940.87
221.856	5076.48
222.32	6435.27
222.785	8027.26
223.249	10162.72
223.713	11416.96
224.177	11482.37
224.642	14777.42
225.106	18268.66
225.57	20035.08
226.034	15035.26
226.497	22978.05
226.961	20803.33
227.425	24335.68
227.889	27074.07
228.353	27168.41
228.816	56226.71
229.28	53953.85
229.744	45558.12
230.207	27744.11
230.671	27368.58
231.134	45261.06
231.597	52312.27
232.061	52430.25
232.524	51221.63
232.987	35387.59
233.45	31936.75
233.914	28718.2
234.377	29484.01
234.84	27093.85
235.303	32023.6
235.766	35793.83
236.229	37114.27
236.691	23406.74
237.154	26339.98
237.617	19853.45
238.08	20361.29
238.542	23867.06
239.005	17085.66
239.468	17004.66
239.93	16041.22
240.393	14606.85
240.855	12850.89
241.317	13168.44
241.78	16061.68
242.242	16648.49
242.704	18017.66
243.166	15718.94
243.629	14308.9
244.091	16541.55
244.553	18157.33
245.015	19559.54
245.477	25340.3
245.939	37237.32
246.4	39617.75
246.862	38533.15
247.324	36369.03
247.786	40802.7
248.247	53617.66
248.709	55409.1
249.17	41470.56
249.632	39103.61
250.093	45427.14
250.555	39320.45
251.016	24009.03
251.477	22789.37
251.939	24663.81
252.4	25924.54
252.861	30868.56
253.322	28760.73
253.783	34280.96
254.244	44531.68
254.705	35185.37
255.166	31279.8
255.627	30834.8
256.088	43543.66
256.549	46305.08
257.009	39911.11
257.47	48404.82
257.931	39425.6
258.391	29535.05
258.852	30464.93
259.312	31940.66
259.773	39468.25
260.233	33411.34
260.694	28157.49
261.154	31953.98
261.614	25679.26
262.074	22962.09
262.534	23887.99
262.994	22533.89
263.455	30033.89
263.915	25327.47
264.374	23871.08
264.834	26087.43
265.294	28930.04
265.754	29998.33
266.214	28396.52
266.673	26615.55
267.133	33583.25
267.593	33340.91
268.052	40817.16
268.512	35496
268.971	42816.89
269.431	47007.29
269.89	42095.44
270.349	63114.82
270.809	70388.54
271.268	63258.25
271.727	141933.46
272.186	92004.06
272.645	69031
273.104	49810.42
273.563	72184.26
274.022	56732.68
274.481	48245.42
274.94	37195.56
275.399	27663.25
275.857	32217.72
276.316	43619.41
276.775	38823.34
277.233	38257.81
277.692	35829.13
278.15	40524.58
278.609	41696.59
279.067	38630.59
279.525	35901.09
279.984	46337.24
280.442	55584.59
280.9	54802.59
281.358	36071.12
281.816	33595.55
282.274	32881.54
282.732	33959.29
283.19	34107.74
283.648	29427.01
284.106	31318.59
284.564	31821.48
285.021	29529.87
285.479	22013.09
285.937	20011.39
286.394	17540.88
286.852	18042.62
287.309	18943.51
287.767	18289.17
288.224	17391.59
288.682	19107.72
289.139	20976.92
289.596	19202.21
290.053	19941.81
290.511	25197.2
290.968	30610.97
291.425	41609.44
291.882	34719.79
292.339	30277.67
292.796	30074.76
293.252	28355.75
293.709	22535.76
294.166	20227.17
294.623	22382.81
295.079	21484.11
295.536	21613.37
295.992	19627.62
296.449	19406.83
296.905	20161.1
297.362	19329.17
297.818	20333.54
298.274	21118.99
298.731	21515.79
299.187	21271.19
299.643	22831.36
300.099	27635.75
300.555	30290.14
301.011	25310.92
301.467	24393.77
301.923	28525.64
302.379	27860.43
302.835	27373.22
303.291	27395.94
303.746	31183.65
304.202	39426.11
304.658	39566.13
305.113	26627.98
305.569	26107
306.024	27838.23
306.479	26504.69
306.935	22340.22
307.39	24377.43
307.845	22513.37
308.301	22677.53
308.756	22081.19
309.211	21268.38
309.666	21809.77
310.121	27053.87
310.576	27424.81
311.031	27187.91
311.486	31132.66
311.94	31168.73
312.395	41729
312.85	78405.72
313.305	384526.98
313.759	1993051.84
314.214	144538.66
314.668	114578.59
315.123	96351.18
315.577	34576.69
316.032	30782.2
316.486	38569.41
316.94	30405.73
317.394	21169.29
317.849	16465.79
318.303	15600.58
318.757	14721.06
319.211	16274.83
319.665	14263.41
320.119	14464.62
320.572	20771.18
321.026	19417.59
321.48	16205.26
321.934	17684.48
322.387	17739.09
322.841	19173.43
323.295	17274.08
323.748	19918.47
324.202	20214.75
324.655	24292.54
325.108	33934.47
325.562	23963.95
326.015	28511.53
326.468	21542.52
326.921	24119.82
327.374	22521.74
327.827	23460.94
328.28	26547.17
328.733	17777.05
329.186	15681.23
329.639	14949.73
330.092	12602.19
330.545	12023.8
330.997	12138
331.45	13288.65
331.903	15570.89
332.355	26821.73
332.808	26079.27
333.26	21522.38
333.713	23391.09
334.165	23559.82
334.617	31459.94
335.069	25402.84
335.522	45920.38
335.974	50788.98
336.426	46324.78
336.878	32125.2
337.33	16264.88
337.782	15889.69
338.234	19893.79
338.686	23777.13
339.137	28129.27
339.589	26503.14
340.041	20791.17
340.493	17893.56
340.944	18345.88
341.396	19816.22
341.847	16636.58
342.299	19668.17
342.75	24043.96
343.201	21073.25
343.653	24256.23
344.104	29805.99
344.555	23495.29
345.006	36625.42
345.457	28041.14
345.908	22275.49
346.359	20942.66
346.81	17085.39
347.261	18029.89
347.712	17752.14
348.163	19030.66
348.613	19302.92
349.064	18052.79
349.515	15787.06
349.965	16219.57
350.416	19562.55
350.866	21512.19
351.317	24319.07
351.767	40363.89
352.217	50931.34
352.668	42356.92
353.118	38829.05
353.568	37472.15
354.018	29646.94
354.468	31292.77
354.918	22436.27
355.368	19622.74
355.818	27726.29
356.268	79875.5
356.718	334216.5
357.168	83246.2
357.617	41709.06
358.067	46360.68
358.517	43447.35
358.966	51049.79
359.416	57291.2
359.865	61922.81
360.315	73709.01
360.764	34417.79
361.213	19284.59
361.663	18268.17
362.112	22565.01
362.561	36446.61
363.01	27493.87
363.459	23130.54
363.908	24989.18
364.357	21255.79
364.806	35876.08
365.255	24672.24
365.703	22639.03
366.152	22677.41
366.601	18387.4
367.05	14931.93
367.498	13554.85
367.947	14167.17
368.395	14764.79
368.844	13081.71
369.292	15748.41
369.74	10890.75
370.189	16669.17
370.637	19500.35
371.085	16786.51
371.533	20426.13
371.981	19647.41
372.429	18786.3
372.877	19571.32
373.325	16375.83
373.773	16695.69
374.221	14872.68
374.669	18440.1
375.116	15965.42
375.564	16098.38
376.012	18037.69
376.459	14881.32
376.907	17812.07
377.354	21505.71
377.801	20078.21
378.249	23033.81
378.696	29412.58
379.143	35570.54
379.591	37938.49
380.038	64189.1
380.485	46352.24
380.932	50023.55
381.379	45767.48
381.826	33648.78
382.273	23916.76
382.72	20875.69
383.166	20309.65
383.613	13158.79
384.06	11851.91
384.506	13689.72
384.953	10027.25
385.4	10087.25
385.846	8830.47
386.292	8591.4
386.739	8409.23
387.185	8305.16
387.631	8296.15
388.078	8060.82
388.524	8615.83
388.97	7962.6
389.416	6639.71
389.862	7055.38
390.308	6681.15
390.754	6778.57
391.2	7348.57
391.645	7509.13
392.091	7184.04
392.537	6933.84
392.983	6923.9
393.428	6805.54
393.874	7276.32
394.319	7290.21
394.765	6901.01
395.21	7083.42
395.655	6637.25
396.101	6217.5
396.546	5618.3
396.991	5664.2
397.436	5261.62
397.881	5085.61
398.326	4814.13
398.771	4555
399.216	3988.85
399.661	3594.67
400.106	3585.18
400.551	3679.34
400.995	3299.07
401.44	3265.63
401.885	3066.77
402.329	3103.72
402.774	2987.06
403.218	2898.66
403.663	2798.04
404.107	2881.37
404.551	2914.65
404.995	2675.09
405.44	2579.05
405.884	2626.62
406.328	2539.28
406.772	2541.91
407.216	2320.09
407.66	2244.46
408.104	2136.15
408.547	2006.86
408.991	1946.46
409.435	1874.25
409.879	1856.91
410.322	1837.69
410.766	1780.92
411.209	1704.04
411.653	1641.45
412.096	1615.91
412.54	1619.01
412.983	1610.76
413.426	1619.38
413.869	1622.3
414.312	1601.1
414.756	1545.4
415.199	1478.97
415.642	1438.94
416.085	1443.36
416.527	1434.59
416.97	1457.33
417.413	1387.38
417.856	1381.29
418.298	1372.9
418.741	1369.65
419.184	1369.71
419.626	1432.1
420.069	1435.39
420.511	1447.68
420.953	1422.11
421.396	1417.54
421.838	1388.55
422.28	1425.96
422.722	1435
423.164	1457.79
423.606	1435.34
424.048	1434.91
424.49	1368.18
424.932	1368.24
425.374	1352.4
425.816	1377.67
426.258	1404.75
426.699	1423.15
427.141	1409.34
427.582	1435.64
428.024	1432.68
428.465	1427.7
428.907	1396.66
429.348	1380.28
429.789	1378.15
430.231	1350.27
430.672	1372.37
431.113	1342.01
431.554	1323.16
431.995	1288.18
432.436	1244.45
432.877	1213.78
433.318	1193.23
433.759	1187.66
434.2	1188.86
434.64	1175.62
435.081	1178.22
435.522	1114.04
435.962	1072.58
436.403	1048.93
436.843	1061.29
437.284	1034.52
437.724	1008.93
438.164	1011.49
438.604	989.05
439.045	951.7
439.485	913.91
439.925	896.35
440.365	874.04
440.805	860.78
441.245	849.71
441.685	818.73
442.125	812.99
442.564	816.79
443.004	796.37
443.444	793.12
443.883	792.97
444.323	785.82
444.762	786.1
445.202	794.22
445.641	808.4
446.081	802.09
446.52	807.61
446.959	796.88
447.398	775.49
447.837	766.09
448.276	751.99
448.716	756.98
449.154	762.32
449.593	742.92
450.032	739.66
450.471	723.88
450.91	722.29
451.349	720.68
451.787	718.63
452.226	728.27
452.664	727.38
453.103	727.55
453.541	726.02
453.98	725.27
454.418	729.14
454.856	718.28
455.295	717.72
455.733	724.29
456.171	728.15
456.609	728.53
457.047	730.19
457.485	740.49
457.923	742.47
458.361	732.51
458.798	733.82
459.236	731.39
459.674	737.04
460.111	738.83
460.549	731.47
460.987	728.38
461.424	724.39
461.862	719.8
462.299	708.46
462.736	706.97
463.173	709.12
463.611	701.76
464.048	701.7
464.485	706.88
464.922	700.82
465.359	696.97
465.796	688.74
466.233	684.9
466.67	678.79
467.106	678.69
467.543	672.19
467.98	664.3
468.416	646.63
468.853	641.55
469.29	622.3
469.726	615.95
470.162	598.94
470.599	589.48
471.035	584.52
471.471	570.63
471.907	566.36
472.344	561.7
472.78	562.7
473.216	569.44
473.652	562.09
474.088	559.85
474.523	558.26
474.959	563.26
475.395	558.12
475.831	554.04
476.266	556.21
476.702	554.03
477.138	548.3
477.573	545.63
478.008	543.84
478.444	546.74
478.879	552.11
479.314	553.89
479.75	554.47
480.185	557.4
480.62	561.83
481.055	565.45
481.49	569.6
481.925	577.14
482.36	588.28
482.795	604.05
483.229	619.18
483.664	631.97
484.099	634.2
484.534	642.61
484.968	648.1
485.403	649.66
485.837	647.66
486.271	645.71
486.706	645.96
487.14	636.68
487.574	625.58
488.009	619.25
488.443	612.11
488.877	617.24
489.311	618.13
489.745	623.7
490.179	628.12
490.613	638.73
491.046	641.67
491.48	644.47
491.914	643.56
492.348	646.22
492.781	647.67
493.215	647.24
493.648	644.96
494.082	647.02
494.515	644.98
494.948	649.22
495.382	649.42
495.815	650.03
496.248	651.75
496.681	659.96
497.114	666.13
497.547	671.46
497.98	679.13
498.413	681.66
498.846	686.15
499.279	688.61
499.711	686.93
500.144	683.92
500.577	689.24
501.009	693.62
501.442	696.82
501.874	692.86
502.306	688.38
502.739	690.87
503.171	697.23
503.603	694.83
504.036	696.96
504.468	696.57
504.9	700.31
505.332	699.68
505.764	696.55
506.196	696.17
506.627	701.58
507.059	706.39
507.491	704.78
507.923	698
508.354	703.04
508.786	705.42
509.217	712.42
509.649	717.86
510.08	725.42
510.512	733.56
510.943	738.71
511.374	741.35
511.805	749.92
512.237	757.99
512.668	773.53
513.099	786.34
513.53	798.51
513.961	807.95
514.391	824.1
514.822	842.26
515.253	860.81
515.684	872.1
516.114	886.87
516.545	896.68
516.975	908.54
517.406	917.02
517.836	915.1
518.267	917.33
518.697	925.66
519.127	925.64
519.558	926.36
519.988	925.27
520.418	929.73
520.848	938.42
521.278	941.29
521.708	965.62
522.138	971.96
522.567	989.45
522.997	1003.85
523.427	1012.39
523.857	1021.71
524.286	1027.21
524.716	1036.19
525.145	1047.16
525.575	1053.55
526.004	1062.14
526.433	1042.17
526.863	1042.17
527.292	1037
527.721	1040.11
528.15	1042.9
528.579	1043.5
529.008	1050.57
529.437	1063.99
529.866	1072.31
530.295	1082.94
530.724	1091.94
531.152	1110.16
531.581	1119.4
532.01	1130.14
532.438	1135.38
532.867	1145.07
533.295	1157.93
533.723	1161.49
534.152	1161.45
534.58	1162.47
535.008	1152.1
535.436	1153.99
535.865	1159.72
536.293	1169.11
536.721	1179.23
537.149	1196.57
537.576	1199.32
538.004	1206.54
538.432	1211.27
538.86	1211.02
539.287	1215.96
539.715	1226.43
540.143	1227.12
540.57	1224.08
540.998	1220.88
541.425	1207.93
541.852	1193.99
542.28	1192.7
542.707	1182.28
543.134	1175.36
543.561	1172.55
543.988	1167.41
544.415	1166.82
544.842	1163.61
545.269	1160.44
545.696	1162.86
546.123	1171.29
546.549	1164.97
546.976	1157.15
547.403	1157.54
547.829	1158.54
548.256	1160.08
548.682	1157.93
549.108	1154.02
549.535	1154.45
549.961	1155.04
550.387	1146.81
550.813	1144.08
551.24	1148.6
551.666	1148.68
552.092	1143.16
552.518	1138.25
552.943	1135.19
553.369	1140.14
553.795	1143.24
554.221	1143.76
554.646	1141.64
555.072	1149.55
555.498	1151
555.923	1156.99
556.349	1167.26
556.774	1172.13
557.199	1173.57
557.625	1176.29
558.05	1173.98
558.475	1180.58
558.9	1181.13
559.325	1177.87
559.75	1173.64
560.175	1170.12
560.6	1165.46
561.025	1164.68
561.449	1165.8
561.874	1170.42
562.299	1174.57
562.723	1178.95
563.148	1174.33
563.572	1176.61
563.997	1183.2
564.421	1187.03
564.846	1187.64
565.27	1191.33
565.694	1190.22
566.118	1198.28
566.542	1204.62
566.966	1201.31
567.39	1200.18
567.814	1193.34
568.238	1193.36
568.662	1197.06
569.086	1199.75
569.509	1205.68
569.933	1197.62
570.357	1193.55
570.78	1180.97
571.204	1173.41
571.627	1166.69
572.05	1165.02
572.474	1166.94
572.897	1160.52
573.32	1156.65
573.743	1150.92
574.166	1139.51
574.589	1139.98
575.012	1136.56
575.435	1136.82
575.858	1130.49
576.281	1124.54
576.704	1114.94
577.126	1107.5
577.549	1101.03
577.972	1094.12
578.394	1088.95
578.817	1086.78
579.239	1074.29
579.661	1066.16
580.084	1057.29
580.506	1049.01
580.928	1045.26
581.35	1039.07
581.772	1035.71
582.194	1027.31
582.616	1020.39
583.038	1009.89
583.46	1002.39
583.882	1001.66
584.303	1004.87
584.725	1002.08
585.147	1007.87
585.568	1017.09
585.99	1025.96
586.411	1031.63
586.833	1042.92
587.254	1044.79
587.675	1055.62
588.096	1065.13
588.518	1062.88
588.939	1051.96
589.36	1051.46
589.781	1041.59
590.202	1025.25
590.623	1019.3
591.043	1017.58
591.464	1009.38
591.885	1007.67
592.305	1004.26
592.726	995.8
593.147	996.75
593.567	994.4
593.987	990.91
594.408	988.16
594.828	986.14
595.248	983.74
595.669	972.32
596.089	968.09
596.509	964.79
596.929	956.29
597.349	957.26
597.769	950.54
598.189	946.56
598.608	947.4
599.028	949.36
599.448	948.68
599.867	940.56
600.287	938.17
600.706	935.71
601.126	929.49
601.545	929.82
601.965	928.91
602.384	926.59
602.803	928.85
603.222	925.73
603.641	921.7
604.061	920.99
604.48	919.06
604.898	925.48
605.317	928.78
605.736	930.54
606.155	929.37
606.574	924
606.992	927.8
607.411	925.91
607.829	920.69
608.248	919.24
608.666	918.09
609.085	918.65
609.503	912.7
609.921	910.84
610.339	913.04
610.758	912.7
611.176	910.46
611.594	906.39
612.012	905.38
612.43	909.87
612.847	915.71
613.265	918.31
613.683	921.56
614.101	923.81
614.518	920.94
614.936	914.71
615.353	906.24
615.771	906.07
616.188	907
616.606	904.94
617.023	901.81
617.44	893.34
617.857	888.64
618.274	883.99
618.691	881.73
619.108	877.46
619.525	874.5
619.942	881.06
620.359	883.52
620.776	879.84
621.192	877.88
621.609	875.83
622.026	880.9
622.442	885.11
622.859	887.96
623.275	882.19
623.691	885.69
624.108	895.26
624.524	904.59
624.94	904.61
625.356	912.5
625.772	922.1
626.188	931.25
626.604	932.56
627.02	930.1
627.436	930.08
627.852	936.94
628.268	946.29
628.683	938.38
629.099	932.51
629.514	929.6
629.93	932.83
630.345	937.04
630.761	934.01
631.176	937.29
631.591	935.69
632.007	932.06
632.422	930.65
632.837	923.26
633.252	923.63
633.667	917.61
634.082	912.88
634.497	905.96
634.911	893.89
635.326	893.25
635.741	883.02
636.155	877.05
636.57	881.16
636.984	883.18
637.399	888.36
637.813	890.43
638.228	893.34
638.642	898.73
639.056	893.68
639.47	896.6
639.884	894.56
640.298	893.39
640.712	896.78
641.126	890.9
641.54	889.5
641.954	887.96
642.368	884.2
642.781	883.85
643.195	874.54
643.609	879.92
644.022	879.97
644.436	880.4
644.849	875.41
645.262	868.58
645.676	872.91
646.089	872.09
646.502	864.68
646.915	862.71
647.328	851.1
647.741	853.48
648.154	845.84
648.567	846.71
648.98	838.56
649.393	840.2
649.805	840.68
650.218	835.89
650.631	824.96
651.043	821.39
651.456	818.46
651.868	819.94
652.28	834.29
652.693	845.02
653.105	850.94
653.517	860.97
653.929	863.98
654.341	869.66
654.753	861
655.165	868.02
655.577	867.13
655.989	865.7
656.401	861.66
656.813	834.38
657.224	821.4
657.636	798.79
658.047	784.88
658.459	769.66
658.87	764.56
659.282	758.78
659.693	744.84
660.104	736.7
660.515	727.4
660.926	729.27
661.338	730.22
661.749	727.76
662.159	725.53
662.57	726.67
662.981	727.22
663.392	724.78
663.803	731.28
664.213	732.67
664.624	731.54
665.035	738.12
665.445	728.24
665.855	724.11
666.266	720.51
666.676	720.27
667.086	714.07
667.497	715.44
667.907	711.56
668.317	705.25
668.727	704.45
669.137	705.35
669.547	703.79
669.956	706.09
670.366	709.36
670.776	711.53
671.186	714.59
671.595	717.31
672.005	720.39
672.414	720.12
672.824	719.62
673.233	722.24
673.642	724.92
674.052	728.2
674.461	731.16
674.87	735.19
675.279	731.47
675.688	732.41
676.097	733.72
676.506	730.21
676.915	741.94
677.323	741.94
677.732	738.51
678.141	736.65
678.549	724.26
678.958	721
679.366	717.05
679.775	719.08
680.183	726.19
680.592	727.98
681	729.1
681.408	720.05
681.816	723.92
682.224	727.53
682.632	732.59
683.04	754.74
683.448	772.51
683.856	794.33
684.264	819.01
684.671	838.99
685.079	864.6
685.487	893.59
685.894	933.35
686.302	962.45
686.709	984.98
687.116	1010.68
687.524	1029.72
687.931	1040.98
688.338	1047.9
688.745	1049.47
689.152	1055.62
689.559	1070.83
689.966	1085.02
690.373	1083.45
690.78	1095.93
691.187	1122.29
691.593	1139.26
692	1150.66
692.407	1175.56
692.813	1212.82
693.22	1240.17
693.626	1266.98
694.032	1287.37
694.439	1324.45
694.845	1353.37
695.251	1390.41
695.657	1423.95
696.063	1477.29
696.469	1517.02
696.875	1555.22
697.281	1573.52
697.687	1599.55
698.093	1621.73
698.498	1666.57
698.904	1700.31
699.31	1754.32
699.715	1796.67
700.12	1853.49
700.526	1867.8
700.931	1913.51
701.337	1949.7
701.742	1972.96
702.147	2027.73
702.552	2049.62
702.957	2089.45
703.362	2105.82
703.767	2126.91
704.172	2153.81
704.577	2128.65
704.981	2160.96
705.386	2174.33
705.791	2170.67
706.195	2222.91
706.6	2234.24
707.004	2291.31
707.408	2275.24
707.813	2299.2
708.217	2296.58
708.621	2303.42
709.025	2372.18
709.43	2380.38
709.834	2425.75
710.237	2479.36
710.641	2474.71
711.045	2493.81
711.449	2496.52
711.853	2524.92
712.256	2555.17
712.66	2583.39
713.064	2636.57
713.467	2670.16
713.87	2748.89
714.274	2784.9
714.677	2861.99
715.08	2975.34
715.484	3094.05
715.887	3237.84
716.29	3376.7
716.693	3525.47
717.096	3696.45
717.499	3793.55
717.901	3815.98
718.304	3841.68
718.707	3861.56
719.109	3797.53
719.512	3782.36
719.915	3696.73
720.317	3660.23
720.719	3693.8
721.122	3678.55
721.524	3652.51
721.926	3632.68
722.328	3708.01
722.731	3702.92
723.133	3729.29
723.535	3870.08
723.937	3886.98
724.338	3925.24
724.74	3958.95
725.142	3952.8
725.544	3957.71
725.945	3986.32
726.347	3983.54
726.748	3981.29
727.15	3996.87
727.551	3975.86
727.952	3957.84
728.354	3941.82
728.755	3946.45
729.156	3919.68
729.557	3880.38
729.958	3793.53
730.359	3748.82
730.76	3739.11
731.161	3699.15
731.562	3682.2
731.962	3683.4
732.363	3641.47
732.763	3599.61
733.164	3624.37
733.564	3578.14
733.965	3513.49
734.365	3492.63
734.766	3515.08
735.166	3488.47
735.566	3452.36
735.966	3436.77
736.366	3437.77
736.766	3395.29
737.166	3420.93
737.566	3394.45
737.966	3377.78
738.365	3409.04
738.765	3407.04
739.165	3354.27
739.564	3337.33
739.964	3369.41
740.363	3336.9
740.763	3334.14
741.162	3328.6
741.561	3304.57
741.96	3274.26
742.36	3288.73
742.759	3291.65
743.158	3318.09
743.557	3329.95
743.955	3358.66
744.354	3328.71
744.753	3370.07
745.152	3342.96
745.55	3382.14
745.949	3378.04
746.348	3379.81
746.746	3393.21
747.144	3368.23
747.543	3353.72
747.941	3387.72
748.339	3338.49
748.737	3333.49
749.136	3330.53
749.534	3375.46
749.932	3354.57
750.33	3371.57
750.727	3412.09
751.125	3393.76
751.523	3380.45
751.921	3413.79
752.318	3391.06
752.716	3435.61
753.113	3444
753.511	3458.88
753.908	3459.55
754.305	3450.99
754.703	3493.25
755.1	3536.69
755.497	3582.02
755.894	3719.84
756.291	3846.73
756.688	4080.74
757.085	4392.22
757.482	4836.78
757.878	5322.74
758.275	5764.39
758.672	6362.12
759.068	6860.42
759.465	7558.48
759.861	8456.89
760.258	9501.42
760.654	10044.76
761.05	9973.62
761.447	9524.12
761.843	8870.82
762.239	8198.35
762.635	7886.29
763.031	7593.82
763.427	7171.59
763.822	6730.76
764.218	6292.8
764.614	5720.41
765.01	5334.54
765.405	5088.93
765.801	4901.29
766.196	4660.34
766.592	4522.94
766.987	4300.09
767.382	4144.91
767.778	4079.26
768.173	3984.16
768.568	3930.66
768.963	3841.14
769.358	3856.96
769.753	3823.65
770.148	3762.75
770.542	3763.06
770.937	3743.08
771.332	3807.33
771.726	3823.38
772.121	3780.01
772.515	3818.1
772.91	3809.36
773.304	3859.2
773.699	3812.22
774.093	3847.73
774.487	3888.51
774.881	3918.57
775.275	3914.88
775.669	3886.2
776.063	3919.18
776.457	3944.68
776.851	3893.13
777.245	3887.1
777.638	3911.44
778.032	3994.2
778.425	3969.96
778.819	4001.94
779.212	3971.95
779.606	3943.1
779.999	3953.21
780.392	3942.33
780.786	4000.47
781.179	4016.32
781.572	4046.78
781.965	4055.91
782.358	4014.75
782.751	4052.88
783.143	4014.27
783.536	4066.96
783.929	4098.37
784.322	4183.2
784.714	4202.36
785.107	4200.44
785.499	4252.13
785.891	4238.35
786.284	4223.54
786.676	4324.42
787.068	4315.43
787.46	4357.37
787.852	4370.51
788.245	4432.35
788.636	4454.27
789.028	4506.05
789.42	4535.73
789.812	4539.96
790.204	4609.79
790.595	4682.59
790.987	4541.83
791.378	4557.05
791.77	4646.6
792.161	4742.5
792.553	4785.44
792.944	4704.75
793.335	4653.75
793.726	4704.32
794.117	4771.81
794.508	4868.25
794.899	4847.97
795.29	4949.06
795.681	4989.84
796.072	4888.69
796.463	4767.33
796.853	4774.75
797.244	4888.88
797.634	4915.37
798.025	4912.43
798.415	4917.9
798.806	4982.36
799.196	5041.7
799.586	5077.65
799.976	5053.79
800.366	5217.28
800.756	5378.22
801.146	5342.81
801.536	5359.54
801.926	5410.43
802.316	5431.81
802.706	5481.53
803.095	5392.29
803.485	5465.85
803.874	5490.77
804.264	5673.78
804.653	5657
805.043	5762.41
805.432	5843.88
805.821	5850.7
806.21	5864.88
806.599	5948.96
806.988	5982.79
807.377	6058.97
807.766	6151.86
808.155	6358.36
808.544	6166.74
808.933	6172.61
809.321	6157.96
809.71	6366.62
810.098	6481.73
810.487	6809.09
810.875	7154.31
811.264	7172.73
811.652	7387.66
812.04	7488.75
812.428	7610.45
812.816	8155.77
813.204	8456.09
813.592	8849.31
813.98	9093.4
814.368	9024.13
814.756	9364.95
815.144	9301.18
815.531	9632.77
815.919	9573.67
816.306	9794.35
816.694	9565.7
817.081	9604.96
817.469	9856.81
817.856	9851.75
818.243	10044.7
818.63	10319.1
819.017	10026.35
819.404	10068.77
819.791	10334.4
820.178	10768.36
820.565	10953.03
820.952	11626.85
821.339	11271.52
821.725	11402.61
822.112	10874.09
822.498	10837.95
822.885	10930.35
823.271	10856.95
823.657	11157.64
824.044	11165.21
824.43	11221.03
824.816	11200.13
825.202	10882.01
825.588	11611.43
825.974	11618.09
826.36	11983.44
826.746	12012.42
827.132	12261.25
827.517	12246.69
827.903	11687.24
828.289	11718.55
828.674	11159.88
829.06	11076.54
829.445	11356.75
829.83	11602.21
830.216	11941.92
830.601	12209.03
830.986	11921.19
831.371	11827.19
831.756	12224.58
832.141	11922.58
832.526	11915.56
832.911	12118.82
833.295	12042.89
833.68	12377.61
834.065	11940.07
834.449	11285.95
834.834	11228.84
835.218	11221.37
835.603	11466.03
835.987	11315.14
836.371	11902.07
836.755	11825.76
837.139	12103.16
837.524	12265.79
837.908	12133.14
838.291	12173.54
838.675	12222.97
839.059	12364.31
839.443	12351.57
839.827	12180.66
840.21	12514.16
840.594	12410.7
840.977	12562.98
841.361	12555.59
841.744	12827.57
842.127	12722.19
842.511	12901.59
842.894	13323.38
843.277	13604.12
843.66	13990.05
844.043	14055.67
844.426	13488.04
844.809	13264.47
845.191	13287.7
845.574	12955.6
845.957	12691.19
846.339	12621.8
846.722	12248.22
847.104	12301.03
847.487	12173.01
847.869	12180.8
848.252	12378.78
848.634	12610.8
849.016	12799.32
849.398	12882.85
849.78	13493.56
850.162	13503.51
850.544	13783.19
850.926	14227.96
851.307	14165.64
851.689	14368.74
852.071	14693.11
852.452	14930.1
852.834	14910.18
853.215	15195.73
853.597	15309.77
853.978	15519.24
854.359	15843
854.741	15148.24
855.122	15081.38
855.503	14876.35
855.884	14970.67
856.265	14934.98
856.646	15005.41
857.026	14737.36
857.407	14687.2
857.788	14799.82
858.169	14995.95
858.549	14394.88
858.93	14836.65
859.31	14867.71
859.69	15015.93
860.071	14721.52
860.451	14563.65
860.831	14034.65
861.211	14850.47
861.591	15237.26
861.971	15205.79
862.351	15343.57
862.731	15614.27
863.111	15800.59
863.491	16037.28
863.87	16657
864.25	16903.85
864.629	16618.62
865.009	16982.06
865.388	17587.15
865.768	18854.49
866.147	18796.29
866.526	17758.78
866.905	17974.28
867.284	18968.78
867.663	18008.38
868.042	17264.49
868.421	17216.05
868.8	17494.66
869.179	17677.22
869.558	16649.58
869.936	15346.45
870.315	15612.81
870.693	16001.59
871.072	17243.19
871.45	16438.38
871.828	16649.14
872.207	17503.57
872.585	17239.62
872.963	17717.05
873.341	17107.12
873.719	16905.66
874.097	16701.77
874.475	17024.15
874.853	17410.74
875.23	16689.03
875.608	17388.24
875.986	18807.37
876.363	17983.59
876.741	18531.25
877.118	18066.25
877.495	18953.99
877.873	19273.88
878.25	20277.92
878.627	19450.48
879.004	19727.75
879.381	19644.4
879.758	19131.25
880.135	17813.91
880.512	18831.68
880.889	18328.35
881.265	18136.86
881.642	17981.96
882.019	18280.47
882.395	17907.29
882.772	18618.92
883.148	17797.15
883.524	17726.81
883.901	17622.97
884.277	17891.61
884.653	17789.06
885.029	18313.01
885.405	20292.14
885.781	20142.2
886.157	19313.99
886.532	19558.2
886.908	19542.65
887.284	21744.7
887.659	22463.1
888.035	23180.17
888.411	23779.85
888.786	24099.52
889.161	24930.99
889.537	24463.72
889.912	25246.34
890.287	25236.73
890.662	25892.69
891.037	25433.07
891.412	23716.65
891.787	23469.91
892.162	22641.43
892.536	23172.79
892.911	22296.01
893.286	21825.93
893.66	20944.07
894.035	21483.99
894.409	23392.72
894.784	22457.88
895.158	22831.46
895.532	24179.98
895.906	24834.02
896.281	25404.52
896.655	24999.25
897.029	28563.77
897.402	29728.69
897.776	33095.59
898.15	32982.89
898.524	32610.91
898.898	33016.63
899.271	36968.22
899.645	32025.59
900.018	30773.8
900.392	31937.45
900.765	32196.42
901.138	29799.01
901.511	29365.4
901.884	26973.59
902.258	24881.41
902.631	25719.38
903.003	29613.99
903.376	26711.29
903.749	29961.41
904.122	32073.87
904.495	35293.88
904.867	35725.08
905.24	31021.15
905.612	28892.55
905.985	29532.78
906.357	30883.31
906.729	29479.38
907.102	25181.51
907.474	24226.39
907.846	24381.77
908.218	24061.53
908.59	21284.37
908.962	20590.53
909.334	22189.34
909.705	23307.14
910.077	22638.93
910.449	23557.38
910.82	24226.84
911.192	26648.36
911.563	27703.53
911.935	29623.42
912.306	29646.85
912.677	30612.42
913.048	30316.16
913.419	32866.21
913.79	33024.36
914.161	35416.64
914.532	33866.52
914.903	31110.34
915.274	29564.46
915.645	29106.99
916.015	25629.01
916.386	24438.34
916.756	26008.9
917.127	26823.87
917.497	23973.96
917.868	26108.51
918.238	24813.1
918.608	25536.91
918.978	26074.49
919.348	27609.54
919.718	28544.77
920.088	27519.38
920.458	28616.33
920.828	30113.43
921.198	28572.58
921.567	30536.66
921.937	23672.98
922.306	23898.27
922.676	25774.76
923.045	21514.2
923.415	20466.52
923.784	18641.21
924.153	19163.71
924.522	19151.43
924.891	18009.53
925.26	19285.24
925.629	18817.32
925.998	21614.84
926.367	21095.6
926.736	20091.17
927.104	23901.81
927.473	25656.37
927.842	30968.82
928.21	30654.97
928.578	32216.07
928.947	30472
929.315	30650.68
929.683	36002.82
930.051	36312.4
930.42	42173.37
930.788	36032.48
931.156	35793.3
931.523	33592.76
931.891	31060.73
932.259	29850.97
932.627	34603.93
932.994	48958.01
933.362	40522.4
933.729	35192.15
934.097	33678.36
934.464	28532.37
934.831	32964.03
935.199	32545.09
935.566	31581.93
935.933	32145.59
936.3	38968.81
936.667	30369.01
937.034	27473.64
937.401	27179.67
937.767	23460.4
938.134	20904.33
938.501	29505.51
938.867	31473.67
939.234	53208.07
939.6	45417.28
939.967	49836.99
940.333	33389.28
940.699	28408.36
941.065	22741.82
941.431	29817.05
941.798	28761.2
942.163	37788.74
942.529	23579.03
942.895	21657.19
943.261	13990.58
943.627	18352.65
943.992	16063.9
944.358	16085.52
944.723	16163.69
945.089	15727.99
945.454	14510.41
945.82	15483.67
946.185	14869.96
946.55	17239.13
946.915	15462.03
947.28	18129.3
947.645	15943.52
948.01	14717.59
948.375	15335.37
948.74	18350.61
949.104	21413.89
949.469	30927.65
949.834	54639.05
950.198	51859.93
950.562	31091.77
950.927	25891.32
951.291	31234.3
951.655	26622.34
952.02	24994.13
952.384	18888.74
952.748	16469.17
953.112	16087.04
953.476	13993.96
953.839	12936.94
954.203	12813.1
954.567	16017.84
954.931	25225.77
955.294	21561.09
955.658	21675.68
956.021	36908.59
956.385	62607.05
956.748	92314.4
957.111	143017.45
957.474	160360.44
957.837	180531.7
958.2	136521.21
958.563	49118.06
958.926	33250.8
959.289	50425.8
959.652	56378.43
960.015	42222.97
960.377	60542.03
960.74	69194.32
961.102	119466.75
961.465	128490.42
961.827	69110.29
962.189	132610.76
962.552	91997.2
962.914	73736.45
963.276	47851.59
963.638	39495.28
964	39128.28
964.362	26494.6
964.724	25566.48
965.085	18221.36
965.447	14962.53
965.809	17006.89
966.17	17030.43
966.532	18402.58
966.893	16876.93
967.255	15378.98
967.616	18161.84
967.977	14574.93
968.338	15917.49
968.699	13096.75
969.061	13107.49
969.421	13169.69
969.782	14760.5
970.143	12473.53
970.504	12948.12
970.865	14747.8
971.225	15084.89
971.586	14777.66
971.946	21024.18
972.307	18234.34
972.667	23811.52
973.027	24547.84
973.388	29786.92
973.748	20264.64
974.108	22117.71
974.468	29885.65
974.828	23067.88
975.188	17747.39
975.548	16296.86
975.907	13684.48
976.267	15367.3
976.627	12952.35
976.986	13419.6
977.346	12787.69
977.705	12310.9
978.064	11177.44
978.424	9312.48
978.783	9630.03
979.142	10981.42
979.501	10536.34
979.86	11162.94
980.219	10749.24
980.578	13852.44
980.937	15486.79
981.296	13805.29
981.654	14203.83
982.013	22130.88
982.371	28751.12
982.73	26808.98
983.088	30392.38
983.447	32421.91
983.805	46334.62
984.163	96785.19
984.521	107368.15
984.879	157696.46
985.237	-257256.65
985.595	248267.31
985.953	61675.99
986.311	35560.62
986.669	20661.23
987.026	17836.82
987.384	23939.26
987.741	24719.8
988.099	17710.74
988.456	14128.66
988.814	13236.9
989.171	11504.47
989.528	11344.38
989.885	11973.23
990.242	9504.23
990.599	11839.66
990.956	9672.13
991.313	6777.95
991.67	5567.88
992.027	5924.93
992.383	5257.73
992.74	4616.66
993.096	4841.08
993.453	5021.67
993.809	5204.08
994.165	6917.58
994.522	6364.23
994.878	7023.38
995.234	8810.12
995.59	8704.3
995.946	8210.65
996.302	9381.85
996.658	10829.35
997.013	11903.77
997.369	14154.41
997.725	18168.04
998.08	11773.3
998.436	18056.63
998.791	24898.83
999.147	24899.61
999.502	27148.75
999.857	19740.92
1000.212	32158.33
1000.567	45857.08
1000.922	26547.11
1001.277	16831.88
1001.632	12471.37
1001.987	16093.23
1002.342	11549.4
1002.696	9266.92
1003.051	7387.61
1003.406	8974.25
1003.76	8902.64
1004.114	8795.52
1004.469	7395.23
1004.823	6126.2
1005.177	6621.18
1005.531	5251.61
1005.885	4657.61
1006.239	5273.29
1006.593	6603.49
1006.947	8846.25
1007.301	6605.75
1007.655	7197.93
1008.008	5288.73
1008.362	5939.45
1008.715	8465.44
1009.069	7646.29
1009.422	11567.71
1009.776	23183.35
1010.129	15365.84
1010.482	12824.6
1010.835	10812.54
1011.188	22495.78
1011.541	21296.96
1011.894	-129483.83
1012.247	381893.78
1012.6	25953.96
1012.952	16461.02
1013.305	8418.29
1013.657	6053.06
1014.01	5726.69
1014.362	4722.13
1014.715	4225.77
1015.067	3700.02
1015.419	3611.16
1015.771	3213.92
1016.123	2868.03
1016.475	2947.83
1016.827	3144.77
1017.179	3399.09
1017.531	3435.64
1017.883	3501.75
1018.234	3409.09
1018.586	4312.62
1018.938	4600.57
1019.289	6358.23
1019.64	7252.92
1019.992	6715.32
1020.343	6154.67
1020.694	4893.88
1021.045	4316.2
1021.396	4932.39
1021.747	5295.3
1022.098	6319.25
1022.449	4561.28
1022.8	4205.25
1023.151	2923.68
1023.501	2606.29
1023.852	2831.36
1024.202	2942.39
1024.553	3210.51
1024.903	3154.12
1025.253	2708.86
1025.604	2440.83
1025.954	3026.62
1026.304	3673.23
1026.654	4301.68
1027.004	6291.49
1027.354	10106.06
1027.703	9610.16
1028.053	12529.54
1028.403	18124.42
1028.753	25953.83
1029.102	34848.24
1029.452	178043.78
1029.801	7606.06
1030.15	4903.7
1030.499	4072.93
897.758	3122.45
901.051	3105.12
904.343	3143.86
907.636	3134.36
910.928	3200.59
914.22	3103.97
917.511	3111.93
920.803	3194.86
924.094	3236.09
927.384	3188.65
930.675	3158.97
933.965	3102.33
937.255	3096.04
940.544	3060.8
943.834	2939.17
947.123	2894.81
950.411	2998.32
953.7	2965.35
956.988	2909.17
960.276	2859.53
963.563	2974.72
966.851	2954.47
970.138	3028.47
973.424	3003.53
976.711	2952.06
979.997	3178.41
983.283	3195.68
986.568	3071.65
989.853	3117.41
993.138	3148.41
996.423	3221.91
999.708	3138.7
1002.992	3244.49
1006.275	3000.68
1009.559	3095.99
1012.842	3231.84
1016.125	3138.67
1019.408	3116.17
1022.69	3234.01
1025.972	3231.98
1029.254	3205.77
1032.536	3107.89
1035.817	3148.29
1039.098	3058.37
1042.379	3297.18
1045.659	3258.35
1048.939	3170.9
1052.219	3208.81
1055.498	3243
1058.778	3212.32
1062.057	3209.78
1065.335	3224.61
1068.614	3251.01
1071.892	3217.79
1075.17	3316.52
1078.447	3290.47
1081.724	3274.46
1085.001	3320.52
1088.278	3290.42
1091.554	3308.9
1094.83	3309.51
1098.106	3324.97
1101.382	3386.38
1104.657	3388.76
1107.932	3381.51
1111.206	3330.66
1114.481	3293.48
1117.755	3303.43
1121.029	3267.93
1124.302	3308.56
1127.575	3241.89
1130.848	3219.62
1134.121	3174.36
1137.393	3106.71
1140.665	3185.59
1143.937	3159.61
1147.208	3095.28
1150.48	3111.76
1153.75	3090.51
1157.021	3161.67
1160.291	3121.49
1163.561	3155.56
1166.831	3177.96
1170.101	3211.59
1173.37	3210.6
1176.639	3135.69
1179.907	3211.71
1183.176	3234.91
1186.444	3247.06
1189.711	3282.44
1192.979	3276.58
1196.246	3237.72
1199.513	3260.72
1202.78	3250.64
1206.046	3255.52
1209.312	3280.55
1212.578	3311.21
1215.843	3245.46
1219.108	3231.25
1222.373	3252.58
1225.638	3204.97
1228.902	3178.21
1232.166	3157.99
1235.43	3133.57
1238.693	3151.14
1241.956	3158.42
1245.219	3181.75
1248.482	3192.47
1251.744	3180.86
1255.006	3358.16
1258.268	3323.94
1261.529	3253.87
1264.79	3272.23
1268.051	3382.6
1271.312	3407.05
1274.572	3355.7
1277.832	3350.33
1281.092	3354.01
1284.351	3301.92
1287.61	3275.94
1290.869	3166.65
1294.128	3119.46
1297.386	3254.57
1300.644	3236.84
1303.902	3245.65
1307.159	3099.65
1310.416	3160.01
1313.673	3174.51
1316.93	3145.72
1320.186	3207.52
1323.442	3263.36
1326.697	3240.97
1329.953	3252.85
1333.208	3260
1336.463	3251.56
1339.717	3173.69
1342.972	3284.51
1346.226	3281.18
1349.479	3197.21
1352.733	3152.25
1355.986	3201.11
1359.238	3169.67
1362.491	3166.46
1365.743	3175.08
1368.995	3179.1
1372.247	3187.38
1375.498	3211.5
1378.749	3241.86
1382	3195.67
1385.251	3271.62
1388.501	3245.53
1391.751	3209.2
1395	3188.48
1398.25	3226.39
1401.499	3220.24
1404.748	3126.68
1407.996	3077.3
1411.244	3065.24
1414.492	3041.54
1417.74	3014.5
1420.987	3032.88
1424.234	3080.86
1427.481	3083.21
1430.728	3140.92
1433.974	3117.82
1437.22	3146.49
1440.465	3154.69
1443.711	3132.59
1446.956	3171.43
1450.201	3182.15
1453.445	3228.4
1456.689	3189.02
1459.933	3209.59
1463.177	3232.38
1466.42	3200.32
1469.663	3177.44
1472.906	3144.93
1476.148	3274.1
1479.391	3180.28
1482.633	3165.04
1485.874	3160.84
1489.115	3122.77
1492.356	3157.05
1495.597	3121.44
1498.838	3135.1
1502.078	3086.45
1505.318	3012.73
1508.557	3060.46
1511.797	2984.77
1515.036	3128.88
1518.274	3115.64
1521.513	3103.2
1524.751	3137.24
1527.989	3133.39
1531.227	3142.33
1534.464	3107.82
1537.701	3161.18
1540.938	3186.46
1544.174	3151.25
1547.41	3160.36
1550.646	3196.82
1553.882	3215.21
1557.117	3265.85
1560.352	3288.16
1563.587	3239.25
1566.821	3191.57
1570.055	3251.41
1573.289	3209.66
1576.523	3305.19
1579.756	3300.1
1582.989	3311.17
1586.222	3277.18
1589.454	3324.77
1592.686	3290.74
1595.918	3309.2
1599.15	3286.99
1602.381	3394.98
1605.612	3318.43
1608.843	3416.58
1612.073	3319.06
1615.303	3299.72
1618.533	3283.91
1621.762	3287.82
1624.992	3293.41
1628.221	3251.6
1631.449	3235.83
1634.678	3331.4
1637.906	3271.86
1641.134	3326.36
1644.361	3271.35
1647.588	3258.6
1650.815	3271.05
1654.042	3267.92
1657.269	3302.65
1660.495	3244.24
1663.72	3217.92
1666.946	3201.17
1670.171	3104.35
1673.396	3084.85
1676.621	3085.67
1679.845	3133.79
1683.069	3169.73
1686.293	3224.27
1689.517	3176.95
1692.74	3077.64
1695.963	3099.87
1699.185	3168.95
1702.408	3125.49
1705.63	3181.59
1708.852	3183.1
1712.073	3156.8
1715.294	3114.1
1718.515	3171.96
1721.736	3107.66
1724.956	3102.01
1728.176	3133.2
1731.396	3153.57
1734.616	3147.89
1737.835	3158.93
1741.054	3155.94
1744.272	3154.63
1747.491	3166.11
1750.709	3253.75
1753.927	3130.31
1757.144	3199.74
1760.361	3236.12
1763.578	3254.07
1766.795	3183.9
1770.011	3211.17
1773.227	3272.82
1776.443	3294.67
1779.658	3336
1782.874	3287.83
1786.089	3248.3
1789.303	3252.74
1792.518	3265.32
1795.732	3254.77
1798.945	3254.85
1802.159	3318.5
1805.372	3178.22
1808.585	3148.51
1811.797	3152.72
1815.01	3234.55
1818.222	3231.94
1821.434	3137.81
1824.645	3235.63
1827.856	3190.24
1831.067	3232.69
1834.278	3186.11
1837.488	3168.1
1840.698	3343.54
1843.908	3249.53
1847.117	3208.49
1850.326	3042.44
1853.535	3180.1
1856.744	3282.4
1859.952	3169.11
1863.16	3170.1
1866.368	3202.7
1869.575	3324.69
1872.782	3214.7
1875.989	3164.74
1879.196	3293.79
1882.402	3288.49
1885.608	3336.97
1888.814	3200.87
1892.019	3081.87
1895.224	3134.34
1898.429	3135.57
1901.634	3103.89
1904.838	3090.64
1908.042	3134.84
1911.246	3137.99
1914.449	3029.75
1917.652	3044.78
1920.855	3031.83
1924.058	3111.18
1927.26	3137.37
1930.462	3175.8
1933.664	3187.9
1936.865	3122.26
1940.066	3113.73
1943.267	3063.76
1946.467	3086.46
1949.668	3120.22
1952.868	3187.81
1956.067	3149.32
1959.267	3068.01
1962.466	3101.26
1965.665	3085.35
1968.863	3085.16
1972.061	3114.15
1975.259	3122.53
1978.457	3204.8
1981.654	3157.94
1984.852	3155.7
1988.048	3064.53
1991.245	3083.65
1994.441	3166.18
1997.637	3181
2000.833	3164.51
2004.028	3206.19
2007.223	3248.22
2010.418	3210.2
2013.613	3184.79
2016.807	3126.69
2020.001	3151.04
2023.194	3220.94
2026.388	3186.85
2029.581	3136.59
2032.774	3166.21
2035.966	3161.03
2039.158	3077.13
2042.35	3114.47
2045.542	3043.07
2048.733	3167.92
2051.924	3226.3
2055.115	3269.59
2058.306	3186.05
2061.496	3248.73
2064.686	3326.61
2067.875	3251.49
2071.065	3284.63
2074.254	3318.06
2077.442	3269.93
2080.631	3369.13
2083.819	3209.99
2087.007	3180.08
2090.195	3134.91
2093.382	3191.92
2096.569	3171.05
2099.756	3112.42
2102.942	3113.34
2106.128	3101.51
2109.314	3100.99
2112.5	3036.84
2115.685	3022.74
2118.87	3036.4
2122.055	3107.37
2125.239	3053.7
2128.424	3010.87
2131.608	3162.97
2134.791	3146.78
2137.974	3228.3
2141.157	3209.67
2144.34	3136.48
2147.523	3180.54
2150.705	3179.61
2153.887	3173.18
2157.068	3097.11
2160.25	3126.99
2163.431	3182.28
2166.611	3098.26
2169.792	3109.35
2172.972	2984.61
2176.152	3097.35
2179.331	3143.51
2182.511	3099.77
2185.69	3131.79
2188.868	3117.82
2192.047	3197.19
2195.225	3157
2198.403	3107.79
2201.58	3111.11
2204.758	3112.77
2207.935	3204.46
2211.111	3061.97
2214.288	3037.7
2217.464	3084.8
2220.64	3082.48
2223.815	3140.91
2226.991	3049.38
2230.166	3073.32
2233.34	3086.82
2236.515	3126.03
2239.689	3207.3
2242.863	3144.86
2246.036	3205.69
2249.209	3227.1
2252.382	3281.5
2255.555	3241.69
2258.727	3164.8
2261.9	3215.99
2265.071	3206.28
2268.243	3214.67
2271.414	3127.46
2274.585	3064.56
2277.756	3142.01
2280.926	3099.24
2284.096	3153.84
2287.266	3032.76
2290.436	3098.43
2293.605	3136.15
2296.774	3155.15
2299.942	3199.24
2303.111	3218.83
2306.279	3260.96
2309.447	3252.15
2312.614	3230.3
2315.781	3241.63
2318.948	3203.09
2322.115	3244.38
2325.281	3149.95
2328.447	3185.23
2331.613	3169.84
2334.779	3120.38
2337.944	3131.8
2341.109	3121.5
2344.274	3098.1
2347.438	3061.72
2350.602	3092.57
2353.766	3116.95
2356.929	3099.83
2360.092	3144.94
2363.255	3076.09
2366.418	2969.5
2369.58	3133.19
2372.742	2830.19
2375.904	2866.35
2379.066	2831.44
2382.227	2878.9
2385.388	2843.32
2388.548	2742.17
2391.709	2811.64
2394.869	2779.81
2398.029	2930.6
2401.188	2964.13
2404.347	2863.82
2407.506	3066.74
2410.665	3091.66
2413.823	3120.27
2416.981	3049.84
2420.139	3099.66
2423.296	3156.56
2426.453	3131.44
2429.61	3164.09
2432.767	3053.05
2435.923	3100.34
2439.079	3003.19
2442.235	3084.4
2445.391	2990.97
2448.546	2998.15
2451.701	3070.15
2454.855	3008.89
2458.009	3091.96
2461.163	3110.37
2464.317	3050.7
2467.471	3095.11
2470.624	3135.74
2473.777	3170.09
2476.929	3165.21
2480.082	3191.84
2483.234	3156.97
2486.385	3049.88
2489.537	3048.05
2492.688	2976.69
2495.839	2998.37
2498.989	3000.74
2502.14	2979.94
2505.29	2948.68
2508.439	2976.76
2511.589	2880.3
2514.738	2914.34
2517.887	2943.06
2521.035	3074.15
2524.183	3074.53
2527.331	3043.01
2530.479	2990.69
2533.627	3011.37
