Data from C_2_HIR_IL_4N_Splice17_12-11-51-078.txt Node
Date: Sat Mar 14 12:11:51 EDT 2020
User: sa697716
Spectrometer: FLMS03696
Trigger mode: 0
Integration Time (sec): 3.180400E-1
Scans to average: 20
Electric dark correction enabled: true
Nonlinearity correction enabled: true
Boxcar width: 5
XAxis mode: Wavelengths
Number of Pixels in Spectrum: 2048
>>>>>Begin Spectral Data<<<<<
187.83	-256414.02
188.298	1992.99
188.766	1047.25
189.233	943.65
189.701	1325.49
190.169	1876.92
190.636	726.43
191.104	665.64
191.571	163.81
192.039	24.22
192.506	41.39
192.974	483.03
193.441	-616.61
193.908	-123.84
194.375	19.81
194.842	41.14
195.31	144.6
195.777	147.14
196.244	366.73
196.711	422.16
197.177	542.59
197.644	750.5
198.111	1271.25
198.578	1778.3
199.045	1415.03
199.511	2298.36
199.978	2712.15
200.445	2311.79
200.911	2598.27
201.378	2901.02
201.844	2649.8
202.31	4508.15
202.777	4722.75
203.243	2639.89
203.709	2513.03
204.176	2998.1
204.642	2471.87
205.108	2292.98
205.574	1871.72
206.04	1685.59
206.506	1583.08
206.972	1496.9
207.438	1445.98
207.903	1641.56
208.369	1438.08
208.835	1445.12
209.301	1500.19
209.766	1528.37
210.232	1526.2
210.697	1879.68
211.163	2299.55
211.628	3431.88
212.094	2881.18
212.559	3548.6
213.024	2227.36
213.49	2721.01
213.955	2651.76
214.42	2604.08
214.885	2431.45
215.35	2330.4
215.815	2244.36
216.28	2404.3
216.745	1948.87
217.21	2109.06
217.675	1929.77
218.14	2155.75
218.604	2390.93
219.069	2722.34
219.534	2861.66
219.998	3311
220.463	4002.75
220.927	4909.74
221.392	4604.99
221.856	4679.56
222.32	5880.8
222.785	7237.46
223.249	9108.52
223.713	10148.19
224.177	10127.98
224.642	12947
225.106	15913.57
225.57	17398.64
226.034	12971.54
226.497	19747.16
226.961	17833.76
227.425	20778
227.889	23073.52
228.353	23034.47
228.816	47558.16
229.28	45590
229.744	38493.99
230.207	23443.7
230.671	23035
231.134	38061.42
231.597	43904.17
232.061	43828.87
232.524	42680.01
232.987	29387.73
233.45	26461.85
233.914	23729.55
234.377	24262.56
234.84	22230.77
235.303	26205.86
235.766	29199.14
236.229	30244.45
236.691	19047.68
237.154	21425.84
237.617	16116.08
238.08	16506.42
238.542	19307.49
239.005	13797.63
239.468	13702.21
239.93	12915.58
240.393	11748.1
240.855	10338.28
241.317	10564.4
241.78	12858.97
242.242	13286.94
242.704	14375.99
243.166	12517.3
243.629	11382.03
244.091	13118.07
244.553	14390.45
245.015	15431.32
245.477	19935.86
245.939	29209.69
246.4	30975.71
246.862	30093.85
247.324	28387.63
247.786	31736.2
248.247	41623.05
248.709	42944.06
249.17	32155.49
249.632	30288.25
250.093	35213.02
250.555	30389.31
251.016	18532
251.477	17594.02
251.939	18947.28
252.4	19842.94
252.861	23580.91
253.322	21905.46
253.783	26048.33
254.244	33747.96
254.705	26562.22
255.166	23564.43
255.627	23227.43
256.088	32758.2
256.549	34777.68
257.009	29998.27
257.47	36451.56
257.931	29680.59
258.391	22237.12
258.852	22896.45
259.312	24012.74
259.773	29631.58
260.233	25036.29
260.694	21089.54
261.154	23886.81
261.614	19157.76
262.074	17119.7
262.534	17766.97
262.994	16724.67
263.455	22250.16
263.915	18756.42
264.374	17650.11
264.834	19299.15
265.294	21366.58
265.754	22119.4
266.214	20917.96
266.673	19576.23
267.133	24666.13
267.593	24428.17
268.052	29880.94
268.512	25971.99
268.971	31293.3
269.431	34274.9
269.89	30599.91
270.349	45833.23
270.809	51068.56
271.268	45895.99
271.727	102809.22
272.186	66562.9
272.645	49871.91
273.104	35907.3
273.563	51957.6
274.022	40788.37
274.481	34669.64
274.94	26716.3
275.399	19840.12
275.857	23066.86
276.316	31121.19
276.775	27670.17
277.233	27223.46
277.692	25498.09
278.15	28832.38
278.609	29660.19
279.067	27424.4
279.525	25442.23
279.984	32812.29
280.442	39392.63
280.9	38816.53
281.358	25547.34
281.816	23781.66
282.274	23273.94
282.732	24012.44
283.19	24112.25
283.648	20819.33
284.106	22153.31
284.564	22513.35
285.021	20881.29
285.479	15550.01
285.937	14144.91
286.394	12410.01
286.852	12788.8
287.309	13430.2
287.767	12986.41
288.224	12357.5
288.682	13527.28
289.139	14876.28
289.596	13615.45
290.053	14146.28
290.511	17854.88
290.968	21631.98
291.425	29343.88
291.882	24381.91
292.339	21197.42
292.796	21008.56
293.252	19769.86
293.709	15709.78
294.166	14041.36
294.623	15507.72
295.079	14843.08
295.536	14897.44
295.992	13494.62
296.449	13319.22
296.905	13843.83
297.362	13272.99
297.818	13947.91
298.274	14482.25
298.731	14740.14
299.187	14608.3
299.643	15675.26
300.099	18960.88
300.555	20768.45
301.011	17368.63
301.467	16761.8
301.923	19599.39
302.379	19153.96
302.835	18775.31
303.291	18757.4
303.746	21330.58
304.202	26905.85
304.658	27019.25
305.113	18180.93
305.569	17843.46
306.024	19008.18
306.479	18072.98
306.935	15230.54
307.39	16647.57
307.845	15432.64
308.301	15538.34
308.756	15133.79
309.211	14587.72
309.666	14936.78
310.121	18543.55
310.576	18797.31
311.031	18657.91
311.486	21370.92
311.94	21336.41
312.395	28502.77
312.85	53354.33
313.305	262325.72
313.759	1360872.09
314.214	98618.01
314.668	78252.58
315.123	65906.15
315.577	23634.52
316.032	21050.53
316.486	26404.6
316.94	20844.13
317.394	14509.08
317.849	11281.82
318.303	10675.91
318.757	10059.44
319.211	11120.54
319.665	9724.72
320.119	9835.21
320.572	14098.06
321.026	13167.34
321.48	10950.84
321.934	11939.81
322.387	11957.75
322.841	12923.82
323.295	11615.18
323.748	13384.67
324.202	13598.78
324.655	16310.93
325.108	22786.19
325.562	16107.31
326.015	19114.65
326.468	14459.75
326.921	16209.19
327.374	15100.22
327.827	15736.24
328.28	17826.31
328.733	11935.46
329.186	10472.49
329.639	10013.07
330.092	8448.67
330.545	8047.67
330.997	8132.37
331.45	8901.58
331.903	10420.03
332.355	17930.5
332.808	17430
333.26	14378.36
333.713	15630.23
334.165	15740.36
334.617	20976.18
335.069	16937.95
335.522	30677.54
335.974	34034.58
336.426	31082.98
336.878	21545.63
337.33	10945.52
337.782	10701.73
338.234	13389.35
338.686	16006.24
339.137	18981.44
339.589	17876.76
340.041	14047.05
340.493	12055.73
340.944	12310.57
341.396	13253.12
341.847	11136.57
342.299	13144.02
342.75	16065.53
343.201	14038.03
343.653	16172.48
344.104	19837.88
344.555	15619.22
345.006	24219.81
345.457	18520.56
345.908	14721.65
346.359	13834.27
346.81	11253.71
347.261	11859
347.712	11644.55
348.163	12483.14
348.613	12617.6
349.064	11795.95
349.515	10311.05
349.965	10573.91
350.416	12715.9
350.866	13926.4
351.317	15737.33
351.767	26046.95
352.217	32830.31
352.668	27218.63
353.118	24967.73
353.568	24035.47
354.018	19017.32
354.468	20035.83
354.918	14335.81
355.368	12573.46
355.818	17796.73
356.268	51160.51
356.718	214327.94
357.168	53442.18
357.617	26786.73
358.067	29736.07
358.517	27874.56
358.966	32643
359.416	36697.99
359.865	39781.94
360.315	47359
360.764	22078.04
361.213	12394.9
361.663	11714.56
362.112	14434.19
362.561	23326.5
363.01	17578.87
363.459	14797.24
363.908	16002.37
364.357	13612.7
364.806	22895.38
365.255	15696.49
365.703	14351.09
366.152	14334.48
366.601	11646.25
367.05	9457.69
367.498	8584.49
367.947	8982.79
368.395	9331.45
368.844	8263.03
369.292	9904.17
369.74	6856.79
370.189	10486.98
370.637	12298.35
371.085	10599.18
371.533	12908.45
371.981	12406.48
372.429	11834.71
372.877	12277.42
373.325	10250.33
373.773	10406.43
374.221	9256.9
374.669	11461.3
375.116	9920.77
375.564	9993.18
376.012	11165.37
376.459	9156.54
376.907	10936.64
377.354	13181.98
377.801	12323.04
378.249	14178.76
378.696	18098.33
379.143	21951.47
379.591	23372.22
380.038	39517.99
380.485	28513.92
380.932	30702.28
381.379	28137.22
381.826	20749.72
382.273	14750.24
382.72	12849.36
383.166	12525.03
383.613	8117.27
384.06	7278.78
384.506	8416
384.953	6153.41
385.4	6184.79
385.846	5420.34
386.292	5270.55
386.739	5129.62
387.185	5056.79
387.631	5049.83
388.078	4893.46
388.524	5239.22
388.97	4831.79
389.416	4028
389.862	4278.41
390.308	4051.64
390.754	4102.32
391.2	4440.74
391.645	4537.05
392.091	4360.88
392.537	4208.98
392.983	4203.13
393.428	4137.56
393.874	4445.74
394.319	4466.94
394.765	4244.62
395.21	4349.73
395.655	4086.57
396.101	3828.64
396.546	3457.61
396.991	3468
397.436	3219.97
397.881	3110.93
398.326	2937.97
398.771	2773.47
399.216	2419.13
399.661	2180.6
400.106	2182.42
400.551	2234.7
400.995	2005.11
401.44	1983.3
401.885	1866.46
402.329	1889.75
402.774	1812.16
403.218	1763.23
403.663	1697.86
404.107	1746.7
404.551	1760
404.995	1606.14
405.44	1545.57
405.884	1567.72
406.328	1517.25
406.772	1510.55
407.216	1375.59
407.66	1326.25
408.104	1253.23
408.547	1175.47
408.991	1137.55
409.435	1092.04
409.879	1080.96
410.322	1066.49
410.766	1035.7
411.209	989.32
411.653	953.31
412.096	937.06
412.54	939.7
412.983	934.92
413.426	939.13
413.869	938.63
414.312	924.13
414.756	892.01
415.199	852.42
415.642	826.44
416.085	830.73
416.527	823.84
416.97	837.19
417.413	795.49
417.856	785.85
418.298	778.04
418.741	771.08
419.184	768.27
419.626	796.09
420.069	794.8
420.511	799.18
420.953	779.54
421.396	772.45
421.838	752.03
422.28	769.1
422.722	775.62
423.164	785.01
423.606	774.82
424.048	772.46
424.49	738.15
424.932	735.19
425.374	725.88
425.816	736.41
426.258	750.11
426.699	755.53
427.141	744.83
427.582	755.28
428.024	751.56
428.465	743.8
428.907	722.8
429.348	711.45
429.789	714.83
430.231	699.88
430.672	710.12
431.113	693.25
431.554	683.31
431.995	665.42
432.436	643.87
432.877	632.51
433.318	623.9
433.759	624.65
434.2	626.41
434.64	617.72
435.081	621.95
435.522	589.47
435.962	569.95
436.403	559.65
436.843	569.13
437.284	554.97
437.724	538.09
438.164	539.74
438.604	529
439.045	510.25
439.485	490.71
439.925	477.64
440.365	465.82
440.805	458.41
441.245	452.33
441.685	436.81
442.125	434.01
442.564	436.93
443.004	427.2
443.444	425.69
443.883	426.66
444.323	423.47
444.762	423.84
445.202	430.12
445.641	440.98
446.081	440.2
446.52	443.74
446.959	440.96
447.398	431.95
447.837	427.74
448.276	422.42
448.716	428.06
449.154	432.21
449.593	422.64
450.032	422.03
450.471	411.08
450.91	410.95
451.349	411.36
451.787	408.26
452.226	413.83
452.664	412.9
453.103	413.19
453.541	410.43
453.98	410.05
454.418	413.78
454.856	408.43
455.295	409.67
455.733	412.78
456.171	413.85
456.609	417.1
457.047	416.98
457.485	424.89
457.923	426.26
458.361	420.48
458.798	422.49
459.236	421.74
459.674	423.11
460.111	425.71
460.549	422.36
460.987	420.57
461.424	416.89
461.862	415.72
462.299	408.58
462.736	408.3
463.173	410.29
463.611	407.68
464.048	406.38
464.485	410.88
464.922	407.16
465.359	403.67
465.796	403.48
466.233	402.55
466.67	399.5
467.106	400.1
467.543	395.79
467.98	391.4
468.416	379.87
468.853	377.89
469.29	366.06
469.726	361.06
470.162	352.35
470.599	344.2
471.035	340.58
471.471	332.45
471.907	329.13
472.344	326.81
472.78	326.26
473.216	329.7
473.652	324.63
474.088	323.9
474.523	322.41
474.959	324.89
475.395	322.08
475.831	319.77
476.266	320.89
476.702	319.14
477.138	315.75
477.573	314.97
478.008	312.6
478.444	314.45
478.879	317.17
479.314	319.18
479.75	318.94
480.185	318.94
480.62	321.16
481.055	322.85
481.49	325.93
481.925	330.14
482.36	337.27
482.795	347.01
483.229	356.09
483.664	363.17
484.099	364.38
484.534	370.89
484.968	376.39
485.403	377.79
485.837	376.95
486.271	377.59
486.706	377.76
487.14	373.44
487.574	368.71
488.009	365.75
488.443	363.48
488.877	368.65
489.311	370.44
489.745	376.04
490.179	381.55
490.613	391.22
491.046	394.94
491.48	399.62
491.914	400.9
492.348	405.77
492.781	410.27
493.215	413.89
493.648	416.23
494.082	421.64
494.515	424.08
494.948	431.28
495.382	436.41
495.815	442.37
496.248	449.55
496.681	461.64
497.114	471.45
497.547	481.58
497.98	494.93
498.413	503.93
498.846	515.26
499.279	525.79
499.711	532.73
500.144	539
500.577	551.45
501.009	563.86
501.442	576.11
501.874	583.51
502.306	590.76
502.739	601.98
503.171	618.42
503.603	626.3
504.036	638.18
504.468	648.59
504.9	663.79
505.332	675.36
505.764	685.15
506.196	697.14
506.627	714.84
507.059	732.75
507.491	745.44
507.923	750.59
508.354	769.87
508.786	786.11
509.217	807.65
509.649	826.6
510.08	849.43
510.512	871.03
510.943	890.75
511.374	907.37
511.805	930.49
512.237	954.12
512.668	987.7
513.099	1017.83
513.53	1047.81
513.961	1072.83
514.391	1107.22
514.822	1142.89
515.253	1181.53
515.684	1210.62
516.114	1243.8
516.545	1269.59
516.975	1299.36
517.406	1322.31
517.836	1329.56
518.267	1341.66
518.697	1363.32
519.127	1372.62
519.558	1384.09
519.988	1391.21
520.418	1405.08
520.848	1425.6
521.278	1436.78
521.708	1456.72
522.138	1472.52
522.567	1505.43
522.997	1532.72
523.427	1551.31
523.857	1570.29
524.286	1582.34
524.716	1600.3
525.145	1620.27
525.575	1632.79
526.004	1649.72
526.433	1646.24
526.863	1648.18
527.292	1641.09
527.721	1647.82
528.15	1654.51
528.579	1656.13
529.008	1667.86
529.437	1690.36
529.866	1704.3
530.295	1722.24
530.724	1735.42
531.152	1762.82
531.581	1777.87
532.01	1795.81
532.438	1804.19
532.867	1820.05
533.295	1839.27
533.723	1847.56
534.152	1846.65
534.58	1847.72
535.008	1832.97
535.436	1836.06
535.865	1844.74
536.293	1859.42
536.721	1875.67
537.149	1902.69
537.576	1905.46
538.004	1918.82
538.432	1926.84
538.86	1925.95
539.287	1934.09
539.715	1947.43
540.143	1950.52
540.57	1947.73
540.998	1944.73
541.425	1921.92
541.852	1900.37
542.28	1898.29
542.707	1881.31
543.134	1866.6
543.561	1863.17
543.988	1855.3
544.415	1855.29
544.842	1849.42
545.269	1840.89
545.696	1843.06
546.123	1856.26
546.549	1846.19
546.976	1833.28
547.403	1832.94
547.829	1834.66
548.256	1835.38
548.682	1832.02
549.108	1824.19
549.535	1823.13
549.961	1824.31
550.387	1810.79
550.813	1804.15
551.24	1809.56
551.666	1810.17
552.092	1800.57
552.518	1794.16
552.943	1787.34
553.369	1793.1
553.795	1797.96
554.221	1799.33
554.646	1796.69
555.072	1806.27
555.498	1810.88
555.923	1819.94
556.349	1834.92
556.774	1843.94
557.199	1845.26
557.625	1851.78
558.05	1846.53
558.475	1856.55
558.9	1854.86
559.325	1846.48
559.75	1841
560.175	1834.38
560.6	1827.36
561.025	1824.28
561.449	1823.87
561.874	1828.5
562.299	1831.62
562.723	1838.9
563.148	1828.42
563.572	1831.55
563.997	1840.82
564.421	1844.83
564.846	1844.06
565.27	1847.46
565.694	1845.13
566.118	1857.2
566.542	1863.21
566.966	1857.01
567.39	1851.19
567.814	1840.74
568.238	1839.91
568.662	1844.31
569.086	1845.7
569.509	1852.88
569.933	1836.51
570.357	1828.27
570.78	1805.06
571.204	1791.78
571.627	1779.71
572.05	1777.11
572.474	1774.68
572.897	1761.27
573.32	1752.36
573.743	1741.4
574.166	1722.04
574.589	1721.71
575.012	1713.02
575.435	1712.34
575.858	1702.27
576.281	1689.8
576.704	1673.24
577.126	1660.92
577.549	1648.23
577.972	1638.19
578.394	1627.25
578.817	1618.35
579.239	1597.82
579.661	1583.83
580.084	1565.31
580.506	1549.61
580.928	1544.86
581.35	1533.19
581.772	1527.31
582.194	1513.12
582.616	1499.03
583.038	1483.83
583.46	1472.74
583.882	1467.89
584.303	1470.14
584.725	1465.42
585.147	1466.67
585.568	1476.1
585.99	1486.19
586.411	1491.32
586.833	1505.17
587.254	1506.05
587.675	1518.01
588.096	1529.69
588.518	1525.07
588.939	1508.23
589.36	1504.71
589.781	1494.94
590.202	1465.66
590.623	1455.88
591.043	1452.73
591.464	1439.27
591.885	1434.74
592.305	1429.26
592.726	1416.12
593.147	1416.62
593.567	1411.08
593.987	1403.8
594.408	1398.54
594.828	1397.25
595.248	1391.28
595.669	1373.89
596.089	1367.12
596.509	1359.94
596.929	1346.37
597.349	1346.91
597.769	1335.77
598.189	1329.27
598.608	1329.93
599.028	1331.6
599.448	1330.44
599.867	1318.15
600.287	1312.88
600.706	1308.14
601.126	1298.55
601.545	1296.85
601.965	1294.07
602.384	1288.9
602.803	1290.81
603.222	1286.1
603.641	1277.98
604.061	1274.39
604.48	1269.52
604.898	1276.55
605.317	1280.59
605.736	1281.78
606.155	1278.33
606.574	1268.3
606.992	1272.65
607.411	1267.57
607.829	1258.82
608.248	1254.77
608.666	1251.07
609.085	1250.25
609.503	1240.46
609.921	1233.05
610.339	1233.13
610.758	1231.15
611.176	1226.49
611.594	1216.34
612.012	1211.02
612.43	1212.48
612.847	1217.46
613.265	1216.76
613.683	1218.76
614.101	1219.16
614.518	1213.34
614.936	1203.18
615.353	1188.24
615.771	1183.68
616.188	1183.01
616.606	1179.21
617.023	1170.99
617.44	1155.92
617.857	1147.94
618.274	1137.7
618.691	1129.84
619.108	1120.86
619.525	1113.8
619.942	1118.18
620.359	1119.35
620.776	1113.31
621.192	1108.76
621.609	1106.76
622.026	1112.84
622.442	1118.27
622.859	1121.11
623.275	1114.61
623.691	1118.44
624.108	1128.3
624.524	1140.64
624.94	1140.72
625.356	1149.09
625.772	1159.88
626.188	1169.52
626.604	1170.1
627.02	1166.49
627.436	1165.35
627.852	1170.76
628.268	1183.11
628.683	1174.49
629.099	1167.38
629.514	1162.98
629.93	1166.61
630.345	1169.12
630.761	1164.09
631.176	1166.15
631.591	1159.06
632.007	1152.15
632.422	1149.7
632.837	1137.36
633.252	1133.57
633.667	1122.63
634.082	1112.26
634.497	1097.85
634.911	1079.46
635.326	1074.41
635.741	1056.77
636.155	1045.22
636.57	1043
636.984	1039.58
637.399	1037.38
637.813	1033.38
638.228	1028.56
638.642	1027.55
639.056	1014.5
639.47	1011.34
639.884	999.44
640.298	989.44
640.712	984
641.126	968.26
641.54	956.28
641.954	947.17
642.368	932.4
642.781	921.06
643.195	901.29
643.609	897.32
644.022	886.85
644.436	879.07
644.849	865.44
645.262	851.49
645.676	849.93
646.089	842.28
646.502	825.66
646.915	817.93
647.328	801.8
647.741	797.22
648.154	783.24
648.567	778.01
648.98	765.07
649.393	762.02
649.805	756.42
650.218	747.3
650.631	732.6
651.043	725.83
651.456	719.04
651.868	715.86
652.28	725.3
652.693	733.24
653.105	735.36
653.517	740.58
653.929	739.87
654.341	741.42
654.753	730.12
655.165	732.37
655.577	729.61
655.989	723.9
656.401	715.46
656.813	688.3
657.224	671.3
657.636	647.65
658.047	632.41
658.459	614.67
658.87	603.91
659.282	592.45
659.693	574.99
660.104	560.6
660.515	547.52
660.926	542.18
661.338	535.72
661.749	527.66
662.159	518.35
662.57	510.09
662.981	502.99
663.392	495.4
663.803	493.52
664.213	486.88
664.624	480.39
665.035	477.55
665.445	466.06
665.855	459.33
666.266	451.74
666.676	446.88
667.086	438.86
667.497	436.83
667.907	430.85
668.317	423.3
668.727	422.13
669.137	419.34
669.547	416.91
669.956	416.79
670.366	415.88
670.776	416.17
671.186	418.14
671.595	420.06
672.005	420.59
672.414	420.18
672.824	420.13
673.233	420.9
673.642	423.18
674.052	425.52
674.461	427.89
674.87	430.77
675.279	430.54
675.688	430.62
676.097	432.36
676.506	432.53
676.915	441.95
677.323	444.1
677.732	444.56
678.141	446.38
678.549	442.35
678.958	443.48
679.366	445.94
679.775	449.6
680.183	459.65
680.592	465.93
681	471.78
681.408	470.77
681.816	478.94
682.224	488.24
682.632	499.89
683.04	523.61
683.448	543.75
683.856	569.21
684.264	599.9
684.671	627.33
685.079	662.78
685.487	702.28
685.894	755.53
686.302	803.22
686.709	845.61
687.116	894.88
687.524	938.53
687.931	981.28
688.338	1020.55
688.745	1055.04
689.152	1095.9
689.559	1144.71
689.966	1193.67
690.373	1225.41
690.78	1273.89
691.187	1340.99
691.593	1394.92
692	1445.35
692.407	1512.61
692.813	1591.04
693.22	1657.03
693.626	1723.81
694.032	1779.44
694.439	1858.13
694.845	1922.2
695.251	2001.46
695.657	2070.29
696.063	2171.46
696.469	2246.54
696.875	2316.61
697.281	2360.03
697.687	2410.64
698.093	2454.1
698.498	2531.67
698.904	2591.89
699.31	2680.97
699.715	2743.73
700.12	2836.57
700.526	2856.54
700.931	2927.8
701.337	2980.73
701.742	3015.06
702.147	3098.26
702.552	3130.28
702.957	3188.19
703.362	3208.99
703.767	3237.18
704.172	3278.35
704.577	3232.98
704.981	3279.4
705.386	3295.89
705.791	3289.19
706.195	3362.39
706.6	3373.91
707.004	3451.26
707.408	3422.18
707.813	3449.09
708.217	3437.37
708.621	3437.65
709.025	3534.31
709.43	3535.42
709.834	3593.42
710.237	3662.62
710.641	3648.47
711.045	3668.26
711.449	3662.99
711.853	3690.3
712.256	3732.22
712.66	3770.95
713.064	3844.07
713.467	3883.9
713.87	3994.65
714.274	4039.98
714.677	4145.13
715.08	4304.04
715.484	4470.57
715.887	4668.64
716.29	4865.35
716.693	5069.24
717.096	5304.44
717.499	5432.91
717.901	5456.84
718.304	5480.67
718.707	5506.86
719.109	5408.04
719.512	5375.49
719.915	5239.44
720.317	5182.66
720.719	5224.85
721.122	5192.95
721.524	5141.25
721.926	5102.57
722.328	5200.72
722.731	5192.61
723.133	5216.23
723.535	5403.8
723.937	5424
724.338	5477.74
724.74	5518.2
725.142	5451.59
725.544	5454.04
725.945	5478.81
726.347	5476.78
726.748	5468.45
727.15	5482.05
727.551	5445.7
727.952	5418.22
728.354	5390.05
728.755	5389.81
729.156	5348.3
729.557	5337.88
729.958	5217.38
730.359	5164.81
730.76	5143.99
731.161	5082.16
731.562	5054.48
731.962	5056.09
732.363	4991.8
732.763	4927
733.164	4959.23
733.564	4893.76
733.965	4803.28
734.365	4768.9
734.766	4794.38
735.166	4754.18
735.566	4702.29
735.966	4675.21
736.366	4669.41
736.766	4609.45
737.166	4638.88
737.566	4597.29
737.966	4572.82
738.365	4608.15
738.765	4601.21
739.165	4527.09
739.564	4501.82
739.964	4543.46
740.363	4501.67
740.763	4497.42
741.162	4485.67
741.561	4453.34
741.96	4411.43
742.36	4428.21
742.759	4432.95
743.158	4467.31
743.557	4483.03
743.955	4521.17
744.354	4480.31
744.753	4531.36
745.152	4490.77
745.55	4541.29
745.949	4535.92
746.348	4532.61
746.746	4547.27
747.144	4505.8
747.543	4485.49
747.941	4530.84
748.339	4463.97
748.737	4454.57
749.136	4445.9
749.534	4510.87
749.932	4487.14
750.33	4510.12
750.727	4565.7
751.125	4543.65
751.523	4529.4
751.921	4570.12
752.318	4538.63
752.716	4591.9
753.113	4603.77
753.511	4630.64
753.908	4630.29
754.305	4613.12
754.703	4672.72
755.1	4731.92
755.497	4790.39
755.894	4977.18
756.291	5150.01
756.688	5465.27
757.085	5888.97
757.482	6483.54
757.878	7129.91
758.275	7718.7
758.672	8524.83
759.068	9182.37
759.465	10113.65
759.861	11318.33
760.258	12713.57
760.654	13438.75
761.05	13330.9
761.447	12719.51
761.843	11838.35
762.239	10933.84
762.635	10514.58
763.031	10120.66
763.427	9553.46
763.822	8962.16
764.218	8370.41
764.614	7606.57
765.01	7092.48
765.405	6763.32
765.801	6514.87
766.196	6196.25
766.592	6017.07
766.987	5719.89
767.382	5514.92
767.778	5427.55
768.173	5300.93
768.568	5231.02
768.963	5110.36
769.358	5128.51
769.753	5079.68
770.148	4997.36
770.542	4992.07
770.937	4959.72
771.332	5040.75
771.726	5055.91
772.121	4995.38
772.515	5046.38
772.91	5031.89
773.304	5096.94
773.699	5034.02
774.093	5088.21
774.487	5139.85
774.881	5182.29
775.275	5179.16
775.669	5140.93
776.063	5185.23
776.457	5220.67
776.851	5149.27
777.245	5144.54
777.638	5174.56
778.032	5281.58
778.425	5244.52
778.819	5283.79
779.212	5245.39
779.606	5204.68
779.999	5224.88
780.392	5207.72
780.786	5284.47
781.179	5305.78
781.572	5344.69
781.965	5360.16
782.358	5306.35
782.751	5357.94
783.143	5313.57
783.536	5382.68
783.929	5424.73
784.322	5533.4
784.714	5565.47
785.107	5561.71
785.499	5629.95
785.891	5608.26
786.284	5588.04
786.676	5721.87
787.068	5706.8
787.46	5756.35
787.852	5775.47
788.245	5857.4
788.636	5883.91
789.028	5946.59
789.42	5983.73
789.812	5991.9
790.204	6086.55
790.595	6183.26
790.987	5998.01
791.378	6018.39
791.77	6143.68
792.161	6274.4
792.553	6329.7
792.944	6224.03
793.335	6158.99
793.726	6231.9
794.117	6317.36
794.508	6447.03
794.899	6421.6
795.29	6552.7
795.681	6611.88
796.072	6476.89
796.463	6298.28
796.853	6306.53
797.244	6456.3
797.634	6487.12
798.025	6480.03
798.415	6491.31
798.806	6573.77
799.196	6650.31
799.586	6700.67
799.976	6662.29
800.366	6880.04
800.756	7107
801.146	7069.14
801.536	7096.63
801.926	7166.15
802.316	7192.55
802.706	7262.97
803.095	7142.01
803.485	7240.84
803.874	7280.72
804.264	7526.68
804.653	7497.94
805.043	7637.15
805.432	7738.72
805.821	7740.91
806.21	7766.4
806.599	7876.04
806.988	7913.36
807.377	8022.35
807.766	8140.36
808.155	8402.87
808.544	8149.82
808.933	8164.29
809.321	8142.1
809.71	8422.64
810.098	8569.05
810.487	8998.48
810.875	9453.53
811.264	9477.31
811.652	9747.96
812.04	9886.1
812.428	10040.7
812.816	10761.85
813.204	11151.3
813.592	11668.36
813.98	11982.15
814.368	11897.38
814.756	12352.82
815.144	12279.39
815.531	12714.54
815.919	12648.02
816.306	12935.97
816.694	12641.1
817.081	12691.07
817.469	13019.21
817.856	13018.55
818.243	13275.15
818.63	13643.17
819.017	13243.44
819.404	13301.32
819.791	13660.39
820.178	14237.79
820.565	14477.37
820.952	15373.27
821.339	14910.18
821.725	15094.12
822.112	14396.32
822.498	14358.32
822.885	14485.02
823.271	14399.74
823.657	14799.04
824.044	14804.63
824.43	14876.27
824.816	14848.77
825.202	14432.96
825.588	15396.93
825.974	15408.36
826.36	15899.5
826.746	15935.46
827.132	16274.3
827.517	16250.32
827.903	15502.89
828.289	15545.57
828.674	14811.29
829.06	14708.02
829.445	15083.8
829.83	15424.08
830.216	15877.28
830.601	16228.37
830.986	15838.92
831.371	15707.92
831.756	16235.52
832.141	15833.86
832.526	15830.25
832.911	16104.84
833.295	16004.36
833.68	16455.32
834.065	15872.19
834.449	15004.34
834.834	14931.36
835.218	14926.5
835.603	15252.52
835.987	15057.89
836.371	15848.46
836.755	15751.81
837.139	16125.48
837.524	16351.91
837.908	16174.11
838.291	16229.64
838.675	16294.25
839.059	16492.84
839.443	16490.31
839.827	16269.95
840.21	16721.48
840.594	16583.75
840.977	16776.48
841.361	16760.47
841.744	17112.68
842.127	16970.49
842.511	17201.84
842.894	17767.08
843.277	18120.3
843.66	18629.95
844.043	18707.36
844.426	17940.29
844.809	17649.37
845.191	17683.81
845.574	17245.71
845.957	16892.46
846.339	16784.08
846.722	16281.56
847.104	16348.64
847.487	16193.84
847.869	16201.99
848.252	16468.89
848.634	16783.09
849.016	17027.56
849.398	17135.18
849.78	17936.37
850.162	17951.76
850.544	18345.61
850.926	18938.43
851.307	18847.81
851.689	19104.38
852.071	19536.81
852.452	19839.96
852.834	19815.38
853.215	20182.3
853.597	20333.87
853.978	20609.15
854.359	21032.36
854.741	20101.21
855.122	20010.46
855.503	19743.36
855.884	19864.72
856.265	19801.78
856.646	19910.61
857.026	19544.27
857.407	19490.43
857.788	19642.06
858.169	19918.91
858.549	19125.33
858.93	19705.77
859.31	19759.81
859.69	19958.01
860.071	19582.06
860.451	19379.33
860.831	18675.4
861.211	19772.98
861.591	20287.17
861.971	20253.14
862.351	20428.09
862.731	20794.63
863.111	21052.97
863.491	21356.49
863.87	22177.37
864.25	22517.25
864.629	22135.04
865.009	22628.92
865.388	23427.41
865.768	25100.67
866.147	25013.58
866.526	23628.57
866.905	23899.29
867.284	25230.63
867.663	23961.44
868.042	22973.23
868.421	22894.03
868.8	23281.58
869.179	23508.74
869.558	22147.2
869.936	20422.42
870.315	20785.23
870.693	21288.08
871.072	22966.07
871.45	21879.59
871.828	22163.36
872.207	23299.43
872.585	22944.01
872.963	23563.65
873.341	22754.26
873.719	22482.08
874.097	22201.34
874.475	22630.48
874.853	23156.64
875.23	22191.21
875.608	23119.96
875.986	25008.32
876.363	23914.47
876.741	24637.77
877.118	24024.12
877.495	25200.58
877.873	25623.75
878.25	26975.18
878.627	25860.27
879.004	26214.95
879.381	26087.04
879.758	25408.09
880.135	23649.91
880.512	25013.43
880.889	24356.32
881.265	24099.16
881.642	23899.87
882.019	24293.55
882.395	23803.55
882.772	24752.01
883.148	23678.43
883.524	23583.3
883.901	23439.82
884.277	23779.14
884.653	23631.08
885.029	24301.22
885.405	26929.31
885.781	26714.51
886.157	25621.95
886.532	25920.1
886.908	25901.77
887.284	28798.69
887.659	29727.66
888.035	30653.85
888.411	31456.78
888.786	31864.96
889.161	32983.34
889.537	32358.62
889.912	33390.86
890.287	33356.47
890.662	34222.85
891.037	33599.48
891.412	31326.45
891.787	31018.22
892.162	29934.07
892.536	30640.96
892.911	29487.16
893.286	28852.8
893.66	27682.03
894.035	28389.64
894.409	30913.38
894.784	29674.56
895.158	30183.22
895.532	31978.37
895.906	32863.76
896.281	33637.02
896.655	33103.93
897.029	37836.99
897.402	39413.82
897.776	43889.01
898.15	43734.41
898.524	43260.58
898.898	43827.81
899.271	49045.53
899.645	42493.42
900.018	40802.7
900.392	42306.58
900.765	42638.09
901.138	39441.19
901.511	38838.38
901.884	35659.74
902.258	32886.88
902.631	33976.88
903.003	39089.86
903.376	35276.06
903.749	39532.38
904.122	42322.45
904.495	46608.23
904.867	47180.65
905.24	40970.32
905.612	38151.39
905.985	39007.08
906.357	40811.24
906.729	38946.71
907.102	33266.91
907.474	31969.6
907.846	32184.05
908.218	31746.73
908.59	28044.91
908.962	27117.32
909.334	29195.57
909.705	30659.73
910.077	29765.31
910.449	30970.5
910.82	31847.89
911.192	35069.49
911.563	36451.03
911.935	38994.18
912.306	39054.56
912.677	40330.09
913.048	39945.85
913.419	43339.75
913.79	43591.22
914.161	46760.49
914.532	44686.75
914.903	41083.37
915.274	38995.8
915.645	38420.54
916.015	33819.62
916.386	32245.41
916.756	34333.1
917.127	35389.66
917.497	31636.04
917.868	34419.52
918.238	32705.31
918.608	33674.7
918.978	34364.89
919.348	36401.47
919.718	37641.05
920.088	36275.03
920.458	37687.47
920.828	39652.81
921.198	37619.83
921.567	40167.06
921.937	31104.2
922.306	31377.29
922.676	33814.79
923.045	28202.6
923.415	26784.72
923.784	24374.16
924.153	25050.73
924.522	25030.98
924.891	23525.8
925.26	25197.41
925.629	24602.03
925.998	28299.22
926.367	27634.87
926.736	26305.35
927.104	31316.22
927.473	33671.99
927.842	40678.75
928.21	40309.68
928.578	42369.5
928.947	40063.25
929.315	40273.71
929.683	47212.5
930.051	47551.99
930.42	55213.12
930.788	47204.46
931.156	46837.47
931.523	43899.37
931.891	40568.69
932.259	38953.68
932.627	45102.75
932.994	63827.44
933.362	52784.08
933.729	45873.4
934.097	43938.84
934.464	37158.28
934.831	42881.64
935.199	42305.64
935.566	41027.8
935.933	41529.98
936.3	50264.95
936.667	39146.83
937.034	35296.72
937.401	34911.96
937.767	30098.68
938.134	26770.58
938.501	37778.13
938.867	40262.34
939.234	68022.26
939.6	58017.67
939.967	63994.16
940.333	42817.73
940.699	36463.02
941.065	29243.59
941.431	38298.71
941.798	36945.3
942.163	48499.64
942.529	30299.13
942.895	27871.51
943.261	18024.16
943.627	23655.86
943.992	20709.89
944.358	20770.28
944.723	20852.26
945.089	20336.45
945.454	18806.96
945.82	20085.3
946.185	19328.84
946.55	22399.42
946.915	20094.08
947.28	23602.4
947.645	20783.02
948.01	19168.13
948.375	19962.82
948.74	23904.52
949.104	27892.85
949.469	40271.84
949.834	71233.87
950.198	67434.71
950.562	40400.35
950.927	33638.39
951.291	40476.23
951.655	34443.44
952.02	32361.04
952.384	24499.45
952.748	21343.77
953.112	20820.05
953.476	18114.88
953.839	16742.51
954.203	16583.71
954.567	20739.86
954.931	32678.45
955.294	27969.27
955.658	28100.74
956.021	47806.58
956.385	81009.3
956.748	119600.16
957.111	185530.12
957.474	208309.89
957.837	234707.21
958.2	177686.84
958.563	63936.24
958.926	43220.02
959.289	65600.11
959.652	73442.69
960.015	55128.88
960.377	79105.69
960.74	90230.4
961.102	155925.59
961.465	167299.63
961.827	89494.59
962.189	171778.33
962.552	119032.62
962.914	95444.04
963.276	61921.24
963.638	51170.64
964	50691.31
964.362	34274.05
964.724	33157.54
965.085	23616.94
965.447	19369.44
965.809	22099.43
966.17	22133.08
966.532	23977.04
966.893	22030.34
967.255	20025.88
967.616	23630.13
967.977	18900.51
968.338	20645.9
968.699	16935.92
969.061	16928.65
969.421	17031.73
969.782	19095.51
970.143	16134.63
970.504	16698.72
970.865	18942.03
971.225	19377.25
971.586	18970.7
971.946	27083.29
972.307	23503.21
972.667	30752.93
973.027	31661.75
973.388	38423.42
973.748	26122.32
974.108	28406.74
974.468	38460.54
974.828	29641.42
975.188	22812.31
975.548	20952.61
975.907	17577.42
976.267	19740.69
976.627	16598.94
976.986	17224.18
977.346	16417.82
977.705	15803.17
978.064	14400.21
978.424	11990.27
978.783	12420.79
979.142	14182.35
979.501	13555.8
979.86	14321.19
980.219	13793.65
980.578	17774.71
980.937	19888.37
981.296	17746.4
981.654	18257.2
982.013	28401.23
982.371	36813.25
982.73	34365.46
983.088	38879.94
983.447	41594.09
983.805	59438.65
984.163	124099.65
984.521	137570.32
984.879	201755.84
985.237	-327840.78
985.595	315960.18
985.953	78561.22
986.311	45337.78
986.669	26302.72
987.026	22699.22
987.384	30467.32
987.741	31505.99
988.099	22502.58
988.456	17961.45
988.814	16826.78
989.171	14610.47
989.528	14421.02
989.885	15203.14
990.242	12036.37
990.599	15004.98
990.956	12269.65
991.313	8593.8
991.67	7058.58
992.027	7486.61
992.383	6641.85
992.74	5825.72
993.096	6109.41
993.453	6329.93
993.809	6564.67
994.165	8734.16
994.522	8010.18
994.878	8837.02
995.234	11079.27
995.59	10911.08
995.946	10325.8
996.302	11786.08
996.658	13636.5
997.013	15034.39
997.369	17853.09
997.725	22843.64
998.08	14799.95
998.436	22807.35
998.791	31446.04
999.147	31406.23
999.502	34302.73
999.857	24948.66
1000.212	40636.44
1000.567	57706.11
1000.922	33333.07
1001.277	21162.55
1001.632	15696.31
1001.987	20276.38
1002.342	14555.92
1002.696	11634.33
1003.051	9254.47
1003.406	11187.05
1003.76	11119.54
1004.114	10981.54
1004.469	9239.29
1004.823	7641.95
1005.177	8252.92
1005.531	6544.82
1005.885	5794.91
1006.239	6520.86
1006.593	8173.96
1006.947	10963.11
1007.301	8243
1007.655	8992.34
1008.008	6607.36
1008.362	7425.26
1008.715	10581.86
1009.069	9588.33
1009.422	14476.8
1009.776	29081.58
1010.129	19309.92
1010.482	16147.1
1010.835	13667.29
1011.188	28484.18
1011.541	26873.02
1011.894	-164406.27
1012.247	484758.15
1012.6	32972.98
1012.952	20826.39
1013.305	10708.61
1013.657	7728.37
1014.01	7345.24
1014.362	6080.08
1014.715	5402.52
1015.067	4711.43
1015.419	4600.62
1015.771	4061.39
1016.123	3603.54
1016.475	3715.61
1016.827	3965.11
1017.179	4262.22
1017.531	4294.2
1017.883	4371.12
1018.234	4216.38
1018.586	5327.86
1018.938	5635.72
1019.289	7812.65
1019.64	8984.73
1019.992	8375.25
1020.343	7680.18
1020.694	6069.88
1021.045	5363.05
1021.396	6091.16
1021.747	6560
1022.098	7876.73
1022.449	5709.78
1022.8	5303.27
1023.151	3649.05
1023.501	3223.97
1023.852	3500.42
1024.202	3619.74
1024.553	3970.63
1024.903	3866.98
1025.253	3327.02
1025.604	2984.71
1025.954	3687.61
1026.304	4503.15
1026.654	5225.83
1027.004	7711.87
1027.354	12475.68
1027.703	11722.8
1028.053	15354.73
1028.403	22497.39
1028.753	32739.7
1029.102	44516.95
1029.452	229103.1
1029.801	9912.85
1030.15	6378.52
1030.499	5413.42
897.758	2353.15
901.051	2295.69
904.343	2330.59
907.636	2337.54
910.928	2398.95
914.22	2312.85
917.511	2317.27
920.803	2372.87
924.094	2378.22
927.384	2370.15
930.675	2336.49
933.965	2296.9
937.255	2318.67
940.544	2279.9
943.834	2264.49
947.123	2200.09
950.411	2293.45
953.7	2272.78
956.988	2247.85
960.276	2188.97
963.563	2249.24
966.851	2254.78
970.138	2301.24
973.424	2299.11
976.711	2258.42
979.997	2328.98
983.283	2375.24
986.568	2296.84
989.853	2297.71
993.138	2325.81
996.423	2408.52
999.708	2357.23
1002.992	2392.84
1006.275	2285.35
1009.559	2301.05
1012.842	2404
1016.125	2348.82
1019.408	2327.91
1022.69	2395.05
1025.972	2421.88
1029.254	2397.04
1032.536	2346.77
1035.817	2366.95
1039.098	2330.44
1042.379	2412.1
1045.659	2432.29
1048.939	2373.69
1052.219	2386.63
1055.498	2391.29
1058.778	2381.06
1062.057	2361.92
1065.335	2385.57
1068.614	2398.17
1071.892	2388.05
1075.17	2451.37
1078.447	2446.1
1081.724	2442.07
1085.001	2472.66
1088.278	2449.38
1091.554	2454.14
1094.83	2452.18
1098.106	2482.04
1101.382	2516.98
1104.657	2519.8
1107.932	2515.6
1111.206	2489.51
1114.481	2445.69
1117.755	2445.12
1121.029	2432.74
1124.302	2488.41
1127.575	2452.42
1130.848	2444.93
1134.121	2411.98
1137.393	2369.52
1140.665	2432.16
1143.937	2408.73
1147.208	2363.86
1150.48	2414.99
1153.75	2403.23
1157.021	2417.97
1160.291	2393.07
1163.561	2440.72
1166.831	2418.99
1170.101	2446.3
1173.37	2414.91
1176.639	2364.08
1179.907	2417.42
1183.176	2431.3
1186.444	2433.73
1189.711	2460.49
1192.979	2477.88
1196.246	2433.42
1199.513	2447.84
1202.78	2448.59
1206.046	2459.09
1209.312	2482.33
1212.578	2504.69
1215.843	2463.37
1219.108	2433.53
1222.373	2458.52
1225.638	2427.48
1228.902	2416.93
1232.166	2378.51
1235.43	2365.86
1238.693	2387.39
1241.956	2381.54
1245.219	2427.05
1248.482	2410.67
1251.744	2409.35
1255.006	2541.43
1258.268	2491.54
1261.529	2442.87
1264.79	2446.11
1268.051	2545.31
1271.312	2554.35
1274.572	2526.94
1277.832	2513.38
1281.092	2500.6
1284.351	2485.6
1287.61	2466.72
1290.869	2395.61
1294.128	2384.26
1297.386	2450.75
1300.644	2438.36
1303.902	2450.78
1307.159	2318.69
1310.416	2369.47
1313.673	2397.4
1316.93	2389.68
1320.186	2424.39
1323.442	2461.8
1326.697	2456.11
1329.953	2438.02
1333.208	2464.17
1336.463	2444.77
1339.717	2395.37
1342.972	2512.01
1346.226	2486.87
1349.479	2431.37
1352.733	2404.52
1355.986	2420.35
1359.238	2400.55
1362.491	2404.95
1365.743	2407.56
1368.995	2399.85
1372.247	2414.91
1375.498	2434.45
1378.749	2461.98
1382	2418.4
1385.251	2462.06
1388.501	2419.17
1391.751	2410.69
1395	2379.62
1398.25	2408.52
1401.499	2422.36
1404.748	2366.58
1407.996	2347.12
1411.244	2336.47
1414.492	2322
1417.74	2301.3
1420.987	2306.6
1424.234	2363.17
1427.481	2335.65
1430.728	2391.13
1433.974	2366.14
1437.22	2371.28
1440.465	2368.24
1443.711	2351.89
1446.956	2380.47
1450.201	2359.77
1453.445	2402.09
1456.689	2385.13
1459.933	2398.14
1463.177	2433.46
1466.42	2407.67
1469.663	2388.45
1472.906	2394.4
1476.148	2450.97
1479.391	2442.09
1482.633	2413.13
1485.874	2430.42
1489.115	2428.39
1492.356	2421.69
1495.597	2401.96
1498.838	2397.24
1502.078	2375.48
1505.318	2340.94
1508.557	2377.92
1511.797	2369.01
1515.036	2397.94
1518.274	2382.73
1521.513	2347.61
1524.751	2361.02
1527.989	2380.49
1531.227	2393.88
1534.464	2401.12
1537.701	2404.89
1540.938	2419.42
1544.174	2371.5
1547.41	2365.29
1550.646	2403.77
1553.882	2446.33
1557.117	2498.05
1560.352	2511.81
1563.587	2473.04
1566.821	2438.17
1570.055	2460.52
1573.289	2438.42
1576.523	2503.31
1579.756	2514.61
1582.989	2534.44
1586.222	2496.4
1589.454	2528.03
1592.686	2508.43
1595.918	2535.22
1599.15	2527.22
1602.381	2584.26
1605.612	2555.73
1608.843	2649.93
1612.073	2570.45
1615.303	2553.41
1618.533	2549.57
1621.762	2549.65
1624.992	2529.48
1628.221	2526.27
1631.449	2511.12
1634.678	2550.19
1637.906	2513.63
1641.134	2544.95
1644.361	2507.01
1647.588	2494.78
1650.815	2515.85
1654.042	2485.83
1657.269	2515.4
1660.495	2484.27
1663.72	2486.14
1666.946	2454.58
1670.171	2417.52
1673.396	2390.49
1676.621	2374.15
1679.845	2381.01
1683.069	2394.76
1686.293	2429.4
1689.517	2413.47
1692.74	2356.43
1695.963	2380.23
1699.185	2408.86
1702.408	2382.57
1705.63	2418.74
1708.852	2432.67
1712.073	2406.7
1715.294	2406.69
1718.515	2456.55
1721.736	2411.12
1724.956	2396.41
1728.176	2419.41
1731.396	2441.48
1734.616	2427.9
1737.835	2461.57
1741.054	2434.53
1744.272	2426.84
1747.491	2460.39
1750.709	2495.88
1753.927	2426.61
1757.144	2461.92
1760.361	2510.8
1763.578	2493.39
1766.795	2439.75
1770.011	2438.04
1773.227	2467.45
1776.443	2504.6
1779.658	2547.88
1782.874	2492.11
1786.089	2476.02
1789.303	2479.53
1792.518	2477.92
1795.732	2465.43
1798.945	2478.63
1802.159	2523.36
1805.372	2447.89
1808.585	2439.38
1811.797	2440.6
1815.01	2472.49
1818.222	2485.94
1821.434	2457.83
1824.645	2503.36
1827.856	2505.27
1831.067	2540.93
1834.278	2484.93
1837.488	2469.18
1840.698	2599.84
1843.908	2537.4
1847.117	2505.86
1850.326	2417.86
1853.535	2492.77
1856.744	2517.99
1859.952	2438.86
1863.16	2437.62
1866.368	2451.09
1869.575	2559.76
1872.782	2447.51
1875.989	2386.47
1879.196	2444.39
1882.402	2434.27
1885.608	2471.24
1888.814	2397.02
1892.019	2303.89
1895.224	2355.15
1898.429	2327.5
1901.634	2310.38
1904.838	2284.87
1908.042	2336.62
1911.246	2344.62
1914.449	2299.02
1917.652	2286.77
1920.855	2268.46
1924.058	2305.06
1927.26	2345.49
1930.462	2370.68
1933.664	2403.73
1936.865	2346.18
1940.066	2359.53
1943.267	2303.71
1946.467	2316.65
1949.668	2336.55
1952.868	2405.62
1956.067	2390.9
1959.267	2328.16
1962.466	2352.48
1965.665	2333.84
1968.863	2330.99
1972.061	2335.03
1975.259	2332.19
1978.457	2408.69
1981.654	2369.3
1984.852	2372.88
1988.048	2316.68
1991.245	2311.46
1994.441	2395.3
1997.637	2362.95
2000.833	2349.21
2004.028	2382.95
2007.223	2446.4
2010.418	2428.7
2013.613	2385.74
2016.807	2370.12
2020.001	2369.88
2023.194	2399.45
2026.388	2380.41
2029.581	2325.87
2032.774	2385.46
2035.966	2392.55
2039.158	2332.96
2042.35	2352.73
2045.542	2282.3
2048.733	2370.66
2051.924	2374.82
2055.115	2396.16
2058.306	2353.86
2061.496	2409.88
2064.686	2464.52
2067.875	2375.49
2071.065	2382.48
2074.254	2404.21
2077.442	2357.9
2080.631	2441.61
2083.819	2357.11
2087.007	2348.68
2090.195	2328.32
2093.382	2351.65
2096.569	2334.05
2099.756	2294.2
2102.942	2332.35
2106.128	2341.55
2109.314	2332.77
2112.5	2309.39
2115.685	2281.69
2118.87	2291.15
2122.055	2351.45
2125.239	2323.55
2128.424	2306.44
2131.608	2382.8
2134.791	2367.04
2137.974	2411.57
2141.157	2398.5
2144.34	2362.37
2147.523	2364.43
2150.705	2384.92
2153.887	2357.37
2157.068	2320.84
2160.25	2313.32
2163.431	2340.82
2166.611	2299.85
2169.792	2318.86
2172.972	2224.29
2176.152	2286.92
2179.331	2317.79
2182.511	2310.54
2185.69	2334.65
2188.868	2335.15
2192.047	2378.49
2195.225	2382.45
2198.403	2334.21
2201.58	2325.71
2204.758	2315.59
2207.935	2394.42
2211.111	2300.16
2214.288	2285.62
2217.464	2321.46
2220.64	2286.28
2223.815	2336.61
2226.991	2265.81
2230.166	2282.87
2233.34	2319
2236.515	2334.08
2239.689	2400.74
2242.863	2348.83
2246.036	2402.2
2249.209	2395.25
2252.382	2419.32
2255.555	2417.9
2258.727	2364.41
2261.9	2394.39
2265.071	2387.42
2268.243	2386.48
2271.414	2331.85
2274.585	2305.6
2277.756	2367.92
2280.926	2323.59
2284.096	2355.3
2287.266	2278.53
2290.436	2327.9
2293.605	2354.31
2296.774	2388.76
2299.942	2397
2303.111	2415.58
2306.279	2464.69
2309.447	2449.22
2312.614	2421.99
2315.781	2447.05
2318.948	2420.33
2322.115	2457.57
2325.281	2358.22
2328.447	2367.33
2331.613	2341.87
2334.779	2328.59
2337.944	2325.89
2341.109	2323.75
2344.274	2314.07
2347.438	2282.24
2350.602	2301.88
2353.766	2317.32
2356.929	2304.8
2360.092	2346.19
2363.255	2307.96
2366.418	2261.62
2369.58	2344.59
2372.742	2188.24
2375.904	2192.21
2379.066	2173.06
2382.227	2200.95
2385.388	2164.83
2388.548	2106.23
2391.709	2151.75
2394.869	2135.14
2398.029	2208.62
2401.188	2210.47
2404.347	2163.58
2407.506	2263.79
2410.665	2296.59
2413.823	2291.31
2416.981	2262.22
2420.139	2285.17
2423.296	2327.74
2426.453	2301.12
2429.61	2324.12
2432.767	2279.82
2435.923	2318.26
2439.079	2275.35
2442.235	2313.17
2445.391	2253.31
2448.546	2288.34
2451.701	2327.53
2454.855	2312.49
2458.009	2350.53
2461.163	2344.67
2464.317	2311.32
2467.471	2341.93
2470.624	2375.14
2473.777	2353.32
2476.929	2369.87
2480.082	2390.75
2483.234	2361.52
2486.385	2308.38
2489.537	2303.71
2492.688	2280.42
2495.839	2301.59
2498.989	2312.82
2502.14	2295.79
2505.29	2284.6
2508.439	2308.15
2511.589	2242.52
2514.738	2249.02
2517.887	2275.44
2521.035	2345.81
2524.183	2315.23
2527.331	2300.85
2530.479	2283.58
2533.627	2291.02
