Data from C_2_DIV_OH_2N_Splice17_12-22-54-843.txt Node
Date: Sat Mar 14 12:22:54 EDT 2020
User: sa697716
Spectrometer: FLMS03696
Trigger mode: 0
Integration Time (sec): 3.180400E-1
Scans to average: 20
Electric dark correction enabled: true
Nonlinearity correction enabled: true
Boxcar width: 5
XAxis mode: Wavelengths
Number of Pixels in Spectrum: 2048
>>>>>Begin Spectral Data<<<<<
187.83	-304641.02
188.298	2323.7
188.766	1252.91
189.233	1161.09
189.701	1598.29
190.169	2242.87
190.636	858.27
191.104	708.08
191.571	177.67
192.039	-6.37
192.506	6.11
192.974	508.36
193.441	-644.92
193.908	-140.49
194.375	18.85
194.842	80.6
195.31	213.86
195.777	189.73
196.244	393.75
196.711	459.61
197.177	555.01
197.644	780.5
198.111	1329.22
198.578	1826.89
199.045	1457.08
199.511	2340.7
199.978	2699.38
200.445	2269.03
200.911	2519.9
201.378	2802.97
201.844	2546.84
202.31	4331.29
202.777	4512.3
203.243	2515.22
203.709	2412.04
204.176	2892.29
204.642	2401.17
205.108	2263.35
205.574	1850.84
206.04	1674.27
206.506	1557.46
206.972	1461.39
207.438	1419.43
207.903	1609.83
208.369	1408.28
208.835	1412.63
209.301	1466.62
209.766	1504.53
210.232	1482.61
210.697	1854.38
211.163	2284.88
211.628	3481.87
212.094	2913.31
212.559	3571.77
213.024	2227.5
213.49	2712.9
213.955	2627.93
214.42	2563.26
214.885	2371.53
215.35	2279.81
215.815	2213.92
216.28	2360.87
216.745	1923.72
217.21	2102.93
217.675	1924.48
218.14	2181.55
218.604	2456.42
219.069	2835.61
219.534	3003.84
219.998	3530.37
220.463	4310.17
220.927	5316.08
221.392	5051.29
221.856	5142.91
222.32	6512.07
222.785	8121.99
223.249	10288.51
223.713	11539.73
224.177	11572.7
224.642	14942.44
225.106	18409.29
225.57	20201.79
226.034	15061.64
226.497	22943.25
226.961	20747.96
227.425	24244.63
227.889	26918.21
228.353	26945.54
228.816	55765.09
229.28	53423.75
229.744	45100.2
230.207	27464.38
230.671	27048.01
231.134	44848.02
231.597	51785.02
232.061	51862
232.524	50565.97
232.987	34906.27
233.45	31479.94
233.914	28243.75
234.377	29001.31
234.84	26596.43
235.303	31401.4
235.766	35104.75
236.229	36305.68
236.691	22942.52
237.154	25832.06
237.617	19486.13
238.08	19973.49
238.542	23404.31
239.005	16752.22
239.468	16645.68
239.93	15684.5
240.393	14280.15
240.855	12543.93
241.317	12866.21
241.78	15654.68
242.242	16195.15
242.704	17499.49
243.166	15265.68
243.629	13873.25
244.091	16007.67
244.553	17566.09
245.015	18919.5
245.477	24492.01
245.939	35948.07
246.4	38230.01
246.862	37248.1
247.324	35172.74
247.786	39432.92
248.247	51704.45
248.709	53377.11
249.17	39983.44
249.632	37729.6
250.093	43800.99
250.555	37913.76
251.016	23172.1
251.477	22017.72
251.939	23785.09
252.4	24994.66
252.861	29764
253.322	27742.64
253.783	33118.15
254.244	42988.16
254.705	33931.37
255.166	30202.17
255.627	29745.14
256.088	41984.69
256.549	44579.69
257.009	38388.2
257.47	46542.81
257.931	37894.86
258.391	28396.72
258.852	29269.56
259.312	30699.08
259.773	37908.37
260.233	32049.8
260.694	27041.36
261.154	30667.62
261.614	24622.11
262.074	22039.27
262.534	22915.28
262.994	21619.7
263.455	28790.25
263.915	24271.81
264.374	22879.86
264.834	25018.2
265.294	27730.86
265.754	28723.27
266.214	27212.62
266.673	25489.72
267.133	32164.99
267.593	31942.85
268.052	39077.08
268.512	34059.64
268.971	41058.77
269.431	45026.04
269.89	40310.04
270.349	60442.3
270.809	67456.48
271.268	60602.77
271.727	135928.19
272.186	87989.56
272.645	65966.41
273.104	47601.49
273.563	68836.14
274.022	54166.21
274.481	46079.22
274.94	35506.93
275.399	26389.55
275.857	30722
276.316	41613.99
276.775	37072.8
277.233	36553.16
277.692	34212.31
278.15	38701.25
278.609	39842.46
279.067	36862.28
279.525	34234.66
279.984	44168.94
280.442	53062.22
280.9	52302.38
281.358	34352.61
281.816	32014.65
282.274	31335.74
282.732	32383.66
283.19	32505.21
283.648	28034.71
284.106	29869.77
284.564	30376.59
285.021	28163.67
285.479	20974.21
285.937	19079.08
286.394	16736.3
286.852	17219.23
287.309	18110.19
287.767	17512.68
288.224	16667.85
288.682	18287.39
289.139	20049.08
289.596	18335.9
290.053	19058.11
290.511	24107.37
290.968	29219.87
291.425	39677.24
291.882	33052.16
292.339	28723.4
292.796	28455.06
293.252	26800.71
293.709	21304.17
294.166	19130.17
294.623	21163.13
295.079	20327.09
295.536	20400.67
295.992	18530.47
296.449	18313.1
296.905	19013.42
297.362	18256.5
297.818	19244.18
298.274	20003.87
298.731	20389.51
299.187	20174.83
299.643	21673.33
300.099	26221.6
300.555	28747.07
301.011	24007.27
301.467	23155.76
301.923	27099.22
302.379	26469.44
302.835	25988.91
303.291	25993.42
303.746	29584.51
304.202	37372.97
304.658	37527.16
305.113	25260.55
305.569	24777.29
306.024	26447.5
306.479	25188.51
306.935	21241.18
307.39	23174.17
307.845	21392.72
308.301	21556.6
308.756	20989.06
309.211	20205.59
309.666	20693.65
310.121	25676.95
310.576	26071.04
311.031	25872.99
311.486	29635.76
311.94	29647.34
312.395	39692
312.85	74603.94
313.305	366380.79
313.759	1898904.65
314.214	137725.12
314.668	109245.24
315.123	91857.26
315.577	32951.29
316.032	29291.5
316.486	36707.3
316.94	28945.3
317.394	20122.07
317.849	15654.08
318.303	14831.09
318.757	13988.39
319.211	15482.11
319.665	13563.02
320.119	13732.43
320.572	19677.11
321.026	18405.19
321.48	15333.62
321.934	16733.72
322.387	16816.78
322.841	18166.8
323.295	16319.32
323.748	18816.32
324.202	19109.89
324.655	22936.23
325.108	32063.58
325.562	22680.51
326.015	26976.75
326.468	20411.45
326.921	22835.88
327.374	21288.02
327.827	22191.27
328.28	25125.86
328.733	16842.45
329.186	14793.32
329.639	14108.83
330.092	11907.69
330.545	11345.48
330.997	11450.44
331.45	12519.41
331.903	14679.66
332.355	25267.1
332.808	24595.6
333.26	20291.93
333.713	22065.06
334.165	22263.55
334.617	29721.21
335.069	24022.38
335.522	43469.72
335.974	48128.92
336.426	43969.95
336.878	30496.93
337.33	15461.66
337.782	15077.87
338.234	18936.92
338.686	22617.75
339.137	26779.43
339.589	25227.08
340.041	19816.61
340.493	17056.62
340.944	17486.67
341.396	18846.85
341.847	15819.96
342.299	18702.73
342.75	22845.75
343.201	19978.87
343.653	22978.6
344.104	28263.4
344.555	22284.15
345.006	34592.92
345.457	26471.69
345.908	21050.3
346.359	19845.81
346.81	16201.07
347.261	17071.45
347.712	16832.03
348.163	18033.97
348.613	18281.57
349.064	17101.54
349.515	14982.16
349.965	15393.71
350.416	18566.23
350.866	20403.23
351.317	23061.57
351.767	38248.6
352.217	48360.64
352.668	40062.6
353.118	36733.18
353.568	35467.35
354.018	28041.14
354.468	29559.42
354.918	21184.54
355.368	18542.63
355.818	26169.13
356.268	75312.88
356.718	314971.06
357.168	78346.52
357.617	39400.37
358.067	43900.52
358.517	41172.03
358.966	48320.13
359.416	54332.76
359.865	58862.7
360.315	70097.52
360.764	32781.32
361.213	18362.7
361.663	17398.89
362.112	21514.88
362.561	34796.9
363.01	26266.83
363.459	22140.95
363.908	24027.17
364.357	20411.32
364.806	34489.74
365.255	23740.53
365.703	21750.44
366.152	21842.65
366.601	17754.73
367.05	14454.39
367.498	13164.76
367.947	13789.3
368.395	14355.12
368.844	12710.52
369.292	15345.17
369.74	10627.27
370.189	16320.44
370.637	19172.66
371.085	16581.2
371.533	20220.33
371.981	19513.16
372.429	18625.73
372.877	19443.39
373.325	16343.26
373.773	16723.82
374.221	14925.99
374.669	18577.53
375.116	16128.2
375.564	16362.21
376.012	18367.08
376.459	15236.07
376.907	18294.13
377.354	22204.31
377.801	20789.32
378.249	23954.07
378.696	30720.53
379.143	37478.42
379.591	40244.06
380.038	68486.7
380.485	49715.8
380.932	54044.85
381.379	49712.51
381.826	36813.4
382.273	26382.83
382.72	23234.56
383.166	22848.01
383.613	14952.48
384.06	13586.98
384.506	15850.13
384.953	11744.71
385.4	11941.76
385.846	10554.96
386.292	10393.75
386.739	10281.92
387.185	10269.26
387.631	10378.21
388.078	10172.96
388.524	10990.32
388.97	10244.71
389.416	8622.98
389.862	9261.95
390.308	8858.05
390.754	9074.94
391.2	9946.89
391.645	10273.46
392.091	9892.7
392.537	9632.64
392.983	9715.84
393.428	9611.96
393.874	10385.08
394.319	10485.41
394.765	10000.89
395.21	10364.01
395.655	9778.4
396.101	9201.39
396.546	8350.07
396.991	8487.93
397.436	7935.48
397.881	7719.98
398.326	7369.72
398.771	6996.31
399.216	6159.62
399.661	5576.92
400.106	5570.52
400.551	5725.83
400.995	5157.36
401.44	5111.56
401.885	4814.86
402.329	4879.33
402.774	4692.11
403.218	4532.68
403.663	4380.51
404.107	4503.27
404.551	4534.3
404.995	4166.29
405.44	4022.37
405.884	4096.06
406.328	3978.41
406.772	3974.16
407.216	3621.53
407.66	3502.91
408.104	3337.33
408.547	3124.05
408.991	3022.15
409.435	2918.09
409.879	2876.17
410.322	2838.92
410.766	2737.27
411.209	2600.49
411.653	2492.41
412.096	2438.32
412.54	2440.27
412.983	2423.84
413.426	2430.48
413.869	2435.7
414.312	2383.41
414.756	2297.04
415.199	2190.24
415.642	2123.93
416.085	2124.01
416.527	2111.39
416.97	2141.91
417.413	2027.26
417.856	2006.56
418.298	1984.09
418.741	1968.54
419.184	1964.87
419.626	2051.21
420.069	2051.51
420.511	2059.99
420.953	2015.46
421.396	1996.16
421.838	1948.78
422.28	1993.33
422.722	1998.55
423.164	2028.85
423.606	1990.74
424.048	1987.03
424.49	1883.2
424.932	1875.49
425.374	1850.28
425.816	1879.23
426.258	1914.1
426.699	1934.8
427.141	1901.79
427.582	1933.11
428.024	1922.85
428.465	1913.73
428.907	1864.62
429.348	1839.45
429.789	1830.24
430.231	1788.74
430.672	1812.57
431.113	1766.94
431.554	1737.99
431.995	1696.09
432.436	1631.29
432.877	1588.36
433.318	1556.28
433.759	1548.05
434.2	1547.44
434.64	1531.72
435.081	1536.89
435.522	1454.45
435.962	1401.14
436.403	1367.74
436.843	1387.26
437.284	1360.22
437.724	1327.23
438.164	1333.91
438.604	1306.67
439.045	1256.32
439.485	1207.42
439.925	1183.29
440.365	1157.83
440.805	1143.42
441.245	1131.7
441.685	1091.1
442.125	1084.75
442.564	1093.56
443.004	1071.61
443.444	1070.03
443.883	1075.29
444.323	1069.94
444.762	1074.44
445.202	1089.01
445.641	1109.13
446.081	1107.15
446.52	1117.35
446.959	1106.32
447.398	1080.3
447.837	1067.1
448.276	1050.14
448.716	1059.73
449.154	1071.95
449.593	1046.88
450.032	1043.46
450.471	1028.03
450.91	1029.26
451.349	1029.42
451.787	1027.83
452.226	1045.03
452.664	1047.56
453.103	1049.37
453.541	1050.84
453.98	1047.88
454.418	1057.18
454.856	1042.86
455.295	1041.38
455.733	1049.44
456.171	1055.59
456.609	1058.73
457.047	1060.27
457.485	1075.99
457.923	1080.39
458.361	1066.22
458.798	1071.53
459.236	1070.09
459.674	1079.39
460.111	1085.78
460.549	1076.65
460.987	1075
461.424	1072.37
461.862	1067.12
462.299	1050.94
462.736	1049.48
463.173	1054.99
463.611	1040.9
464.048	1037.49
464.485	1045.92
464.922	1036.76
465.359	1032.07
465.796	1013.52
466.233	1005.77
466.67	995.78
467.106	991.85
467.543	983.22
467.98	970.25
468.416	947.8
468.853	940.97
469.29	913.26
469.726	903.89
470.162	879.53
470.599	871.88
471.035	863.49
471.471	842.65
471.907	839.64
472.344	832.86
472.78	833.59
473.216	844.55
473.652	834.49
474.088	831.71
474.523	828.16
474.959	835.89
475.395	827.97
475.831	823.02
476.266	827.02
476.702	825.26
477.138	816.57
477.573	814.91
478.008	810.61
478.444	813
478.879	820.35
479.314	823.9
479.75	823.37
480.185	827.99
480.62	835.75
481.055	841.66
481.49	847.98
481.925	861.27
482.36	875.4
482.795	902.07
483.229	928.78
483.664	949.71
484.099	956.09
484.534	972.37
484.968	983.03
485.403	988.94
485.837	991.03
486.271	991.49
486.706	994.52
487.14	987.27
487.574	973.75
488.009	967.67
488.443	961.45
488.877	973.13
489.311	980.51
489.745	995.28
490.179	1005.63
490.613	1024.29
491.046	1035.57
491.48	1047.28
491.914	1052.3
492.348	1063.35
492.781	1072.83
493.215	1079.09
493.648	1085.07
494.082	1096.66
494.515	1099.88
494.948	1116.64
495.382	1129.56
495.815	1140.22
496.248	1151.69
496.681	1174.55
497.114	1195.93
497.547	1215.4
497.98	1238.24
498.413	1249.73
498.846	1266.76
499.279	1283.42
499.711	1292.02
500.144	1296.98
500.577	1315.27
501.009	1334.91
501.442	1350.9
501.874	1352.71
502.306	1355.85
502.739	1367.09
503.171	1391.41
503.603	1395.42
504.036	1409.9
504.468	1418.59
504.9	1436.01
505.332	1445.78
505.764	1449.26
506.196	1458.41
506.627	1479.51
507.059	1497.53
507.491	1509.64
507.923	1501.36
508.354	1520.19
508.786	1530.69
509.217	1551.96
509.649	1568.9
510.08	1590.53
510.512	1608.37
510.943	1623.33
511.374	1633.17
511.805	1655.69
512.237	1676.03
512.668	1715.97
513.099	1746.49
513.53	1778.1
513.961	1798.06
514.391	1832.14
514.822	1868.62
515.253	1909.99
515.684	1935.96
516.114	1964.93
516.545	1981.22
516.975	2006.1
517.406	2017.65
517.836	2008.81
518.267	2004.24
518.697	2015.54
519.127	2009.53
519.558	2006.81
519.988	1999.17
520.418	2000.15
520.848	2011.18
521.278	2011.42
521.708	2008.76
522.138	2013.61
522.567	2044.17
522.997	2065.29
523.427	2073.52
523.857	2083.68
524.286	2087.2
524.716	2096.48
525.145	2110.16
525.575	2113.26
526.004	2122.27
526.433	2114.01
526.863	2106.76
527.292	2084.61
527.721	2084.58
528.15	2084.85
528.579	2079.42
529.008	2084.36
529.437	2106.37
529.866	2116.93
530.295	2132.79
530.724	2141.2
531.152	2169.28
531.581	2180.03
532.01	2196.68
532.438	2202.75
532.867	2216.14
533.295	2235.29
533.723	2239.59
534.152	2232.74
534.58	2230.61
535.008	2210.08
535.436	2211.28
535.865	2219.46
536.293	2237.1
536.721	2255.71
537.149	2285.15
537.576	2287.12
538.004	2301.13
538.432	2311.19
538.86	2308.13
539.287	2315.74
539.715	2331.67
540.143	2333.93
540.57	2327.77
540.998	2321.37
541.425	2291.38
541.852	2264.76
542.28	2262.14
542.707	2240.12
543.134	2220.77
543.561	2216.04
543.988	2205.64
544.415	2203.37
544.842	2196.14
545.269	2186.7
545.696	2188.29
546.123	2204.03
546.549	2189.94
546.976	2173.8
547.403	2173.56
547.829	2175.6
548.256	2176.87
548.682	2172.56
549.108	2162.48
549.535	2161.53
549.961	2163.18
550.387	2146.28
550.813	2139.25
551.24	2147.34
551.666	2148.87
552.092	2137.73
552.518	2130.49
552.943	2123.57
553.369	2132.14
553.795	2139.19
554.221	2141.11
554.646	2138.6
555.072	2153.62
555.498	2160.85
555.923	2172.29
556.349	2192.39
556.774	2204.56
557.199	2209.83
557.625	2220.87
558.05	2216.9
558.475	2233.11
558.9	2236.5
559.325	2229.66
559.75	2225.01
560.175	2220.98
560.6	2218.09
561.025	2220.25
561.449	2226.04
561.874	2236.52
562.299	2244.66
562.723	2258.99
563.148	2252.81
563.572	2261.29
563.997	2282.48
564.421	2296.47
564.846	2304.17
565.27	2316.56
565.694	2319.92
566.118	2342.13
566.542	2359.26
566.966	2359.99
567.39	2362.98
567.814	2357.14
568.238	2366.85
568.662	2380.82
569.086	2392.82
569.509	2412.15
569.933	2400.51
570.357	2401.18
570.78	2383.36
571.204	2374.94
571.627	2371.24
572.05	2376.83
572.474	2384.63
572.897	2374.9
573.32	2371.87
573.743	2366.54
574.166	2348.44
574.589	2356.6
575.012	2353.24
575.435	2359.18
575.858	2354.19
576.281	2344.51
576.704	2330.37
577.126	2321.19
577.549	2314.12
577.972	2306.87
578.394	2298.57
578.817	2294.69
579.239	2275.22
579.661	2261.82
580.084	2243.91
580.506	2230.67
580.928	2230.13
581.35	2218.65
581.772	2217.06
582.194	2202.83
582.616	2190.84
583.038	2175.28
583.46	2165.72
583.882	2164.92
584.303	2175.96
584.725	2175.78
585.147	2180.78
585.568	2201.41
585.99	2223.26
586.411	2236.51
586.833	2261.54
587.254	2267.21
587.675	2292.68
588.096	2314.63
588.518	2309.67
588.939	2288.43
589.36	2287.97
589.781	2279.56
590.202	2237.96
590.623	2228.31
591.043	2228.05
591.464	2212.63
591.885	2210.41
592.305	2202.47
592.726	2185.07
593.147	2189.92
593.567	2185.18
593.987	2176.22
594.408	2169.76
594.828	2171.19
595.248	2163.24
595.669	2137
596.089	2127.53
596.509	2119.11
596.929	2101.54
597.349	2103.34
597.769	2090.31
598.189	2082.59
598.608	2085.94
599.028	2089.58
599.448	2091.3
599.867	2075.29
600.287	2072.29
600.706	2067.67
601.126	2054.9
601.545	2056.38
601.965	2057.14
602.384	2051.32
602.803	2057.2
603.222	2053.03
603.641	2047.17
604.061	2045.4
604.48	2042.52
604.898	2058.03
605.317	2070.75
605.736	2077.41
606.155	2075.68
606.574	2066.81
606.992	2079.63
607.411	2078.2
607.829	2071.65
608.248	2073.73
608.666	2075.19
609.085	2080.65
609.503	2073
609.921	2067.74
610.339	2078.45
610.758	2085.13
611.176	2084.14
611.594	2077.13
612.012	2077.94
612.43	2089
612.847	2103.93
613.265	2111.97
613.683	2124.71
614.101	2132.96
614.518	2134.64
614.936	2124.19
615.353	2106.83
615.771	2106.91
616.188	2112.51
616.606	2112.49
617.023	2105.92
617.44	2087.88
617.857	2082.11
618.274	2073.58
618.691	2067.28
619.108	2056.04
619.525	2049.27
619.942	2064.18
620.359	2072.12
620.776	2068.2
621.192	2063.38
621.609	2062.94
622.026	2076.34
622.442	2088.64
622.859	2098.18
623.275	2090.09
623.691	2101.38
624.108	2123.39
624.524	2148.99
624.94	2151.24
625.356	2169.61
625.772	2194.97
626.188	2216.35
626.604	2221.1
627.02	2215.63
627.436	2212.34
627.852	2224.56
628.268	2246.27
628.683	2233.09
629.099	2220
629.514	2213.77
629.93	2220.58
630.345	2229.37
630.761	2224.36
631.176	2231.37
631.591	2220.11
632.007	2209.94
632.422	2208.85
632.837	2190.61
633.252	2186.24
633.667	2169
634.082	2154
634.497	2131.63
634.911	2097.97
635.326	2092.73
635.741	2064.51
636.155	2051.32
636.57	2054.41
636.984	2054.55
637.399	2057.36
637.813	2058.76
638.228	2059.09
638.642	2068.53
639.056	2055.08
639.47	2057.97
639.884	2045.18
640.298	2036.51
640.712	2033.68
641.126	2013.8
641.54	2000.99
641.954	1997.66
642.368	1977.77
642.781	1963.83
643.195	1934.67
643.609	1936.82
644.022	1929.47
644.436	1925.73
644.849	1907.89
645.262	1893.06
645.676	1899.46
646.089	1893.39
646.502	1867.83
646.915	1862.74
647.328	1838.3
647.741	1838.46
648.154	1817.77
648.567	1811.91
648.98	1790.4
649.393	1792.55
649.805	1787.6
650.218	1776.05
650.631	1750.46
651.043	1741.81
651.456	1733.97
651.868	1738.05
652.28	1771.05
652.693	1799.46
653.105	1816.83
653.517	1838.95
653.929	1844.85
654.341	1858.76
654.753	1842.04
655.165	1859.05
655.577	1859.42
655.989	1856.99
656.401	1848.63
656.813	1787.83
657.224	1757.82
657.636	1713.47
658.047	1684.65
658.459	1653.45
658.87	1643.37
659.282	1627.65
659.693	1593.14
660.104	1569.58
660.515	1549.5
660.926	1551.07
661.338	1549.29
661.749	1541.1
662.159	1525.1
662.57	1519.8
662.981	1513.7
663.392	1500.92
663.803	1510.51
664.213	1507.1
664.624	1500.47
665.035	1505.34
665.445	1478.58
665.855	1463.45
666.266	1445.2
666.676	1439.18
667.086	1422.12
667.497	1419.39
667.907	1406.68
668.317	1385.38
668.727	1374.51
669.137	1374.82
669.547	1367.55
669.956	1370.46
670.366	1372.97
670.776	1373.67
671.186	1379.96
671.595	1384.39
672.005	1389.02
672.414	1384.87
672.824	1381.38
673.233	1392.15
673.642	1395.17
674.052	1398.7
674.461	1400.86
674.87	1407.39
675.279	1401.33
675.688	1404.29
676.097	1404.36
676.506	1398.28
676.915	1427.17
677.323	1431.88
677.732	1429.17
678.141	1430.5
678.549	1415.89
678.958	1418.15
679.366	1422
679.775	1437.1
680.183	1456.52
680.592	1473.98
681	1489.76
681.408	1482.5
681.816	1505.62
682.224	1529.7
682.632	1554.39
683.04	1618.69
683.448	1673.87
683.856	1740.29
684.264	1816.33
684.671	1891.96
685.079	1977.54
685.487	2070.97
685.894	2197.3
686.302	2299.84
686.709	2379.92
687.116	2473.25
687.524	2543.11
687.931	2597.37
688.338	2637.45
688.745	2665.54
689.152	2695.98
689.559	2742.66
689.966	2782.58
690.373	2780.65
690.78	2811.44
691.187	2879.85
691.593	2914.98
692	2937.08
692.407	2992.22
692.813	3065.55
693.22	3111.15
693.626	3159.47
694.032	3183.73
694.439	3249.12
694.845	3283.74
695.251	3343.67
695.657	3388.47
696.063	3483.61
696.469	3534.72
696.875	3577.06
697.281	3579.59
697.687	3594.62
698.093	3595.11
698.498	3647
698.904	3676.33
699.31	3747.54
699.715	3779.12
700.12	3851.01
700.526	3823.78
700.931	3868.97
701.337	3891.52
701.742	3890.35
702.147	3951.49
702.552	3949.99
702.957	3984.7
703.362	3971.33
703.767	3967.14
704.172	3979.63
704.577	3888.69
704.981	3911.76
705.386	3897.16
705.791	3853.71
706.195	3908.78
706.6	3889.17
707.004	3947.66
707.408	3886.22
707.813	3887
708.217	3845.23
708.621	3820.07
709.025	3901.26
709.43	3878.4
709.834	3918.23
710.237	3970.43
710.641	3930.08
711.045	3929.56
711.449	3902.41
711.853	3912.3
712.256	3935.09
712.66	3955.24
713.064	4012.11
713.467	4033.62
713.87	4128.16
714.274	4154.96
714.677	4246.62
715.08	4387.64
715.484	4536.57
715.887	4716.62
716.29	4888.56
716.693	5072.56
717.096	5284.99
717.499	5389.8
717.901	5393.77
718.304	5397.34
718.707	5402.74
719.109	5284.1
719.512	5233.91
719.915	5085.97
720.317	5012.78
720.719	5038.59
721.122	4993.65
721.524	4932.57
721.926	4879.77
722.328	4957.62
722.731	4933.44
723.133	4942.75
723.535	5108.23
723.937	5117.44
724.338	5152.59
724.74	5183.4
725.142	5122.97
725.544	5110.64
725.945	5126.6
726.347	5113.55
726.748	5098.18
727.15	5102.94
727.551	5061.34
727.952	5025.86
728.354	4987.96
728.755	4979.36
729.156	4931.61
729.557	4904.37
729.958	4786.39
730.359	4727.95
730.76	4704.84
731.161	4647.98
731.562	4619.75
731.962	4619.37
732.363	4553.6
732.763	4492.83
733.164	4518.99
733.564	4455.63
733.965	4363.57
734.365	4330.27
734.766	4350.32
735.166	4313.79
735.566	4259.24
735.966	4232.23
736.366	4222.26
736.766	4169.71
737.166	4192.94
737.566	4153.93
737.966	4129.16
738.365	4161.82
738.765	4155.31
739.165	4087.63
739.564	4062.31
739.964	4097.88
740.363	4056.37
740.763	4050.8
741.162	4039.93
741.561	4009.27
741.96	3967.95
742.36	3981.7
742.759	3983.76
743.158	4014.49
743.557	4025.07
743.955	4056.21
744.354	4016.29
744.753	4062.24
745.152	4025.15
745.55	4067.29
745.949	4061.98
746.348	4062.91
746.746	4075.14
747.144	4041.01
747.543	4018.38
747.941	4056.79
748.339	3996.27
748.737	3990.49
749.136	3985.09
749.534	4038.41
749.932	4015.23
750.33	4034.92
750.727	4080.42
751.125	4058.91
751.523	4043.21
751.921	4080.38
752.318	4051.16
752.716	4099.03
753.113	4109.26
753.511	4126.55
753.908	4125.83
754.305	4111.5
754.703	4162.04
755.1	4214.22
755.497	4263.05
755.894	4427.36
756.291	4581.1
756.688	4861.19
757.085	5234.45
757.482	5759.44
757.878	6332.86
758.275	6852.73
758.672	7564.04
759.068	8144.4
759.465	8970.37
759.861	10043.66
760.258	11273.54
760.654	11907.28
761.05	11811.2
761.447	11270.73
761.843	10493.3
762.239	9692.44
762.635	9333.67
763.031	8977.25
763.427	8478.97
763.822	7949.63
764.218	7426.71
764.614	6748.83
765.01	6296.66
765.405	6003.36
765.801	5780.14
766.196	5494.86
766.592	5333.18
766.987	5064.01
767.382	4886.49
767.778	4808.09
768.173	4699.22
768.568	4637.57
768.963	4533.4
769.358	4547.58
769.753	4506.72
770.148	4436.95
770.542	4434.81
770.937	4408.51
771.332	4484.15
771.726	4499.71
772.121	4448.19
772.515	4494.08
772.91	4480.35
773.304	4539.51
773.699	4483.25
774.093	4531.15
774.487	4576.09
774.881	4612.2
775.275	4608.61
775.669	4574.25
776.063	4612.62
776.457	4643.41
776.851	4579.11
777.245	4573.14
777.638	4602.15
778.032	4700.54
778.425	4665
778.819	4702.29
779.212	4668.75
779.606	4636.64
779.999	4652.89
780.392	4639.14
780.786	4706.83
781.179	4725.68
781.572	4764.26
781.965	4774.31
782.358	4724.48
782.751	4777.46
783.143	4735.34
783.536	4795.65
783.929	4833.22
784.322	4929.15
784.714	4951.24
785.107	4947.53
785.499	5005.98
785.891	4986.39
786.284	4968.07
786.676	5087.85
787.068	5070.68
787.46	5117.38
787.852	5134.06
788.245	5205.61
788.636	5232.17
789.028	5294.54
789.42	5330.03
789.812	5340.34
790.204	5420.87
790.595	5505.89
790.987	5338.62
791.378	5359.86
791.77	5466.37
792.161	5579.49
792.553	5623.57
792.944	5531.64
793.335	5470.25
793.726	5528.1
794.117	5601.58
794.508	5715.66
794.899	5691.59
795.29	5813.74
795.681	5860.73
796.072	5741.99
796.463	5591.15
796.853	5604.28
797.244	5736.9
797.634	5765.96
798.025	5765.72
798.415	5774.45
798.806	5852.92
799.196	5924.08
799.586	5964.51
799.976	5929.85
800.366	6126.6
800.756	6326.63
801.146	6289.83
801.536	6312.18
801.926	6373.68
802.316	6397.08
802.706	6461.82
803.095	6354.65
803.485	6437.62
803.874	6473.14
804.264	6695.63
804.653	6674.22
805.043	6793.88
805.432	6885.87
805.821	6888.23
806.21	6905.32
806.599	7006.6
806.988	7042.47
807.377	7130.08
807.766	7242.12
808.155	7479.02
808.544	7253.16
808.933	7263.06
809.321	7245.28
809.71	7491.95
810.098	7624
810.487	8016.72
810.875	8419.01
811.264	8437.28
811.652	8683.06
812.04	8807.46
812.428	8948.72
812.816	9596.89
813.204	9943.99
813.592	10405.31
813.98	10691.97
814.368	10616.04
814.756	11018.76
815.144	10951.76
815.531	11339.02
815.919	11279.86
816.306	11536.5
816.694	11271.16
817.081	11312.45
817.469	11607.71
817.856	11606.61
818.243	11836.48
818.63	12165.61
819.017	11808.3
819.404	11861.15
819.791	12190.28
820.178	12703.54
820.565	12916.5
820.952	13707.63
821.339	13288.64
821.725	13448.37
822.112	12833.39
822.498	12793.53
822.885	12901.6
823.271	12827.42
823.657	13173.01
824.044	13177.01
824.43	13241.76
824.816	13215.42
825.202	12841.94
825.588	13704.3
825.974	13716.49
826.36	14141.32
826.746	14169.05
827.132	14472.85
827.517	14452.13
827.903	13792.66
828.289	13829.72
828.674	13170.53
829.06	13086.33
829.445	13432.9
829.83	13735.5
830.216	14136.36
830.601	14453.8
830.986	14118.14
831.371	14006.93
831.756	14477.91
832.141	14129.67
832.526	14125.23
832.911	14371.65
833.295	14267.87
833.68	14663.4
834.065	14140.3
834.449	13371.46
834.834	13308.17
835.218	13304.21
835.603	13586.52
835.987	13405.39
836.371	14107.21
836.755	14014.25
837.139	14352.06
837.524	14562.37
837.908	14407.29
838.291	14453.76
838.675	14508.59
839.059	14686.62
839.443	14674.03
839.827	14478.54
840.21	14882.99
840.594	14747.07
840.977	14918.49
841.361	14900.88
841.744	15214.45
842.127	15087.36
842.511	15299.11
842.894	15803.66
843.277	16124.06
843.66	16584.3
844.043	16657.23
844.426	15978.65
844.809	15724.13
845.191	15753.96
845.574	15369.04
845.957	15056.82
846.339	14965.82
846.722	14529.24
847.104	14584.89
847.487	14437.56
847.869	14445.68
848.252	14679.52
848.634	14957.67
849.016	15178.49
849.398	15285.9
849.78	15997.8
850.162	16011.68
850.544	16359.82
850.926	16874.66
851.307	16804.37
851.689	17034.64
852.071	17417.91
852.452	17693.9
852.834	17677.39
853.215	18017.54
853.597	18152.65
853.978	18403.3
854.359	18781.62
854.741	17932.91
855.122	17852.72
855.503	17601.56
855.884	17718.88
856.265	17670.13
856.646	17764.42
857.026	17437.72
857.407	17374.09
857.788	17505.3
858.169	17742.79
858.549	17031.72
858.93	17562.65
859.31	17605.1
859.69	17782.69
860.071	17440.44
860.451	17252.86
860.831	16628.23
861.211	17594.51
861.591	18057.54
861.971	18039.37
862.351	18206.46
862.731	18525.13
863.111	18749.78
863.491	19032.14
863.87	19782.35
864.25	20078.88
864.629	19744.51
865.009	20182.23
865.388	20903.47
865.768	22404.1
866.147	22309.84
866.526	21070.39
866.905	21329.23
867.284	22521.47
867.663	21372.87
868.042	20471.27
868.421	20401.72
868.8	20740.28
869.179	20945.29
869.558	19724.85
869.936	18185.68
870.315	18505.83
870.693	18956.69
871.072	20432.99
871.45	19459.41
871.828	19712.6
872.207	20723.33
872.585	20409.23
872.963	20963.52
873.341	20230.7
873.719	19988.5
874.097	19737.68
874.475	20114.7
874.853	20574.01
875.23	19719.83
875.608	20543.46
875.986	22221.08
876.363	21252.12
876.741	21905.76
877.118	21353.48
877.495	22404.78
877.873	22764.64
878.25	23946.92
878.627	22965.68
879.004	23277.6
879.381	23153.26
879.758	22542.44
880.135	20980.78
880.512	22187.45
880.889	21597.96
881.265	21372.32
881.642	21192.78
882.019	21562.67
882.395	21127.6
882.772	21968.13
883.148	21014.28
883.524	20943.32
883.901	20831.25
884.277	21137.94
884.653	20997.08
885.029	21597.51
885.405	23906.74
885.781	23716.04
886.157	22739.28
886.532	23021.54
886.908	23000.8
887.284	25585.72
887.659	26413.97
888.035	27239.15
888.411	27954.36
888.786	28317.95
889.161	29302.21
889.537	28778.71
889.912	29700.41
890.287	29678.99
890.662	30440.35
891.037	29888.23
891.412	27876.41
891.787	27604.46
892.162	26629.26
892.536	27247.9
892.911	26227.02
893.286	25667.05
893.66	24622.69
894.035	25258.82
894.409	27508.57
894.784	26407.02
895.158	26856.79
895.532	28445.3
895.906	29207.38
896.281	29896.51
896.655	29424.8
897.029	33627.23
897.402	35023.61
897.776	38986.09
898.15	38845.55
898.524	38419.32
898.898	38923.73
899.271	43579.87
899.645	37753.6
900.018	36273.71
900.392	37621.98
900.765	37915.9
901.138	35097.85
901.511	34552.19
901.884	31729.12
902.258	29271.96
902.631	30249.8
903.003	34784.35
903.376	31355.84
903.749	35133.49
904.122	37594.49
904.495	41374.08
904.867	41877.28
905.24	36349.62
905.612	33840.63
905.985	34604.93
906.357	36179.89
906.729	34505.46
907.102	29500.92
907.474	28392.69
907.846	28579.17
908.218	28204.31
908.59	24936.69
908.962	24133.03
909.334	25991.2
909.705	27301.44
910.077	26494.35
910.449	27559.63
910.82	28353.26
911.192	31201.81
911.563	32419.58
911.935	34675.71
912.306	34722.14
912.677	35852.17
913.048	35487.98
913.419	38486.8
913.79	38697.04
914.161	41484.08
914.532	39658.02
914.903	36435.56
915.274	34579.18
915.645	34066.45
916.015	29989.33
916.386	28597.09
916.756	30416.59
917.127	31373.7
917.497	28027.57
917.868	30519.53
918.238	29000.7
918.608	29843.05
918.978	30452.29
919.348	32257.56
919.718	33332.36
920.088	32100.33
920.458	33341.13
920.828	35096.41
921.198	33272.6
921.567	35542.99
921.937	27521.57
922.306	27798.38
922.676	29974.63
923.045	25002.44
923.415	23758.31
923.784	21629.59
924.153	22253.72
924.522	22242.09
924.891	20901.06
925.26	22388.52
925.629	21853.91
925.998	25124.64
926.367	24520.65
926.736	23342.26
927.104	27794.23
927.473	29888.91
927.842	36102.92
928.21	35736.06
928.578	37539.92
928.947	35506.34
929.315	35702.89
929.683	41886.19
930.051	42200.1
930.42	49015.04
930.788	41908.06
931.156	41601.98
931.523	38981.42
931.891	36012.76
932.259	34589.96
932.627	40073.18
932.994	56687.01
933.362	46875.76
933.729	40696.15
934.097	38963.36
934.464	32975.63
934.831	38037.92
935.199	37492.4
935.566	36333.61
935.933	36892.04
936.3	44741.67
936.667	34876.36
937.034	31503.4
937.401	31140.09
937.767	26892.89
938.134	23939.75
938.501	33755.71
938.867	35976.73
939.234	60837.18
939.6	51945.98
939.967	57088.64
940.333	38201.05
940.699	32500.85
941.065	26060.4
941.431	34191.26
941.798	32952.46
942.163	43285.62
942.529	27038.19
942.895	24905.72
943.261	16122.31
943.627	21150.32
943.992	18501.47
944.358	18495.8
944.723	18578.48
945.089	18127.69
945.454	16740.07
945.82	17879.59
946.185	17170.46
946.55	19892.61
946.915	17821.79
947.28	20904.78
947.645	18389.08
948.01	16986.16
948.375	17714.78
948.74	21207.32
949.104	24691.33
949.469	35662.28
949.834	62961.01
950.198	59729.66
950.562	35844.66
950.927	29865.64
951.291	35904.68
951.655	30612.15
952.02	28732.86
952.384	21723.48
952.748	18914.62
953.112	18447.49
953.476	16049.54
953.839	14852.47
954.203	14690.64
954.567	18345.28
954.931	28894.86
955.294	24721.33
955.658	24856.29
956.021	42286.81
956.385	71659.13
956.748	105673.97
957.111	163895.32
957.474	184022.92
957.837	207365.02
958.2	156936.36
958.563	56451.92
958.926	38131.57
959.289	57849.2
959.652	64599.96
960.015	48499.97
960.377	69599.03
960.74	79464.11
961.102	137192.58
961.465	147324.62
961.827	78968.24
962.189	151533.77
962.552	105098.99
962.914	84343.53
963.276	54728.72
963.638	45245.12
964	44762.94
964.362	30300.03
964.724	29299.6
965.085	20886.44
965.447	17142.08
965.809	19492.3
966.17	19493.11
966.532	21094.67
966.893	19372.62
967.255	17622.14
967.616	20785.02
967.977	16630.59
968.338	18156.4
968.699	14915.34
969.061	14926.49
969.421	15003.33
969.782	16853.17
970.143	14249.68
970.504	14743.75
970.865	16727.98
971.225	17119.74
971.586	16767.24
971.946	23946.98
972.307	20782.88
972.667	27150.78
973.027	27965.33
973.388	33859.72
973.748	23026.31
974.108	25098
974.468	33983.38
974.828	26242.9
975.188	20195.17
975.548	18549.95
975.907	15559.59
976.267	17444.51
976.627	14668.51
976.986	15183.06
977.346	14498.69
977.705	13945.64
978.064	12690.76
978.424	10562.51
978.783	10914.41
979.142	12441.59
979.501	11904.87
979.86	12570.47
980.219	12128.52
980.578	15640.32
980.937	17509.84
981.296	15588
981.654	16022.87
982.013	24933.04
982.371	32389.39
982.73	30268.59
983.088	34304.32
983.447	36624.71
983.805	52452.31
984.163	109474.23
984.521	121471.55
984.879	177914.96
985.237	-289629.25
985.595	279251.7
985.953	69437.64
986.311	39980.06
986.669	23211.44
987.026	20042.78
987.384	26959.14
987.741	27832.37
988.099	19890.65
988.456	15866.18
988.814	14914.82
989.171	12992
989.528	12816.93
989.885	13501.91
990.242	10726.47
990.599	13334.85
990.956	10912.47
991.313	7633.39
991.67	6270.36
992.027	6662.13
992.383	5909.68
992.74	5173.81
993.096	5417.96
993.453	5624.65
993.809	5840.97
994.165	7781.16
994.522	7147.33
994.878	7881.54
995.234	9892.85
995.59	9763.58
995.946	9220.86
996.302	10520.96
996.658	12175.38
997.013	13432.67
997.369	15912.23
997.725	20367.79
998.08	13180.95
998.436	20288.45
998.791	27937.2
999.147	27878.42
999.502	30425.19
999.857	22099.45
1000.212	36056.19
1000.567	51290.77
1000.922	29498.57
1001.277	18766.34
1001.632	13929.09
1001.987	17924.09
1002.342	12869.5
1002.696	10300.03
1003.051	8207.7
1003.406	9930.67
1003.76	9897.39
1004.114	9764.18
1004.469	8223.91
1004.823	6815.42
1005.177	7336.72
1005.531	5809.77
1005.885	5158.49
1006.239	5820.33
1006.593	7311.15
1006.947	9804.88
1007.301	7358.28
1007.655	8012.41
1008.008	5879.72
1008.362	6601.6
1008.715	9418.06
1009.069	8573.5
1009.422	12943.2
1009.776	25957.09
1010.129	17253.38
1010.482	14366.71
1010.835	12128.93
1011.188	25253.06
1011.541	23801.97
1011.894	-145664.11
1012.247	428557.75
1012.6	29181.04
1012.952	18391.11
1013.305	9428.03
1013.657	6826.63
1014.01	6448.18
1014.362	5331.7
1014.715	4757.74
1015.067	4149.24
1015.419	4064.71
1015.771	3601.95
1016.123	3215.46
1016.475	3314.7
1016.827	3531.47
1017.179	3812.55
1017.531	3836
1017.883	3921.66
1018.234	3801.39
1018.586	4778.46
1018.938	5056.86
1019.289	6947.14
1019.64	7965.78
1019.992	7391.31
1020.343	6741.31
1020.694	5347.28
1021.045	4726.92
1021.396	5402.33
1021.747	5819.25
1022.098	6969.02
1022.449	5070.81
1022.8	4704.07
1023.151	3295.53
1023.501	2917.57
1023.852	3167.62
1024.202	3301.04
1024.553	3645.89
1024.903	3561.12
1025.253	3033.71
1025.604	2733
1025.954	3372.13
1026.304	4115.57
1026.654	4813.77
1027.004	7057.83
1027.354	11383.72
1027.703	10743.13
1028.053	14059.67
1028.403	20309.93
1028.753	29475.14
1029.102	39980.59
1029.452	203954.91
1029.801	8810.89
1030.15	5663.47
1030.499	4767.8
897.758	2545.06
901.051	2500.49
904.343	2533.86
907.636	2535.83
910.928	2600.29
914.22	2509.34
917.511	2514.51
920.803	2574.97
924.094	2587.73
927.384	2573.02
930.675	2537.99
933.965	2495.48
937.255	2506.65
940.544	2472.98
943.834	2431.85
947.123	2371.03
950.411	2467.14
953.7	2441.36
956.988	2412.79
960.276	2353.52
963.563	2426.98
966.851	2425.84
970.138	2479.46
973.424	2473.56
976.711	2425.33
979.997	2532.16
983.283	2572.12
986.568	2483.9
989.853	2496.25
993.138	2521.87
996.423	2602.8
999.708	2543.97
1002.992	2598.67
1006.275	2457.43
1009.559	2491.62
1012.842	2600.58
1016.125	2536.17
1019.408	2516.23
1022.69	2595.87
1025.972	2616.83
1029.254	2590.93
1032.536	2530.07
1035.817	2554.54
1039.098	2504.4
1042.379	2621.95
1045.659	2629.08
1048.939	2566.94
1052.219	2585.72
1055.498	2591.93
1058.778	2580.75
1062.057	2561.31
1065.335	2583.67
1068.614	2601.12
1071.892	2588.45
1075.17	2659.68
1078.447	2648.86
1081.724	2641.61
1085.001	2673.31
1088.278	2647.86
1091.554	2662.78
1094.83	2654.19
1098.106	2685.26
1101.382	2728.91
1104.657	2728.64
1107.932	2721.72
1111.206	2687.47
1114.481	2647.17
1117.755	2649.46
1121.029	2634.74
1124.302	2689.06
1127.575	2641.02
1130.848	2633.32
1134.121	2596.21
1137.393	2546.22
1140.665	2613.67
1143.937	2588.76
1147.208	2547.72
1150.48	2591.41
1153.75	2575.69
1157.021	2601.06
1160.291	2572.82
1163.561	2618.97
1166.831	2603.89
1170.101	2633.06
1173.37	2605.23
1176.639	2551.07
1179.907	2606.78
1183.176	2616.07
1186.444	2622.43
1189.711	2650.44
1192.979	2660.5
1196.246	2617.83
1199.513	2633.9
1202.78	2633.24
1206.046	2642.16
1209.312	2668.34
1212.578	2690.46
1215.843	2648.54
1219.108	2620.95
1222.373	2644.02
1225.638	2609.91
1228.902	2599.17
1232.166	2562.54
1235.43	2544.18
1238.693	2568.56
1241.956	2565.61
1245.219	2606.72
1248.482	2597.62
1251.744	2590.46
1255.006	2731.68
1258.268	2685.73
1261.529	2633.33
1264.79	2637.86
1268.051	2743.06
1271.312	2757.25
1274.572	2720.11
1277.832	2708.96
1281.092	2699.45
1284.351	2675.69
1287.61	2656.31
1290.869	2578.2
1294.128	2557.63
1297.386	2636.19
1300.644	2626.24
1303.902	2634.14
1307.159	2499.49
1310.416	2554.3
1313.673	2580.03
1316.93	2564.67
1320.186	2606.74
1323.442	2648.58
1326.697	2639.92
1329.953	2629.36
1333.208	2655.44
1336.463	2633.26
1339.717	2578.2
1342.972	2706.12
1346.226	2680.49
1349.479	2616.19
1352.733	2589.82
1355.986	2610.01
1359.238	2589.5
1362.491	2589.08
1365.743	2591.38
1368.995	2588.09
1372.247	2600.45
1375.498	2621.37
1378.749	2641.36
1382	2600.67
1385.251	2649.33
1388.501	2609.76
1391.751	2597.72
1395	2566.41
1398.25	2601.39
1401.499	2613.74
1404.748	2544.44
1407.996	2535.05
1411.244	2523.65
1414.492	2505.45
1417.74	2483.53
1420.987	2492.66
1424.234	2550.35
1427.481	2526.71
1430.728	2584.59
1433.974	2559
1437.22	2569.04
1440.465	2569.21
1443.711	2542.13
1446.956	2573.72
1450.201	2556.21
1453.445	2603.22
1456.689	2582.41
1459.933	2594.03
1463.177	2623.82
1466.42	2599.86
1469.663	2578.66
1472.906	2574.9
1476.148	2636.34
1479.391	2616.85
1482.633	2582.14
1485.874	2596.48
1489.115	2581.94
1492.356	2586.82
1495.597	2560.13
1498.838	2564.74
1502.078	2534.55
1505.318	2490.5
1508.557	2532.32
1511.797	2518.36
1515.036	2565.84
1518.274	2559.82
1521.513	2526.55
1524.751	2546.97
1527.989	2559.64
1531.227	2575.66
1534.464	2572.2
1537.701	2585.38
1540.938	2603.23
1544.174	2555.06
1547.41	2551.99
1550.646	2588.35
1553.882	2627.16
1557.117	2682.77
1560.352	2694.79
1563.587	2651.76
1566.821	2614.46
1570.055	2643.48
1573.289	2617.82
1576.523	2688.98
1579.756	2696.67
1582.989	2714.74
1586.222	2677.1
1589.454	2709.7
1592.686	2684.44
1595.918	2710.26
1599.15	2701.68
1602.381	2769.39
1605.612	2731.32
1608.843	2823.82
1612.073	2739.88
1615.303	2725.31
1618.533	2718.75
1621.762	2717.17
1624.992	2704.41
1628.221	2694.11
1631.449	2680.92
1634.678	2730.62
1637.906	2688.07
1641.134	2724.27
1644.361	2683.59
1647.588	2671.81
1650.815	2689
1654.042	2666.53
1657.269	2696.67
1660.495	2653.22
1663.72	2670.92
1666.946	2634.87
1670.171	2586.85
1673.396	2563.54
1676.621	2548.9
1679.845	2565.55
1683.069	2579.93
1686.293	2619.21
1689.517	2595.91
1692.74	2533.14
1695.963	2559.99
1699.185	2578.12
1702.408	2553.67
1705.63	2591.6
1708.852	2601.95
1712.073	2580.64
1715.294	2569.08
1718.515	2630.14
1721.736	2579.86
1724.956	2568.72
1728.176	2593.98
1731.396	2617.24
1734.616	2604.57
1737.835	2635.08
1741.054	2613.95
1744.272	2607.01
1747.491	2635.29
1750.709	2681.92
1753.927	2596.87
1757.144	2638.17
1760.361	2684.76
1763.578	2671.96
1766.795	2616.33
1770.011	2619.3
1773.227	2656.17
1776.443	2693.58
1779.658	2737
1782.874	2677.85
1786.089	2658.29
1789.303	2660.34
1792.518	2664.72
1795.732	2650.86
1798.945	2662.13
1802.159	2710.91
1805.372	2621.64
1808.585	2608.23
1811.797	2606.78
1815.01	2650.86
1818.222	2659.76
1821.434	2639.71
1824.645	2696.89
1827.856	2684.05
1831.067	2719.67
1834.278	2675.41
1837.488	2656.81
1840.698	2801.09
1843.908	2730.85
1847.117	2696.19
1850.326	2592.39
1853.535	2684.42
1856.744	2702.6
1859.952	2616.07
1863.16	2623.73
1866.368	2642.75
1869.575	2746.52
1872.782	2638.14
1875.989	2575.9
1879.196	2649.96
1882.402	2643.14
1885.608	2683.32
1888.814	2596.34
1892.019	2499.35
1895.224	2553.33
1898.429	2528.91
1901.634	2509.35
1904.838	2484.87
1908.042	2532.63
1911.246	2543.64
1914.449	2485.19
1917.652	2479.25
1920.855	2460.3
1924.058	2503.12
1927.26	2540.51
1930.462	2566.73
1933.664	2598.97
1936.865	2537.18
1940.066	2547.15
1943.267	2495.2
1946.467	2507.83
1949.668	2531.1
1952.868	2598
1956.067	2579.53
1959.267	2513.25
1962.466	2538.59
1965.665	2523.39
1968.863	2516.28
1972.061	2531.64
1975.259	2528.23
1978.457	2605.41
1981.654	2564.87
1984.852	2568.25
1988.048	2506.22
1991.245	2504.88
1994.441	2591.36
1997.637	2568.83
2000.833	2550.46
2004.028	2588.47
2007.223	2643.35
2010.418	2625.42
2013.613	2582.72
2016.807	2557.55
2020.001	2564.06
2023.194	2600.4
2026.388	2578.99
2029.581	2521.57
2032.774	2576.47
2035.966	2581.79
2039.158	2517.05
2042.35	2541.52
2045.542	2468.34
2048.733	2564.79
2051.924	2580.93
2055.115	2604.99
2058.306	2554.78
2061.496	2612.13
2064.686	2678.58
2067.875	2588.5
2071.065	2599.95
2074.254	2625.52
2077.442	2577.6
2080.631	2665.52
2083.819	2567.06
2087.007	2551.44
2090.195	2523.52
2093.382	2554.5
2096.569	2535.65
2099.756	2487.82
2102.942	2518.29
2106.128	2526.99
2109.314	2517.58
2112.5	2487.44
2115.685	2460.72
2118.87	2469.85
2122.055	2534.59
2125.239	2504.41
2128.424	2481.49
2131.608	2574.39
2134.791	2558.17
2137.974	2610.95
2141.157	2598.09
2144.34	2553.85
2147.523	2563.83
2150.705	2580.94
2153.887	2560.42
2157.068	2515.05
2160.25	2510.54
2163.431	2545.49
2166.611	2495.86
2169.792	2513.31
2172.972	2412.55
2176.152	2483.16
2179.331	2516.73
2182.511	2500.92
2185.69	2530.1
2188.868	2525.31
2192.047	2576.06
2195.225	2573.79
2198.403	2523.91
2201.58	2514.62
2204.758	2510.23
2207.935	2592.53
2211.111	2486.17
2214.288	2470.11
2217.464	2510.52
2220.64	2476.69
2223.815	2529.02
2226.991	2451.4
2230.166	2471.81
2233.34	2504.27
2236.515	2526.52
2239.689	2595.25
2242.863	2540.71
2246.036	2596.93
2249.209	2594
2252.382	2622.62
2255.555	2617.5
2258.727	2559.32
2261.9	2596.04
2265.071	2587.1
2268.243	2586.77
2271.414	2522.97
2274.585	2491.19
2277.756	2554.76
2280.926	2510.42
2284.096	2550.55
2287.266	2462.67
2290.436	2514.23
2293.605	2541.04
2296.774	2574.47
2299.942	2589.65
2303.111	2608.08
2306.279	2659.32
2309.447	2644.25
2312.614	2619.63
2315.781	2642.42
2318.948	2612.85
2322.115	2652.59
2325.281	2554.77
2328.447	2572.2
2331.613	2544.33
2334.779	2523.93
2337.944	2523.64
2341.109	2520.38
2344.274	2503.55
2347.438	2470.53
2350.602	2495.38
2353.766	2511.97
2356.929	2499.15
2360.092	2540.61
2363.255	2494.51
2366.418	2438.36
2369.58	2539.64
2372.742	2348.62
2375.904	2359.72
2379.066	2338.24
2382.227	2369.93
2385.388	2331.65
2388.548	2262.56
2391.709	2313.14
2394.869	2292.7
2398.029	2382.54
2401.188	2392
2404.347	2332.9
2407.506	2459.27
2410.665	2489.61
2413.823	2492.75
2416.981	2455.71
2420.139	2483.86
2423.296	2530.64
2426.453	2504
2429.61	2528.5
2432.767	2470.76
2435.923	2508.36
2439.079	2467.66
2442.235	2514.8
2445.391	2445.04
2448.546	2476.47
2451.701	2523.52
2454.855	2501.73
2458.009	2546.38
2461.163	2545.69
2464.317	2507.14
2467.471	2540.8
2470.624	2576.76
2473.777	2552.44
2476.929	2563.87
2480.082	2591.02
2483.234	2556.65
2486.385	2504.96
2489.537	2498.07
2492.688	2467.79
2495.839	2484.37
2498.989	2496.03
2502.14	2479.35
2505.29	2464.96
2508.439	2489.83
2511.589	2418.41
2514.738	2426.44
2517.887	2455.56
2521.035	2525.07
2524.183	2501.61
2527.331	2483.22
2530.479	2463.26
2533.627	2471.77
