Data from C_2_DEC_OH_4N_Splice17_12-05-25-355.txt Node
Date: Sat Mar 14 12:05:25 EDT 2020
User: sa697716
Spectrometer: FLMS03696
Trigger mode: 0
Integration Time (sec): 3.180400E-1
Scans to average: 20
Electric dark correction enabled: true
Nonlinearity correction enabled: true
Boxcar width: 5
XAxis mode: Wavelengths
Number of Pixels in Spectrum: 2048
>>>>>Begin Spectral Data<<<<<
187.83	-227808.36
188.298	1725.23
188.766	1006.25
189.233	839.27
189.701	1179.3
190.169	1690.74
190.636	605.6
191.104	480.74
191.571	65.67
192.039	-120.53
192.506	-197.3
192.974	281.73
193.441	-681.9
193.908	-23.61
194.375	-57.09
194.842	-18.91
195.31	62.62
195.777	95.26
196.244	260.21
196.711	293.46
197.177	353.28
197.644	517.72
198.111	938.81
198.578	1377.1
199.045	1083.69
199.511	1765.88
199.978	2057.52
200.445	1790.92
200.911	1997.42
201.378	2222.82
201.844	2048.84
202.31	3498.26
202.777	3641.88
203.243	2030.74
203.709	1909.89
204.176	2291.3
204.642	1915.49
205.108	1783.22
205.574	1441.65
206.04	1297.54
206.506	1217.17
206.972	1132.43
207.438	1095.6
207.903	1243.25
208.369	1084.54
208.835	1093.1
209.301	1152.77
209.766	1161.39
210.232	1147.97
210.697	1403.65
211.163	1735.48
211.628	2581.13
212.094	2204.06
212.559	2712.8
213.024	1673.45
213.49	2042.27
213.955	1992.38
214.42	1916.06
214.885	1795.49
215.35	1728.92
215.815	1679.25
216.28	1773.52
216.745	1428.92
217.21	1525.46
217.675	1349.88
218.14	1493.05
218.604	1615.66
219.069	1802.07
219.534	1854.37
219.998	2088.71
220.463	2475.26
220.927	2961.17
221.392	2750.72
221.856	2755.33
222.32	3394.49
222.785	4205.27
223.249	5259.37
223.713	5832.56
224.177	5808.13
224.642	7396.78
225.106	9069.92
225.57	9878.35
226.034	7369.93
226.497	11153.75
226.961	10098.24
227.425	11757.74
227.889	13011.32
228.353	12960.24
228.816	26740.09
229.28	25530.07
229.744	21526.94
230.207	13116.27
230.671	12929.62
231.134	21285.52
231.597	24627.89
232.061	24576.49
232.524	23995.57
232.987	16519.56
233.45	14955.05
233.914	13421.3
234.377	13750.33
234.84	12594.46
235.303	14835.51
235.766	16544.51
236.229	17063.61
236.691	10719.53
237.154	12045.94
237.617	9067.49
238.08	9291.74
238.542	10819.73
239.005	7734.75
239.468	7680.17
239.93	7244.16
240.393	6613.28
240.855	5812.63
241.317	5963.78
241.78	7259.13
242.242	7503.56
242.704	8135.35
243.166	7092.73
243.629	6484.93
244.091	7489.98
244.553	8209.15
245.015	8833.68
245.477	11413.9
245.939	16723.97
246.4	17791.56
246.862	17318.86
247.324	16375.57
247.786	18300.69
248.247	23985.67
248.709	24707.34
249.17	18521.68
249.632	17561.61
250.093	20446.16
250.555	17655.6
251.016	10796.62
251.477	10247.36
251.939	11081.27
252.4	11628.29
252.861	13847.22
253.322	12944.75
253.783	15393.75
254.244	19952.14
254.705	15717.18
255.166	13928.67
255.627	13720.54
256.088	19391.14
256.549	20603.8
257.009	17716.09
257.47	21487.65
257.931	17471.75
258.391	13073.15
258.852	13485.94
259.312	14155.33
259.773	17466.3
260.233	14841.17
260.694	12568.38
261.154	14250.4
261.614	11494.68
262.074	10290.74
262.534	10718.25
262.994	10127.72
263.455	13478.57
263.915	11372.61
264.374	10714.1
264.834	11711.36
265.294	12951.91
265.754	13426.31
266.214	12696.99
266.673	11873.23
267.133	15006.06
267.593	14878.38
268.052	18219.21
268.512	15851.37
268.971	19164.87
269.431	21040.44
269.89	18841.53
270.349	28283.16
270.809	31538.09
271.268	28378.37
271.727	63614.19
272.186	41238.52
272.645	30952.44
273.104	22312.54
273.563	32352.6
274.022	25401.57
274.481	21650.3
274.94	16720
275.399	12424.46
275.857	14464.59
276.316	19568.96
276.775	17435.37
277.233	17204.74
277.692	16160.18
278.15	18318.64
278.609	18872.53
279.067	17500.29
279.525	16280.25
279.984	21035.9
280.442	25337.93
280.9	25062.1
281.358	16523.27
281.816	15428.87
282.274	15098.43
282.732	15585.74
283.19	15656.95
283.648	13533.67
284.106	14403.42
284.564	14610.96
285.021	13548.46
285.479	10108.97
285.937	9170.16
286.394	8075.58
286.852	8317.02
287.309	8748.25
287.767	8475.75
288.224	8084.95
288.682	8861.82
289.139	9762.09
289.596	8957.73
290.053	9311.62
290.511	11740.71
290.968	14261.32
291.425	19324.37
291.882	16128.8
292.339	14083.85
292.796	13966.1
293.252	13169.8
293.709	10510.21
294.166	9422.46
294.623	10431.97
295.079	10013.15
295.536	10090.45
295.992	9168.46
296.449	9079.79
296.905	9433.94
297.362	9072.73
297.818	9529
298.274	9899.64
298.731	10065.59
299.187	9960.8
299.643	10698.9
300.099	12963.68
300.555	14212.03
301.011	11880.19
301.467	11509.19
301.923	13452.15
302.379	13112.2
302.835	12927.27
303.291	12947.32
303.746	14784.88
304.202	18695.75
304.658	18795.96
305.113	12645.31
305.569	12416.63
306.024	13272.71
306.479	12586.86
306.935	10652.19
307.39	11641.15
307.845	10760.09
308.301	10822.23
308.756	10520.68
309.211	10161.24
309.666	10423.33
310.121	12968.04
310.576	13150.98
311.031	13040.48
311.486	14946.34
311.94	14930.11
312.395	19959.32
312.85	37465.9
313.305	183835.49
313.759	957387.74
314.214	69392.74
314.668	55104.69
315.123	46398.53
315.577	16725.36
316.032	14918.71
316.486	18717.28
316.94	14826.37
317.394	10360.63
317.849	8070.51
318.303	7670.15
318.757	7223.53
319.211	7986.71
319.665	6972.99
320.119	7075.44
320.572	10131.07
321.026	9457
321.48	7885.88
321.934	8574.3
322.387	8577.92
322.841	9293.48
323.295	8387.6
323.748	9642.15
324.202	9804.7
324.655	11793.04
325.108	16532.8
325.562	11711.83
326.015	13933.71
326.468	10545.22
326.921	11829.45
327.374	11068.89
327.827	11529.52
328.28	13052.12
328.733	8775.1
329.186	7728.49
329.639	7372.74
330.092	6202.23
330.545	5897.62
330.997	5960.04
331.45	6532.59
331.903	7669.16
332.355	13161.11
332.808	12762.06
333.26	10531.48
333.713	11476.56
334.165	11548.48
334.617	15458.63
335.069	12443.82
335.522	22428.37
335.974	24842
336.426	22604.21
336.878	15596.37
337.33	7934.39
337.782	7773.31
338.234	9731.56
338.686	11608.48
339.137	13745.46
339.589	12905.03
340.041	10168.52
340.493	8744.84
340.944	8964.97
341.396	9668.01
341.847	8175.16
342.299	9667.74
342.75	11824.07
343.201	10336.69
343.653	11892.1
344.104	14632.67
344.555	11544.35
345.006	17923.75
345.457	13827.48
345.908	10974.22
346.359	10354.29
346.81	8428.36
347.261	8864.43
347.712	8711.4
348.163	9353.91
348.613	9501.37
349.064	8879.94
349.515	7776.95
349.965	7972.08
350.416	9574.78
350.866	10534.03
351.317	11896.34
351.767	19710.57
352.217	24918.46
352.668	20700.04
353.118	18986.73
353.568	18308.73
354.018	14500.93
354.468	15340.96
354.918	11030.79
355.368	9653.77
355.818	13632.5
356.268	39157.28
356.718	164152.05
357.168	40878.28
357.617	20517.63
358.067	22739.62
358.517	21265.68
358.966	25004.34
359.416	28082.34
359.865	30334.22
360.315	36168.63
360.764	16920.99
361.213	9520.32
361.663	8994.06
362.112	11112.46
362.561	17955.07
363.01	13565.43
363.459	11388.32
363.908	12316.07
364.357	10435.33
364.806	17675.09
365.255	12135.32
365.703	11121.22
366.152	11120.56
366.601	9040.18
367.05	7348.15
367.498	6709.98
367.947	7022.09
368.395	7328.45
368.844	6497.33
369.292	7839.73
369.74	5416.08
370.189	8270.43
370.637	9659.16
371.085	8334.06
371.533	10150.9
371.981	9759.53
372.429	9280
372.877	9677.22
373.325	8101.07
373.773	8255.49
374.221	7341.84
374.669	9092.43
375.116	7873.01
375.564	7951.36
376.012	8882.57
376.459	7304.17
376.907	8748.24
377.354	10552.21
377.801	9828.76
378.249	11301.2
378.696	14415.68
379.143	17417.16
379.591	18582.73
380.038	31539.41
380.485	22801.43
380.932	24653.59
381.379	22700.37
381.826	16750.33
382.273	11906.97
382.72	10383.21
383.166	10108.11
383.613	6553.76
384.06	5926.94
384.506	6856.55
384.953	5018.93
385.4	5055.52
385.846	4431.64
386.292	4310.08
386.739	4202.62
387.185	4165.99
387.631	4176.63
388.078	4066.27
388.524	4355.7
388.97	4023.58
389.416	3363.48
389.862	3596.33
390.308	3414.08
390.754	3474.93
391.2	3780.89
391.645	3879.25
392.091	3737.9
392.537	3635.11
392.983	3653.46
393.428	3622.11
393.874	3887.13
394.319	3930.6
394.765	3743.28
395.21	3865.15
395.655	3635.43
396.101	3405.93
396.546	3087.08
396.991	3108.12
397.436	2888.57
397.881	2797.74
398.326	2644.81
398.771	2516.15
399.216	2203.6
399.661	1984.25
400.106	1988.68
400.551	2046.02
400.995	1840.27
401.44	1826.05
401.885	1724.11
402.329	1748.18
402.774	1678.66
403.218	1637.3
403.663	1584.98
404.107	1632.69
404.551	1652.38
404.995	1513.4
405.44	1465.15
405.884	1491.56
406.328	1446.81
406.772	1446.88
407.216	1322.48
407.66	1284.38
408.104	1217.07
408.547	1140.72
408.991	1108.2
409.435	1068.23
409.879	1058.43
410.322	1043.03
410.766	1011.42
411.209	963.07
411.653	924.03
412.096	907.85
412.54	907.45
412.983	905.58
413.426	910.09
413.869	905.07
414.312	892.16
414.756	859.22
415.199	821.89
415.642	799.05
416.085	801.79
416.527	797.29
416.97	806.73
417.413	768.61
417.856	759.4
418.298	752.58
418.741	751.04
419.184	749.3
419.626	779.37
420.069	780.5
420.511	784.98
420.953	772.48
421.396	766.04
421.838	747.94
422.28	766.08
422.722	771.84
423.164	781.33
423.606	770.1
424.048	767.74
424.49	732.77
424.932	726.51
425.374	717.2
425.816	727.1
426.258	741.99
426.699	751.62
427.141	739.76
427.582	750.73
428.024	747.49
428.465	740.11
428.907	721.96
429.348	712.8
429.789	714.61
430.231	700.08
430.672	708.94
431.113	692.12
431.554	680.73
431.995	662.74
432.436	638.91
432.877	624.69
433.318	616.58
433.759	612.33
434.2	610.43
434.64	603.32
435.081	604.25
435.522	572
435.962	549.4
436.403	538.11
436.843	544.91
437.284	533.31
437.724	516.76
438.164	514.41
438.604	503.43
439.045	486.83
439.485	469.24
439.925	458.28
440.365	446.3
440.805	441.91
441.245	437.41
441.685	421.52
442.125	417.48
442.564	421.25
443.004	413.34
443.444	412.9
443.883	411.94
444.323	405.43
444.762	404.73
445.202	410.16
445.641	419.28
446.081	416.5
446.52	420.07
446.959	415.32
447.398	406.38
447.837	401.99
448.276	394.07
448.716	398.4
449.154	402.25
449.593	394.43
450.032	393.12
450.471	382.25
450.91	382.32
451.349	383.3
451.787	382.86
452.226	388.29
452.664	387.61
453.103	388.32
453.541	387.75
453.98	388.44
454.418	391.18
454.856	385.6
455.295	385.89
455.733	388.89
456.171	389.66
456.609	390.97
457.047	390.7
457.485	398.46
457.923	400.4
458.361	394.62
458.798	395.14
459.236	394.26
459.674	397.34
460.111	399.27
460.549	395.35
460.987	393.85
461.424	391.41
461.862	390.6
462.299	383.71
462.736	382.99
463.173	384.1
463.611	383.41
464.048	383.48
464.485	386.76
464.922	384.27
465.359	382.16
465.796	381.74
466.233	379.7
466.67	377.07
467.106	376.23
467.543	373.08
467.98	368.21
468.416	356.49
468.853	352.35
469.29	342.1
469.726	337.38
470.162	328.77
470.599	320.87
471.035	318.03
471.471	309.69
471.907	307.11
472.344	304.49
472.78	306.24
473.216	309.27
473.652	306.3
474.088	304.97
474.523	304.7
474.959	307.36
475.395	303.94
475.831	301.36
476.266	302.95
476.702	301.61
477.138	298.74
477.573	297.63
478.008	296.68
478.444	298.57
478.879	302.03
479.314	304.01
479.75	303.43
480.185	304.71
480.62	308.32
481.055	309.68
481.49	312.94
481.925	317.32
482.36	323.57
482.795	332.2
483.229	340.44
483.664	346.89
484.099	347.61
484.534	353.52
484.968	357.12
485.403	358.51
485.837	357.61
486.271	356.61
486.706	357.61
487.14	353.47
487.574	349.28
488.009	346.5
488.443	344.47
488.877	349.15
489.311	351.06
489.745	356.69
490.179	359.95
490.613	369.12
491.046	373.22
491.48	376.08
491.914	377.31
492.348	380.33
492.781	383.73
493.215	385.5
493.648	386.84
494.082	390.94
494.515	392.31
494.948	398.34
495.382	400.41
495.815	403.61
496.248	409.24
496.681	417.87
497.114	425.62
497.547	433.31
497.98	443.13
498.413	449.05
498.846	456.53
499.279	462.77
499.711	466.91
500.144	471.6
500.577	481.38
501.009	489.4
501.442	498.25
501.874	502.33
502.306	505.83
502.739	514.2
503.171	525.79
503.603	530.54
504.036	539.54
504.468	546.35
504.9	555.73
505.332	562.74
505.764	569.26
506.196	576.12
506.627	589.33
507.059	600.6
507.491	607.99
507.923	609.86
508.354	623.36
508.786	633.28
509.217	648.35
509.649	661.89
510.08	676.82
510.512	691.23
510.943	704.73
511.374	715.08
511.805	730.99
512.237	747.07
512.668	772.42
513.099	793.67
513.53	815.61
513.961	832.4
514.391	856.61
514.822	883.94
515.253	911.02
515.684	932.54
516.114	955.7
516.545	975.09
516.975	995.83
517.406	1010.47
517.836	1014.13
518.267	1021.47
518.697	1037.46
519.127	1042.66
519.558	1049.32
519.988	1054.46
520.418	1062.91
520.848	1077.87
521.278	1084.92
521.708	1108.59
522.138	1119.27
522.567	1144.06
522.997	1163.5
523.427	1175.56
523.857	1189.23
524.286	1197.71
524.716	1208.97
525.145	1224.41
525.575	1232.89
526.004	1244.21
526.433	1231.55
526.863	1232.13
527.292	1225.52
527.721	1231.43
528.15	1236.13
528.579	1237.54
529.008	1246.04
529.437	1262.87
529.866	1273.07
530.295	1285.18
530.724	1295.94
531.152	1315.88
531.581	1326.86
532.01	1340.08
532.438	1346.44
532.867	1357.84
533.295	1372.73
533.723	1377.77
534.152	1377.27
534.58	1377.59
535.008	1366.18
535.436	1368.17
535.865	1375.77
536.293	1388
536.721	1400.62
537.149	1419.26
537.576	1421.49
538.004	1431.34
538.432	1437.91
538.86	1438.25
539.287	1444.06
539.715	1456.15
540.143	1459.42
540.57	1456.54
540.998	1453.92
541.425	1437.41
541.852	1423.61
542.28	1423.53
542.707	1411.48
543.134	1401.85
543.561	1398.53
543.988	1393.7
544.415	1393.55
544.842	1388.98
545.269	1384.28
545.696	1386.54
546.123	1396.61
546.549	1387.29
546.976	1376.92
547.403	1377.13
547.829	1378.43
548.256	1379.63
548.682	1376.67
549.108	1371
549.535	1371.1
549.961	1371.95
550.387	1360.9
550.813	1357.49
551.24	1363.1
551.666	1364.84
552.092	1356.81
552.518	1352.44
552.943	1348.86
553.369	1354.11
553.795	1358.58
554.221	1359.3
554.646	1357
555.072	1364.88
555.498	1366.5
555.923	1372.92
556.349	1384.01
556.774	1390.56
557.199	1390.15
557.625	1393.81
558.05	1389.7
558.475	1396.39
558.9	1394.66
559.325	1388.21
559.75	1383.82
560.175	1379.49
560.6	1374.34
561.025	1371.78
561.449	1372.45
561.874	1376.7
562.299	1381.17
562.723	1385.7
563.148	1378.78
563.572	1381.44
563.997	1389.57
564.421	1393.45
564.846	1393.78
565.27	1396.28
565.694	1394.98
566.118	1403.29
566.542	1408.64
566.966	1402.67
567.39	1399.13
567.814	1390.77
568.238	1390.96
568.662	1393.84
569.086	1395.59
569.509	1400.34
569.933	1388.83
570.357	1382.78
570.78	1367.34
571.204	1358.08
571.627	1350.44
572.05	1349.47
572.474	1350.01
572.897	1340.27
573.32	1334.59
573.743	1327.9
574.166	1313.68
574.589	1313.17
575.012	1308.37
575.435	1306.94
575.858	1299.11
576.281	1289.61
576.704	1277.4
577.126	1267.43
577.549	1258.96
577.972	1251.67
578.394	1242.9
578.817	1238.26
579.239	1224.08
579.661	1212.74
580.084	1201.09
580.506	1191.5
580.928	1187.21
581.35	1178.06
581.772	1174.15
582.194	1163.78
582.616	1152.78
583.038	1140.54
583.46	1132.25
583.882	1129.8
584.303	1131.96
584.725	1127.56
585.147	1128.8
585.568	1138.04
585.99	1148.14
586.411	1151.59
586.833	1162.01
587.254	1163.25
587.675	1173.84
588.096	1182.87
588.518	1178.61
588.939	1166.88
589.36	1165.18
589.781	1156.86
590.202	1135.44
590.623	1126.78
591.043	1125.19
591.464	1116.04
591.885	1114.17
592.305	1110.91
592.726	1100.5
593.147	1101.44
593.567	1097.04
593.987	1091.77
594.408	1087.22
594.828	1085.34
595.248	1081.25
595.669	1068.63
596.089	1062.36
596.509	1057.31
596.929	1046.84
597.349	1047.51
597.769	1039.07
598.189	1033.61
598.608	1033.68
599.028	1035.15
599.448	1033.98
599.867	1024.82
600.287	1020.72
600.706	1018.22
601.126	1010.18
601.545	1008.68
601.965	1006.65
602.384	1003.05
602.803	1004.87
603.222	1001.74
603.641	995.84
604.061	993.57
604.48	989.98
604.898	995.63
605.317	997.65
605.736	997.66
606.155	995.82
606.574	989.16
606.992	992.75
607.411	988.87
607.829	981.5
608.248	978.43
608.666	975.74
609.085	975.42
609.503	968.05
609.921	963.46
610.339	965.34
610.758	963.58
611.176	958.77
611.594	951.31
612.012	948.55
612.43	950.85
612.847	955.42
613.265	955.17
613.683	956.68
614.101	957.88
614.518	954.2
614.936	945.97
615.353	934.88
615.771	932.52
616.188	932.29
616.606	929.17
617.023	923.24
617.44	912.6
617.857	907.77
618.274	901.19
618.691	895.73
619.108	889.29
619.525	884.59
619.942	889.2
620.359	890.27
620.776	885.41
621.192	882.52
621.609	881.1
622.026	885.3
622.442	888.88
622.859	890.55
623.275	885.44
623.691	888.64
624.108	896.87
624.524	906.55
624.94	907.25
625.356	914.6
625.772	924.28
626.188	932.5
626.604	933.99
627.02	931.38
627.436	930.85
627.852	936.36
628.268	945.68
628.683	938.41
629.099	932.95
629.514	929.76
629.93	932.06
630.345	933.92
630.761	931.24
631.176	934.89
631.591	931.4
632.007	927.48
632.422	925.4
632.837	916.67
633.252	915.58
633.667	908.03
634.082	901.58
634.497	893.13
634.911	880.3
635.326	877.17
635.741	863.24
636.155	854.69
636.57	855.6
636.984	854.17
637.399	855.43
637.813	853.5
638.228	851.44
638.642	852.09
639.056	842.89
639.47	840.16
639.884	832.33
640.298	825.83
640.712	822.66
641.126	810.66
641.54	802.38
641.954	795.33
642.368	784.8
642.781	777.7
643.195	763.49
643.609	761.2
644.022	755.61
644.436	750.14
644.849	739.97
645.262	730.12
645.676	728.18
646.089	723.33
646.502	712.5
646.915	707.54
647.328	692.93
647.741	690.11
648.154	679.94
648.567	675.96
648.98	666.69
649.393	665.74
649.805	662.99
650.218	657.65
650.631	645.42
651.043	639.9
651.456	634.7
651.868	633.91
652.28	643.41
652.693	650.65
653.105	653
653.517	656.99
653.929	655.79
654.341	656.85
654.753	646.92
655.165	650.26
655.577	646.68
655.989	642.99
656.401	637.3
656.813	614.53
657.224	600.2
657.636	581.58
658.047	569.24
658.459	555.81
658.87	548.67
659.282	539.9
659.693	525.56
660.104	514.84
660.515	504.72
660.926	500.63
661.338	495.77
661.749	490.22
662.159	483.12
662.57	478.41
662.981	473.21
663.392	467.22
663.803	467.36
664.213	463.57
664.624	459.75
665.035	458.55
665.445	449.55
665.855	444.49
666.266	439.43
666.676	436.37
667.086	429.25
667.497	429.46
667.907	424.54
668.317	419.24
668.727	418.02
669.137	415.8
669.547	414.42
669.956	415.21
670.366	414.49
670.776	415.1
671.186	416.59
671.595	418.92
672.005	418.87
672.414	419.02
672.824	417.86
673.233	419.85
673.642	422.28
674.052	423.62
674.461	425.13
674.87	429.08
675.279	428
675.688	427.7
676.097	429.47
676.506	428.08
676.915	435.85
677.323	437.85
677.732	437.54
678.141	438.63
678.549	433.86
678.958	433.92
679.366	434.38
679.775	437.17
680.183	445.99
680.592	450.75
681	456.91
681.408	454.58
681.816	461.26
682.224	467.52
682.632	475.5
683.04	495.74
683.448	513.58
683.856	534.42
684.264	560.33
684.671	583.72
685.079	610.82
685.487	640.09
685.894	683.17
686.302	719.87
686.709	751.78
687.116	789.59
687.524	821.75
687.931	853.19
688.338	880.07
688.745	904.1
689.152	930.68
689.559	965.89
689.966	1002.38
690.373	1023.63
690.78	1057.1
691.187	1107.41
691.593	1146.53
692	1181.33
692.407	1228.43
692.813	1288.44
693.22	1336.6
693.626	1385.84
694.032	1426.15
694.439	1484.01
694.845	1530.05
695.251	1588.71
695.657	1639.6
696.063	1715.46
696.469	1772.1
696.875	1826.04
697.281	1856.04
697.687	1892.4
698.093	1923.09
698.498	1980.56
698.904	2025.07
699.31	2091.46
699.715	2140.02
700.12	2208.6
700.526	2223.16
700.931	2276.31
701.337	2315.1
701.742	2339.19
702.147	2400.42
702.552	2424.13
702.957	2470.7
703.362	2486.71
703.767	2510.63
704.172	2540
704.577	2505.84
704.981	2540.69
705.386	2552.54
705.791	2545.63
706.195	2601.96
706.6	2609.43
707.004	2668.86
707.408	2642.65
707.813	2663.41
708.217	2653.55
708.621	2652.89
709.025	2725.4
709.43	2724.91
709.834	2770.63
710.237	2821.42
710.641	2810.66
711.045	2826.81
711.449	2819.84
711.853	2842.03
712.256	2870.41
712.66	2897.88
713.064	2954.71
713.467	2983.95
713.87	3066.6
714.274	3099.61
714.677	3181.64
715.08	3298.99
715.484	3422.56
715.887	3576.79
716.29	3723.77
716.693	3877.76
717.096	4052.97
717.499	4147.99
717.901	4166.8
718.304	4184.07
718.707	4199.96
719.109	4123.54
719.512	4098.93
719.915	3998.57
720.317	3953.09
720.719	3982.87
721.122	3961.99
721.524	3922.02
721.926	3891.77
722.328	3963.9
722.731	3956.55
723.133	3975.04
723.535	4116.13
723.937	4128.59
724.338	4165.49
724.74	4193.76
725.142	4155.64
725.544	4151.62
725.945	4171.8
726.347	4167.5
726.748	4160.41
727.15	4169.67
727.551	4143.77
727.952	4119.91
728.354	4097.56
728.755	4096.24
729.156	4065.3
729.557	4048.02
729.958	3958.71
730.359	3917.62
730.76	3904.35
731.161	3858.88
731.562	3839.85
731.962	3841.23
732.363	3794.63
732.763	3750.22
733.164	3775.03
733.564	3724.67
733.965	3653.47
734.365	3627.06
734.766	3645.86
735.166	3615.15
735.566	3576.23
735.966	3556.7
736.366	3551.13
736.766	3506.11
737.166	3526.76
737.566	3497.07
737.966	3476.93
738.365	3504.94
738.765	3502.94
739.165	3449.14
739.564	3430.69
739.964	3462.15
740.363	3428.42
740.763	3424.55
741.162	3414.81
741.561	3392.78
741.96	3359.02
742.36	3374.59
742.759	3380.7
743.158	3407.43
743.557	3418.79
743.955	3448.89
744.354	3418.06
744.753	3460.14
745.152	3432.77
745.55	3474.12
745.949	3467.07
746.348	3469.2
746.746	3480.81
747.144	3449.2
747.543	3431.44
747.941	3467.44
748.339	3413.92
748.737	3406.18
749.136	3399.57
749.534	3444.31
749.932	3423.5
750.33	3442.76
750.727	3481.98
751.125	3464.58
751.523	3453.74
751.921	3485.59
752.318	3459.1
752.716	3502.11
753.113	3512.42
753.511	3530.46
753.908	3530.13
754.305	3517.57
754.703	3562.55
755.1	3606.61
755.497	3649.56
755.894	3785.87
756.291	3914.11
756.688	4153.5
757.085	4469.87
757.482	4917.57
757.878	5404.58
758.275	5847.42
758.672	6453.92
759.068	6947.11
759.465	7648.99
759.861	8555.1
760.258	9610.39
760.654	10153.42
761.05	10071.2
761.447	9616.85
761.843	8948.02
762.239	8265.61
762.635	7957.37
763.031	7659.76
763.427	7230.46
763.822	6782.67
764.218	6338.88
764.614	5760.64
765.01	5375.65
765.405	5125.88
765.801	4935.25
766.196	4693.2
766.592	4556.92
766.987	4328.13
767.382	4175.51
767.778	4111.19
768.173	4018.55
768.568	3966.56
768.963	3878.86
769.358	3892.18
769.753	3858.6
770.148	3797.59
770.542	3798.97
770.937	3778.19
771.332	3844.15
771.726	3858.24
772.121	3814.59
772.515	3856.61
772.91	3847.97
773.304	3898.42
773.699	3850.52
774.093	3888.89
774.487	3927.38
774.881	3958.96
775.275	3954.72
775.669	3926.4
776.063	3959.18
776.457	3985.34
776.851	3928.87
777.245	3923.04
777.638	3948.63
778.032	4031.07
778.425	4003.41
778.819	4037.14
779.212	4007.7
779.606	3978.77
779.999	3991.72
780.392	3980.25
780.786	4039.23
781.179	4055.28
781.572	4086.63
781.965	4094.68
782.358	4055.76
782.751	4099.95
783.143	4062.64
783.536	4113.3
783.929	4143.55
784.322	4227.05
784.714	4246.96
785.107	4243.14
785.499	4293.98
785.891	4278.7
786.284	4263.47
786.676	4367.25
787.068	4352.06
787.46	4389.55
787.852	4405.6
788.245	4469.72
788.636	4487.59
789.028	4538.73
789.42	4566.58
789.812	4572.02
790.204	4640
790.595	4712.93
790.987	4569.92
791.378	4583.67
791.77	4675.58
792.161	4772.16
792.553	4810.5
792.944	4732.86
793.335	4681.35
793.726	4732.14
794.117	4798.9
794.508	4892.69
794.899	4866.06
795.29	4963.15
795.681	5005.73
796.072	4903.06
796.463	4771.52
796.853	4778.84
797.244	4892.17
797.634	4913
798.025	4911.8
798.415	4918.2
798.806	4983.6
799.196	5047.02
799.586	5084.54
799.976	5056.6
800.366	5222.3
800.756	5387.47
801.146	5357.11
801.536	5377.17
801.926	5432.49
802.316	5450.84
802.706	5502.17
803.095	5416.39
803.485	5489.85
803.874	5514.79
804.264	5700.41
804.653	5680.68
805.043	5791.03
805.432	5868.69
805.821	5871.8
806.21	5887.26
806.599	5975.27
806.988	6004.06
807.377	6079.07
807.766	6169.65
808.155	6374.51
808.544	6183.39
808.933	6197.74
809.321	6182.2
809.71	6392.79
810.098	6502.27
810.487	6829.85
810.875	7165.8
811.264	7183.2
811.652	7390.1
812.04	7493.31
812.428	7608.66
812.816	8154.83
813.204	8445.82
813.592	8830.9
813.98	9074.25
814.368	9004.3
814.756	9344.38
815.144	9290.07
815.531	9618.74
815.919	9562.12
816.306	9781.01
816.694	9561.18
817.081	9596.26
817.469	9847.37
817.856	9849.19
818.243	10031.24
818.63	10314.52
819.017	10015.1
819.404	10058.34
819.791	10329.08
820.178	10762.62
820.565	10934.13
820.952	11599.42
821.339	11242.99
821.725	11367.49
822.112	10835.33
822.498	10805.74
822.885	10890.08
823.271	10820.64
823.657	11118.32
824.044	11122.27
824.43	11179.26
824.816	11162
825.202	10850.27
825.588	11573.7
825.974	11583.13
826.36	11951.11
826.746	11976.16
827.132	12231.08
827.517	12213.2
827.903	11645.96
828.289	11677.11
828.674	11124.75
829.06	11051.33
829.445	11330.14
829.83	11585.62
830.216	11925.83
830.601	12180.9
830.986	11892.87
831.371	11798.44
831.756	12195.76
832.141	11900.9
832.526	11892.45
832.911	12096.04
833.295	12011.97
833.68	12343.38
834.065	11908.02
834.449	11260.08
834.834	11213.45
835.218	11212.2
835.603	11457.96
835.987	11307.82
836.371	11901.07
836.755	11824.26
837.139	12109.02
837.524	12284.51
837.908	12168.64
838.291	12216.87
838.675	12268.23
839.059	12423.5
839.443	12415.98
839.827	12244.45
840.21	12583.54
840.594	12477.46
840.977	12632.81
841.361	12615.72
841.744	12882.96
842.127	12769.36
842.511	12935.54
842.894	13356.41
843.277	13626.91
843.66	14017.02
844.043	14073.68
844.426	13506.87
844.809	13283.29
845.191	13308.43
845.574	12985.69
845.957	12725.65
846.339	12647.65
846.722	12274.84
847.104	12327.68
847.487	12199.43
847.869	12205.81
848.252	12409.16
848.634	12645.13
849.016	12833.97
849.398	12919.73
849.78	13514.85
850.162	13518.8
850.544	13815.66
850.926	14262.09
851.307	14205.25
851.689	14408.37
852.071	14735.36
852.452	14970.6
852.834	14950.64
853.215	15235.81
853.597	15337.29
853.978	15549.76
854.359	15878.92
854.741	15158.51
855.122	15086.1
855.503	14868.34
855.884	14961.17
856.265	14912.75
856.646	14992.58
857.026	14718.26
857.407	14671.84
857.788	14793.58
858.169	15001.95
858.549	14395.06
858.93	14845.86
859.31	14884.17
859.69	15034.99
860.071	14751.47
860.451	14594.93
860.831	14063.2
861.211	14881.35
861.591	15266.04
861.971	15244.04
862.351	15375.68
862.731	15643.25
863.111	15840.16
863.491	16071.65
863.87	16689.6
864.25	16916.82
864.629	16635.47
865.009	16998.91
865.388	17603.34
865.768	18861.95
866.147	18792.51
866.526	17757.92
866.905	17979.67
867.284	18967.57
867.663	18013.13
868.042	17268.67
868.421	17216.53
868.8	17490.11
869.179	17666.58
869.558	16631.78
869.936	15335.22
870.315	15603.75
870.693	15979.17
871.072	17222.02
871.45	16414.52
871.828	16616.66
872.207	17470.38
872.585	17211.86
872.963	17689.79
873.341	17078.95
873.719	16884.58
874.097	16675.59
874.475	16981.99
874.853	17368.43
875.23	16651.09
875.608	17347.54
875.986	18760.28
876.363	17933.63
876.741	18485.21
877.118	18017.58
877.495	18892.65
877.873	19202.87
878.25	20216.84
878.627	19406.89
879.004	19681.13
879.381	19584.27
879.758	19069.97
880.135	17763.47
880.512	18792.43
880.889	18287.33
881.265	18104.26
881.642	17974.68
882.019	18288.19
882.395	17908.5
882.772	18615.21
883.148	17815.82
883.524	17747.45
883.901	17642.43
884.277	17908.29
884.653	17791.53
885.029	18296.53
885.405	20271.19
885.781	20097.9
886.157	19271.16
886.532	19527.04
886.908	19526.55
887.284	21721.31
887.659	22435.99
888.035	23143.26
888.411	23741.26
888.786	24067.74
889.161	24910.92
889.537	24451.34
889.912	25253.56
890.287	25222.24
890.662	25857.42
891.037	25392.1
891.412	23668.48
891.787	23431.15
892.162	22612.96
892.536	23136.78
892.911	22265.77
893.286	21796.36
893.66	20913.26
894.035	21432.55
894.409	23348.52
894.784	22402.75
895.158	22770.15
895.532	24117.32
895.906	24782.95
896.281	25364.1
896.655	24963.16
897.029	28509.54
897.402	29694.51
897.776	33054.86
898.15	32933.29
898.524	32565.45
898.898	32983.65
899.271	36911.77
899.645	31963.19
900.018	30684.33
900.392	31830.23
900.765	32101.04
901.138	29718.81
901.511	29258.86
901.884	26865.68
902.258	24798.33
902.631	25624.59
903.003	29515.63
903.376	26648.92
903.749	29884.69
904.122	31988.7
904.495	35193.67
904.867	35634.86
905.24	30938.94
905.612	28819.56
905.985	29451.58
906.357	30787.32
906.729	29385.86
907.102	25099.54
907.474	24121.58
907.846	24274.12
908.218	23954.55
908.59	21174.83
908.962	20472.05
909.334	22040.13
909.705	23154.67
910.077	22495.22
910.449	23413.16
910.82	24065.24
911.192	26471.86
911.563	27508.52
911.935	29454.67
912.306	29481.31
912.677	30452.85
913.048	30166.24
913.419	32751.69
913.79	32936.31
914.161	35314.11
914.532	33773.86
914.903	31044.42
915.274	29503
915.645	29094.97
916.015	25592.07
916.386	24408.81
916.756	25978.83
917.127	26775.05
917.497	23910.18
917.868	26011.91
918.238	24730.53
918.608	25435.78
918.978	25968.01
919.348	27495.65
919.718	28395.74
920.088	27368.33
920.458	28432.53
920.828	29940.46
921.198	28405.6
921.567	30354.84
921.937	23532.35
922.306	23758.2
922.676	25631.47
923.045	21396.36
923.415	20340.35
923.784	18524.33
924.153	19041.67
924.522	19020
924.891	17871.36
925.26	19149.69
925.629	18705.42
925.998	21496.91
926.367	20966.71
926.736	19973.69
927.104	23785.61
927.473	25552.89
927.842	30862.37
928.21	30550.95
928.578	32150.53
928.947	30407.8
929.315	30571.96
929.683	35832
930.051	36067.38
930.42	41894.27
930.788	35793.21
931.156	35526.98
931.523	33311.76
931.891	30798.6
932.259	29595.19
932.627	34267.52
932.994	48472.9
933.362	40093.85
933.729	34852.06
934.097	33426.03
934.464	28299.1
934.831	32659.51
935.199	32172.97
935.566	31232.02
935.933	31698.18
936.3	38445.52
936.667	29970.03
937.034	27064.9
937.401	26774.61
937.767	23087.26
938.134	20548.9
938.501	28987.95
938.867	30880.22
939.234	52236.55
939.6	44550.67
939.967	48983.5
940.333	32798.38
940.699	27938.36
941.065	22388.43
941.431	29325.33
941.798	28322.27
942.163	37210.3
942.529	23269.97
942.895	21418.97
943.261	13874.45
943.627	18167.71
943.992	15915.89
944.358	15933.41
944.723	15971.37
945.089	15570.33
945.454	14388.06
945.82	15344.33
946.185	14731.95
946.55	17052.83
946.915	15306.03
947.28	17945.78
947.645	15823.41
948.01	14579.26
948.375	15197.74
948.74	18198.35
949.104	21244.65
949.469	30703.42
949.834	54323.4
950.198	51496.89
950.562	30870.98
950.927	25711.48
951.291	30926.66
951.655	26342.58
952.02	24776.7
952.384	18743.13
952.748	16337.94
953.112	15952.06
953.476	13864.09
953.839	12816.06
954.203	12711.72
954.567	15899.18
954.931	25047.9
955.294	21425.76
955.658	21546.81
956.021	36621.26
956.385	62022.03
956.748	91492.62
957.111	141766.52
957.474	159138.8
957.837	179002.71
958.2	135111.59
958.563	48593.35
958.926	32837.09
959.289	49848.79
959.652	55690.92
960.015	41807.37
960.377	59979.91
960.74	68432.7
961.102	117983.04
961.465	126878.39
961.827	68101.9
962.189	130771.95
962.552	90776.04
962.914	72885.02
963.276	47265.47
963.638	39047.55
964	38672.72
964.362	26143.09
964.724	25289.23
965.085	18037.96
965.447	14788.34
965.809	16845.49
966.17	16876.68
966.532	18241.63
966.893	16730.02
967.255	15237.62
967.616	17994.75
967.977	14417.26
968.338	15750.3
968.699	12942.92
969.061	12954.65
969.421	13035.56
969.782	14621.32
970.143	12328.99
970.504	12765.35
970.865	14501.05
971.225	14801.6
971.586	14490.77
971.946	20657.71
972.307	17942.86
972.667	23452.15
973.027	24158.5
973.388	29265.93
973.748	19917.61
974.108	21733.33
974.468	29416.12
974.828	22717.28
975.188	17529.83
975.548	16108.68
975.907	13509.83
976.267	15147.26
976.627	12748.35
976.986	13199.88
977.346	12598.77
977.705	12103.48
978.064	11020.12
978.424	9170.75
978.783	9469.52
979.142	10783.14
979.501	10315.01
979.86	10911.52
980.219	10513.52
980.578	13526.77
980.937	15183
981.296	13527.42
981.654	13929.75
982.013	21667.87
982.371	28122.43
982.73	26275.52
983.088	29781.66
983.447	31788.38
983.805	45366.31
984.163	94775.02
984.521	105238.64
984.879	153852.63
985.237	-250338.85
985.595	241381.37
985.953	59997.77
986.311	34658.14
986.669	20117.57
987.026	17368.07
987.384	23355
987.741	24153.13
988.099	17302.36
988.456	13810.56
988.814	12932.32
989.171	11239.51
989.528	11099.7
989.885	11719.07
990.242	9274.33
990.599	11557.44
990.956	9450.22
991.313	6615.35
991.67	5432.46
992.027	5769.97
992.383	5127.42
992.74	4505.95
993.096	4732.56
993.453	4900.28
993.809	5076.16
994.165	6755.78
994.522	6204.62
994.878	6843.02
995.234	8588.29
995.59	8472.22
995.946	7987.49
996.302	9104.01
996.658	10500.05
997.013	11534.2
997.369	13693.13
997.725	17560.09
998.08	11410.78
998.436	17551.01
998.791	24246.23
999.147	24215.19
999.502	26458.6
999.857	19278.81
1000.212	31415.35
1000.567	44813.38
1000.922	25909.02
1001.277	16441.69
1001.632	12173.85
1001.987	15634.15
1002.342	11232.22
1002.696	8980.75
1003.051	7170.97
1003.406	8686.08
1003.76	8632.65
1004.114	8508.14
1004.469	7150.28
1004.823	5925.29
1005.177	6415.23
1005.531	5090.88
1005.885	4537.17
1006.239	5119.29
1006.593	6417.97
1006.947	8609.52
1007.301	6460.42
1007.655	7066.63
1008.008	5194.08
1008.362	5821.71
1008.715	8298.79
1009.069	7503.18
1009.422	11336.14
1009.776	22703.62
1010.129	15070
1010.482	12569.95
1010.835	10625.1
1011.188	22162.32
1011.541	20799.71
1011.894	-127238.16
1012.247	376429.24
1012.6	25599.35
1012.952	16278.54
1013.305	8381.7
1013.657	6052.66
1014.01	5719.3
1014.362	4721.89
1014.715	4194.8
1015.067	3648.82
1015.419	3566.66
1015.771	3164.8
1016.123	2808.25
1016.475	2883.02
1016.827	3051.17
1017.179	3279.37
1017.531	3300.68
1017.883	3375.73
1018.234	3271.37
1018.586	4131.98
1018.938	4387.9
1019.289	6043.49
1019.64	6886.32
1019.992	6443.33
1020.343	5930.55
1020.694	4706.79
1021.045	4154.7
1021.396	4745.02
1021.747	5099.01
1022.098	6115.1
1022.449	4403.38
1022.8	4086.3
1023.151	2865.17
1023.501	2553.22
1023.852	2766.75
1024.202	2859.87
1024.553	3121.6
1024.903	3058.34
1025.253	2614.69
1025.604	2356.13
1025.954	2906.26
1026.304	3547.71
1026.654	4123.26
1027.004	6038.17
1027.354	9772.21
1027.703	9207.74
1028.053	12034.76
1028.403	17749.14
1028.753	25703.79
1029.102	34885.82
1029.452	178626.77
1029.801	7744.78
1030.15	5009.92
1030.499	4242.12
897.758	2221.59
901.051	2149.34
904.343	2184.94
907.636	2192.02
910.928	2255.77
914.22	2175.04
917.511	2179.43
920.803	2230.62
924.094	2227.72
927.384	2230.2
930.675	2193.08
933.965	2153.89
937.255	2187.32
940.544	2154.3
943.834	2153.11
947.123	2091.5
950.411	2179.84
953.7	2161.61
956.988	2143.4
960.276	2080.08
963.563	2128.57
966.851	2140.58
970.138	2182.93
973.424	2182.91
976.711	2136.59
979.997	2183.54
983.283	2229.47
986.568	2159.74
989.853	2148.54
993.138	2177.27
996.423	2262.1
999.708	2219.97
1002.992	2250.43
1006.275	2164.24
1009.559	2171.13
1012.842	2268.13
1016.125	2224.01
1019.408	2202.01
1022.69	2259.42
1025.972	2293.8
1029.254	2268.62
1032.536	2229.49
1035.817	2238.09
1039.098	2208.18
1042.379	2256.57
1045.659	2284.09
1048.939	2232.18
1052.219	2238.98
1055.498	2230.68
1058.778	2225.97
1062.057	2202.31
1065.335	2223.82
1068.614	2235.72
1071.892	2233.83
1075.17	2284.66
1078.447	2288.77
1081.724	2281.44
1085.001	2307.11
1088.278	2284.18
1091.554	2290.12
1094.83	2284.07
1098.106	2321.43
1101.382	2352.16
1104.657	2351.23
1107.932	2349.06
1111.206	2328.01
1114.481	2280.31
1117.755	2280.25
1121.029	2271.76
1124.302	2330.8
1127.575	2296.64
1130.848	2294.37
1134.121	2262.59
1137.393	2223.91
1140.665	2283
1143.937	2261.02
1147.208	2208.16
1150.48	2266.49
1153.75	2254.28
1157.021	2258.16
1160.291	2232.94
1163.561	2287.27
1166.831	2253.27
1170.101	2278.86
1173.37	2242.55
1176.639	2198.03
1179.907	2243.86
1183.176	2267.42
1186.444	2265.3
1189.711	2291.88
1192.979	2315.74
1196.246	2273.47
1199.513	2284.15
1202.78	2291.35
1206.046	2300.56
1209.312	2325.56
1212.578	2343.8
1215.843	2308.89
1219.108	2278.79
1222.373	2306
1225.638	2277.93
1228.902	2271.18
1232.166	2225.7
1235.43	2216.36
1238.693	2242.88
1241.956	2234.86
1245.219	2281.33
1248.482	2264.51
1251.744	2263.73
1255.006	2383.92
1258.268	2332.7
1261.529	2288.88
1264.79	2284.9
1268.051	2385.3
1271.312	2392.59
1274.572	2362.3
1277.832	2349.1
1281.092	2331.03
1284.351	2320.37
1287.61	2304.59
1290.869	2239.67
1294.128	2234.61
1297.386	2281.75
1300.644	2280.39
1303.902	2288.03
1307.159	2157.91
1310.416	2208.36
1313.673	2237
1316.93	2237.33
1320.186	2267.7
1323.442	2301.42
1326.697	2302.46
1329.953	2276.07
1333.208	2313.93
1336.463	2283.67
1339.717	2245.54
1342.972	2351.22
1346.226	2325.52
1349.479	2274.86
1352.733	2252.87
1355.986	2261.03
1359.238	2240.45
1362.491	2248.74
1365.743	2247.83
1368.995	2238.65
1372.247	2254.94
1375.498	2275.01
1378.749	2317.69
1382	2266.84
1385.251	2302.83
1388.501	2257.73
1391.751	2258.37
1395	2226.33
1398.25	2250.01
1401.499	2274.55
1404.748	2226.16
1407.996	2201.77
1411.244	2191.08
1414.492	2176.43
1417.74	2160.43
1420.987	2168.42
1424.234	2226.38
1427.481	2188.06
1430.728	2246.04
1433.974	2220.44
1437.22	2218.67
1440.465	2215.16
1443.711	2214.41
1446.956	2238.59
1450.201	2209.76
1453.445	2250.9
1456.689	2236.75
1459.933	2249.54
1463.177	2288.87
1466.42	2261.26
1469.663	2245.96
1472.906	2260.23
1476.148	2308.15
1479.391	2280.64
1482.633	2254.46
1485.874	2279.48
1489.115	2285.66
1492.356	2268.51
1495.597	2246.52
1498.838	2239.35
1502.078	2222.52
1505.318	2191.49
1508.557	2226.29
1511.797	2221.33
1515.036	2263.75
1518.274	2236.95
1521.513	2190.23
1524.751	2202.9
1527.989	2226.29
1531.227	2244.13
1534.464	2256.57
1537.701	2250.06
1540.938	2262.68
1544.174	2210.66
1547.41	2201.33
1550.646	2238.33
1553.882	2286.51
1557.117	2342.03
1560.352	2351.37
1563.587	2312.97
1566.821	2278.53
1570.055	2292.6
1573.289	2276.27
1576.523	2332.3
1579.756	2344.87
1582.989	2365.13
1586.222	2326.45
1589.454	2353.62
1592.686	2337.63
1595.918	2362.21
1599.15	2358.99
1602.381	2405.51
1605.612	2387.38
1608.843	2476.26
1612.073	2403.19
1615.303	2391.99
1618.533	2388.51
1621.762	2389.32
1624.992	2364.52
1628.221	2366.62
1631.449	2354.5
1634.678	2383.23
1637.906	2350.91
1641.134	2379.14
1644.361	2344.66
1647.588	2333.41
1650.815	2354.25
1654.042	2319.39
1657.269	2344.41
1660.495	2326.13
1663.72	2311.38
1666.946	2281
1670.171	2253.83
1673.396	2227.86
1676.621	2208.36
1679.845	2205.99
1683.069	2215.89
1686.293	2244.71
1689.517	2234.76
1692.74	2186.34
1695.963	2208.44
1699.185	2248.79
1702.408	2222.92
1705.63	2251.29
1708.852	2269.44
1712.073	2242.07
1715.294	2253.28
1718.515	2294.46
1721.736	2254.52
1724.956	2235.54
1728.176	2257.98
1731.396	2278.87
1734.616	2263.82
1737.835	2299.64
1741.054	2270.55
1744.272	2263.65
1747.491	2305.21
1750.709	2329.47
1753.927	2276.83
1757.144	2302.11
1760.361	2358.53
1763.578	2336.56
1766.795	2286.05
1770.011	2276.84
1773.227	2301.5
1776.443	2345.65
1779.658	2386.46
1782.874	2327.25
1786.089	2319.81
1789.303	2322.02
1792.518	2322.37
1795.732	2308.3
1798.945	2323.72
1802.159	2364.37
1805.372	2305.7
1808.585	2302.05
1811.797	2302.06
1815.01	2323.11
1818.222	2343.64
1821.434	2302.89
1824.645	2346.05
1827.856	2354.17
1831.067	2386.17
1834.278	2323.88
1837.488	2308.16
1840.698	2432.6
1843.908	2372.33
1847.117	2341.32
1850.326	2268.03
1853.535	2329.42
1856.744	2366.66
1859.952	2290.05
1863.16	2292.27
1866.368	2307.18
1869.575	2420.36
1872.782	2305.13
1875.989	2239.96
1879.196	2292.28
1882.402	2285
1885.608	2320.3
1888.814	2262.44
1892.019	2167.77
1895.224	2220.72
1898.429	2186.56
1901.634	2171.95
1904.838	2146.11
1908.042	2204.16
1911.246	2214.8
1914.449	2176.83
1917.652	2157.13
1920.855	2137.73
1924.058	2162.36
1927.26	2211.1
1930.462	2231.84
1933.664	2271.91
1936.865	2213.87
1940.066	2230.23
1943.267	2176.11
1946.467	2186.61
1949.668	2205.4
1952.868	2278.85
1956.067	2268.77
1959.267	2208.9
1962.466	2231.23
1965.665	2213.2
1968.863	2205.76
1972.061	2209.06
1975.259	2203
1978.457	2277.68
1981.654	2236.75
1984.852	2241.28
1988.048	2191.05
1991.245	2180.18
1994.441	2268.27
1997.637	2227.05
2000.833	2209.49
2004.028	2246.37
2007.223	2309.86
2010.418	2297.58
2013.613	2247.26
2016.807	2242.59
2020.001	2233.92
2023.194	2258.76
2026.388	2243.64
2029.581	2187.77
2032.774	2250.99
2035.966	2262.67
2039.158	2206.92
2042.35	2223.81
2045.542	2150.6
2048.733	2232.02
2051.924	2224.97
2055.115	2241.63
2058.306	2205.47
2061.496	2258.95
2064.686	2309.94
2067.875	2216.86
2071.065	2221.66
2074.254	2239.83
2077.442	2194.89
2080.631	2277.17
2083.819	2208.16
2087.007	2202.46
2090.195	2186.45
2093.382	2202.41
2096.569	2185.78
2099.756	2146.01
2102.942	2192.62
2106.128	2204.31
2109.314	2193.9
2112.5	2178.4
2115.685	2147.31
2118.87	2155.08
2122.055	2214.91
2125.239	2195.01
2128.424	2181.38
2131.608	2240.84
2134.791	2226.76
2137.974	2265.46
2141.157	2255.22
2144.34	2226.76
2147.523	2215.7
2150.705	2241.63
2153.887	2210.69
2157.068	2182.62
2160.25	2164.38
2163.431	2187.3
2166.611	2158.76
2169.792	2179.51
2172.972	2090.53
2176.152	2141.88
2179.331	2169.04
2182.511	2174.41
2185.69	2197.53
2188.868	2200.48
2192.047	2236.47
2195.225	2252.54
2198.403	2203.52
2201.58	2190.71
2204.758	2176.8
2207.935	2252.09
2211.111	2165.6
2214.288	2154.74
2217.464	2188.49
2220.64	2143.08
2223.815	2193.4
2226.991	2126.02
2230.166	2143
2233.34	2184.03
2236.515	2196.76
2239.689	2262.01
2242.863	2212.78
2246.036	2267.15
2249.209	2248.6
2252.382	2269.16
2255.555	2278.61
2258.727	2229.37
2261.9	2256.76
2265.071	2247.88
2268.243	2245.71
2271.414	2193.62
2274.585	2176.04
2277.756	2235.94
2280.926	2193.16
2284.096	2222.34
2287.266	2151.4
2290.436	2197.3
2293.605	2216.9
2296.774	2254.66
2299.942	2262.12
2303.111	2277.67
2306.279	2330.74
2309.447	2316.63
2312.614	2286.11
2315.781	2310.69
2318.948	2288.42
2322.115	2324.98
2325.281	2226.16
2328.447	2234.32
2331.613	2203.02
2334.779	2192.26
2337.944	2189.62
2341.109	2191.35
2344.274	2179.25
2347.438	2149.95
2350.602	2169.21
2353.766	2179.26
2356.929	2167.64
2360.092	2204.83
2363.255	2175.67
2366.418	2142.73
2369.58	2212.2
2372.742	2080.98
2375.904	2075.94
2379.066	2060.93
2382.227	2085.44
2385.388	2046.13
2388.548	1998.27
2391.709	2041.19
2394.869	2029.54
2398.029	2084.41
2401.188	2081.54
2404.347	2042.18
2407.506	2125.02
2410.665	2163.71
2413.823	2149.27
2416.981	2127.94
2420.139	2147.47
2423.296	2188.06
2426.453	2159.44
2429.61	2180.01
2432.767	2150.39
2435.923	2190.76
2439.079	2138.26
2442.235	2173.62
2445.391	2112.87
2448.546	2155.17
2451.701	2190.96
2454.855	2187.01
2458.009	2212.73
2461.163	2204.49
2464.317	2176.04
2467.471	2202.38
2470.624	2230.1
2473.777	2220.99
2476.929	2235.25
2480.082	2259.6
2483.234	2234.13
2486.385	2172.46
2489.537	2166.28
2492.688	2158.03
2495.839	2171.78
2498.989	2187.44
2502.14	2174.53
2505.29	2166.33
2508.439	2188.54
2511.589	2129.77
2514.738	2130.36
2517.887	2153.64
2521.035	2230.86
2524.183	2190.22
2527.331	2176.67
2530.479	2171.77
2533.627	2173.66
