Data from C_2_DIV_OH_2N_Splice17_12-22-42-122.txt Node
Date: Sat Mar 14 12:22:42 EDT 2020
User: sa697716
Spectrometer: FLMS03696
Trigger mode: 0
Integration Time (sec): 3.180400E-1
Scans to average: 20
Electric dark correction enabled: true
Nonlinearity correction enabled: true
Boxcar width: 5
XAxis mode: Wavelengths
Number of Pixels in Spectrum: 2048
>>>>>Begin Spectral Data<<<<<
187.83	-284056.07
188.298	1964.45
188.766	1069.94
189.233	1039.04
189.701	1540.56
190.169	2121.3
190.636	720.03
191.104	583.46
191.571	48.29
192.039	-85.8
192.506	-84.52
192.974	547.21
193.441	-1184.15
193.908	-522.69
194.375	-58.28
194.842	55.4
195.31	119.48
195.777	133.57
196.244	296.09
196.711	377.31
197.177	496.36
197.644	722.86
198.111	1290.6
198.578	1808.37
199.045	1429.78
199.511	2290.65
199.978	2666.84
200.445	2266.57
200.911	2504.61
201.378	2835.06
201.844	2541.69
202.31	4302.43
202.777	4484.86
203.243	2449.37
203.709	2330.86
204.176	2800.2
204.642	2320.9
205.108	2147.79
205.574	1766.04
206.04	1610.8
206.506	1501.57
206.972	1418.98
207.438	1368.79
207.903	1539.75
208.369	1366.38
208.835	1368.66
209.301	1425.75
209.766	1454.16
210.232	1451.96
210.697	1790.15
211.163	2206.56
211.628	3347.64
212.094	2829.48
212.559	3520.51
213.024	2216.69
213.49	2717.27
213.955	2663.09
214.42	2599.68
214.885	2427.06
215.35	2349.62
215.815	2275.01
216.28	2410.42
216.745	1963.05
217.21	2132.24
217.675	1956.08
218.14	2196.73
218.604	2474.16
219.069	2841.38
219.534	3019.87
219.998	3554.29
220.463	4332.79
220.927	5379.02
221.392	5113.55
221.856	5198.56
222.32	6576.7
222.785	8181.56
223.249	10384.06
223.713	11605.39
224.177	11692.91
224.642	15033.22
225.106	18532.06
225.57	20282
226.034	15134.04
226.497	23050.53
226.961	20890.63
227.425	24403.44
227.889	27118.3
228.353	27133.33
228.816	56176.24
229.28	53696.54
229.744	45408.23
230.207	27645.26
230.671	27248.41
231.134	45113.78
231.597	52111.81
232.061	52231.05
232.524	50998.14
232.987	35204.77
233.45	31777.81
233.914	28524.63
234.377	29299.26
234.84	26851.54
235.303	31683.97
235.766	35448.42
236.229	36641.35
236.691	23123.43
237.154	26004.22
237.617	19601.6
238.08	20083.21
238.542	23519.77
239.005	16866.2
239.468	16747.67
239.93	15819.62
240.393	14411.79
240.855	12668.8
241.317	12992.52
241.78	15832.22
242.242	16395.46
242.704	17739.27
243.166	15471.98
243.629	14086.04
244.091	16255.43
244.553	17843.36
245.015	19199.47
245.477	24854.83
245.939	36493.64
246.4	38808.28
246.862	37777.97
247.324	35653.94
247.786	39931.06
248.247	52436.7
248.709	54149.77
249.17	40531
249.632	38285.71
250.093	44413.75
250.555	38425.62
251.016	23457.67
251.477	22287.04
251.939	24057.46
252.4	25281.78
252.861	30109.85
253.322	28027.74
253.783	33379.86
254.244	43313.93
254.705	34150.49
255.166	30402.77
255.627	29950.64
256.088	42250.92
256.549	44887.73
257.009	38670.49
257.47	46953.21
257.931	38178.34
258.391	28640.6
258.852	29537.06
259.312	30967.57
259.773	38262.24
260.233	32362.8
260.694	27297.49
261.154	30996.73
261.614	24887.26
262.074	22291
262.534	23158.33
262.994	21860.95
263.455	29129.04
263.915	24565.98
264.374	23159.8
264.834	25314.97
265.294	28040.37
265.754	29066.14
266.214	27488.55
266.673	25760.43
267.133	32518.66
267.593	32283.91
268.052	39521.21
268.512	34406.75
268.971	41503.07
269.431	45515.26
269.89	40749.76
270.349	61158.51
270.809	68174.07
271.268	61375.97
271.727	137668.86
272.186	89133.05
272.645	66844.58
273.104	48222.18
273.563	69798.9
274.022	54893.18
274.481	46715.45
274.94	35999.05
275.399	26749.94
275.857	31172.07
276.316	42118.47
276.775	37513.86
277.233	36961.11
277.692	34608.52
278.15	39163.8
278.609	40271.15
279.067	37241.38
279.525	34580.08
279.984	44702.73
280.442	53686.3
280.9	52911.92
281.358	34844.39
281.816	32469.54
282.274	31812.26
282.732	32868.68
283.19	33014.29
283.648	28511.54
284.106	30393.68
284.564	30921.95
285.021	28633.57
285.479	21311.32
285.937	19407.03
286.394	17023.59
286.852	17500.43
287.309	18376.83
287.767	17743.86
288.224	16885.66
288.682	18517.03
289.139	20354.27
289.596	18624.31
290.053	19354.89
290.511	24483.41
290.968	29672.09
291.425	40292.26
291.882	33580.12
292.339	29248
292.796	29050.05
293.252	27388.26
293.709	21759.54
294.166	19491.63
294.623	21560.64
295.079	20682.91
295.536	20775.82
295.992	18845.84
296.449	18626.21
296.905	19381.32
297.362	18585.53
297.818	19544.08
298.274	20261.79
298.731	20650.6
299.187	20436.75
299.643	21926.43
300.099	26564.72
300.555	29128.71
301.011	24340.42
301.467	23441.89
301.923	27401.1
302.379	26745.61
302.835	26272.79
303.291	26286.96
303.746	29897.57
304.202	37808.29
304.658	37989.62
305.113	25538.85
305.569	25033.7
306.024	26716.63
306.479	25499.55
306.935	21506.76
307.39	23511
307.845	21722.99
308.301	21911.68
308.756	21365.02
309.211	20570.39
309.666	21056.47
310.121	26137.66
310.576	26530.37
311.031	26356.37
311.486	30163.57
311.94	30128.94
312.395	40259.42
312.85	75716.81
313.305	371466.41
313.759	1926888.12
314.214	139451.44
314.668	110649.37
315.123	93081.82
315.577	33386.09
316.032	29667.16
316.486	37201.91
316.94	29343.79
317.394	20454.02
317.849	15886.49
318.303	15054.29
318.757	14191.87
319.211	15712.71
319.665	13756.59
320.119	13928.77
320.572	20022.91
321.026	18708.8
321.48	15575.95
321.934	17020.59
322.387	17066.83
322.841	18426.37
323.295	16568.59
323.748	19104.79
324.202	19401.38
324.655	23308.13
325.108	32582.8
325.562	22999.41
326.015	27366.78
326.468	20674.48
326.921	23128.83
327.374	21575.81
327.827	22529.92
328.28	25515.32
328.733	17106.69
329.186	15030.71
329.639	14355.01
330.092	12101
330.545	11524.1
330.997	11618.73
331.45	12703.81
331.903	14877.51
332.355	25607.68
332.808	24874.01
333.26	20558.93
333.713	22301.26
334.165	22471.72
334.617	29980.76
335.069	24243.98
335.522	43838.48
335.974	48610.69
336.426	44448.3
336.878	30771.91
337.33	15594.12
337.782	15245.56
338.234	19074.24
338.686	22869.32
339.137	27135.18
339.589	25568.84
340.041	20005.58
340.493	17206
340.944	17622.86
341.396	19010.89
341.847	16047.06
342.299	18966.22
342.75	23140.55
343.201	20245.57
343.653	23262.33
344.104	28605.83
344.555	22537.41
345.006	35211.66
345.457	26996.1
345.908	21475.71
346.359	20210.13
346.81	16453.95
347.261	17337
347.712	17079.46
348.163	18320.85
348.613	18553.81
349.064	17338.16
349.515	15177.69
349.965	15557.88
350.416	18763
350.866	20594.88
351.317	23279.94
351.767	38551.62
352.217	48728.14
352.668	40458.35
353.118	37044.77
353.568	35771.58
354.018	28271.2
354.468	29782.12
354.918	21328.71
355.368	18677.73
355.818	26396.94
356.268	76040.84
356.718	318038.93
357.168	79272.72
357.617	39804.12
358.067	44274.64
358.517	41422.11
358.966	48625.81
359.416	54654.82
359.865	59313.81
360.315	70618.1
360.764	33021.14
361.213	18483.49
361.663	17559.34
362.112	21658.61
362.561	35001.37
363.01	26440.46
363.459	22362.02
363.908	24198.3
364.357	20593.46
364.806	34792.87
365.255	23950.33
365.703	21936.71
366.152	22022.29
366.601	17891.02
367.05	14551.1
367.498	13248.03
367.947	13849.93
368.395	14408.07
368.844	12787.6
369.292	15406.14
369.74	10656.34
370.189	16359.68
370.637	19229.21
371.085	16642.1
371.533	20274.62
371.981	19589.09
372.429	18689.96
372.877	19535.54
373.325	16402.57
373.773	16763.57
374.221	14981.63
374.669	18644.58
375.116	16186.39
375.564	16374.7
376.012	18372.26
376.459	15206.87
376.907	18295.33
377.354	22248.35
377.801	20843.8
378.249	24029.48
378.696	30854.23
379.143	37658.57
379.591	40413.21
380.038	68759.07
380.485	50015.56
380.932	54300.6
381.379	50020.02
381.826	37007.52
382.273	26542.66
382.72	23415.66
383.166	23014.65
383.613	15072.02
384.06	13689.25
384.506	15985.84
384.953	11827.17
385.4	12016.33
385.846	10636.7
386.292	10488.11
386.739	10373.92
387.185	10336.16
387.631	10431.6
388.078	10225.19
388.524	11043.82
388.97	10297.17
389.416	8658.57
389.862	9301.61
390.308	8888.49
390.754	9102.34
391.2	9947.83
391.645	10258.72
392.091	9884.11
392.537	9633.56
392.983	9720.73
393.428	9620.12
393.874	10400.46
394.319	10500.49
394.765	10016.22
395.21	10376.58
395.655	9806.72
396.101	9238.19
396.546	8392.96
396.991	8535.94
397.436	7972.6
397.881	7748.69
398.326	7380.01
398.771	6997.06
399.216	6154.77
399.661	5571.89
400.106	5572.58
400.551	5715.97
400.995	5150.74
401.44	5108.11
401.885	4812.24
402.329	4876.44
402.774	4687.62
403.218	4545.15
403.663	4392.82
404.107	4527.35
404.551	4570.21
404.995	4199.06
405.44	4058.83
405.884	4126.67
406.328	4003.63
406.772	3996.55
407.216	3642.68
407.66	3524.53
408.104	3356.06
408.547	3145.86
408.991	3046.14
409.435	2932.3
409.879	2890.65
410.322	2853.72
410.766	2756.8
411.209	2619.3
411.653	2512.54
412.096	2457.87
412.54	2462.66
412.983	2443.36
413.426	2447.63
413.869	2444.6
414.312	2394.77
414.756	2308.83
415.199	2199.84
415.642	2134.35
416.085	2135.71
416.527	2122.74
416.97	2157.75
417.413	2043.41
417.856	2023.04
418.298	2001.33
418.741	1988.47
419.184	1984.24
419.626	2068.6
420.069	2067.14
420.511	2076.71
420.953	2029.6
421.396	2009.43
421.838	1956.77
422.28	1999.92
422.722	2007.26
423.164	2036.15
423.606	1999.76
424.048	1997.34
424.49	1894.1
424.932	1888
425.374	1861.85
425.816	1895.02
426.258	1931.38
426.699	1950.81
427.141	1920.11
427.582	1951.07
428.024	1939.66
428.465	1928.16
428.907	1879.01
429.348	1858.82
429.789	1852.59
430.231	1810.12
430.672	1832.11
431.113	1785.64
431.554	1759.18
431.995	1713.17
432.436	1648.97
432.877	1608.95
433.318	1577.64
433.759	1570.43
434.2	1565.88
434.64	1549.04
435.081	1553.15
435.522	1471.39
435.962	1417.61
436.403	1386
436.843	1406.94
437.284	1375.59
437.724	1343.51
438.164	1349.1
438.604	1321.19
439.045	1272.64
439.485	1220.27
439.925	1195.96
440.365	1167.55
440.805	1155.38
441.245	1140.72
441.685	1101.16
442.125	1095.91
442.564	1103.43
443.004	1080.55
443.444	1080.07
443.883	1083.36
444.323	1077.63
444.762	1083.39
445.202	1099.71
445.641	1117.82
446.081	1115.84
446.52	1127.57
446.959	1118.32
447.398	1090.26
447.837	1077.94
448.276	1059.43
448.716	1070.46
449.154	1082.64
449.593	1058.14
450.032	1056.34
450.471	1041.35
450.91	1044.01
451.349	1041.51
451.787	1038.55
452.226	1056.57
452.664	1057.62
453.103	1061.07
453.541	1062.4
453.98	1061.51
454.418	1069.94
454.856	1054.07
455.295	1053.26
455.733	1061.01
456.171	1068.51
456.609	1071.59
457.047	1072.9
457.485	1088.52
457.923	1091.62
458.361	1077.1
458.798	1082.99
459.236	1081.76
459.674	1090.03
460.111	1096.32
460.549	1086.95
460.987	1085.22
461.424	1083.03
461.862	1079.14
462.299	1064.65
462.736	1064.14
463.173	1068.36
463.611	1053.85
464.048	1050.48
464.485	1059.36
464.922	1049.68
465.359	1045.46
465.796	1024.79
466.233	1014.84
466.67	1003.73
467.106	1000.98
467.543	991.03
467.98	978.3
468.416	954.8
468.853	948.51
469.29	921.21
469.726	910.12
470.162	886.21
470.599	879.19
471.035	872.2
471.471	851.62
471.907	846.69
472.344	841.33
472.78	843.07
473.216	854.62
473.652	843.84
474.088	840.82
474.523	837.35
474.959	844.74
475.395	836.26
475.831	830.91
476.266	834.66
476.702	832.54
477.138	823.28
477.573	820.43
478.008	816.57
478.444	819.97
478.879	826.85
479.314	830.96
479.75	829.81
480.185	834.96
480.62	842.61
481.055	846.75
481.49	853.3
481.925	866.07
482.36	881.81
482.795	907.94
483.229	934.07
483.664	956.28
484.099	962.43
484.534	980.47
484.968	990.85
485.403	996.76
485.837	999.81
486.271	1001.33
486.706	1005.95
487.14	997.96
487.574	984.35
488.009	977.43
488.443	971.16
488.877	982.07
489.311	986.97
489.745	1001.02
490.179	1012.36
490.613	1032.06
491.046	1044.05
491.48	1053.29
491.914	1057.97
492.348	1068.83
492.781	1078.28
493.215	1084.1
493.648	1090.52
494.082	1102.21
494.515	1106.5
494.948	1121.33
495.382	1132.84
495.815	1142.32
496.248	1153.89
496.681	1176.11
497.114	1196.94
497.547	1215.35
497.98	1237.91
498.413	1248.71
498.846	1266.59
499.279	1283.42
499.711	1292.08
500.144	1297.91
500.577	1315.15
501.009	1335
501.442	1350.8
501.874	1353.63
502.306	1357.78
502.739	1368.56
503.171	1392.36
503.603	1397.19
504.036	1411.38
504.468	1420.27
504.9	1436.74
505.332	1446.13
505.764	1449.72
506.196	1459.71
506.627	1479.37
507.059	1497.45
507.491	1508.42
507.923	1500.85
508.354	1519.76
508.786	1530.61
509.217	1552.39
509.649	1568.04
510.08	1590
510.512	1608.19
510.943	1622.31
511.374	1630.93
511.805	1653.23
512.237	1675.04
512.668	1715.29
513.099	1744.74
513.53	1774.87
513.961	1793.88
514.391	1829.46
514.822	1864.76
515.253	1904.64
515.684	1929.26
516.114	1958.76
516.545	1974.05
516.975	1996.13
517.406	2006.95
517.836	1996.74
518.267	1991.23
518.697	2002.54
519.127	1995.69
519.558	1993.45
519.988	1985.53
520.418	1985.96
520.848	1996.94
521.278	1996.91
521.708	1994.57
522.138	2000.05
522.567	2029.74
522.997	2051.11
523.427	2060.81
523.857	2072.15
524.286	2074.18
524.716	2082.54
525.145	2096.48
525.575	2100.06
526.004	2108.33
526.433	2101.16
526.863	2092.84
527.292	2071.54
527.721	2070.38
528.15	2068.84
528.579	2063.17
529.008	2069.14
529.437	2090.69
529.866	2102.31
530.295	2117.71
530.724	2127.16
531.152	2154.04
531.581	2165.31
532.01	2181.99
532.438	2187.97
532.867	2201.82
533.295	2218.98
533.723	2224.7
534.152	2218.97
534.58	2214.85
535.008	2194.05
535.436	2193.79
535.865	2201.4
536.293	2217.85
536.721	2235.6
537.149	2265.2
537.576	2266.31
538.004	2280.48
538.432	2288.2
538.86	2284.55
539.287	2293.2
539.715	2309.5
540.143	2311.77
540.57	2307.22
540.998	2301.07
541.425	2272.26
541.852	2245.73
542.28	2243.93
542.707	2223.98
543.134	2206.4
543.561	2201.75
543.988	2191.12
544.415	2188.66
544.842	2181.78
545.269	2172.4
545.696	2174.2
546.123	2189.94
546.549	2177.16
546.976	2159.82
547.403	2157.87
547.829	2159.23
548.256	2160.86
548.682	2155.42
549.108	2145.27
549.535	2143.86
549.961	2144.43
550.387	2127.56
550.813	2119.21
551.24	2126.67
551.666	2129.29
552.092	2117.76
552.518	2109.92
552.943	2103.3
553.369	2112.52
553.795	2119.7
554.221	2122.49
554.646	2121
555.072	2135.02
555.498	2143.9
555.923	2155.56
556.349	2175.14
556.774	2188.73
557.199	2194.34
557.625	2205.22
558.05	2201.66
558.475	2217.13
558.9	2218.6
559.325	2211.78
559.75	2208
560.175	2203.78
560.6	2201.96
561.025	2203.49
561.449	2207.49
561.874	2218.68
562.299	2227.65
562.723	2241.39
563.148	2235.36
563.572	2246.34
563.997	2263.9
564.421	2277.08
564.846	2284.77
565.27	2294.72
565.694	2299
566.118	2322.72
566.542	2338.9
566.966	2339.23
567.39	2342.74
567.814	2336.94
568.238	2345.07
568.662	2362.74
569.086	2376.29
569.509	2394.63
569.933	2384.46
570.357	2384.64
570.78	2366.25
571.204	2358.7
571.627	2353.67
572.05	2360
572.474	2368.66
572.897	2359.88
573.32	2356.76
573.743	2351.59
574.166	2334.4
574.589	2342.18
575.012	2339.1
575.435	2344.45
575.858	2338.41
576.281	2330.15
576.704	2314.73
577.126	2305.12
577.549	2297.79
577.972	2291.15
578.394	2283.55
578.817	2278.74
579.239	2259.28
579.661	2246.36
580.084	2229.77
580.506	2217.34
580.928	2217.17
581.35	2207.44
581.772	2207.01
582.194	2193.57
582.616	2179.8
583.038	2163.8
583.46	2154.63
583.882	2153.86
584.303	2166.05
584.725	2164.73
585.147	2168.69
585.568	2188.64
585.99	2210.81
586.411	2223.01
586.833	2247.63
587.254	2254.23
587.675	2278.21
588.096	2299.53
588.518	2295.32
588.939	2272.29
589.36	2273.51
589.781	2266.2
590.202	2225.73
590.623	2215.8
591.043	2216.26
591.464	2199.94
591.885	2196.22
592.305	2190.77
592.726	2173.52
593.147	2178.87
593.567	2173.52
593.987	2164.15
594.408	2157.67
594.828	2158.57
595.248	2150.53
595.669	2124.53
596.089	2116.52
596.509	2110.33
596.929	2092.23
597.349	2095.04
597.769	2081.15
598.189	2074.76
598.608	2079.01
599.028	2083.5
599.448	2085.84
599.867	2070.08
600.287	2066.77
600.706	2061.85
601.126	2048.34
601.545	2047.19
601.965	2047.34
602.384	2041.75
602.803	2048.29
603.222	2042.88
603.641	2036.93
604.061	2033.75
604.48	2031.04
604.898	2046.8
605.317	2058.38
605.736	2066.2
606.155	2066.77
606.574	2058.45
606.992	2072
607.411	2069.72
607.829	2063.38
608.248	2064.46
608.666	2067.24
609.085	2071.87
609.503	2064.06
609.921	2060.71
610.339	2070.24
610.758	2076.12
611.176	2074.23
611.594	2065.85
612.012	2066.07
612.43	2076.6
612.847	2092.71
613.265	2098.38
613.683	2111.57
614.101	2119.77
614.518	2120.34
614.936	2109.84
615.353	2091.44
615.771	2092.88
616.188	2099.52
616.606	2099.85
617.023	2093.21
617.44	2074.16
617.857	2070.22
618.274	2061.39
618.691	2056.17
619.108	2045.22
619.525	2040.35
619.942	2055.29
620.359	2063.37
620.776	2058.1
621.192	2055.12
621.609	2055.26
622.026	2068.99
622.442	2081.02
622.859	2089.91
623.275	2081.27
623.691	2092.72
624.108	2113.61
624.524	2140.58
624.94	2143.9
625.356	2162.83
625.772	2187.09
626.188	2209.72
626.604	2214.23
627.02	2208.68
627.436	2206.08
627.852	2217.62
628.268	2239.37
628.683	2225.94
629.099	2213.08
629.514	2205.19
629.93	2211.01
630.345	2218.09
630.761	2211.66
631.176	2219.17
631.591	2208.39
632.007	2199.06
632.422	2196.67
632.837	2179.68
633.252	2175.57
633.667	2157.8
634.082	2143.23
634.497	2123.9
634.911	2090.84
635.326	2086.12
635.741	2057.62
636.155	2044.23
636.57	2045.97
636.984	2047.07
637.399	2049.5
637.813	2050.37
638.228	2051.4
638.642	2061.55
639.056	2045.46
639.47	2050.15
639.884	2038.37
640.298	2030.85
640.712	2031.43
641.126	2013.3
641.54	2000.39
641.954	1993.97
642.368	1975.21
642.781	1961.33
643.195	1931.22
643.609	1935.35
644.022	1926.45
644.436	1921.79
644.849	1902.87
645.262	1884.78
645.676	1891.15
646.089	1885.57
646.502	1862.36
646.915	1856.13
647.328	1831.95
647.741	1831.23
648.154	1811.03
648.567	1805.45
648.98	1783.64
649.393	1788.57
649.805	1784.17
650.218	1773.39
650.631	1748.03
651.043	1739.63
651.456	1731.17
651.868	1735.91
652.28	1770.25
652.693	1798.25
653.105	1816.71
653.517	1839.3
653.929	1842.92
654.341	1857.84
654.753	1840.39
655.165	1858.93
655.577	1860.61
655.989	1859.62
656.401	1850.93
656.813	1790.12
657.224	1760.16
657.636	1715.51
658.047	1686.25
658.459	1656.62
658.87	1646.69
659.282	1630.89
659.693	1595.98
660.104	1572.12
660.515	1551.38
660.926	1552.61
661.338	1552.43
661.749	1542.94
662.159	1527.61
662.57	1523.75
662.981	1517.03
663.392	1504.41
663.803	1512.62
664.213	1510.63
664.624	1504.21
665.035	1510.51
665.445	1484.57
665.855	1468.38
666.266	1450.92
666.676	1446.57
667.086	1429.15
667.497	1425.7
667.907	1412.99
668.317	1394.81
668.727	1383
669.137	1383.26
669.547	1376.96
669.956	1379.96
670.366	1382.8
670.776	1386.28
671.186	1389.96
671.595	1393.6
672.005	1398.67
672.414	1394.78
672.824	1389.22
673.233	1398.81
673.642	1401.03
674.052	1403.71
674.461	1405.18
674.87	1413.92
675.279	1407.54
675.688	1411.64
676.097	1413.31
676.506	1407.31
676.915	1434.36
677.323	1440.45
677.732	1438.32
678.141	1440.57
678.549	1425.41
678.958	1428.96
679.366	1429.63
679.775	1444.3
680.183	1465.13
680.592	1482.51
681	1500.38
681.408	1494.2
681.816	1516.78
682.224	1541.88
682.632	1566.83
683.04	1630.9
683.448	1685.56
683.856	1752.59
684.264	1828.75
684.671	1903.36
685.079	1986.79
685.487	2078.86
685.894	2205.35
686.302	2307.91
686.709	2387.27
687.116	2479.32
687.524	2547.87
687.931	2599.74
688.338	2641.49
688.745	2667.24
689.152	2695.11
689.559	2743.77
689.966	2782.91
690.373	2777.52
690.78	2804.25
691.187	2870.28
691.593	2904.14
692	2927.48
692.407	2981.02
692.813	3050.69
693.22	3094.12
693.626	3142.48
694.032	3165.23
694.439	3228.24
694.845	3264.44
695.251	3324.34
695.657	3366.26
696.063	3459.14
696.469	3509.67
696.875	3553.1
697.281	3553.75
697.687	3566.67
698.093	3565.8
698.498	3617.76
698.904	3645.76
699.31	3716.28
699.715	3749.09
700.12	3821.71
700.526	3797.67
700.931	3840.75
701.337	3861.95
701.742	3862.02
702.147	3926.15
702.552	3923.04
702.957	3956.63
703.362	3941.01
703.767	3934.51
704.172	3945.91
704.577	3855.42
704.981	3875.38
705.386	3860.65
705.791	3821.44
706.195	3873.7
706.6	3852.28
707.004	3910.24
707.408	3845.67
707.813	3850.57
708.217	3812.13
708.621	3788.1
709.025	3870.27
709.43	3847.48
709.834	3888.86
710.237	3938.29
710.641	3899.35
711.045	3899.02
711.449	3872.87
711.853	3882.17
712.256	3901.61
712.66	3919.37
713.064	3973.53
713.467	3994.27
713.87	4086.87
714.274	4112.11
714.677	4200.87
715.08	4341.04
715.484	4488.51
715.887	4667.29
716.29	4841.64
716.693	5022.87
717.096	5232.13
717.499	5337.26
717.901	5340.99
718.304	5347.79
718.707	5350.23
719.109	5231.79
719.512	5183.17
719.915	5037.86
720.317	4967.81
720.719	4993.42
721.122	4949.49
721.524	4889.57
721.926	4838.65
722.328	4916.52
722.731	4892.78
723.133	4905.84
723.535	5071.56
723.937	5080.15
724.338	5115.93
724.74	5143.57
725.142	5074.26
725.544	5063.71
725.945	5079.74
726.347	5067.92
726.748	5052.54
727.15	5055.88
727.551	5012.71
727.952	4976.13
728.354	4940.75
728.755	4932.18
729.156	4885.6
729.557	4865.66
729.958	4751.58
730.359	4693.56
730.76	4668.31
731.161	4607.49
731.562	4579.97
731.962	4576.98
732.363	4516.8
732.763	4455.56
733.164	4481.6
733.564	4417.5
733.965	4330.25
734.365	4294.55
734.766	4313.73
735.166	4275.22
735.566	4222.78
735.966	4196.37
736.366	4188.26
736.766	4131.91
737.166	4153.21
737.566	4112.44
737.966	4086.46
738.365	4115.57
738.765	4109.47
739.165	4042.69
739.564	4017.81
739.964	4054.3
740.363	4010.6
740.763	4006.14
741.162	3993.82
741.561	3965.84
741.96	3926.47
742.36	3939.59
742.759	3943.21
743.158	3972.82
743.557	3983.43
743.955	4014.68
744.354	3973.89
744.753	4020.14
745.152	3982.83
745.55	4028.03
745.949	4020.22
746.348	4019.15
746.746	4032.13
747.144	3995.6
747.543	3974.23
747.941	4013.56
748.339	3953.79
748.737	3947.15
749.136	3939.43
749.534	3991.29
749.932	3964.73
750.33	3983.1
750.727	4028.97
751.125	4008.95
751.523	3995.36
751.921	4031.81
752.318	4001.3
752.716	4050.88
753.113	4060.59
753.511	4081.57
753.908	4082.17
754.305	4068.29
754.703	4118.53
755.1	4170.88
755.497	4220.11
755.894	4380.23
756.291	4529.49
756.688	4806.49
757.085	5173.64
757.482	5692.77
757.878	6258.22
758.275	6770.86
758.672	7476.77
759.068	8053.92
759.465	8867.17
759.861	9922.92
760.258	11142.64
760.654	11777.51
761.05	11683.62
761.447	11152.7
761.843	10385.53
762.239	9591.55
762.635	9229.83
763.031	8883.84
763.427	8386.97
763.822	7866.37
764.218	7352.47
764.614	6680.74
765.01	6229.23
765.405	5938.47
765.801	5717.85
766.196	5436.93
766.592	5280.6
766.987	5017.51
767.382	4835.97
767.778	4758.45
768.173	4647.85
768.568	4587.02
768.963	4483.07
769.358	4497.26
769.753	4457.66
770.148	4386.39
770.542	4383.59
770.937	4354.85
771.332	4430.1
771.726	4447.52
772.121	4397.68
772.515	4442.96
772.91	4429.63
773.304	4490.05
773.699	4438.8
774.093	4484.54
774.487	4531.41
774.881	4566.76
775.275	4563.23
775.669	4528.01
776.063	4563.44
776.457	4593.64
776.851	4532.33
777.245	4525.17
777.638	4551.79
778.032	4647.27
778.425	4614.9
778.819	4652.23
779.212	4618.81
779.606	4586.9
779.999	4604.24
780.392	4590.23
780.786	4659.33
781.179	4676.86
781.572	4713.04
781.965	4724.8
782.358	4676.49
782.751	4727.27
783.143	4685.27
783.536	4745.17
783.929	4778.64
784.322	4873.06
784.714	4901.75
785.107	4897.16
785.499	4957.51
785.891	4938.1
786.284	4920
786.676	5039.75
787.068	5024.26
787.46	5067.07
787.852	5083.46
788.245	5158.26
788.636	5181.25
789.028	5235.86
789.42	5267.64
789.812	5273.19
790.204	5355.32
790.595	5442.76
790.987	5278.47
791.378	5294.63
791.77	5400.74
792.161	5511.61
792.553	5557.35
792.944	5465.22
793.335	5409.27
793.726	5468.86
794.117	5546.69
794.508	5659.95
794.899	5629.93
795.29	5744.79
795.681	5792.46
796.072	5675.99
796.463	5528.71
796.853	5538.07
797.244	5670.07
797.634	5696.08
798.025	5696.69
798.415	5705.85
798.806	5778.11
799.196	5852.17
799.586	5893.44
799.976	5861.78
800.366	6053.45
800.756	6249.25
801.146	6214.35
801.536	6241.48
801.926	6299.38
802.316	6318.9
802.706	6373.85
803.095	6275.83
803.485	6354.58
803.874	6390.4
804.264	6606.19
804.653	6581.98
805.043	6699.85
805.432	6790.01
805.821	6789.11
806.21	6808.29
806.599	6908.82
806.988	6948.85
807.377	7029.15
807.766	7140.74
808.155	7372.79
808.544	7155.98
808.933	7166.78
809.321	7152.12
809.71	7396.83
810.098	7527
810.487	7913.4
810.875	8309.19
811.264	8327.25
811.652	8571.24
812.04	8691.23
812.428	8828.68
812.816	9460.46
813.204	9809.89
813.592	10267.44
813.98	10543.88
814.368	10463.64
814.756	10860.71
815.144	10791.08
815.531	11178.58
815.919	11122.6
816.306	11378.11
816.694	11119.2
817.081	11162.98
817.469	11449.12
817.856	11439.49
818.243	11666.93
818.63	11999.31
819.017	11655.83
819.404	11713.93
819.791	12031.51
820.178	12539.4
820.565	12748.76
820.952	13529.24
821.339	13123.17
821.725	13277.05
822.112	12664.89
822.498	12635.25
822.885	12739.72
823.271	12651.52
823.657	12994.93
824.044	12998.63
824.43	13059.45
824.816	13039
825.202	12678.21
825.588	13524.39
825.974	13543.18
826.36	13972.56
826.746	13998.08
827.132	14296.4
827.517	14286.76
827.903	13629.28
828.289	13665.45
828.674	13017.88
829.06	12923.37
829.445	13242.74
829.83	13544.2
830.216	13934.2
830.601	14245.23
830.986	13909.07
831.371	13798.45
831.756	14255.66
832.141	13911.59
832.526	13902.5
832.911	14142.8
833.295	14048.47
833.68	14444.11
834.065	13921.12
834.449	13161.85
834.834	13097.43
835.218	13095.98
835.603	13374.82
835.987	13195.99
836.371	13882.19
836.755	13805.25
837.139	14135.98
837.524	14333.34
837.908	14187.99
838.291	14238.14
838.675	14299.71
839.059	14470.84
839.443	14459.03
839.827	14271.9
840.21	14673.29
840.594	14548.9
840.977	14714.14
841.361	14697.98
841.744	15011.95
842.127	14879.27
842.511	15082.01
842.894	15582.6
843.277	15898.51
843.66	16340.15
844.043	16408.1
844.426	15734.2
844.809	15482.46
845.191	15507.08
845.574	15118.9
845.957	14813.95
846.339	14727.21
846.722	14297.06
847.104	14343.78
847.487	14204.83
847.869	14221
848.252	14449.85
848.634	14733.46
849.016	14948.36
849.398	15050.85
849.78	15760.83
850.162	15770.41
850.544	16111.14
850.926	16628.16
851.307	16565.91
851.689	16797.16
852.071	17172.25
852.452	17435.88
852.834	17411.22
853.215	17738.4
853.597	17867.61
853.978	18113.41
854.359	18486.28
854.741	17658.85
855.122	17573.8
855.503	17330.24
855.884	17440.18
856.265	17395.88
856.646	17496.42
857.026	17183.36
857.407	17139.38
857.788	17266.49
858.169	17499.87
858.549	16801.75
858.93	17326.49
859.31	17373.39
859.69	17547.47
860.071	17208.55
860.451	17013.91
860.831	16401.91
861.211	17360.88
861.591	17815.99
861.971	17805.8
862.351	17974.79
862.731	18290.19
863.111	18515.46
863.491	18784.21
863.87	19513.11
864.25	19797.95
864.629	19471.96
865.009	19896.5
865.388	20608.71
865.768	22072.55
866.147	21984.63
866.526	20758.78
866.905	21005.44
867.284	22165.62
867.663	21053.76
868.042	20185.24
868.421	20119.29
868.8	20463.29
869.179	20663.27
869.558	19451.98
869.936	17929.41
870.315	18241.95
870.693	18689.15
871.072	20155.11
871.45	19212.42
871.828	19452.9
872.207	20440.67
872.585	20139.61
872.963	20669.53
873.341	19957.39
873.719	19721.75
874.097	19486.29
874.475	19847.93
874.853	20301.72
875.23	19444.25
875.608	20246.61
875.986	21893.75
876.363	20924.99
876.741	21561.14
877.118	21021.49
877.495	22053.19
877.873	22413.41
878.25	23586.12
878.627	22626.3
879.004	22927.56
879.381	22826.03
879.758	22226.93
880.135	20697.68
880.512	21893.95
880.889	21303.01
881.265	21085.97
881.642	20909.97
882.019	21261.14
882.395	20829.77
882.772	21666.86
883.148	20736.23
883.524	20660.05
883.901	20539.83
884.277	20846.53
884.653	20709.59
885.029	21311.71
885.405	23606.76
885.781	23424.49
886.157	22461.73
886.532	22732.24
886.908	22717.39
887.284	25263.22
887.659	26079.28
888.035	26894.08
888.411	27592.07
888.786	27966.11
889.161	28934.13
889.537	28391.45
889.912	29307
890.287	29281.62
890.662	30040.82
891.037	29482.73
891.412	27477.76
891.787	27211.07
892.162	26261.07
892.536	26875.12
892.911	25862.81
893.286	25317.23
893.66	24303.23
894.035	24906.08
894.409	27110.83
894.784	26019.53
895.158	26449.92
895.532	28036.89
895.906	28803.78
896.281	29478.78
896.655	29007.14
897.029	33152.52
897.402	34528.9
897.776	38431.3
898.15	38312.21
898.524	37913.89
898.898	38412.21
899.271	43022.84
899.645	37255.83
900.018	35769.57
900.392	37098.19
900.765	37379.46
901.138	34575.51
901.511	34055.11
901.884	31267.95
902.258	28841.66
902.631	29797.94
903.003	34275.39
903.376	30921.99
903.749	34662.86
904.122	37105.99
904.495	40836.85
904.867	41362.32
905.24	35910.24
905.612	33426.73
905.985	34178.88
906.357	35727.14
906.729	34094.9
907.102	29130.07
907.474	28014.32
907.846	28193.88
908.218	27815.58
908.59	24594.91
908.962	23781.27
909.334	25609.75
909.705	26888.73
910.077	26097.27
910.449	27167.36
910.82	27929.85
911.192	30733.51
911.563	31939.4
911.935	34172.1
912.306	34221.78
912.677	35317.14
913.048	34967.18
913.419	37914.5
913.79	38140.27
914.161	40906.74
914.532	39105.04
914.903	35938.56
915.274	34137.5
915.645	33639.28
916.015	29629.14
916.386	28264.15
916.756	30084.24
917.127	31051.96
917.497	27748.95
917.868	30191.38
918.238	28693.14
918.608	29508.93
918.978	30118.57
919.348	31902.27
919.718	32965.98
920.088	31739.66
920.458	32973.08
920.828	34713.1
921.198	32900.23
921.567	35153.46
921.937	27247.09
922.306	27498.43
922.676	29653.84
923.045	24734.14
923.415	23500.38
923.784	21403.72
924.153	22018.38
924.522	21979.34
924.891	20655.32
925.26	22118.55
925.629	21603.98
925.998	24824.71
926.367	24241.13
926.736	23084.58
927.104	27501.6
927.473	29559.12
927.842	35683.97
928.21	35333.46
928.578	37166.37
928.947	35166.91
929.315	35397.02
929.683	41501.47
930.051	41795.91
930.42	48507.87
930.788	41487.07
931.156	41165.58
931.523	38567.95
931.891	35624.8
932.259	34191.71
932.627	39630.47
932.994	56043.4
933.362	46293.53
933.729	40194.26
934.097	38499.09
934.464	32591.55
934.831	37612.63
935.199	37067.36
935.566	35977.09
935.933	36575.03
936.3	44345.58
936.667	34510.71
937.034	31161.31
937.401	30814.07
937.767	26601.1
938.134	23709.76
938.501	33472.4
938.867	35657.67
939.234	60339.38
939.6	51456.36
939.967	56490.75
940.333	37820.7
940.699	32220.83
941.065	25832.76
941.431	33906.86
941.798	32714.95
942.163	42939.53
942.529	26785.02
942.895	24645.29
943.261	15934.17
943.627	20913.46
943.992	18330.14
944.358	18339.81
944.723	18402.1
945.089	17936.87
945.454	16580.57
945.82	17706.92
946.185	17018.37
946.55	19757.37
946.915	17742.7
947.28	20820.83
947.645	18341.06
948.01	16928.54
948.375	17632.6
948.74	21129.35
949.104	24625.44
949.469	35527.84
949.834	62756.48
950.198	59455.45
950.562	35606.81
950.927	29649.31
951.291	35676.07
951.655	30384.39
952.02	28520.96
952.384	21584.24
952.748	18813.54
953.112	18352.69
953.476	15952.69
953.839	14754.97
954.203	14602.24
954.567	18252.51
954.931	28746.04
955.294	24593.31
955.658	24719.73
956.021	41999.68
956.385	71153.97
956.748	104874.61
957.111	162708.48
957.474	182409.3
957.837	205522.26
958.2	155443.99
958.563	55894.83
958.926	37779.88
959.289	57306.02
959.652	64025.76
960.015	48073.81
960.377	68995.93
960.74	78738.85
961.102	135803.34
961.465	146005.91
961.827	78255.08
962.189	150176.91
962.552	104005.83
962.914	83302.36
963.276	54069.82
963.638	44706.46
964	44260.72
964.362	29923.94
964.724	28917.18
965.085	20653.28
965.447	16933.94
965.809	19274.43
966.17	19308.29
966.532	20903.63
966.893	19200.84
967.255	17484.29
967.616	20605.94
967.977	16483.11
968.338	18003.28
968.699	14801.56
969.061	14771.28
969.421	14857.46
969.782	16666.32
970.143	14076.5
970.504	14602.48
970.865	16589.21
971.225	16935.45
971.586	16582.84
971.946	23637.68
972.307	20519.67
972.667	26813.14
973.027	27604.05
973.388	33493.47
973.748	22789.62
974.108	24826.14
974.468	33569.73
974.828	25919.24
975.188	19974.69
975.548	18354.33
975.907	15416.86
976.267	17284.06
976.627	14514.84
976.986	15068.19
977.346	14354.36
977.705	13815.19
978.064	12576.78
978.424	10459.5
978.783	10804.12
979.142	12298.27
979.501	11767.59
979.86	12445.56
980.219	12009.27
980.578	15499.02
980.937	17347.48
981.296	15483.05
981.654	15929.37
982.013	24772.43
982.371	32158.13
982.73	30020.99
983.088	34041.51
983.447	36330.43
983.805	51901.21
984.163	108345.13
984.521	120046.12
984.879	175847.77
985.237	-285935.02
985.595	275705.07
985.953	68545.71
986.311	39611.68
986.669	23024.51
987.026	19881.79
987.384	26739.22
987.741	27657.7
988.099	19779.36
988.456	15791.45
988.814	14808.55
989.171	12857.39
989.528	12660.6
989.885	13357.63
990.242	10578.39
990.599	13169.24
990.956	10769.81
991.313	7543.28
991.67	6198.89
992.027	6576.98
992.383	5838.56
992.74	5125.79
993.096	5400.1
993.453	5599.87
993.809	5806.7
994.165	7731.07
994.522	7103.34
994.878	7822.06
995.234	9805.85
995.59	9669.18
995.946	9141.33
996.302	10436.09
996.658	12056.85
997.013	13253.4
997.369	15762.75
997.725	20204.52
998.08	13072.01
998.436	20077.84
998.791	27749.97
999.147	27711.25
999.502	30174.61
999.857	21911.64
1000.212	35683.45
1000.567	50723.54
1000.922	29215.61
1001.277	18540.29
1001.632	13758.22
1001.987	17740.58
1002.342	12750.78
1002.696	10198.53
1003.051	8150.13
1003.406	9901.31
1003.76	9862.84
1004.114	9760.28
1004.469	8212.21
1004.823	6799.78
1005.177	7347.05
1005.531	5830
1005.885	5166.72
1006.239	5828.82
1006.593	7304.97
1006.947	9775.4
1007.301	7307.52
1007.655	7968.89
1008.008	5834.97
1008.362	6562.18
1008.715	9399.52
1009.069	8534.72
1009.422	12823.38
1009.776	25700.46
1010.129	17064.26
1010.482	14262.23
1010.835	12057.34
1011.188	25249.93
1011.541	23788.1
1011.894	-145538.41
1012.247	427911.94
1012.6	29079.11
1012.952	18317.24
1013.305	9450.21
1013.657	6842.63
1014.01	6481.05
1014.362	5353.86
1014.715	4774.06
1015.067	4145.42
1015.419	4053.81
1015.771	3596.64
1016.123	3205.47
1016.475	3299.48
1016.827	3504.47
1017.179	3766.96
1017.531	3785.54
1017.883	3858.31
1018.234	3741.73
1018.586	4709.85
1018.938	4981.23
1019.289	6875.6
1019.64	7860.95
1019.992	7310.09
1020.343	6670.42
1020.694	5304.74
1021.045	4689.58
1021.396	5355.42
1021.747	5763.36
1022.098	6877.36
1022.449	4966.8
1022.8	4618.92
1023.151	3213.44
1023.501	2855.88
1023.852	3101.54
1024.202	3232.42
1024.553	3544
1024.903	3465.27
1025.253	2973.68
1025.604	2671.52
1025.954	3303.86
1026.304	4054.3
1026.654	4726.83
1027.004	6926.7
1027.354	11141.64
1027.703	10515.85
1028.053	13696.07
1028.403	20196.84
1028.753	29084.4
1029.102	39681.74
1029.452	204906.8
1029.801	8904.14
1030.15	5727.35
1030.499	4850.04
897.758	2541.48
901.051	2497.81
904.343	2530.67
907.636	2532.42
910.928	2596.56
914.22	2509.05
917.511	2515.45
920.803	2575.9
924.094	2587.77
927.384	2572.96
930.675	2538.17
933.965	2495.45
937.255	2506.01
940.544	2472.12
943.834	2431.45
947.123	2370.9
950.411	2463.96
953.7	2438.12
956.988	2410.93
960.276	2352.96
963.563	2426.38
966.851	2424.97
970.138	2476.99
973.424	2471.29
976.711	2424.48
979.997	2532.95
983.283	2571.88
986.568	2482.6
989.853	2496.16
993.138	2520.39
996.423	2602.87
999.708	2543.89
1002.992	2597
1006.275	2457.09
1009.559	2490.18
1012.842	2599.64
1016.125	2534.03
1019.408	2516.51
1022.69	2595.5
1025.972	2614.37
1029.254	2592.45
1032.536	2529.91
1035.817	2553.78
1039.098	2505.15
1042.379	2623.08
1045.659	2631.66
1048.939	2568.23
1052.219	2586.24
1055.498	2591.82
1058.778	2581.58
1062.057	2562.78
1065.335	2582.87
1068.614	2600.31
1071.892	2586.09
1075.17	2658.46
1078.447	2648.07
1081.724	2640.59
1085.001	2674.92
1088.278	2649.3
1091.554	2662.24
1094.83	2655.87
1098.106	2687.51
1101.382	2727.42
1104.657	2730.66
1107.932	2724.99
1111.206	2690.27
1114.481	2648.58
1117.755	2650.42
1121.029	2632.77
1124.302	2687.07
1127.575	2641.6
1130.848	2632.56
1134.121	2594.32
1137.393	2546.92
1140.665	2610.56
1143.937	2585.46
1147.208	2544.43
1150.48	2587.77
1153.75	2572.41
1157.021	2600.25
1160.291	2571.57
1163.561	2616.96
1166.831	2601.78
1170.101	2630.9
1173.37	2604.79
1176.639	2550.94
1179.907	2608.2
1183.176	2615.16
1186.444	2621.75
1189.711	2650.18
1192.979	2660.62
1196.246	2617.73
1199.513	2633.41
1202.78	2632.29
1206.046	2641.48
1209.312	2665.5
1212.578	2688.56
1215.843	2646.29
1219.108	2618.95
1222.373	2643.38
1225.638	2608.97
1228.902	2596.84
1232.166	2562.24
1235.43	2545.51
1238.693	2568.91
1241.956	2567.06
1245.219	2608.71
1248.482	2597.3
1251.744	2589.9
1255.006	2734.97
1258.268	2687.14
1261.529	2635.06
1264.79	2637.51
1268.051	2740.5
1271.312	2755.57
1274.572	2719.89
1277.832	2707.48
1281.092	2699.01
1284.351	2676.25
1287.61	2657.4
1290.869	2576.49
1294.128	2557.43
1297.386	2638.31
1300.644	2628.92
1303.902	2639.3
1307.159	2501.42
1310.416	2555.92
1313.673	2582.23
1316.93	2565.72
1320.186	2608.66
1323.442	2650.48
1326.697	2643.6
1329.953	2630.07
1333.208	2653.52
1336.463	2632.16
1339.717	2575.14
1342.972	2704.35
1346.226	2680.39
1349.479	2615.66
1352.733	2590.99
1355.986	2611.59
1359.238	2587.8
1362.491	2588.3
1365.743	2592.23
1368.995	2588.47
1372.247	2603.64
1375.498	2626.2
1378.749	2646.3
1382	2602.85
1385.251	2653.02
1388.501	2614.52
1391.751	2600.59
1395	2571.76
1398.25	2606.51
1401.499	2618.5
1404.748	2549.43
1407.996	2535.94
1411.244	2523.75
1414.492	2504.72
1417.74	2484.33
1420.987	2491.58
1424.234	2546.77
1427.481	2524.47
1430.728	2583.01
1433.974	2556.7
1437.22	2566.61
1440.465	2566.11
1443.711	2538.33
1446.956	2571.64
1450.201	2554.97
1453.445	2599.59
1456.689	2579.34
1459.933	2592.19
1463.177	2623.14
1466.42	2597.25
1469.663	2574.95
1472.906	2572.28
1476.148	2634.81
1479.391	2616.91
1482.633	2579.94
1485.874	2593.48
1489.115	2582.71
1492.356	2585.78
1495.597	2559.87
1498.838	2563.31
1502.078	2533.74
1505.318	2490.05
1508.557	2531.28
1511.797	2516.88
1515.036	2565.48
1518.274	2559.57
1521.513	2526.66
1524.751	2546.47
1527.989	2560.61
1531.227	2575.62
1534.464	2573.25
1537.701	2585.56
1540.938	2603.4
1544.174	2555.33
1547.41	2552.66
1550.646	2588.24
1553.882	2627.07
1557.117	2682.66
1560.352	2694.31
1563.587	2652.31
1566.821	2613.85
1570.055	2643.73
1573.289	2618.35
1576.523	2689.67
1579.756	2697.6
1582.989	2715.34
1586.222	2676.79
1589.454	2708.91
1592.686	2683.39
1595.918	2708.93
1599.15	2699.37
1602.381	2767.41
1605.612	2727.85
1608.843	2821.53
1612.073	2736.52
1615.303	2722.96
1618.533	2718.13
1621.762	2716.05
1624.992	2704.23
1628.221	2694.18
1631.449	2680.31
1634.678	2731.25
1637.906	2688.69
1641.134	2725.32
1644.361	2684.31
1647.588	2672.95
1650.815	2688.83
1654.042	2665.66
1657.269	2696.82
1660.495	2652.82
1663.72	2671.53
1666.946	2635.75
1670.171	2587.39
1673.396	2563.05
1676.621	2550.24
1679.845	2564.29
1683.069	2579.64
1686.293	2619.77
1689.517	2596.68
1692.74	2534.36
1695.963	2561.27
1699.185	2579.29
1702.408	2556.91
1705.63	2593.19
1708.852	2604.31
1712.073	2580.44
1715.294	2571.76
1718.515	2630.78
1721.736	2579
1724.956	2569
1728.176	2593.02
1731.396	2616.17
1734.616	2602.96
1737.835	2631.58
1741.054	2611.83
1744.272	2604.46
1747.491	2632.38
1750.709	2679.87
1753.927	2596.01
1757.144	2636.35
1760.361	2680.63
1763.578	2669.5
1766.795	2614.95
1770.011	2617.41
1773.227	2654.08
1776.443	2691.73
1779.658	2735.65
1782.874	2676.66
1786.089	2657.17
1789.303	2658.41
1792.518	2666.22
1795.732	2652.48
1798.945	2663.9
1802.159	2711.41
1805.372	2623.73
1808.585	2608.9
1811.797	2607.78
1815.01	2653.45
1818.222	2661.77
1821.434	2643.28
1824.645	2700.49
1827.856	2688.71
1831.067	2722.91
1834.278	2676.73
1837.488	2660.01
1840.698	2803.48
1843.908	2734.83
1847.117	2697.6
1850.326	2593.24
1853.535	2685.73
1856.744	2702.9
1859.952	2617.91
1863.16	2621.84
1866.368	2641.85
1869.575	2745.33
1872.782	2635.73
1875.989	2572.05
1879.196	2647.38
1882.402	2641.01
1885.608	2680.21
1888.814	2593.83
1892.019	2496.2
1895.224	2548.83
1898.429	2526.49
1901.634	2506.81
1904.838	2482.72
1908.042	2531.03
1911.246	2543.09
1914.449	2483.05
1917.652	2477.6
1920.855	2460.01
1924.058	2501.77
1927.26	2538.41
1930.462	2565.93
1933.664	2596.24
1936.865	2536.46
1940.066	2545.98
1943.267	2493.33
1946.467	2505.51
1949.668	2530.44
1952.868	2598.88
1956.067	2578.85
1959.267	2515.47
1962.466	2541.08
1965.665	2525.88
1968.863	2520.33
1972.061	2531.56
1975.259	2530.54
1978.457	2607.57
1981.654	2566.78
1984.852	2568.02
1988.048	2504.72
1991.245	2505.46
1994.441	2588.95
1997.637	2566.91
2000.833	2545.77
2004.028	2584.16
2007.223	2642.93
2010.418	2624.65
2013.613	2581.62
2016.807	2557.39
2020.001	2563.68
2023.194	2599.1
2026.388	2576.31
2029.581	2522.3
2032.774	2575.59
2035.966	2584.57
2039.158	2518.75
2042.35	2540.61
2045.542	2468.01
2048.733	2565.7
2051.924	2580.7
2055.115	2604.73
2058.306	2555.79
2061.496	2612.49
2064.686	2674.83
2067.875	2585.21
2071.065	2597.65
2074.254	2622.42
2077.442	2576.39
2080.631	2663.67
2083.819	2564.43
2087.007	2548.55
2090.195	2523.25
2093.382	2553.84
2096.569	2535.67
2099.756	2488.66
2102.942	2521.32
2106.128	2526.42
2109.314	2517.94
2112.5	2486.63
2115.685	2459.65
2118.87	2469.87
2122.055	2535.9
2125.239	2503.59
2128.424	2482.43
2131.608	2574.78
2134.791	2559.24
2137.974	2610.52
2141.157	2598.42
2144.34	2555.82
2147.523	2563.58
2150.705	2579.76
2153.887	2558.56
2157.068	2512.1
2160.25	2509.27
2163.431	2541.16
2166.611	2492.99
2169.792	2510.56
2172.972	2409.08
2176.152	2479.71
2179.331	2513.04
2182.511	2499.27
2185.69	2530.19
2188.868	2523.76
2192.047	2572.62
2195.225	2568.9
2198.403	2520.47
2201.58	2511.7
2204.758	2506.56
2207.935	2590.45
2211.111	2482.59
2214.288	2466.88
2217.464	2507.34
2220.64	2471.61
2223.815	2525.25
2226.991	2451.67
2230.166	2471.07
2233.34	2504.96
2236.515	2523.92
2239.689	2592.06
2242.863	2538.65
2246.036	2596.81
2249.209	2592.54
2252.382	2620.37
2255.555	2617.64
2258.727	2558.83
2261.9	2594.2
2265.071	2586.16
2268.243	2587.38
2271.414	2524.77
2274.585	2492.85
2277.756	2555.71
2280.926	2511.11
2284.096	2549.84
2287.266	2462.73
2290.436	2512.31
2293.605	2538.51
2296.774	2572.61
2299.942	2588.22
2303.111	2604.74
2306.279	2656.33
2309.447	2640.99
2312.614	2617.39
2315.781	2639.21
2318.948	2610.55
2322.115	2649.89
2325.281	2553.56
2328.447	2572.03
2331.613	2544.31
2334.779	2523.04
2337.944	2522.84
2341.109	2520.02
2344.274	2504.6
2347.438	2470.36
2350.602	2497.49
2353.766	2512.2
2356.929	2499.24
2360.092	2537.98
2363.255	2493.34
2366.418	2436.23
2369.58	2537.94
2372.742	2346.43
2375.904	2358.5
2379.066	2336.59
2382.227	2368.29
2385.388	2328.75
2388.548	2259.78
2391.709	2311.11
2394.869	2294.57
2398.029	2381.72
2401.188	2390.04
2404.347	2332.56
2407.506	2458.13
2410.665	2488.58
2413.823	2490.56
2416.981	2452.73
2420.139	2479.95
2423.296	2530.07
2426.453	2501.24
2429.61	2524.81
2432.767	2468.41
2435.923	2506.08
2439.079	2466
2442.235	2512.45
2445.391	2441.01
2448.546	2474.08
2451.701	2520.29
2454.855	2499.02
2458.009	2543.56
2461.163	2544.87
2464.317	2505.25
2467.471	2537.7
2470.624	2574.96
2473.777	2548.89
2476.929	2561.94
2480.082	2588.76
2483.234	2553.93
2486.385	2502.8
2489.537	2496.12
2492.688	2464.1
2495.839	2482.98
2498.989	2495.02
2502.14	2479.69
2505.29	2464.97
2508.439	2488.89
2511.589	2417.08
2514.738	2424.91
2517.887	2455.24
2521.035	2524.65
2524.183	2499.9
2527.331	2481.32
2530.479	2458.78
2533.627	2466.88
