Data from C_2_DEC_CT_2N_Splice17_12-29-22-836.txt Node
Date: Sat Mar 14 12:29:22 EDT 2020
User: sa697716
Spectrometer: FLMS03696
Trigger mode: 0
Integration Time (sec): 3.180400E-1
Scans to average: 20
Electric dark correction enabled: true
Nonlinearity correction enabled: true
Boxcar width: 5
XAxis mode: Wavelengths
Number of Pixels in Spectrum: 2048
>>>>>Begin Spectral Data<<<<<
187.83	-346657.64
188.298	2586.78
188.766	1402.69
189.233	1247.75
189.701	1793.7
190.169	2319.08
190.636	848.21
191.104	649.13
191.571	104.49
192.039	-89.58
192.506	-94.61
192.974	586.89
193.441	-1025.76
193.908	-305.47
194.375	-133.01
194.842	16.2
195.31	-32.08
195.777	116.18
196.244	319.29
196.711	398.26
197.177	494.05
197.644	705.15
198.111	1211.85
198.578	1758.11
199.045	1403.48
199.511	2294.29
199.978	2615.51
200.445	2255.23
200.911	2479.97
201.378	2757.22
201.844	2530.62
202.31	4288.96
202.777	4504.45
203.243	2534.52
203.709	2408.35
204.176	2882.42
204.642	2387.99
205.108	2250.74
205.574	1823.57
206.04	1661.06
206.506	1552.93
206.972	1454.6
207.438	1413.54
207.903	1580.7
208.369	1377.51
208.835	1376.15
209.301	1441.44
209.766	1482.64
210.232	1474.7
210.697	1827.97
211.163	2256.62
211.628	3433.97
212.094	2893.7
212.559	3616.77
213.024	2290.2
213.49	2813.86
213.955	2738.87
214.42	2664.17
214.885	2462.35
215.35	2371.16
215.815	2325.12
216.28	2477.3
216.745	2029.04
217.21	2216.65
217.675	2029.28
218.14	2294.23
218.604	2592.25
219.069	3002.01
219.534	3220.42
219.998	3804.03
220.463	4680.56
220.927	5834.24
221.392	5570.86
221.856	5698.79
222.32	7266.41
222.785	9053.06
223.249	11499.63
223.713	12954.73
224.177	13073.74
224.642	16872.68
225.106	20918.69
225.57	22934.66
226.034	17129.08
226.497	26178.55
226.961	23730.27
227.425	27717.03
227.889	30896.18
228.353	31019.37
228.816	64205.46
229.28	61631.12
229.744	52157.53
230.207	31720.68
230.671	31304.17
231.134	51947.7
231.597	59985.02
232.061	60119.16
232.524	58781.89
232.987	40596.81
233.45	36607.08
233.914	32895.2
234.377	33773.72
234.84	30935.43
235.303	36549.23
235.766	40846.71
236.229	42218.13
236.691	26624.85
237.154	29947.92
237.617	22546.75
238.08	23091.41
238.542	27049.76
239.005	19353.32
239.468	19195.9
239.93	18096.59
240.393	16462.64
240.855	14453.6
241.317	14816.05
241.78	18060.85
242.242	18697.88
242.704	20187.31
243.166	17577.37
243.629	15964.42
244.091	18403.68
244.553	20167.94
245.015	21719.02
245.477	28162.86
245.939	41301.64
246.4	43872.99
246.862	42663.88
247.324	40265.65
247.786	45112.59
248.247	59307.16
248.709	61358.87
249.17	45974.25
249.632	43403.27
250.093	50328.87
250.555	43435.77
251.016	26528.67
251.477	25205.5
251.939	27240.39
252.4	28583.95
252.861	34033.7
253.322	31699.65
253.783	37763.79
254.244	49040.18
254.705	38710.19
255.166	34423.3
255.627	33940.25
256.088	47960.24
256.549	51005.02
257.009	43951.78
257.47	53440.76
257.931	43572.17
258.391	32686.94
258.852	33763.77
259.312	35472.98
259.773	43917.86
260.233	37248.75
260.694	31494.29
261.154	35793.2
261.614	28758.7
262.074	25759.92
262.534	26785.2
262.994	25304.26
263.455	33772.1
263.915	28492.19
264.374	26867.81
264.834	29394
265.294	32646.03
265.754	33869.79
266.214	32094.78
266.673	30156.77
267.133	38160.82
267.593	37985.38
268.052	46605.49
268.512	40621.71
268.971	49118.71
269.431	53999.4
269.89	48474.53
270.349	72797.85
270.809	81403.83
271.268	73430.02
271.727	165032.95
272.186	107059.57
272.645	80441.62
273.104	58102.08
273.563	84279.5
274.022	66373.47
274.481	56551.52
274.94	43576.9
275.399	32466.66
275.857	37819.91
276.316	51230.5
276.775	45645.44
277.233	45029.89
277.692	42164.47
278.15	47742.44
278.609	49146.5
279.067	45523.36
279.525	42336.17
279.984	54762.79
280.442	65752.44
280.9	64933.78
281.358	42735.6
281.816	39834.54
282.274	39041.58
282.732	40410.3
283.19	40662.31
283.648	35152.25
284.106	37499.65
284.564	38154.26
285.021	35432.31
285.479	26437.53
285.937	24068.76
286.394	21124.31
286.852	21768.17
287.309	22914.08
287.767	22163.36
288.224	21099.73
288.682	23178.92
289.139	25443
289.596	23302.49
290.053	24255.64
290.511	30695.15
290.968	37277.31
291.425	50681.54
291.882	42222
292.339	36766.09
292.796	36507.5
293.252	34452.66
293.709	27348.8
294.166	24548.29
294.623	27162.47
295.079	26099.03
295.536	26223.3
295.992	23816.73
296.449	23567.13
296.905	24500.89
297.362	23501.16
297.818	24738.73
298.274	25674.9
298.731	26207.39
299.187	25960.99
299.643	27900.07
300.099	33765.9
300.555	37059.32
301.011	31003.07
301.467	29902.51
301.923	35070.34
302.379	34296.73
302.835	33742.3
303.291	33813.87
303.746	38558.04
304.202	48751.81
304.658	49032.28
305.113	32998.01
305.569	32358.88
306.024	34514.47
306.479	32889.14
306.935	27719.16
307.39	30290.98
307.845	27965.87
308.301	28172.91
308.756	27437.69
309.211	26419.21
309.666	27063.91
310.121	33581.98
310.576	34140.31
311.031	33912.19
311.486	38845.17
311.94	38847.65
312.395	51960.74
312.85	97657.71
313.305	479748.08
313.759	2482109.9
314.214	179844.98
314.668	142636.31
315.123	120029.52
315.577	43025.22
316.032	38251.5
316.486	48022.48
316.94	37915.98
317.394	26413.69
317.849	20573.8
318.303	19507.73
318.757	18444.29
319.211	20456.09
319.665	17932.97
320.119	18186.12
320.572	26118.91
321.026	24459.39
321.48	20377.54
321.934	22280.46
322.387	22370.38
322.841	24144.01
323.295	21713.44
323.748	25040.69
324.202	25420.42
324.655	30525.64
325.108	42650.48
325.562	30120.18
326.015	35802.69
326.468	27067.26
326.921	30277.68
327.374	28223.43
327.827	29448.51
328.28	33377.73
328.733	22380.63
329.186	19686.63
329.639	18756.33
330.092	15821.41
330.545	15079.16
330.997	15186.36
331.45	16583.46
331.903	19416.61
332.355	33466.38
332.808	32513.47
333.26	26819.14
333.713	29111.61
334.165	29333.18
334.617	39227.07
335.069	31727.04
335.522	57489.26
335.974	63824.54
336.426	58393.73
336.878	40544.47
337.33	20528.76
337.782	20070.79
338.234	25099.8
338.686	30040.91
339.137	35629.17
339.589	33578.17
340.041	26322.09
340.493	22612.77
340.944	23132.53
341.396	24946.45
341.847	20976.48
342.299	24779.12
342.75	30246.53
343.201	26496.64
343.653	30522.64
344.104	37561.29
344.555	29547.1
345.006	46044.35
345.457	35212.94
345.908	28042.3
346.359	26400.17
346.81	21513.55
347.261	22707.76
347.712	22376.53
348.163	23998.33
348.613	24304.78
349.064	22701.48
349.515	19911.12
349.965	20429.51
350.416	24636.31
350.866	27057.65
351.317	30600.75
351.767	50637.79
352.217	64027.78
352.668	53197.3
353.118	48769.88
353.568	47057.61
354.018	37214.31
354.468	39274.93
354.918	28172.54
355.368	24664.59
355.818	34789.05
356.268	100182.66
356.718	419740.81
357.168	104463.39
357.617	52406.98
358.067	58326.32
358.517	54697.5
358.966	64067.22
359.416	71811.49
359.865	77614.96
360.315	92578.16
360.764	43314.03
361.213	24279.36
361.663	23009.72
362.112	28423.4
362.561	45944.69
363.01	34648.23
363.459	29152.4
363.908	31605.5
364.357	26817.08
364.806	45336.39
365.255	31146.61
365.703	28481.02
366.152	28504.53
366.601	23104.45
367.05	18758.59
367.498	17044.74
367.947	17816.34
368.395	18516.49
368.844	16366.94
369.292	19748.25
369.74	13642.09
370.189	20907.94
370.637	24510.51
371.085	21161.13
371.533	25791.46
371.981	24827.84
372.429	23630.08
372.877	24633.56
373.325	20624.45
373.773	21025.78
374.221	18692.81
374.669	23140.53
375.116	19990.1
375.564	20167.8
376.012	22529.28
376.459	18552.79
376.907	22184.38
377.354	26825.37
377.801	24951.44
378.249	28624.74
378.696	36566.09
379.143	44289.23
379.591	47258.96
380.038	79806.39
380.485	57600.23
380.932	62108.46
381.379	56669.34
381.826	41643.79
382.273	29593.52
382.72	25877
383.166	25214.03
383.613	16356.62
384.06	14723.86
384.506	17035.12
384.953	12506.03
385.4	12587.98
385.846	11023.7
386.292	10766.39
386.739	10539.22
387.185	10429.56
387.631	10422.08
388.078	10098.47
388.524	10779.89
388.97	9951.34
389.416	8279.7
389.862	8793.7
390.308	8328.46
390.754	8446.28
391.2	9146.57
391.645	9352.62
392.091	8921.43
392.537	8613.6
392.983	8623.7
393.428	8469.35
393.874	9081.18
394.319	9114.84
394.765	8655.93
395.21	8894.59
395.655	8342.96
396.101	7824.99
396.546	7057.66
396.991	7132.32
397.436	6625.65
397.881	6411.92
398.326	6084.67
398.771	5758.94
399.216	5040.75
399.661	4538.77
400.106	4522.92
400.551	4640.05
400.995	4164.87
401.44	4123.93
401.885	3882.5
402.329	3934.76
402.774	3778.06
403.218	3662.68
403.663	3536.31
404.107	3639.97
404.551	3670.27
404.995	3370.68
405.44	3252.15
405.884	3309.26
406.328	3206.79
406.772	3197.84
407.216	2916.5
407.66	2823.42
408.104	2683.34
408.547	2513.38
408.991	2434.75
409.435	2347.75
409.879	2319.48
410.322	2289.76
410.766	2210.19
411.209	2105.79
411.653	2022.46
412.096	1981.58
412.54	1986.47
412.983	1976.19
413.426	1981.24
413.869	1979.68
414.312	1942.72
414.756	1874.45
415.199	1790.26
415.642	1738.48
416.085	1743.04
416.527	1734.92
416.97	1763.23
417.413	1672.79
417.856	1654.05
418.298	1642.05
418.741	1636.51
419.184	1634.87
419.626	1707.48
420.069	1707.86
420.511	1720.47
420.953	1683.8
421.396	1668.47
421.838	1628.94
422.28	1664.46
422.722	1675.65
423.164	1698.29
423.606	1666.72
424.048	1662.96
424.49	1577.33
424.932	1568.29
425.374	1544.93
425.816	1569.1
426.258	1598.6
426.699	1614.16
427.141	1591.16
427.582	1616.78
428.024	1608.13
428.465	1599.89
428.907	1561.14
429.348	1539.14
429.789	1539.6
430.231	1506.38
430.672	1525.88
431.113	1487.48
431.554	1463.4
431.995	1424.34
432.436	1369.4
432.877	1336.12
433.318	1311.69
433.759	1305.56
434.2	1303.79
434.64	1288.6
435.081	1292.33
435.522	1225.1
435.962	1180.21
436.403	1151.94
436.843	1165.81
437.284	1140.1
437.724	1109.44
438.164	1110.77
438.604	1084.93
439.045	1041.84
439.485	996.96
439.925	972.43
440.365	946.13
440.805	933.23
441.245	919.99
441.685	886.4
442.125	879.97
442.564	882.69
443.004	859.64
443.444	854.68
443.883	854.18
444.323	847.97
444.762	850.54
445.202	860.67
445.641	872.86
446.081	867.83
446.52	873.33
446.959	860.86
447.398	840.29
447.837	830.02
448.276	813.48
448.716	820.79
449.154	825.83
449.593	804.86
450.032	801.17
450.471	786.28
450.91	786.57
451.349	784.25
451.787	781.72
452.226	794.09
452.664	794.21
453.103	796.34
453.541	796.13
453.98	795.76
454.418	800.33
454.856	788.21
455.295	787.52
455.733	793.18
456.171	798.03
456.609	799.26
457.047	798.91
457.485	809.32
457.923	810.85
458.361	798.83
458.798	800.48
459.236	797.74
459.674	802.53
460.111	805.52
460.549	796.28
460.987	792.64
461.424	790.47
461.862	786.22
462.299	774.04
462.736	773.31
463.173	775.71
463.611	766.74
464.048	764.85
464.485	770.16
464.922	762.57
465.359	759.66
465.796	749.32
466.233	743.51
466.67	736.45
467.106	735.04
467.543	727.73
467.98	719.56
468.416	701.05
468.853	695.44
469.29	675.43
469.726	667.2
470.162	650.22
470.599	641.96
471.035	635.51
471.471	619.22
471.907	615.37
472.344	611.24
472.78	612.42
473.216	620.22
473.652	612.29
474.088	610.48
474.523	608.3
474.959	612.98
475.395	607.88
475.831	603.65
476.266	607.11
476.702	605.66
477.138	598.98
477.573	596.61
478.008	594.32
478.444	597.19
478.879	602.62
479.314	605.34
479.75	606.58
480.185	609.4
480.62	615.93
481.055	618.75
481.49	623.8
481.925	632.53
482.36	643.97
482.795	661.88
483.229	680.58
483.664	694.07
484.099	697.12
484.534	707.2
484.968	713.27
485.403	714.96
485.837	714.55
486.271	712.56
486.706	713.66
487.14	705.72
487.574	694.56
488.009	688.98
488.443	683.86
488.877	691.43
489.311	693.25
489.745	701.15
490.179	707.34
490.613	719.45
491.046	724.3
491.48	729.61
491.914	730.48
492.348	734.75
492.781	738.08
493.215	739.19
493.648	739.4
494.082	744.38
494.515	744.44
494.948	752.45
495.382	757.5
495.815	763.31
496.248	767.28
496.681	779.7
497.114	792.28
497.547	802.01
497.98	815.06
498.413	820.66
498.846	831.34
499.279	839.61
499.711	842.43
500.144	844.86
500.577	855
501.009	866.59
501.442	875.57
501.874	875.45
502.306	876.35
502.739	883.3
503.171	898.13
503.603	898.62
504.036	908.75
504.468	913.52
504.9	923.39
505.332	929.33
505.764	932.64
506.196	938.79
506.627	952
507.059	965.75
507.491	972.45
507.923	969.1
508.354	983.58
508.786	991.81
509.217	1008.2
509.649	1022.07
510.08	1039.13
510.512	1054.7
510.943	1068.17
511.374	1077.67
511.805	1094.89
512.237	1112.35
512.668	1142.32
513.099	1166.24
513.53	1190.68
513.961	1209.98
514.391	1238.15
514.822	1267.35
515.253	1298.61
515.684	1320.13
516.114	1345.83
516.545	1363.53
516.975	1385.74
517.406	1400.17
517.836	1400.74
518.267	1403.65
518.697	1416.16
519.127	1416.08
519.558	1419.23
519.988	1418.79
520.418	1425.25
520.848	1439.69
521.278	1443.46
521.708	1460.72
522.138	1469.67
522.567	1495.28
522.997	1516.04
523.427	1528.31
523.857	1542.56
524.286	1550.52
524.716	1562.29
525.145	1577.2
525.575	1584.3
526.004	1597.31
526.433	1585.51
526.863	1583.27
527.292	1571.04
527.721	1574.52
528.15	1577.43
528.579	1576.05
529.008	1583.44
529.437	1603.52
529.866	1615.05
530.295	1629.18
530.724	1639.09
531.152	1661.78
531.581	1674.14
532.01	1690.15
532.438	1696.86
532.867	1710.48
533.295	1727.1
533.723	1732.34
534.152	1728.5
534.58	1727.52
535.008	1712.86
535.436	1713.41
535.865	1721.11
536.293	1734.24
536.721	1748.75
537.149	1772.25
537.576	1774.08
538.004	1785.52
538.432	1792.97
538.86	1793.32
539.287	1799.95
539.715	1812.15
540.143	1815.07
540.57	1810.6
540.998	1806.76
541.425	1784.55
541.852	1764.43
542.28	1762.33
542.707	1747.07
543.134	1733.02
543.561	1728.1
543.988	1721.51
544.415	1720.96
544.842	1715.19
545.269	1708.11
545.696	1708.7
546.123	1721.03
546.549	1710.97
546.976	1698.43
547.403	1697.17
547.829	1698.75
548.256	1700.99
548.682	1696.82
549.108	1690.33
549.535	1689.05
549.961	1689.68
550.387	1677.1
550.813	1671.83
551.24	1678
551.666	1679.06
552.092	1669.65
552.518	1663.82
552.943	1658.02
553.369	1665.73
553.795	1670.71
554.221	1671.65
554.646	1670.02
555.072	1681.38
555.498	1686.3
555.923	1694.48
556.349	1709.46
556.774	1719.13
557.199	1720.83
557.625	1726.92
558.05	1721.86
558.475	1731.34
558.9	1731.05
559.325	1723.92
559.75	1718.31
560.175	1713.18
560.6	1707.96
561.025	1706.42
561.449	1708.3
561.874	1713.59
562.299	1717.6
562.723	1725.44
563.148	1717.92
563.572	1723.03
563.997	1733.87
564.421	1739.6
564.846	1740.99
565.27	1746.79
565.694	1746.01
566.118	1757.91
566.542	1768.36
566.966	1763.91
567.39	1760.15
567.814	1750.81
568.238	1753.14
568.662	1758.96
569.086	1763.27
569.509	1772.02
569.933	1759.07
570.357	1754.2
570.78	1735.93
571.204	1725.81
571.627	1718.9
572.05	1718.7
572.474	1720.42
572.897	1709.11
573.32	1705.09
573.743	1698.12
574.166	1682.47
574.589	1683.21
575.012	1676.81
575.435	1677.56
575.858	1669.06
576.281	1658.58
576.704	1645.26
577.126	1634.87
577.549	1626.25
577.972	1616.85
578.394	1607.37
578.817	1602.33
579.239	1585.43
579.661	1574.45
580.084	1559.79
580.506	1548.99
580.928	1546.09
581.35	1536.39
581.772	1533.15
582.194	1521.33
582.616	1511.19
583.038	1498.67
583.46	1488.42
583.882	1486.95
584.303	1492.56
584.725	1489.76
585.147	1492.26
585.568	1502.94
585.99	1516.64
586.411	1523.37
586.833	1539.74
587.254	1541.07
587.675	1555.85
588.096	1569.11
588.518	1564.94
588.939	1547.96
589.36	1546.87
589.781	1535.94
590.202	1510.53
590.623	1502.1
591.043	1500.19
591.464	1487.08
591.885	1483.81
592.305	1478.15
592.726	1465.76
593.147	1467.59
593.567	1461.72
593.987	1453.63
594.408	1449.88
594.828	1447.11
595.248	1440.94
595.669	1423.34
596.089	1416.33
596.509	1410.3
596.929	1397.51
597.349	1398.26
597.769	1388.34
598.189	1383.84
598.608	1385.93
599.028	1388.13
599.448	1388.37
599.867	1375.7
600.287	1372.08
600.706	1367.85
601.126	1358.98
601.545	1358.45
601.965	1356.71
602.384	1351.65
602.803	1354.46
603.222	1349.19
603.641	1343.25
604.061	1340.7
604.48	1338.11
604.898	1347.54
605.317	1353.54
605.736	1355.58
606.155	1352.79
606.574	1344.16
606.992	1350.42
607.411	1346.75
607.829	1340.4
608.248	1337.59
608.666	1335.59
609.085	1335.62
609.503	1327.76
609.921	1322.45
610.339	1325.13
610.758	1326.12
611.176	1323.41
611.594	1314.6
612.012	1312.04
612.43	1316.2
612.847	1323.27
613.265	1325.42
613.683	1330.57
614.101	1332.36
614.518	1329.77
614.936	1321.14
615.353	1307.62
615.771	1305.89
616.188	1306.96
616.606	1304.25
617.023	1298.39
617.44	1284.98
617.857	1279.15
618.274	1271.62
618.691	1266.11
619.108	1256.95
619.525	1250.93
619.942	1257
620.359	1258.9
620.776	1255.3
621.192	1252.05
621.609	1249.54
622.026	1256.3
622.442	1262.61
622.859	1266.17
623.275	1258.96
623.691	1264.34
624.108	1277.49
624.524	1292.2
624.94	1293.42
625.356	1303.08
625.772	1316.81
626.188	1329.1
626.604	1331.33
627.02	1326.55
627.436	1324.89
627.852	1331.72
628.268	1344.42
628.683	1334.21
629.099	1324.96
629.514	1320.09
629.93	1323.9
630.345	1327.74
630.761	1324.79
631.176	1327.46
631.591	1323.21
632.007	1317.64
632.422	1316.77
632.837	1306.22
633.252	1306.07
633.667	1297.03
634.082	1287.86
634.497	1276.01
634.911	1256.92
635.326	1254.3
635.741	1239
636.155	1230.02
636.57	1232.34
636.984	1232.63
637.399	1235.18
637.813	1234.44
638.228	1235.84
638.642	1242.15
639.056	1232.32
639.47	1234.74
639.884	1227.42
640.298	1222
640.712	1222.01
641.126	1210.08
641.54	1202.7
641.954	1199.15
642.368	1188.8
642.781	1181.74
643.195	1164.17
643.609	1166.82
644.022	1160.14
644.436	1156.55
644.849	1145.87
645.262	1134.47
645.676	1137.29
646.089	1134.09
646.502	1118.97
646.915	1113.67
647.328	1096.02
647.741	1095.26
648.154	1082.35
648.567	1080.07
648.98	1067.23
649.393	1067.82
649.805	1063.89
650.218	1057.11
650.631	1041
651.043	1035.28
651.456	1029.89
651.868	1030.87
652.28	1048.79
652.693	1063.37
653.105	1071.24
653.517	1081.03
653.929	1082.04
654.341	1089.05
654.753	1075.41
655.165	1082.3
655.577	1080.52
655.989	1077.01
656.401	1070.18
656.813	1032.9
657.224	1012.33
657.636	983.88
658.047	966.57
658.459	946.76
658.87	937.51
659.282	926.6
659.693	905.71
660.104	891.02
660.515	876.97
660.926	875.59
661.338	873.98
661.749	868.29
662.159	858.68
662.57	853.66
662.981	849.16
663.392	841.92
663.803	847.38
664.213	845.85
664.624	841.4
665.035	843.74
665.445	829.65
665.855	821.21
666.266	812.06
666.676	809.83
667.086	800.9
667.497	800.37
667.907	794.47
668.317	783.1
668.727	778.77
669.137	778.01
669.547	776.71
669.956	778.74
670.366	780.94
670.776	782.83
671.186	786.32
671.595	789.44
672.005	792.1
672.414	790.64
672.824	789.54
673.233	793.52
673.642	796.4
674.052	797.92
674.461	799.21
674.87	803.28
675.279	800.07
675.688	800.68
676.097	800.5
676.506	795.82
676.915	808.59
677.323	810.29
677.732	807.34
678.141	806.12
678.549	794.43
678.958	793.44
679.366	791.15
679.775	794.75
680.183	805.73
680.592	811.2
681	816.01
681.408	808.66
681.816	816.58
682.224	825.62
682.632	834.91
683.04	865.03
683.448	889.41
683.856	920.64
684.264	957.2
684.671	988.07
685.079	1027.23
685.487	1072.35
685.894	1134.15
686.302	1183.21
686.709	1223.16
687.116	1270.7
687.524	1306.81
687.931	1335.72
688.338	1359.94
688.745	1377.54
689.152	1400.87
689.559	1436.41
689.966	1469
690.373	1479.95
690.78	1510.06
691.187	1559.7
691.593	1594.62
692	1624.98
692.407	1674.07
692.813	1738.14
693.22	1786.7
693.626	1837.09
694.032	1872.55
694.439	1934.69
694.845	1980.25
695.251	2040.85
695.657	2094.87
696.063	2179.48
696.469	2239.5
696.875	2295.45
697.281	2322.7
697.687	2358.78
698.093	2387.82
698.498	2449.13
698.904	2494.29
699.31	2568.88
699.715	2618.77
700.12	2695
700.526	2704.9
700.931	2762.67
701.337	2805.56
701.742	2828.5
702.147	2898.92
702.552	2918.74
702.957	2967.6
703.362	2981.5
703.767	3003.17
704.172	3034.95
704.577	2986.86
704.981	3025.15
705.386	3033.58
705.791	3020.62
706.195	3083.66
706.6	3087.67
707.004	3156.91
707.408	3127.41
707.813	3148.52
708.217	3134.07
708.621	3131.17
709.025	3214.89
709.43	3212.56
709.834	3263.17
710.237	3322.31
710.641	3305.16
711.045	3322.61
711.449	3314.42
711.853	3337.29
712.256	3369.55
712.66	3399.16
713.064	3462.99
713.467	3497.09
713.87	3593.47
714.274	3632.92
714.677	3725.95
715.08	3866.81
715.484	4010.5
715.887	4184.35
716.29	4355.01
716.693	4537.07
717.096	4745.6
717.499	4858.9
717.901	4880.81
718.304	4900.91
718.707	4916.99
719.109	4824.29
719.512	4793.2
719.915	4674.55
720.317	4621.39
720.719	4657.31
721.122	4627.83
721.524	4581.89
721.926	4543.26
722.328	4625.12
722.731	4614
723.133	4638.26
723.535	4803.38
723.937	4818.94
724.338	4863.82
724.74	4897.75
725.142	4853.24
725.544	4850.21
725.945	4872.36
726.347	4866.79
726.748	4861.24
727.15	4873.71
727.551	4840.3
727.952	4815.77
728.354	4790.01
728.755	4787.23
729.156	4750.6
729.557	4727.46
729.958	4622.86
730.359	4571.15
730.76	4555.91
731.161	4501.45
731.562	4477.57
731.962	4478.28
732.363	4424.56
732.763	4367.92
733.164	4397.64
733.564	4338.8
733.965	4254.65
734.365	4224.15
734.766	4247.48
735.166	4212.2
735.566	4166.01
735.966	4143
736.366	4138.08
736.766	4083.33
737.166	4109.55
737.566	4070.83
737.966	4048.54
738.365	4080.59
738.765	4072.79
739.165	4008.89
739.564	3987.36
739.964	4023.24
740.363	3983.39
740.763	3981.12
741.162	3970.6
741.561	3944.08
741.96	3905.08
742.36	3919.91
742.759	3925.39
743.158	3959.2
743.557	3971.92
743.955	4003.46
744.354	3967.49
744.753	4015.02
745.152	3980.72
745.55	4025.95
745.949	4020.74
746.348	4023.66
746.746	4040.41
747.144	4007
747.543	3988.39
747.941	4029.74
748.339	3971.67
748.737	3965.03
749.136	3960.37
749.534	4012.91
749.932	3991.17
750.33	4008.62
750.727	4055.39
751.125	4036.21
751.523	4022.36
751.921	4060.02
752.318	4033.65
752.716	4083.73
753.113	4095.85
753.511	4116.12
753.908	4117.87
754.305	4104.06
754.703	4158.75
755.1	4210.81
755.497	4260.73
755.894	4424.69
756.291	4574.32
756.688	4852.7
757.085	5226.41
757.482	5752.09
757.878	6328.62
758.275	6848.44
758.672	7560.59
759.068	8142.52
759.465	8968.69
759.861	10040.15
760.258	11278.35
760.654	11923.28
761.05	11829.69
761.447	11289.2
761.843	10510.66
762.239	9698.72
762.635	9329.31
763.031	8979
763.427	8475.59
763.822	7949.61
764.218	7425.08
764.614	6746.58
765.01	6291.22
765.405	5995.98
765.801	5772.27
766.196	5484.74
766.592	5327.45
766.987	5062.5
767.382	4883.59
767.778	4806.82
768.173	4695.88
768.568	4634.19
768.963	4529.23
769.358	4544.95
769.753	4505.74
770.148	4434.65
770.542	4435.74
770.937	4409.05
771.332	4486.49
771.726	4500.94
772.121	4450.93
772.515	4498.19
772.91	4485.65
773.304	4543.78
773.699	4487.01
774.093	4532.34
774.487	4582.74
774.881	4619.07
775.275	4617.44
775.669	4580.16
776.063	4618.08
776.457	4647.92
776.851	4585.92
777.245	4582
777.638	4610.16
778.032	4710.91
778.425	4681.1
778.819	4716
779.212	4679.68
779.606	4643.25
779.999	4662.04
780.392	4648.26
780.786	4717.8
781.179	4735.19
781.572	4772.63
781.965	4786.16
782.358	4735.89
782.751	4785.21
783.143	4743.11
783.536	4807.89
783.929	4844.26
784.322	4942.77
784.714	4969.41
785.107	4961.65
785.499	5023.74
785.891	5003.82
786.284	4984.94
786.676	5108.45
787.068	5092.35
787.46	5138.01
787.852	5153.11
788.245	5227.03
788.636	5249.26
789.028	5307.75
789.42	5343.14
789.812	5351.03
790.204	5432.57
790.595	5518.68
790.987	5348.67
791.378	5367.1
791.77	5474.72
792.161	5585.05
792.553	5633.33
792.944	5544.16
793.335	5482.75
793.726	5543.92
794.117	5617.62
794.508	5732.64
794.899	5707.02
795.29	5823.27
795.681	5869.5
796.072	5748.79
796.463	5599.3
796.853	5607.19
797.244	5738.96
797.634	5770.02
798.025	5768.67
798.415	5775.7
798.806	5847.39
799.196	5921.02
799.586	5965.78
799.976	5933.55
800.366	6125.28
800.756	6321.94
801.146	6285.1
801.536	6303.49
801.926	6362.04
802.316	6383.78
802.706	6446.06
803.095	6341.62
803.485	6423.22
803.874	6457.04
804.264	6677.23
804.653	6661.34
805.043	6786.1
805.432	6877.9
805.821	6880.48
806.21	6900.71
806.599	7001.71
806.988	7038.46
807.377	7129.77
807.766	7239.39
808.155	7481.36
808.544	7256.63
808.933	7262.66
809.321	7242.46
809.71	7493.16
810.098	7629.64
810.487	8023.79
810.875	8431.19
811.264	8455.86
811.652	8708.04
812.04	8835.53
812.428	8978.4
812.816	9623.69
813.204	9981.26
813.592	10450.56
813.98	10735.31
814.368	10659.64
814.756	11064.3
815.144	10994.6
815.531	11389.25
815.919	11322.66
816.306	11584.89
816.694	11310.87
817.081	11362.04
817.469	11656.51
817.856	11654.73
818.243	11885.33
818.63	12210.1
819.017	11854.49
819.404	11898.66
819.791	12215.6
820.178	12732.47
820.565	12936.75
820.952	13731.51
821.339	13313.13
821.725	13463.42
822.112	12838.55
822.498	12805.89
822.885	12917.35
823.271	12835.39
823.657	13194.51
824.044	13194.35
824.43	13254.35
824.816	13227.91
825.202	12862.09
825.588	13718.7
825.974	13741.11
826.36	14182.14
826.746	14197.79
827.132	14493.1
827.517	14472.55
827.903	13804.63
828.289	13843.2
828.674	13184.27
829.06	13093.72
829.445	13420.53
829.83	13725.33
830.216	14119.79
830.601	14422.76
830.986	14091.3
831.371	13979.5
831.756	14448.63
832.141	14097.3
832.526	14096.52
832.911	14338.85
833.295	14243.85
833.68	14641.04
834.065	14111.05
834.449	13339.34
834.834	13275.37
835.218	13267.26
835.603	13554.8
835.987	13371.82
836.371	14071.31
836.755	13980.77
837.139	14319.56
837.524	14518.68
837.908	14369.01
838.291	14418.51
838.675	14478.31
839.059	14654.49
839.443	14650.04
839.827	14455.72
840.21	14864.68
840.594	14736.85
840.977	14904.61
841.361	14889.3
841.744	15207.47
842.127	15077.49
842.511	15292.91
842.894	15794.28
843.277	16111.51
843.66	16566.07
844.043	16642.88
844.426	15958.38
844.809	15694.43
845.191	15727.27
845.574	15334.84
845.957	15034.38
846.339	14944.5
846.722	14504.3
847.104	14560.57
847.487	14420.39
847.869	14431.89
848.252	14662.35
848.634	14946.54
849.016	15178.83
849.398	15287.26
849.78	16008.34
850.162	16008.65
850.544	16361.26
850.926	16889.85
851.307	16823.95
851.689	17058.33
852.071	17440.84
852.452	17721.44
852.834	17711.22
853.215	18044.1
853.597	18172.38
853.978	18419.89
854.359	18811.73
854.741	17976.72
855.122	17885.1
855.503	17636.58
855.884	17749.91
856.265	17695.17
856.646	17782.63
857.026	17453.33
857.407	17398.98
857.788	17536.97
858.169	17778.37
858.549	17061.54
858.93	17592.66
859.31	17638.04
859.69	17816.1
860.071	17474.44
860.451	17284.15
860.831	16660.84
861.211	17632.82
861.591	18094.43
861.971	18070.04
862.351	18233.97
862.731	18556.25
863.111	18768.95
863.491	19047.54
863.87	19783.24
864.25	20073.29
864.629	19745.44
865.009	20174.3
865.388	20877.83
865.768	22369.28
866.147	22281.19
866.526	21046.29
866.905	21292.8
867.284	22483.51
867.663	21344.04
868.042	20461.84
868.421	20399.16
868.8	20734.35
869.179	20943.59
869.558	19733.06
869.936	18193.36
870.315	18510.12
870.693	18972.28
871.072	20457.66
871.45	19493.25
871.828	19744.84
872.207	20751.16
872.585	20433.85
872.963	20998.55
873.341	20280.91
873.719	20040.99
874.097	19794.98
874.475	20170.26
874.853	20625.23
875.23	19772.19
875.608	20596.69
875.986	22273.55
876.363	21298.64
876.741	21950.84
877.118	21402.55
877.495	22449.71
877.873	22815.54
878.25	24014.58
878.627	23035.25
879.004	23352.68
879.381	23242.16
879.758	22633.86
880.135	21073.72
880.512	22294.41
880.889	21700.95
881.265	21469.98
881.642	21292.82
882.019	21661.96
882.395	21222.47
882.772	22071.99
883.148	21120.29
883.524	21039.85
883.901	20913.13
884.277	21234.73
884.653	21095.93
885.029	21707.31
885.405	24048.38
885.781	23868.2
886.157	22892.74
886.532	23175.43
886.908	23169.13
887.284	25762.63
887.659	26599.6
888.035	27441.28
888.411	28157.22
888.786	28550.43
889.161	29544.74
889.537	29011.47
889.912	29950.21
890.287	29935.65
890.662	30711.61
891.037	30158.4
891.412	28123.14
891.787	27851.12
892.162	26878.84
892.536	27496.74
892.911	26467.04
893.286	25915.74
893.66	24846.87
894.035	25472.5
894.409	27719.97
894.784	26601.56
895.158	27044.35
895.532	28654.91
895.906	29436.61
896.281	30130.28
896.655	29666.01
897.029	33888.31
897.402	35293.25
897.776	39297.44
898.15	39180.44
898.524	38760.2
898.898	39266.81
899.271	43945.91
899.645	38065.3
900.018	36546.04
900.392	37903.08
900.765	38196.31
901.138	35339.12
901.511	34788.77
901.884	31945.62
902.258	29447.18
902.631	30437.45
903.003	35040.76
903.376	31622.82
903.749	35461.82
904.122	37969.94
904.495	41809.98
904.867	42349.78
905.24	36766.77
905.612	34237.69
905.985	35018.64
906.357	36623.68
906.729	34944.94
907.102	29860.09
907.474	28709.51
907.846	28885.84
908.218	28517.95
908.59	25195.85
908.962	24360.93
909.334	26240.69
909.705	27566.55
910.077	26767.79
910.449	27857.12
910.82	28645.22
911.192	31511.21
911.563	32739.38
911.935	35028.18
912.306	35072.09
912.677	36220.86
913.048	35868.58
913.419	38890.98
913.79	39099.16
914.161	41939.44
914.532	40112.17
914.903	36875.1
915.274	35032.82
915.645	34551.12
916.015	30414.36
916.386	28993.2
916.756	30863.48
917.127	31825.54
917.497	28446.99
917.868	30971.55
918.238	29434.54
918.608	30280.6
918.978	30885.38
919.348	32684.23
919.718	33756.61
920.088	32527.78
920.458	33800.25
920.828	35569.23
921.198	33722.33
921.567	36038.52
921.937	27918.06
922.306	28167.37
922.676	30368.3
923.045	25361.36
923.415	24112.78
923.784	21978.2
924.153	22600.54
924.522	22589.88
924.891	21234.8
925.26	22752.41
925.629	22220.97
925.998	25554.93
926.367	24956.86
926.736	23780.1
927.104	28308.47
927.473	30449.76
927.842	36755.5
928.21	36431.4
928.578	38293.91
928.947	36230.77
929.315	36473.88
929.683	42789.32
930.051	43142.51
930.42	50120.33
930.788	42842.93
931.156	42533.59
931.523	39848.87
931.891	36851.38
932.259	35378.53
932.627	41011.75
932.994	58025.05
933.362	48004.61
933.729	41703.34
934.097	39906.96
934.464	33799.83
934.831	39013.81
935.199	38501.43
935.566	37338.77
935.933	37812.67
936.3	45812.88
936.667	35681.16
937.034	32194.44
937.401	31818.74
937.767	27442.24
938.134	24441.7
938.501	34471.26
938.867	36727.72
939.234	62037.29
939.6	52989.04
939.967	58413.7
940.333	39110.44
940.699	33300.26
941.065	26733.07
941.431	35032.82
941.798	33808.58
942.163	44374.47
942.529	27696.42
942.895	25484.6
943.261	16487.31
943.627	21617.79
943.992	18938.33
944.358	18933.26
944.723	18977.65
945.089	18508.05
945.454	17097.59
945.82	18240.71
946.185	17516.23
946.55	20282.82
946.915	18202.41
947.28	21349.46
947.645	18803.25
948.01	17368.33
948.375	18103.43
948.74	21719.9
949.104	25292.6
949.469	36540.72
949.834	64539.89
950.198	61263.2
950.562	36739.02
950.927	30594.16
951.291	36836.3
951.655	31377.05
952.02	29415.13
952.384	22281.17
952.748	19409.75
953.112	18975.5
953.476	16508.49
953.839	15277.02
954.203	15130.43
954.567	18950.73
954.931	29859.31
955.294	25551.23
955.658	25697.03
956.021	43746.75
956.385	74130.42
956.748	109293.28
957.111	169215.31
957.474	189992.13
957.837	214166.67
958.2	162099.16
958.563	58268.16
958.926	39411.22
959.289	59802.27
959.652	66883.51
960.015	50217.72
960.377	72065.03
960.74	82306.95
961.102	142244.51
961.465	152835.46
961.827	81877.08
962.189	156928.87
962.552	108843.24
962.914	87326.69
963.276	56687.51
963.638	46879.23
964	46466.18
964.362	31457.85
964.724	30402.89
965.085	21693.96
965.447	17797.03
965.809	20266.54
966.17	20306.45
966.532	21972.49
966.893	20175.69
967.255	18370.02
967.616	21655.46
967.977	17331.32
968.338	18923.84
968.699	15561.27
969.061	15554.83
969.421	15650.13
969.782	17580.47
970.143	14863.65
970.504	15407.04
970.865	17509.22
971.225	17901.67
971.586	17531.11
971.946	24970.11
972.307	21675.17
972.667	28367.52
973.027	29227.93
973.388	35451.67
973.748	24133.24
974.108	26310.31
974.468	35597.5
974.828	27451.55
975.188	21120.69
975.548	19406.09
975.907	16306.91
976.267	18297.37
976.627	15379.72
976.986	15942.03
977.346	15189.68
977.705	14614.86
978.064	13289.95
978.424	11064.32
978.783	11449.49
979.142	13069.5
979.501	12512.06
979.86	13234.99
980.219	12750.16
980.578	16425.61
980.937	18408.9
981.296	16415.81
981.654	16886.04
982.013	26289.59
982.371	34094.16
982.73	31814.26
983.088	36036.74
983.447	38497.31
983.805	55138.12
984.163	115389.02
984.521	128174.7
984.879	187700.77
985.237	-305040.84
985.595	293998.62
985.953	73097.47
986.311	42223.14
986.669	24522.06
987.026	21172.91
987.384	28448.68
987.741	29353.93
988.099	20977.71
988.456	16701.37
988.814	15636.6
989.171	13622.59
989.528	13449.4
989.885	14187.34
990.242	11253.95
990.599	14022.28
990.956	11462.8
991.313	8021.14
991.67	6593.68
992.027	7002.16
992.383	6233.9
992.74	5472.26
993.096	5745.71
993.453	5955.05
993.809	6178.68
994.165	8219.89
994.522	7540.08
994.878	8322.2
995.234	10447.18
995.59	10300.75
995.946	9749.26
996.302	11120.46
996.658	12848.82
997.013	14157.96
997.369	16803.88
997.725	21564.99
998.08	13981.65
998.436	21544.7
998.791	29711.9
999.147	29684.81
999.502	32443.23
999.857	23561.76
1000.212	38346.06
1000.567	54614.33
1000.922	31501.54
1001.277	19991.2
1001.632	14804.05
1001.987	19050.81
1002.342	13663.38
1002.696	10941.77
1003.051	8720.35
1003.406	10543.97
1003.76	10478.82
1004.114	10338.6
1004.469	8705.99
1004.823	7202.48
1005.177	7777.77
1005.531	6167.65
1005.885	5470.41
1006.239	6186.05
1006.593	7772.96
1006.947	10415.71
1007.301	7812.63
1007.655	8528.09
1008.008	6266.81
1008.362	7033.49
1008.715	10051.68
1009.069	9129.42
1009.422	13701.79
1009.776	27515.01
1010.129	18273.9
1010.482	15198.93
1010.835	12829.96
1011.188	26788.29
1011.541	25183.9
1011.894	-153904.54
1012.247	454368.13
1012.6	30871.46
1012.952	19482.45
1013.305	10075.95
1013.657	7265.39
1014.01	6862.89
1014.362	5669.68
1014.715	5052.19
1015.067	4379.07
1015.419	4283.92
1015.771	3801.36
1016.123	3362.22
1016.475	3453.14
1016.827	3680.51
1017.179	3945.76
1017.531	3967.59
1017.883	4046.47
1018.234	3922.25
1018.586	4958.51
1018.938	5285.11
1019.289	7288.04
1019.64	8356.14
1019.992	7813.31
1020.343	7175.21
1020.694	5661.55
1021.045	5029.78
1021.396	5760.58
1021.747	6183.85
1022.098	7391.82
1022.449	5348.41
1022.8	4925.33
1023.151	3436.46
1023.501	3040.12
1023.852	3302.37
1024.202	3416.2
1024.553	3755.6
1024.903	3671.68
1025.253	3138.31
1025.604	2833.52
1025.954	3516.38
1026.304	4262.52
1026.654	4997.88
1027.004	7302.58
1027.354	11776.85
1027.703	11097.23
1028.053	14664.54
1028.403	21226.23
1028.753	30586.31
1029.102	41514.82
1029.452	212219.18
1029.801	9133.47
1030.15	5920.39
1030.499	4978.93
897.758	2707.52
901.051	2673.99
904.343	2708.91
907.636	2707.78
910.928	2771.36
914.22	2679.79
917.511	2688.53
920.803	2753.29
924.094	2774.91
927.384	2749.35
930.675	2718.06
933.965	2670.38
937.255	2673.46
940.544	2641.31
943.834	2576.97
947.123	2522.34
950.411	2618.87
953.7	2590.71
956.988	2554.82
960.276	2499.38
963.563	2585.97
966.851	2578.04
970.138	2637.81
973.424	2627.35
976.711	2576.98
979.997	2719.2
983.283	2751.24
986.568	2654.09
989.853	2676.36
993.138	2702.17
996.423	2781.9
999.708	2712.94
1002.992	2784.32
1006.275	2613.99
1009.559	2666.02
1012.842	2781.05
1016.125	2708.33
1019.408	2689.1
1022.69	2778.92
1025.972	2791.48
1029.254	2769.4
1032.536	2696.66
1035.817	2727.72
1039.098	2664.43
1042.379	2818.96
1045.659	2813
1048.939	2745.95
1052.219	2766.24
1055.498	2783.33
1058.778	2765.51
1062.057	2752.9
1065.335	2772.92
1068.614	2790.39
1071.892	2771.73
1075.17	2851.61
1078.447	2836.83
1081.724	2825.78
1085.001	2862.5
1088.278	2840.79
1091.554	2851.23
1094.83	2849.3
1098.106	2874.35
1101.382	2920.6
1104.657	2923.53
1107.932	2915.86
1111.206	2876.78
1114.481	2835.17
1117.755	2842.28
1121.029	2821.05
1124.302	2867.5
1127.575	2819.67
1130.848	2805.2
1134.121	2764.68
1137.393	2709.11
1140.665	2779.31
1143.937	2753.37
1147.208	2717.8
1150.48	2755.44
1153.75	2737.59
1157.021	2775.45
1160.291	2746.49
1163.561	2786.79
1166.831	2783.27
1170.101	2815.36
1173.37	2797.48
1176.639	2737.26
1179.907	2800.52
1183.176	2802.91
1186.444	2810.15
1189.711	2839.17
1192.979	2847.35
1196.246	2803.98
1199.513	2826.13
1202.78	2817.15
1206.046	2825.59
1209.312	2849.95
1212.578	2875.33
1215.843	2824.79
1219.108	2802.74
1222.373	2825.82
1225.638	2789.16
1228.902	2768.89
1232.166	2738.8
1235.43	2717.71
1238.693	2744.58
1241.956	2743.44
1245.219	2778.74
1248.482	2772.99
1251.744	2768.05
1255.006	2919.87
1258.268	2873.92
1261.529	2817.24
1264.79	2826.07
1268.051	2929.7
1271.312	2946.15
1274.572	2905.63
1277.832	2896.38
1281.092	2891.72
1284.351	2863.08
1287.61	2839.13
1290.869	2748.92
1294.128	2722.89
1297.386	2818.67
1300.644	2805.11
1303.902	2818.67
1307.159	2679.58
1310.416	2734.6
1313.673	2757.47
1316.93	2739.7
1320.186	2787.32
1323.442	2835.2
1326.697	2822.07
1329.953	2817.96
1333.208	2838.83
1336.463	2822.51
1339.717	2754.88
1342.972	2895.62
1346.226	2876.15
1349.479	2806.92
1352.733	2774.05
1355.986	2801.9
1359.238	2774.55
1362.491	2776.87
1365.743	2784.68
1368.995	2779.09
1372.247	2792.19
1375.498	2818
1378.749	2825.16
1382	2781.57
1385.251	2837.52
1388.501	2804.42
1391.751	2783.67
1395	2755.56
1398.25	2791.48
1401.499	2794.54
1404.748	2717.85
1407.996	2712.85
1411.244	2697.29
1414.492	2675.45
1417.74	2651.79
1420.987	2665.88
1424.234	2719.51
1427.481	2702.54
1430.728	2763.86
1433.974	2737.47
1437.22	2754.26
1440.465	2756.73
1443.711	2712.54
1446.956	2750.14
1450.201	2741.8
1453.445	2789.24
1456.689	2761.91
1459.933	2774.28
1463.177	2805.36
1466.42	2778.52
1469.663	2756.24
1472.906	2745.68
1476.148	2829.04
1479.391	2788.12
1482.633	2760.59
1485.874	2766.21
1489.115	2746.02
1492.356	2760.03
1495.597	2732.54
1498.838	2738.8
1502.078	2702.66
1505.318	2650.44
1508.557	2692.33
1511.797	2661.05
1515.036	2737.71
1518.274	2728.15
1521.513	2705.09
1524.751	2729.31
1527.989	2738.04
1531.227	2751.53
1534.464	2739.41
1537.701	2765.19
1540.938	2786.92
1544.174	2739.71
1547.41	2739.78
1550.646	2777.51
1553.882	2811.95
1557.117	2861.99
1560.352	2881.6
1563.587	2833.72
1566.821	2792.8
1570.055	2830.34
1573.289	2800.21
1576.523	2875.69
1579.756	2882.8
1582.989	2900.77
1586.222	2862.95
1589.454	2896.6
1592.686	2870.52
1595.918	2892.65
1599.15	2882.46
1602.381	2961.32
1605.612	2911.87
1608.843	3006.6
1612.073	2921.44
1615.303	2903.66
1618.533	2895.26
1621.762	2892.43
1624.992	2890.54
1628.221	2871.36
1631.449	2855.19
1634.678	2919.81
1637.906	2874.47
1641.134	2915.33
1644.361	2869.59
1647.588	2858.21
1650.815	2873.64
1654.042	2853.06
1657.269	2888.48
1660.495	2832.55
1663.72	2856.8
1666.946	2818.54
1670.171	2753.2
1673.396	2726.15
1676.621	2718.41
1679.845	2742.83
1683.069	2764.57
1686.293	2809.07
1689.517	2777.95
1692.74	2702.67
1695.963	2733.72
1699.185	2750.9
1702.408	2728.28
1705.63	2772.18
1708.852	2783.42
1712.073	2754.17
1715.294	2734.41
1718.515	2798.2
1721.736	2744.89
1724.956	2741.07
1728.176	2768.12
1731.396	2789.25
1734.616	2776.2
1737.835	2801.5
1741.054	2785.56
1744.272	2779.17
1747.491	2807.54
1750.709	2867.37
1753.927	2764.04
1757.144	2811.09
1760.361	2848.71
1763.578	2847.79
1766.795	2788.29
1770.011	2798.36
1773.227	2842.43
1776.443	2872.93
1779.658	2917.63
1782.874	2865.39
1786.089	2840.85
1789.303	2842.47
1792.518	2853.17
1795.732	2839.37
1798.945	2844.17
1802.159	2898.3
1805.372	2792.76
1808.585	2775.54
1811.797	2778.28
1815.01	2833.85
1818.222	2828.73
1821.434	2798.56
1824.645	2861.87
1827.856	2839.34
1831.067	2875.74
1834.278	2842.07
1837.488	2820.48
1840.698	2976.06
1843.908	2897.57
1847.117	2863.27
1850.326	2736.76
1853.535	2849.67
1856.744	2879.11
1859.952	2793.75
1863.16	2794.65
1866.368	2817.61
1869.575	2915.22
1872.782	2809.3
1875.989	2751.26
1879.196	2841.01
1882.402	2832.86
1885.608	2876.13
1888.814	2775.58
1892.019	2668.09
1895.224	2720.33
1898.429	2706.09
1901.634	2686.35
1904.838	2666.09
1908.042	2711.5
1911.246	2719.06
1914.449	2645.58
1917.652	2643.76
1920.855	2628.72
1924.058	2679.27
1927.26	2715.31
1930.462	2744.24
1933.664	2768.44
1936.865	2705.87
1940.066	2709.96
1943.267	2656.88
1946.467	2672.03
1949.668	2698.88
1952.868	2765.97
1956.067	2740.18
1959.267	2671.15
1962.466	2699.74
1965.665	2682.41
1968.863	2679.34
1972.061	2697.04
1975.259	2697.28
1978.457	2781.5
1981.654	2735.3
1984.852	2737.26
1988.048	2666.65
1991.245	2672.62
1994.441	2755.39
1997.637	2745.92
2000.833	2733.74
2004.028	2770
2007.223	2823.2
2010.418	2796.74
2013.613	2754.6
2016.807	2722.5
2020.001	2734.76
2023.194	2781.62
2026.388	2756.27
2029.581	2704.54
2032.774	2751.51
2035.966	2748.56
2039.158	2679.29
2042.35	2708.71
2045.542	2637.93
2048.733	2743.2
2051.924	2774.03
2055.115	2801.24
2058.306	2741.19
2061.496	2803.85
2064.686	2863.56
2067.875	2781.66
2071.065	2801.34
2074.254	2831.71
2077.442	2778.7
2080.631	2870.57
2083.819	2753.88
2087.007	2736.39
2090.195	2705.77
2093.382	2741.62
2096.569	2719.31
2099.756	2676.24
2102.942	2694.34
2106.128	2695.76
2109.314	2688.64
2112.5	2649.62
2115.685	2628.26
2118.87	2638.96
2122.055	2704.3
2125.239	2666.19
2128.424	2642.19
2131.608	2751.11
2134.791	2734.98
2137.974	2794.54
2141.157	2780.17
2144.34	2726.76
2147.523	2748.31
2150.705	2758.73
2153.887	2740.77
2157.068	2683.61
2160.25	2693.3
2163.431	2731.04
2166.611	2673.98
2169.792	2685.84
2172.972	2580.3
2176.152	2662.43
2179.331	2699.24
2182.511	2675.76
2185.69	2704.71
2188.868	2698.86
2192.047	2756.1
2195.225	2738.42
2198.403	2691.11
2201.58	2683.2
2204.758	2682.09
2207.935	2764.74
2211.111	2648.07
2214.288	2630.57
2217.464	2669.73
2220.64	2649.38
2223.815	2702.73
2226.991	2623.95
2230.166	2645.28
2233.34	2669.73
2236.515	2700.87
2239.689	2775.16
2242.863	2717.43
2246.036	2774.5
2249.209	2780.71
2252.382	2817.77
2255.555	2796.77
2258.727	2733.36
2261.9	2778.55
2265.071	2768.05
2268.243	2773.31
2271.414	2698.15
2274.585	2655.75
2277.756	2725.01
2280.926	2682.08
2284.096	2725.82
2287.266	2628.16
2290.436	2685.19
2293.605	2717.04
2296.774	2738.11
2299.942	2765.76
2303.111	2780.55
2306.279	2828.45
2309.447	2817.72
2312.614	2793.15
2315.781	2813.64
2318.948	2778.45
2322.115	2818.53
2325.281	2723.7
2328.447	2746.73
2331.613	2726.02
2334.779	2694.89
2337.944	2701.37
2341.109	2697.14
2344.274	2677.42
2347.438	2644.4
2350.602	2670.06
2353.766	2687.01
2356.929	2674.19
2360.092	2717.01
2363.255	2662.59
2366.418	2590.17
2369.58	2709.25
2372.742	2484.71
2375.904	2504.81
2379.066	2478.11
2382.227	2515.19
2385.388	2480.84
2388.548	2401.74
2391.709	2459.22
2394.869	2431.82
2398.029	2540.75
2401.188	2558.8
2404.347	2488.63
2407.506	2638.53
2410.665	2665.76
2413.823	2676.33
2416.981	2627.96
2420.139	2658.88
2423.296	2713.56
2426.453	2685.28
2429.61	2715.36
2432.767	2640.56
2435.923	2675.56
2439.079	2643.81
2442.235	2693.45
2445.391	2618.18
2448.546	2640.33
2451.701	2694.63
2454.855	2662.61
2458.009	2719.19
2461.163	2722.3
2464.317	2676.77
2467.471	2712.03
2470.624	2754.76
2473.777	2717.94
2476.929	2732.45
2480.082	2757.78
2483.234	2723.73
2486.385	2681.16
2489.537	2672.86
2492.688	2629.1
2495.839	2648.82
2498.989	2659.65
2502.14	2641.41
2505.29	2622.78
2508.439	2651.61
2511.589	2569.75
2514.738	2585.47
2517.887	2617.5
2521.035	2674.45
2524.183	2665.76
2527.331	2641.48
2530.479	2610.68
2533.627	2621.87
