Data from C_2_HIR_WI_4N_Splice17_12-33-22-233.txt Node
Date: Sat Mar 14 12:33:22 EDT 2020
User: sa697716
Spectrometer: FLMS03696
Trigger mode: 0
Integration Time (sec): 3.180400E-1
Scans to average: 20
Electric dark correction enabled: true
Nonlinearity correction enabled: true
Boxcar width: 5
XAxis mode: Wavelengths
Number of Pixels in Spectrum: 2048
>>>>>Begin Spectral Data<<<<<
187.83	-338335.33
188.298	2540.19
188.766	1310.43
189.233	1191.95
189.701	1712.44
190.169	2397.52
190.636	897.65
191.104	735.82
191.571	123.82
192.039	-15.94
192.506	26.03
192.974	808.48
193.441	-1183.44
193.908	-490.51
194.375	-94.29
194.842	0.12
195.31	96.17
195.777	193.15
196.244	427.64
196.711	495.66
197.177	608.63
197.644	870.89
198.111	1506.69
198.578	2106.48
199.045	1648.11
199.511	2661.97
199.978	3112.38
200.445	2652.81
200.911	2923.49
201.378	3285.19
201.844	2995.77
202.31	5138.21
202.777	5350.61
203.243	2966.8
203.709	2790.18
204.176	3344.74
204.642	2748.35
205.108	2556.45
205.574	2077.01
206.04	1879.16
206.506	1753.77
206.972	1645.77
207.438	1591.45
207.903	1791.65
208.369	1586.48
208.835	1609.47
209.301	1681.67
209.766	1718.07
210.232	1704.34
210.697	2109.67
211.163	2629.16
211.628	3991.34
212.094	3371.3
212.559	4170.71
213.024	2609.76
213.49	3170.61
213.955	3093.61
214.42	3041.93
214.885	2861.61
215.35	2767.47
215.815	2688.53
216.28	2855.91
216.745	2341.45
217.21	2557.26
217.675	2365.71
218.14	2694.75
218.604	3061.12
219.069	3526.53
219.534	3751.19
219.998	4418.72
220.463	5397.03
220.927	6694.97
221.392	6336.31
221.856	6448.93
222.32	8143.77
222.785	10103.48
223.249	12740.47
223.713	14230.01
224.177	14253.17
224.642	18285.85
225.106	22464.69
225.57	24559.64
226.034	18289
226.497	27903.08
226.961	25177.95
227.425	29392.69
227.889	32550.01
228.353	32610.09
228.816	67409.04
229.28	64517.09
229.744	54439.99
230.207	33110.74
230.671	32573.82
231.134	53874.56
231.597	62004.12
232.061	62044.92
232.524	60387.44
232.987	41609.05
233.45	37449.02
233.914	33588.49
234.377	34430.92
234.84	31495.24
235.303	37119.12
235.766	41446.8
236.229	42835.76
236.691	26991.55
237.154	30311.28
237.617	22825.72
238.08	23381.35
238.542	27326.12
239.005	19534.93
239.468	19381.32
239.93	18267.27
240.393	16590.82
240.855	14551.04
241.317	14883.75
241.78	18119.73
242.242	18738.51
242.704	20234.13
243.166	17629.58
243.629	15994.96
244.091	18403.51
244.553	20161.02
245.015	21639.04
245.477	27997.88
245.939	41036.35
246.4	43553.21
246.862	42287.11
247.324	39819.98
247.786	44527.16
248.247	58318.21
248.709	60252.41
249.17	45039.42
249.632	42377.85
250.093	49116.46
250.555	42378.4
251.016	25797.3
251.477	24457.3
251.939	26373.15
252.4	27653.5
252.861	32866.83
253.322	30543.89
253.783	36289.03
254.244	47002.18
254.705	37054.71
255.166	32922.91
255.627	32381.45
256.088	45703.46
256.549	48499.29
257.009	41747.41
257.47	50603.01
257.931	41156.87
258.391	30828.49
258.852	31772.91
259.312	33335.46
259.773	41171.23
260.233	34811.84
260.694	29360.33
261.154	33286.66
261.614	26690.48
262.074	23864.67
262.534	24777.06
262.994	23346.6
263.455	31053.95
263.915	26145.01
264.374	24592.16
264.834	26823.57
265.294	29708.3
265.754	30757.11
266.214	29100.6
266.673	27269.37
267.133	34384.42
267.593	34133.74
268.052	41759.99
268.512	36313.97
268.971	43790.47
269.431	48033.64
269.89	43014.75
270.349	64425.89
270.809	71766.74
271.268	64439.56
271.727	144516.91
272.186	93554.38
272.645	70095.81
273.104	50532.97
273.563	73195.92
274.022	57490.21
274.481	48873.32
274.94	37625.5
275.399	27971.79
275.857	32575.34
276.316	44049.81
276.775	39165.41
277.233	38533.83
277.692	36051.91
278.15	40725.64
278.609	41805.24
279.067	38704.37
279.525	35894.2
279.984	46313.53
280.442	55580.77
280.9	54733.42
281.358	35978.82
281.816	33485.45
282.274	32791.91
282.732	33858.67
283.19	34028.41
283.648	29405.16
284.106	31308.07
284.564	31857.27
285.021	29522.14
285.479	21969.39
285.937	19961.28
286.394	17506.98
286.852	17997.46
287.309	18901.67
287.767	18241.81
288.224	17339.79
288.682	18992.65
289.139	20812.77
289.596	19019.13
290.053	19767.95
290.511	24949.08
290.968	30247.17
291.425	41048.3
291.882	34180.59
292.339	29707.73
292.796	29464.11
293.252	27726.83
293.709	22026.67
294.166	19723.89
294.623	21791.75
295.079	20885.05
295.536	20964.83
295.992	19027.19
296.449	18784.53
296.905	19506.48
297.362	18700.28
297.818	19659.76
298.274	20377.54
298.731	20734.8
299.187	20524.36
299.643	22026.93
300.099	26628.12
300.555	29195.39
301.011	24381.38
301.467	23490.99
301.923	27471.52
302.379	26800.19
302.835	26313.88
303.291	26323.81
303.746	29958.56
304.202	37778.95
304.658	37885.93
305.113	25467.94
305.569	24941.02
306.024	26579.05
306.479	25310.83
306.935	21300.74
307.39	23257.51
307.845	21433.81
308.301	21575.77
308.756	20996.59
309.211	20218.19
309.666	20701.21
310.121	25638.4
310.576	26002.82
311.031	25770.77
311.486	29419.4
311.94	29435.95
312.395	39288.72
312.85	73860.68
313.305	362746.26
313.759	1876706.28
314.214	135962.08
314.668	107762.4
315.123	90586.19
315.577	32479.87
316.032	28880.69
316.486	36245.99
316.94	28550.36
317.394	19883.69
317.849	15442.02
318.303	14610.85
318.757	13773.93
319.211	15225.13
319.665	13303.76
320.119	13466.66
320.572	19267.77
321.026	17971.33
321.48	14945.06
321.934	16290.87
322.387	16317.45
322.841	17608.09
323.295	15814.55
323.748	18215.2
324.202	18465.83
324.655	22161.76
325.108	30932.14
325.562	21882.58
326.015	26039.32
326.468	19663.07
326.921	21962.1
327.374	20454.81
327.827	21279.45
328.28	24076.07
328.733	16105.15
329.186	14151.5
329.639	13487.89
330.092	11376.77
330.545	10823.89
330.997	10900.1
331.45	11905.91
331.903	13944.68
332.355	23992.96
332.808	23321.15
333.26	19212.06
333.713	20871.57
334.165	21011.19
334.617	27990.28
335.069	22575.87
335.522	40738.82
335.974	45094.95
336.426	41180.12
336.878	28505.83
337.33	14456.95
337.782	14109.26
338.234	17674.21
338.686	21112.26
339.137	25011.04
339.589	23565.65
340.041	18504.59
340.493	15899.15
340.944	16276.02
341.396	17518.03
341.847	14731.8
342.299	17372.79
342.75	21194
343.201	18489.17
343.653	21269.43
344.104	26136.04
344.555	20559.83
345.006	31855.54
345.457	24404.35
345.908	19374.01
346.359	18227.44
346.81	14830.63
347.261	15622.6
347.712	15380.89
348.163	16486.56
348.613	16696.69
349.064	15582.71
349.515	13649.41
349.965	14006.38
350.416	16831.03
350.866	18446.64
351.317	20843.03
351.767	34500.68
352.217	43488.07
352.668	36049.83
353.118	32953.71
353.568	31706.54
354.018	25091.99
354.468	26435.9
354.918	18963.48
355.368	16599.17
355.818	23439.96
356.268	67332.77
356.718	282332.7
357.168	70275.46
357.617	35238.96
358.067	39262.31
358.517	36761.94
358.966	42949.01
359.416	48106.71
359.865	51948.93
360.315	61819.47
360.764	28839.27
361.213	16142.37
361.663	15247.69
362.112	18836.58
362.561	30432.91
363.01	22885.33
363.459	19243.95
363.908	20818.63
364.357	17665.19
364.806	29819.25
365.255	20494.75
365.703	18759.31
366.152	18783.35
366.601	15224.84
367.05	12345.95
367.498	11214.9
367.947	11741.92
368.395	12204.07
368.844	10797.76
369.292	13004.67
369.74	8988.73
370.189	13750.57
370.637	16111.73
371.085	13904.88
371.533	16922.69
371.981	16280.5
372.429	15493.43
372.877	16093.17
373.325	13465.79
373.773	13731.3
374.221	12240.92
374.669	15146.35
375.116	13072.64
375.564	13165.97
376.012	14692.7
376.459	12120.42
376.907	14491.15
377.354	17506.15
377.801	16386.78
378.249	18811.61
378.696	23961.42
379.143	28972.84
379.591	30864.23
380.038	52283.2
380.485	37835.37
380.932	40943.47
381.379	37380.58
381.826	27532.14
382.273	19625.3
382.72	17142.8
383.166	16746.33
383.613	10875.17
384.06	9807.02
384.506	11392.58
384.953	8381.52
385.4	8462.23
385.846	7416.79
386.292	7246.57
386.739	7097.44
387.185	7017.87
387.631	7013.35
388.078	6828.67
388.524	7335.43
388.97	6801.5
389.416	5682.58
389.862	6056.45
390.308	5749.48
390.754	5851.6
391.2	6372.02
391.645	6541.93
392.091	6280.78
392.537	6099.77
392.983	6114.89
393.428	6028.01
393.874	6480.05
394.319	6534.19
394.765	6210.94
395.21	6395.67
395.655	6014.19
396.101	5646.5
396.546	5115.77
396.991	5169.68
397.436	4814.14
397.881	4671.89
398.326	4438.67
398.771	4203.67
399.216	3669.55
399.661	3312.88
400.106	3310.82
400.551	3401.9
400.995	3052.07
401.44	3013.53
401.885	2832.2
402.329	2863.93
402.774	2745.88
403.218	2664.93
403.663	2572.5
404.107	2652.68
404.551	2676.12
404.995	2450.14
405.44	2358.8
405.884	2394.48
406.328	2321.95
406.772	2319.61
407.216	2113.57
407.66	2041.31
408.104	1935.07
408.547	1809.54
408.991	1748.83
409.435	1680.84
409.879	1661.59
410.322	1638.04
410.766	1582.39
411.209	1505.06
411.653	1440.32
412.096	1410.38
412.54	1411.94
412.983	1402.17
413.426	1406.12
413.869	1405.14
414.312	1381.28
414.756	1326.17
415.199	1266.12
415.642	1228.86
416.085	1228.91
416.527	1223.06
416.97	1241.16
417.413	1178.7
417.856	1165.93
418.298	1154.06
418.741	1144.03
419.184	1139.23
419.626	1186.33
420.069	1186.34
420.511	1194.3
420.953	1170.78
421.396	1160.18
421.838	1130.17
422.28	1154.76
422.722	1160.88
423.164	1174.79
423.606	1156.27
424.048	1153.34
424.49	1100.03
424.932	1096.22
425.374	1079.03
425.816	1095.89
426.258	1113.43
426.699	1125.38
427.141	1107.85
427.582	1123.45
428.024	1117.09
428.465	1107.92
428.907	1078.47
429.348	1061.71
429.789	1058.07
430.231	1035.4
430.672	1048.9
431.113	1025.5
431.554	1009.89
431.995	984.72
432.436	950.91
432.877	931.16
433.318	917.2
433.759	912.91
434.2	913.97
434.64	905.14
435.081	908.75
435.522	861.7
435.962	829.79
436.403	812.45
436.843	820.76
437.284	801.4
437.724	778.34
438.164	777.38
438.604	758.64
439.045	729.89
439.485	699.78
439.925	684.47
440.365	665.66
440.805	655.79
441.245	646.23
441.685	624.65
442.125	618.04
442.564	623.2
443.004	610.1
443.444	611.16
443.883	613.66
444.323	609.08
444.762	610.09
445.202	618.55
445.641	632.71
446.081	629.88
446.52	635.18
446.959	631
447.398	617.08
447.837	610.16
448.276	598.81
448.716	602.29
449.154	606.98
449.593	593.91
450.032	594.71
450.471	582.02
450.91	582.44
451.349	583.03
451.787	581.95
452.226	591.78
452.664	593.59
453.103	595.71
453.541	596.15
453.98	596.84
454.418	600.84
454.856	592.07
455.295	592.94
455.733	598.64
456.171	601.59
456.609	604.76
457.047	603.34
457.485	611.55
457.923	613.03
458.361	605.13
458.798	606.67
459.236	605.69
459.674	609.08
460.111	611.45
460.549	605.53
460.987	601.93
461.424	597.71
461.862	594.48
462.299	585.15
462.736	584.46
463.173	586.41
463.611	582.21
464.048	581.77
464.485	586.89
464.922	581.16
465.359	577.68
465.796	573.79
466.233	569.06
466.67	564.43
467.106	564.28
467.543	557.99
467.98	550.78
468.416	535.3
468.853	529.57
469.29	511.77
469.726	506.34
470.162	493.61
470.599	484.37
471.035	480.67
471.471	469.61
471.907	466.27
472.344	463.19
472.78	464.29
473.216	469.02
473.652	462.79
474.088	462.45
474.523	461.66
474.959	465.47
475.395	461.03
475.831	458.44
476.266	460.54
476.702	459.72
477.138	456.05
477.573	454.64
478.008	453.59
478.444	456.86
478.879	461.62
479.314	463.3
479.75	463.54
480.185	466.01
480.62	469.35
481.055	472
481.49	474.95
481.925	481.47
482.36	490.43
482.795	503.67
483.229	517.6
483.664	528.75
484.099	530.66
484.534	540.12
484.968	546.33
485.403	549.09
485.837	548.33
486.271	548.12
486.706	549.92
487.14	544.17
487.574	536.44
488.009	532.12
488.443	528.24
488.877	535.08
489.311	537.09
489.745	544.3
490.179	550.64
490.613	563.51
491.046	570.24
491.48	576.37
491.914	579.01
492.348	585.01
492.781	591.52
493.215	595.52
493.648	598.9
494.082	606.01
494.515	609.44
494.948	619.18
495.382	625.86
495.815	632.79
496.248	640.8
496.681	655.31
497.114	669.76
497.547	682.1
497.98	698.11
498.413	707.86
498.846	721.2
499.279	732.75
499.711	741.01
500.144	747.03
500.577	762.58
501.009	777.52
501.442	791.76
501.874	797.61
502.306	804.05
502.739	816.87
503.171	836.01
503.603	844.49
504.036	859.14
504.468	870.35
504.9	887.91
505.332	898.63
505.764	906.88
506.196	919.34
506.627	938.69
507.059	957.82
507.491	971.8
507.923	974.89
508.354	994.9
508.786	1010.78
509.217	1033.75
509.649	1053.3
510.08	1078.82
510.512	1102.68
510.943	1123.53
511.374	1141.15
511.805	1166.99
512.237	1191.5
512.668	1230.47
513.099	1263.88
513.53	1297.77
513.961	1325.14
514.391	1363.93
514.822	1403.06
515.253	1444.68
515.684	1475.13
516.114	1509.78
516.545	1535.94
516.975	1567.97
517.406	1591.12
517.836	1596.41
518.267	1605.59
518.697	1626.52
519.127	1632.01
519.558	1641.6
519.988	1648.39
520.418	1662.42
520.848	1683.96
521.278	1694.3
521.708	1713.32
522.138	1728.9
522.567	1764.95
522.997	1794.73
523.427	1813.26
523.857	1834.11
524.286	1846.5
524.716	1862.23
525.145	1883.42
525.575	1896.97
526.004	1915.3
526.433	1909.28
526.863	1909.24
527.292	1897.74
527.721	1903.71
528.15	1910.09
528.579	1910.36
529.008	1922.69
529.437	1950.46
529.866	1966.35
530.295	1985.07
530.724	1999.52
531.152	2032
531.581	2048.36
532.01	2068.77
532.438	2079.07
532.867	2095.87
533.295	2117.51
533.723	2124.55
534.152	2122.19
534.58	2121.5
535.008	2103.56
535.436	2105.05
535.865	2114.09
536.293	2131.51
536.721	2150.39
537.149	2179.63
537.576	2182.15
538.004	2197.11
538.432	2206.59
538.86	2202.92
539.287	2211.74
539.715	2228.14
540.143	2231.87
540.57	2225.23
540.998	2220.48
541.425	2193.86
541.852	2169.53
542.28	2168.38
542.707	2149.27
543.134	2132.72
543.561	2128.97
543.988	2119.17
544.415	2116.82
544.842	2110.63
545.269	2102.48
545.696	2104.08
546.123	2119.27
546.549	2107.21
546.976	2091.12
547.403	2090.08
547.829	2092.65
548.256	2094.71
548.682	2091.53
549.108	2082.38
549.535	2080.71
549.961	2082.87
550.387	2068.45
550.813	2060.78
551.24	2067.93
551.666	2069.61
552.092	2059.28
552.518	2051.83
552.943	2045.1
553.369	2053.28
553.795	2061.35
554.221	2063.11
554.646	2059.53
555.072	2071.21
555.498	2077.02
555.923	2087.57
556.349	2106.36
556.774	2116.01
557.199	2117.13
557.625	2124.21
558.05	2117.84
558.475	2130.9
558.9	2130.09
559.325	2121.87
559.75	2114.56
560.175	2107.49
560.6	2100.09
561.025	2097.75
561.449	2099.89
561.874	2106.9
562.299	2111.17
562.723	2119.58
563.148	2107.64
563.572	2112.24
563.997	2124.85
564.421	2131.53
564.846	2132.77
565.27	2137.43
565.694	2133.62
566.118	2146.52
566.542	2154.3
566.966	2147.76
567.39	2143.02
567.814	2130.94
568.238	2130.03
568.662	2135.24
569.086	2137.69
569.509	2145.98
569.933	2128.1
570.357	2120.69
570.78	2096.94
571.204	2083.78
571.627	2072
572.05	2070.1
572.474	2069.82
572.897	2055.89
573.32	2047.43
573.743	2037.07
574.166	2015.99
574.589	2016.63
575.012	2007.82
575.435	2005.69
575.858	1994.9
576.281	1981.18
576.704	1960.98
577.126	1945.48
577.549	1931.99
577.972	1919.92
578.394	1907.26
578.817	1899.19
579.239	1876.18
579.661	1859.92
580.084	1841.2
580.506	1824.56
580.928	1819.45
581.35	1807.74
581.772	1803.77
582.194	1788.7
582.616	1773.67
583.038	1756.32
583.46	1743.83
583.882	1740.08
584.303	1744.91
584.725	1740.25
585.147	1741.72
585.568	1754.58
585.99	1768.76
586.411	1775.8
586.833	1792.53
587.254	1794.07
587.675	1810.9
588.096	1824.86
588.518	1819.92
588.939	1799.4
589.36	1797.22
589.781	1786.26
590.202	1752.97
590.623	1742.58
591.043	1739.18
591.464	1723.72
591.885	1717.66
592.305	1710.75
592.726	1695.16
593.147	1695.61
593.567	1691.35
593.987	1681.66
594.408	1675.16
594.828	1671.94
595.248	1664.18
595.669	1642.33
596.089	1635.02
596.509	1629.07
596.929	1613.79
597.349	1613.98
597.769	1602.11
598.189	1594.71
598.608	1597.2
599.028	1599.06
599.448	1599.39
599.867	1584.81
600.287	1580.55
600.706	1574.34
601.126	1563.23
601.545	1561.6
601.965	1560.69
602.384	1555.29
602.803	1557.34
603.222	1550.88
603.641	1543.12
604.061	1538.9
604.48	1534.48
604.898	1542.42
605.317	1547.99
605.736	1549.49
606.155	1545.37
606.574	1534.13
606.992	1539.12
607.411	1533.1
607.829	1522.63
608.248	1517.92
608.666	1514.12
609.085	1512.55
609.503	1502.83
609.921	1495.45
610.339	1496.73
610.758	1494.76
611.176	1487.52
611.594	1475.33
612.012	1470.07
612.43	1472.26
612.847	1478.65
613.265	1478.24
613.683	1481.81
614.101	1482.39
614.518	1476.26
614.936	1463.8
615.353	1446.98
615.771	1443.98
616.188	1443.96
616.606	1438.99
617.023	1432.01
617.44	1415.52
617.857	1407.47
618.274	1395.77
618.691	1387.79
619.108	1376.55
619.525	1368.11
619.942	1373.56
620.359	1375.36
620.776	1368.79
621.192	1364.8
621.609	1360.23
622.026	1366.21
622.442	1372.7
622.859	1376.99
623.275	1367.72
623.691	1374.14
624.108	1388.23
624.524	1402.93
624.94	1402.64
625.356	1414.13
625.772	1427.43
626.188	1440.85
626.604	1442.33
627.02	1437.65
627.436	1435.67
627.852	1443.01
628.268	1455.18
628.683	1443.87
629.099	1435.98
629.514	1429.65
629.93	1432.87
630.345	1437.02
630.761	1432.2
631.176	1435.61
631.591	1428.14
632.007	1420.5
632.422	1418.3
632.837	1404.83
633.252	1401.69
633.667	1389.05
634.082	1377.34
634.497	1362.72
634.911	1341.24
635.326	1336.29
635.741	1316.96
636.155	1304.53
636.57	1304.1
636.984	1301.66
637.399	1303.85
637.813	1301.39
638.228	1299.34
638.642	1302.84
639.056	1289.34
639.47	1286.53
639.884	1274.46
640.298	1265.51
640.712	1262.37
641.126	1247.29
641.54	1235.6
641.954	1224.69
642.368	1210.33
642.781	1198.53
643.195	1177.09
643.609	1173.77
644.022	1165.41
644.436	1158.94
644.849	1143.25
645.262	1128.61
645.676	1126.82
646.089	1119.55
646.502	1102.86
646.915	1092.94
647.328	1072.66
647.741	1068.23
648.154	1053.41
648.567	1047.67
648.98	1032.68
649.393	1030.62
649.805	1022.94
650.218	1011.88
650.631	994.84
651.043	986.69
651.456	979.2
651.868	976.83
652.28	991.09
652.693	1002.23
653.105	1005.18
653.517	1011.36
653.929	1009.28
654.341	1013.52
654.753	999.86
655.165	1001.01
655.577	994.16
655.989	985.79
656.401	975.71
656.813	938.37
657.224	913.88
657.636	883.8
658.047	862.52
658.459	839.47
658.87	825.95
659.282	810.73
659.693	787.66
660.104	769.06
660.515	752.96
660.926	747.59
661.338	739.29
661.749	729.16
662.159	715.95
662.57	706.6
662.981	698.38
663.392	686.88
663.803	685.73
664.213	678.08
664.624	670.28
665.035	667.28
665.445	650.08
665.855	640.68
666.266	631.31
666.676	625.94
667.086	615.72
667.497	611.36
667.907	603.43
668.317	592.72
668.727	589.02
669.137	587.34
669.547	583.08
669.956	582.64
670.366	581.37
670.776	580.38
671.186	580.84
671.595	580.91
672.005	581.31
672.414	580.74
672.824	578.86
673.233	580.33
673.642	581.65
674.052	584.31
674.461	586.29
674.87	589.34
675.279	587.71
675.688	588.83
676.097	591.74
676.506	591.08
676.915	601.42
677.323	604.74
677.732	604.1
678.141	604.72
678.549	596.95
678.958	597.18
679.366	597.68
679.775	604.04
680.183	615.62
680.592	622.05
681	628.88
681.408	627.63
681.816	636.86
682.224	647.59
682.632	661.27
683.04	690.21
683.448	716.26
683.856	749.76
684.264	786.22
684.671	821.68
685.079	865.65
685.487	913.35
685.894	978.01
686.302	1034.49
686.709	1086.5
687.116	1144.52
687.524	1197.32
687.931	1243.91
688.338	1286.14
688.745	1324.75
689.152	1366.26
689.559	1418.98
689.966	1473.45
690.373	1504.65
690.78	1555.55
691.187	1626.72
691.593	1683.82
692	1733.77
692.407	1805.67
692.813	1890.69
693.22	1958.92
693.626	2029.74
694.032	2088.41
694.439	2173.26
694.845	2240.48
695.251	2323.83
695.657	2399.11
696.063	2508.41
696.469	2589.85
696.875	2664.55
697.281	2708.06
697.687	2761.48
698.093	2804.88
698.498	2885.37
698.904	2948.36
699.31	3043.74
699.715	3109.24
700.12	3208.31
700.526	3225.07
700.931	3299.46
701.337	3356.68
701.742	3391.66
702.147	3481.77
702.552	3514.24
702.957	3579.89
703.362	3600.7
703.767	3632.52
704.172	3677.01
704.577	3622.97
704.981	3675.37
705.386	3691.64
705.791	3679.93
706.195	3760.42
706.6	3768.64
707.004	3855
707.408	3819.35
707.813	3846.09
708.217	3828.69
708.621	3829.71
709.025	3934.55
709.43	3933.57
709.834	3997.69
710.237	4073.24
710.641	4054.53
711.045	4075.29
711.449	4065.55
711.853	4095.65
712.256	4141.93
712.66	4181.16
713.064	4259.78
713.467	4303.53
713.87	4425.02
714.274	4475.14
714.677	4590.6
715.08	4762.24
715.484	4939.22
715.887	5156.53
716.29	5369.91
716.693	5589.41
717.096	5847.72
717.499	5989.18
717.901	6012.5
718.304	6038.69
718.707	6058.94
719.109	5946.59
719.512	5911.06
719.915	5769.4
720.317	5704.15
720.719	5747.05
721.122	5712.95
721.524	5656.07
721.926	5607.6
722.328	5712.68
722.731	5701.47
723.133	5730.87
723.535	5933.19
723.937	5952.09
724.338	6004.4
724.74	6051.19
725.142	5976.34
725.544	5970.25
725.945	5995.83
726.347	5990.42
726.748	5981.01
727.15	5991.83
727.551	5950.27
727.952	5920.45
728.354	5889.45
728.755	5884.06
729.156	5834.97
729.557	5826.98
729.958	5697.66
730.359	5637.78
730.76	5617.14
731.161	5551.95
731.562	5521.6
731.962	5520.28
732.363	5449.61
732.763	5379.84
733.164	5418.95
733.564	5346.58
733.965	5241.74
734.365	5205.44
734.766	5232.81
735.166	5190.08
735.566	5130.1
735.966	5101.68
736.366	5097.4
736.766	5034.23
737.166	5067.97
737.566	5024.07
737.966	4994.45
738.365	5032.55
738.765	5026
739.165	4946.88
739.564	4919.03
739.964	4968.65
740.363	4918.94
740.763	4916.83
741.162	4902.75
741.561	4868.55
741.96	4819.74
742.36	4842.31
742.759	4849.94
743.158	4890.12
743.557	4906.38
743.955	4946.64
744.354	4896.59
744.753	4957.97
745.152	4915.34
745.55	4973.7
745.949	4965.86
746.348	4968.18
746.746	4985.84
747.144	4943.33
747.543	4917.67
747.941	4968.4
748.339	4895.25
748.737	4887.46
749.136	4877.75
749.534	4943.7
749.932	4912.93
750.33	4935.03
750.727	4990.77
751.125	4964.73
751.523	4947
751.921	4993.3
752.318	4956.96
752.716	5018.83
753.113	5032.22
753.511	5057.5
753.908	5056.29
754.305	5038.29
754.703	5103.9
755.1	5169.96
755.497	5233.56
755.894	5434.01
756.291	5620.38
756.688	5967.77
757.085	6426.75
757.482	7070.7
757.878	7777.34
758.275	8414.53
758.672	9294.4
759.068	10009.58
759.465	11026.87
759.861	12339.57
760.258	13874.84
760.654	14662.2
761.05	14539.15
761.447	13874.07
761.843	12924.91
762.239	11938.61
762.635	11495.02
763.031	11063.93
763.427	10446.95
763.822	9800.26
764.218	9154.31
764.614	8315.7
765.01	7755.64
765.405	7394.9
765.801	7121.19
766.196	6769.76
766.592	6572.47
766.987	6244.39
767.382	6020.13
767.778	5927.12
768.173	5788.79
768.568	5713.16
768.963	5581.04
769.358	5600.1
769.753	5550.69
770.148	5462.21
770.542	5461.76
770.937	5428.44
771.332	5519.99
771.726	5541.37
772.121	5474.31
772.515	5530.68
772.91	5516.82
773.304	5590.11
773.699	5523.99
774.093	5580.38
774.487	5637.64
774.881	5682.42
775.275	5678.33
775.669	5634.92
776.063	5680.57
776.457	5719.03
776.851	5641.33
777.245	5633.73
777.638	5667.27
778.032	5786.88
778.425	5749.89
778.819	5794.59
779.212	5751.04
779.606	5706.79
779.999	5731.05
780.392	5715.88
780.786	5801.73
781.179	5822.32
781.572	5864.34
781.965	5874.35
782.358	5811.77
782.751	5867.73
783.143	5817.15
783.536	5891.89
783.929	5940.93
784.322	6057.04
784.714	6087.59
785.107	6080.89
785.499	6156.31
785.891	6136.3
786.284	6118.53
786.676	6266.88
787.068	6247.35
787.46	6301.02
787.852	6322.35
788.245	6410.34
788.636	6442.07
789.028	6510.67
789.42	6551.7
789.812	6560.35
790.204	6658.07
790.595	6764
790.987	6559.07
791.378	6584.24
791.77	6719.07
792.161	6858.45
792.553	6914.66
792.944	6799.14
793.335	6729.91
793.726	6803.34
794.117	6901.28
794.508	7044.37
794.899	7013
795.29	7158.74
795.681	7218.27
796.072	7068.05
796.463	6876.88
796.853	6883.04
797.244	7046.97
797.634	7078.44
798.025	7080.25
798.415	7088.59
798.806	7180.76
799.196	7269.2
799.586	7322.48
799.976	7279.75
800.366	7522.43
800.756	7768.96
801.146	7736.4
801.536	7767.59
801.926	7847.78
802.316	7875.97
802.706	7955.13
803.095	7828.82
803.485	7935.4
803.874	7982.15
804.264	8256.47
804.653	8226.72
805.043	8375.92
805.432	8483.81
805.821	8484.73
806.21	8504.87
806.599	8622.59
806.988	8664.56
807.377	8777.63
807.766	8911.93
808.155	9199.62
808.544	8928.12
808.933	8945.81
809.321	8930.59
809.71	9240.77
810.098	9406.88
810.487	9888.8
810.875	10399.49
811.264	10424.3
811.652	10725.35
812.04	10874.97
812.428	11052.36
812.816	11841.78
813.204	12279.28
813.592	12857.41
813.98	13212.53
814.368	13111.64
814.756	13612.58
815.144	13518.27
815.531	14005.47
815.919	13922.94
816.306	14247
816.694	13921.8
817.081	13976.8
817.469	14332.56
817.856	14330.39
818.243	14604.63
818.63	15016.38
819.017	14579.4
819.404	14652.78
819.791	15045.61
820.178	15689.24
820.565	15950.33
820.952	16927.42
821.339	16417.09
821.725	16613.9
822.112	15838.88
822.498	15795.81
822.885	15927.06
823.271	15832.27
823.657	16269.92
824.044	16281.59
824.43	16354.72
824.816	16323.17
825.202	15870.67
825.588	16933.18
825.974	16950.94
826.36	17482.96
826.746	17513.33
827.132	17896.98
827.517	17868.98
827.903	17050.93
828.289	17084.82
828.674	16276.79
829.06	16167.47
829.445	16580.47
829.83	16951.94
830.216	17440.64
830.601	17826.82
830.986	17409.05
831.371	17250.14
831.756	17823.82
832.141	17376.62
832.526	17373.9
832.911	17675.53
833.295	17557.2
833.68	18037.47
834.065	17400.5
834.449	16459.05
834.834	16381.25
835.218	16383.19
835.603	16749.69
835.987	16540.92
836.371	17412.41
836.755	17311.85
837.139	17731.16
837.524	17973.01
837.908	17792.3
838.291	17850.4
838.675	17913.51
839.059	18129.15
839.443	18117.2
839.827	17873.21
840.21	18360.88
840.594	18207.63
840.977	18417.76
841.361	18392.66
841.744	18793.18
842.127	18625.03
842.511	18880.71
842.894	19504.69
843.277	19898.75
843.66	20459.25
844.043	20545.76
844.426	19715.29
844.809	19383.98
845.191	19417.12
845.574	18942.6
845.957	18560.9
846.339	18455.81
846.722	17901.19
847.104	17973.5
847.487	17795.09
847.869	17804.42
848.252	18101.44
848.634	18443.77
849.016	18721.56
849.398	18844.85
849.78	19723.31
850.162	19732.99
850.544	20163.37
850.926	20821.76
851.307	20736.8
851.689	21036.63
852.071	21514.61
852.452	21842.76
852.834	21824.19
853.215	22227.78
853.597	22391.98
853.978	22695.54
854.359	23165.74
854.741	22133.98
855.122	22037.5
855.503	21733.04
855.884	21859.28
856.265	21787.67
856.646	21898.01
857.026	21482.13
857.407	21422.58
857.788	21590.24
858.169	21889.71
858.549	21007.44
858.93	21648.8
859.31	21689.35
859.69	21911.53
860.071	21492.68
860.451	21269.44
860.831	20506.71
861.211	21711.27
861.591	22281.29
861.971	22249.59
862.351	22453.48
862.731	22850.45
863.111	23128.53
863.491	23473.29
863.87	24374.76
864.25	24740.36
864.629	24323.15
865.009	24862.02
865.388	25748.06
865.768	27592
866.147	27497.62
866.526	25966.66
866.905	26282.66
867.284	27750.28
867.663	26363.01
868.042	25259.97
868.421	25173.14
868.8	25586.85
869.179	25847.61
869.558	24339.32
869.936	22425.17
870.315	22806.61
870.693	23371.05
871.072	25193.93
871.45	24003.9
871.828	24301.55
872.207	25564.07
872.585	25179.53
872.963	25873.54
873.341	24975.57
873.719	24690.22
874.097	24405.92
874.475	24882.54
874.853	25446.95
875.23	24393.08
875.608	25414.34
875.986	27495.05
876.363	26273.78
876.741	27087.75
877.118	26407.09
877.495	27716.57
877.873	28174.1
878.25	29644.2
878.627	28433.82
879.004	28833.3
879.381	28696.87
879.758	27955.64
880.135	26021.84
880.512	27537.53
880.889	26809.26
881.265	26540.19
881.642	26309.72
882.019	26764.41
882.395	26226.29
882.772	27279.75
883.148	26099.88
883.524	26002.32
883.901	25841.24
884.277	26233.39
884.653	26055.86
885.029	26804.75
885.405	29681.48
885.781	29449.16
886.157	28218.95
886.532	28561.09
886.908	28542.01
887.284	31739.78
887.659	32776.09
888.035	33792.82
888.411	34667.63
888.786	35120.28
889.161	36332.82
889.537	35664.69
889.912	36796.75
890.287	36772.78
890.662	37732.02
891.037	37038.37
891.412	34531.29
891.787	34179.03
892.162	32989.77
892.536	33765.54
892.911	32508.44
893.286	31807.68
893.66	30515.17
894.035	31304.4
894.409	34089.76
894.784	32717.37
895.158	33266.94
895.532	35246.04
895.906	36220.11
896.281	37078.49
896.655	36479.04
897.029	41667.81
897.402	43416.59
897.776	48328.99
898.15	48149.82
898.524	47633.78
898.898	48252.57
899.271	54015.55
899.645	46783.38
900.018	44930.24
900.392	46580.23
900.765	46970.46
901.138	43488.34
901.511	42841.66
901.884	39350
902.258	36302.72
902.631	37512.43
903.003	43182.87
903.376	38981.04
903.749	43709.13
904.122	46790.54
904.495	51538.69
904.867	52164.99
905.24	45291.71
905.612	42162.51
905.985	43102.39
906.357	45065.99
906.729	42994.94
907.102	36715.83
907.474	35304.62
907.846	35518.71
908.218	35036.83
908.59	30953.44
908.962	29939.26
909.334	32240.48
909.705	33857.31
910.077	32869.89
910.449	34209.31
910.82	35169.88
911.192	38683.37
911.563	40190.31
911.935	43000.72
912.306	43054.42
912.677	44453.07
913.048	44001.17
913.419	47716.57
913.79	47991.23
914.161	51480.9
914.532	49202.49
914.903	45230.81
915.274	42973.56
915.645	42345.09
916.015	37275.31
916.386	35541.38
916.756	37823.58
917.127	39024.19
917.497	34884.61
917.868	37940.27
918.238	36045.65
918.608	37082.97
918.978	37848.44
919.348	40074.99
919.718	41386.98
920.088	39867.86
920.458	41419.54
920.828	43601.4
921.198	41326.44
921.567	44133.02
921.937	34197.13
922.306	34531.7
922.676	37228.6
923.045	31050.79
923.415	29509.62
923.784	26867.4
924.153	27612.36
924.522	27578.49
924.891	25910.1
925.26	27760.29
925.629	27105.48
925.998	31157.94
926.367	30416.53
926.736	28976.79
927.104	34525.15
927.473	37119.73
927.842	44848.96
928.21	44458.59
928.578	46763.17
928.947	44254.34
929.315	44523.36
929.683	52230.2
930.051	52654.97
930.42	61132.42
930.788	52280.63
931.156	51882.78
931.523	48604.98
931.891	44897.72
932.259	43121.68
932.627	49972.99
932.994	70751.3
933.362	58454.58
933.729	50758.69
934.097	48588.49
934.464	41146.46
934.831	47506.71
935.199	46833.75
935.566	45464.64
935.933	46189.14
936.3	55992.46
936.667	43602.73
937.034	39296.89
937.401	38915.81
937.767	33574.57
938.134	29890.95
938.501	42144.39
938.867	44884.31
939.234	75930.48
939.6	64730.78
939.967	71146.98
940.333	47563.69
940.699	40506.56
941.065	32495.85
941.431	42558.92
941.798	41056.28
942.163	53886.69
942.529	33654.72
942.895	30989.02
943.261	20015.37
943.627	26292.4
943.992	22996.69
944.358	23037.89
944.723	23112.92
945.089	22549.06
945.454	20837.17
945.82	22243.04
946.185	21397.83
946.55	24777.8
946.915	22206.03
947.28	26078.29
947.645	22957.14
948.01	21216.91
948.375	22107.76
948.74	26490.43
949.104	30898.78
949.469	44665.47
949.834	78947.88
950.198	74824.52
950.562	44865.94
950.927	37388.04
951.291	45014.18
951.655	38328.64
952.02	36009.91
952.384	27257.13
952.748	23744.13
953.112	23153.58
953.476	20131.66
953.839	18624.18
954.203	18445.69
954.567	23079.18
954.931	36351.94
955.294	31077.4
955.658	31268.86
956.021	53156.24
956.385	90099.41
956.748	132985.28
957.111	206246.74
957.474	231710.96
957.837	260951.16
958.2	197481.68
958.563	71063.69
958.926	48001.35
959.289	72935.57
959.652	81383.63
960.015	61098.41
960.377	87757.81
960.74	100081.32
961.102	172877.29
961.465	185576.04
961.827	99422.34
962.189	190803.84
962.552	132293.01
962.914	106231.07
963.276	68910.11
963.638	57009.62
964	56408.84
964.362	38098.65
964.724	36847.35
965.085	26267.92
965.447	21534.28
965.809	24553.25
966.17	24578.93
966.532	26617.28
966.893	24436.02
967.255	22233.36
967.616	26276.21
967.977	21062.78
968.338	23032.21
968.699	18927.14
969.061	18934.08
969.421	19076.84
969.782	21411.78
970.143	18090.43
970.504	18715.43
970.865	21254.66
971.225	21730.6
971.586	21237.48
971.946	30256.77
972.307	26245.07
972.667	34310.87
973.027	35346.96
973.388	42819.06
973.748	29117.83
974.108	31717.44
974.468	42887.17
974.828	33053.17
975.188	25448.47
975.548	23374.11
975.907	19640.71
976.267	22023.55
976.627	18502.26
976.986	19176.17
977.346	18285.99
977.705	17583.24
978.064	16003.28
978.424	13331.62
978.783	13795.04
979.142	15711.07
979.501	15032.53
979.86	15860.14
980.219	15284.48
980.578	19711.91
980.937	22067.72
981.296	19673.02
981.654	20251.02
982.013	31526.75
982.371	40913.59
982.73	38189.38
983.088	43286.26
983.447	46269.93
983.805	66190.97
984.163	138427.47
984.521	153843.91
984.879	225609.25
985.237	-366772.03
985.595	353421.41
985.953	87938.25
986.311	50805.3
986.669	29522.74
987.026	25508.26
987.384	34299.17
987.741	35468.17
988.099	25369.57
988.456	20222.83
988.814	18933.98
989.171	16450.93
989.528	16264.61
989.885	17154.99
990.242	13570.08
990.599	16908.26
990.956	13840.48
991.313	9679.85
991.67	7953.28
992.027	8420.93
992.383	7471.94
992.74	6553.19
993.096	6883.71
993.453	7118.64
993.809	7377.71
994.165	9832.61
994.522	9012.73
994.878	9926.54
995.234	12455.76
995.59	12276.44
995.946	11630.86
996.302	13257.03
996.658	15312.12
997.013	16861.11
997.369	20010.41
997.725	25623.86
998.08	16604.25
998.436	25598.03
998.791	35330.77
999.147	35265.87
999.502	38549.8
999.857	28027
1000.212	45699.7
1000.567	65166.49
1000.922	37640.69
1001.277	23956.66
1001.632	17768.46
1001.987	22897.74
1002.342	16440.35
1002.696	13165.56
1003.051	10503.38
1003.406	12738.32
1003.76	12685.54
1004.114	12527.97
1004.469	10533.9
1004.823	8692.28
1005.177	9373.05
1005.531	7442.89
1005.885	6606
1006.239	7449.06
1006.593	9327.3
1006.947	12509.5
1007.301	9370.91
1007.655	10204.27
1008.008	7488.83
1008.362	8449.36
1008.715	12087.75
1009.069	10981.62
1009.422	16494.57
1009.776	33034.4
1010.129	21924.48
1010.482	18318.4
1010.835	15451.96
1011.188	32135.57
1011.541	30248.03
1011.894	-184902.57
1012.247	540693.57
1012.6	36777.68
1012.952	23218.11
1013.305	11940.53
1013.657	8630.12
1014.01	8155.45
1014.362	6724.07
1014.715	5986.83
1015.067	5203.47
1015.419	5094.16
1015.771	4525.45
1016.123	4021.83
1016.475	4140.84
1016.827	4399.15
1017.179	4733.74
1017.531	4759.9
1017.883	4860.91
1018.234	4692.8
1018.586	5923.86
1018.938	6309.4
1019.289	8672.11
1019.64	9911.41
1019.992	9256.4
1020.343	8449.27
1020.694	6673.17
1021.045	5916.37
1021.396	6738.67
1021.747	7248.67
1022.098	8703.73
1022.449	6302.74
1022.8	5822.62
1023.151	4062.84
1023.501	3598.27
1023.852	3908.36
1024.202	4082.45
1024.553	4508.5
1024.903	4397.5
1025.253	3769.73
1025.604	3396.65
1025.954	4209.99
1026.304	5119.87
1026.654	5969.84
1027.004	8749.24
1027.354	14153.8
1027.703	13292.01
1028.053	17357.75
1028.403	25076.52
1028.753	36253.42
1029.102	49351.56
1029.452	252617.7
1029.801	10907.04
1030.15	7059.43
1030.499	5957.03
897.758	2761.45
901.051	2724.15
904.343	2764.41
907.636	2761.38
910.928	2827.06
914.22	2737.29
917.511	2747.48
920.803	2816.06
924.094	2838.75
927.384	2814.26
930.675	2780.22
933.965	2730.8
937.255	2737.88
940.544	2703.83
943.834	2632.07
947.123	2579.04
950.411	2673.77
953.7	2645.14
956.988	2609.51
960.276	2551.13
963.563	2637.34
966.851	2631.24
970.138	2693.28
973.424	2683.11
976.711	2629.32
979.997	2782.39
983.283	2814.25
986.568	2714.62
989.853	2738.03
993.138	2764.75
996.423	2845.22
999.708	2779.24
1002.992	2854.88
1006.275	2672.4
1009.559	2729.13
1012.842	2849.46
1016.125	2777.17
1019.408	2755.02
1022.69	2848.79
1025.972	2862.64
1029.254	2836.55
1032.536	2764.22
1035.817	2796.26
1039.098	2727.79
1042.379	2896.29
1045.659	2884.62
1048.939	2814.56
1052.219	2838.66
1055.498	2853.48
1058.778	2834.95
1062.057	2824.93
1065.335	2845.42
1068.614	2864.97
1071.892	2842.38
1075.17	2925.05
1078.447	2909.45
1081.724	2899.73
1085.001	2940.58
1088.278	2910.86
1091.554	2930.09
1094.83	2926.71
1098.106	2951.74
1101.382	2998.27
1104.657	3001.1
1107.932	2996.84
1111.206	2957.45
1114.481	2914.46
1117.755	2920.54
1121.029	2895.12
1124.302	2948.67
1127.575	2891.53
1130.848	2878.76
1134.121	2835.8
1137.393	2784.08
1140.665	2851.28
1143.937	2826.32
1147.208	2788.73
1150.48	2825.39
1153.75	2807.45
1157.021	2847.94
1160.291	2817.08
1163.561	2861.66
1166.831	2854.87
1170.101	2888.05
1173.37	2868.21
1176.639	2810.33
1179.907	2874.11
1183.176	2877.63
1186.444	2884.4
1189.711	2916.67
1192.979	2924.91
1196.246	2881.9
1199.513	2902.03
1202.78	2899.98
1206.046	2907.74
1209.312	2932.1
1212.578	2959.09
1215.843	2906.4
1219.108	2885.86
1222.373	2910.23
1225.638	2870.96
1228.902	2852.1
1232.166	2814.18
1235.43	2796.79
1238.693	2820.5
1241.956	2820.7
1245.219	2856.39
1248.482	2848.3
1251.744	2842.59
1255.006	2998.25
1258.268	2954.03
1261.529	2893.65
1264.79	2905.42
1268.051	3016.18
1271.312	3033.05
1274.572	2990.05
1277.832	2980.39
1281.092	2975.63
1284.351	2946.31
1287.61	2923.42
1290.869	2831.14
1294.128	2803.57
1297.386	2902.8
1300.644	2887.94
1303.902	2900.22
1307.159	2753.77
1310.416	2812.18
1313.673	2834.99
1316.93	2815.76
1320.186	2866.28
1323.442	2912.24
1326.697	2897.48
1329.953	2893.18
1333.208	2911.91
1336.463	2895.33
1339.717	2827.95
1342.972	2971.26
1346.226	2950.93
1349.479	2878.89
1352.733	2847.27
1355.986	2876.2
1359.238	2849.72
1362.491	2849.41
1365.743	2855.68
1368.995	2852.62
1372.247	2865.41
1375.498	2892.15
1378.749	2899.58
1382	2855.68
1385.251	2914.96
1388.501	2875.87
1391.751	2855.07
1395	2828.42
1398.25	2865.06
1401.499	2868.5
1404.748	2788.77
1407.996	2781.86
1411.244	2764.42
1414.492	2744.18
1417.74	2719.86
1420.987	2729.28
1424.234	2788.77
1427.481	2767.8
1430.728	2830.14
1433.974	2800.81
1437.22	2819.11
1440.465	2824.83
1443.711	2778.26
1446.956	2816.31
1450.201	2810.89
1453.445	2855.54
1456.689	2830.85
1459.933	2845.99
1463.177	2881.53
1466.42	2848.81
1469.663	2830.91
1472.906	2818.41
1476.148	2906.66
1479.391	2855.51
1482.633	2830.31
1485.874	2836
1489.115	2819.54
1492.356	2832.36
1495.597	2803.43
1498.838	2809.13
1502.078	2774.85
1505.318	2719.67
1508.557	2765.75
1511.797	2730.75
1515.036	2817.58
1518.274	2806.26
1521.513	2779.61
1524.751	2805.01
1527.989	2817.42
1531.227	2829.72
1534.464	2818.33
1537.701	2845.68
1540.938	2866.81
1544.174	2820.57
1547.41	2820.38
1550.646	2862.34
1553.882	2898.58
1557.117	2952.63
1560.352	2969.68
1563.587	2921.95
1566.821	2880.74
1570.055	2917.8
1573.289	2886.55
1576.523	2968.28
1579.756	2970.52
1582.989	2991.52
1586.222	2951.26
1589.454	2989.39
1592.686	2961.05
1595.918	2984.92
1599.15	2972.33
1602.381	3055.97
1605.612	3005.98
1608.843	3106.44
1612.073	3014.28
1615.303	2997.45
1618.533	2987.84
1621.762	2988.13
1624.992	2979.49
1628.221	2963.13
1631.449	2947.17
1634.678	3013.99
1637.906	2963.74
1641.134	3007.25
1644.361	2958.67
1647.588	2946.63
1650.815	2965.52
1654.042	2943.48
1657.269	2974.96
1660.495	2920.85
1663.72	2930.68
1666.946	2893.41
1670.171	2824.34
1673.396	2800.13
1676.621	2790.96
1679.845	2817.35
1683.069	2840.35
1686.293	2886.09
1689.517	2854.42
1692.74	2779.82
1695.963	2810.19
1699.185	2838.3
1702.408	2814.5
1705.63	2860.18
1708.852	2870.03
1712.073	2843.48
1715.294	2822.85
1718.515	2887.27
1721.736	2831.24
1724.956	2824.93
1728.176	2852.51
1731.396	2873.96
1734.616	2863.86
1737.835	2888.42
1741.054	2872.39
1744.272	2866.17
1747.491	2892.51
1750.709	2952.33
1753.927	2848.19
1757.144	2897.52
1760.361	2938.02
1763.578	2934.2
1766.795	2874.47
1770.011	2883.81
1773.227	2930.77
1776.443	2961.37
1779.658	3005.88
1782.874	2951.36
1786.089	2926.98
1789.303	2928.99
1792.518	2938.18
1795.732	2924.23
1798.945	2931.8
1802.159	2986.71
1805.372	2877.47
1808.585	2856.86
1811.797	2860.94
1815.01	2914.94
1818.222	2910.68
1821.434	2867.17
1824.645	2930.53
1827.856	2907.22
1831.067	2942.86
1834.278	2908.43
1837.488	2885.73
1840.698	3046.25
1843.908	2964.78
1847.117	2928.83
1850.326	2803.6
1853.535	2914.83
1856.744	2958.37
1859.952	2870.35
1863.16	2871.81
1866.368	2896.09
1869.575	2995.52
1872.782	2883.23
1875.989	2820.2
1879.196	2914.67
1882.402	2904.3
1885.608	2945.85
1888.814	2842.8
1892.019	2730.17
1895.224	2781.83
1898.429	2765.86
1901.634	2743.23
1904.838	2720.35
1908.042	2766.49
1911.246	2773.76
1914.449	2695.06
1917.652	2695.93
1920.855	2679.02
1924.058	2733.17
1927.26	2769.08
1930.462	2801.52
1933.664	2823.15
1936.865	2759.44
1940.066	2764.05
1943.267	2715.97
1946.467	2730
1949.668	2759.38
1952.868	2827.79
1956.067	2802.91
1959.267	2731.52
1962.466	2760.55
1965.665	2743.4
1968.863	2741.41
1972.061	2759.81
1975.259	2760.23
1978.457	2836.3
1981.654	2795.5
1984.852	2797.1
1988.048	2722.98
1991.245	2726.53
1994.441	2814.97
1997.637	2808.05
2000.833	2789
2004.028	2828.97
2007.223	2883.67
2010.418	2860.03
2013.613	2825.05
2016.807	2790.37
2020.001	2801.45
2023.194	2848.85
2026.388	2826.34
2029.581	2768.47
2032.774	2813.55
2035.966	2817.4
2039.158	2746.29
2042.35	2771.08
2045.542	2699.05
2048.733	2805.73
2051.924	2836.55
2055.115	2866.21
2058.306	2804.03
2061.496	2867.27
2064.686	2935.92
2067.875	2850.38
2071.065	2871.34
2074.254	2899.4
2077.442	2849.86
2080.631	2942.26
2083.819	2821.75
2087.007	2802
2090.195	2767.88
2093.382	2809.76
2096.569	2786.39
2099.756	2737.78
2102.942	2757.8
2106.128	2756.42
2109.314	2750.92
2112.5	2709.57
2115.685	2687.27
2118.87	2697.44
2122.055	2763.31
2125.239	2728.45
2128.424	2697.01
2131.608	2809.15
2134.791	2792.24
2137.974	2856.66
2141.157	2842.75
2144.34	2786.44
2147.523	2812.45
2150.705	2822.7
2153.887	2806.37
2157.068	2749.97
2160.25	2753.94
2163.431	2797.49
2166.611	2739.52
2169.792	2751.28
2172.972	2640.92
2176.152	2725.25
2179.331	2763.04
2182.511	2737.27
2185.69	2768.32
2188.868	2756.29
2192.047	2820.13
2195.225	2805
2198.403	2753.74
2201.58	2746.91
2204.758	2745.44
2207.935	2829.52
2211.111	2711.87
2214.288	2695.45
2217.464	2734.42
2220.64	2711
2223.815	2771.81
2226.991	2684.72
2230.166	2707.21
2233.34	2734.25
2236.515	2762.7
2239.689	2839.18
2242.863	2779.1
2246.036	2839.2
2249.209	2839.44
2252.382	2880.5
2255.555	2861.44
2258.727	2793.91
2261.9	2838.35
2265.071	2829.02
2268.243	2830.74
2271.414	2757.73
2274.585	2713.73
2277.756	2785.1
2280.926	2740.23
2284.096	2784.99
2287.266	2683.89
2290.436	2741.88
2293.605	2773.68
2296.774	2799.89
2299.942	2827.05
2303.111	2843.92
2306.279	2889.83
2309.447	2880.56
2312.614	2858.19
2315.781	2873.22
2318.948	2844.51
2322.115	2884.2
2325.281	2786.97
2328.447	2809.67
2331.613	2786.89
2334.779	2753.77
2337.944	2759.14
2341.109	2757.81
2344.274	2733.86
2347.438	2698.29
2350.602	2725.74
2353.766	2741.98
2356.929	2726.39
2360.092	2770.06
2363.255	2717.88
2366.418	2642.12
2369.58	2766.15
2372.742	2532.32
2375.904	2551.98
2379.066	2525.82
2382.227	2564.76
2385.388	2527.68
2388.548	2447.49
2391.709	2506.31
2394.869	2479.59
2398.029	2591.16
2401.188	2609.24
2404.347	2535.46
2407.506	2692.87
2410.665	2720.04
2413.823	2730.39
2416.981	2680.57
2420.139	2716.51
2423.296	2770.16
2426.453	2742.05
2429.61	2772.37
2432.767	2693.41
2435.923	2730.57
2439.079	2690.16
2442.235	2742.36
2445.391	2664.24
2448.546	2690.52
2451.701	2743.85
2454.855	2708.94
2458.009	2767.31
2461.163	2775.06
2464.317	2725.1
2467.471	2762.96
2470.624	2805.97
2473.777	2779.81
2476.929	2792.54
2480.082	2818.65
2483.234	2780.43
2486.385	2736.06
2489.537	2728.25
2492.688	2681.91
2495.839	2699.22
2498.989	2710.72
2502.14	2690.74
2505.29	2672.35
2508.439	2699.8
2511.589	2617.31
2514.738	2633.85
2517.887	2667.79
2521.035	2728.85
2524.183	2719.13
2527.331	2696.33
2530.479	2664.29
2533.627	2676.85
