Data from C_2_DIV_WI_4N_Splice17_12-18-37-707.txt Node
Date: Sat Mar 14 12:18:37 EDT 2020
User: sa697716
Spectrometer: FLMS03696
Trigger mode: 0
Integration Time (sec): 3.180400E-1
Scans to average: 20
Electric dark correction enabled: true
Nonlinearity correction enabled: true
Boxcar width: 5
XAxis mode: Wavelengths
Number of Pixels in Spectrum: 2048
>>>>>Begin Spectral Data<<<<<
187.83	-289906.52
188.298	2109.1
188.766	1118.95
189.233	1039.16
189.701	1398.23
190.169	1911.16
190.636	726.69
191.104	652.47
191.571	117.68
192.039	-33.8
192.506	8.91
192.974	629.48
193.441	-835.97
193.908	-238.14
194.375	-95.71
194.842	-57.11
195.31	-40.25
195.777	113
196.244	534.24
196.711	1018.35
197.177	1393.54
197.644	2110.65
198.111	3693.86
198.578	5181.6
199.045	4113.41
199.511	6753.43
199.978	7929.99
200.445	6621.55
200.911	7316.29
201.378	8199.17
201.844	7197.44
202.31	12108.49
202.777	12382.01
203.243	6731.52
203.709	6330.58
204.176	7465.92
204.642	6093.82
205.108	5608.76
205.574	4566.58
206.04	4179.04
206.506	3877.38
206.972	3684.97
207.438	3553.86
207.903	4034.6
208.369	3480.3
208.835	3413.23
209.301	3537.87
209.766	3604.54
210.232	3516.8
210.697	4289.47
211.163	5226.04
211.628	7808.54
212.094	6393.59
212.559	7608.3
213.024	4643.12
213.49	5590.32
213.955	5390.06
214.42	5238.25
214.885	4769.68
215.35	4518.25
215.815	4213.44
216.28	4349.82
216.745	3431.05
217.21	3546.57
217.675	3113.15
218.14	3277.33
218.604	3376.7
219.069	3522.67
219.534	3354.22
219.998	3557
220.463	3907.92
220.927	4368.71
221.392	3768.32
221.856	3516.01
222.32	4067.87
222.785	4657.22
223.249	5473.07
223.713	5749.92
224.177	5475.99
224.642	6645.44
225.106	7824.91
225.57	8180.26
226.034	5876.15
226.497	8616.5
226.961	7530.35
227.425	8539.26
227.889	9151.98
228.353	8819.8
228.816	17647.9
229.28	16336.34
229.744	13393.24
230.207	8000.22
230.671	7664.32
231.134	12209.69
231.597	13798.38
232.061	13490.13
232.524	12742.09
232.987	8607.77
233.45	7665.68
233.914	6756.73
234.377	6744.93
234.84	6098.37
235.303	7000.53
235.766	7723.4
236.229	7903.63
236.691	4875.78
237.154	5393.46
237.617	4070.06
238.08	4124.72
238.542	4771.1
239.005	3414.9
239.468	3405.46
239.93	3199.4
240.393	2922.99
240.855	2555.43
241.317	2592.44
241.78	3139.94
242.242	3228.74
242.704	3504.34
243.166	3041.76
243.629	2788.95
244.091	3179.62
244.553	3450.77
245.015	3686.23
245.477	4701.56
245.939	6847.54
246.4	7255.22
246.862	6999.41
247.324	6578.54
247.786	7201.99
248.247	9352.96
248.709	9455.19
249.17	7040.86
249.632	6678.85
250.093	7753.47
250.555	6678.03
251.016	4101.85
251.477	3882.97
251.939	4189.53
252.4	4371.78
252.861	5192.99
253.322	4880.64
253.783	5758.67
254.244	7464.14
254.705	5822.8
255.166	5153.28
255.627	5043.37
256.088	7114.51
256.549	7516.3
257.009	6451.37
257.47	7764.13
257.931	6288.93
258.391	4663.5
258.852	4807.4
259.312	5003.61
259.773	6124.92
260.233	5166.01
260.694	4370.91
261.154	4863.48
261.614	3919.24
262.074	3459.49
262.534	3587.55
262.994	3370.47
263.455	4395.55
263.915	3675.57
264.374	3405.47
264.834	3661.19
265.294	3973.21
265.754	4059.62
266.214	3793.42
266.673	3493.82
267.133	4346.28
267.593	4262.3
268.052	5144.77
268.512	4441.74
268.971	5357.08
269.431	5836.97
269.89	5207.88
270.349	7775.41
270.809	8655.74
271.268	7785.26
271.727	17400.1
272.186	11282.82
272.645	8419.77
273.104	6005.83
273.563	8735.09
274.022	6792.03
274.481	5866.2
274.94	4554.97
275.399	3383.07
275.857	3916.1
276.316	5282.02
276.775	4703.58
277.233	4687.8
277.692	4462.18
278.15	5144.67
278.609	5416.5
279.067	5070.11
279.525	4770.89
279.984	6180.17
280.442	7569.46
280.9	7683.08
281.358	5155.25
281.816	4880.71
282.274	4826.47
282.732	5010.54
283.19	5085.37
283.648	4415.83
284.106	4753.87
284.564	4868.13
285.021	4616.06
285.479	3475.17
285.937	3156.42
286.394	2812.9
286.852	2925.13
287.309	3107.9
287.767	3080.2
288.224	2977.91
288.682	3278.65
289.139	3639.24
289.596	3333.88
290.053	3453.5
290.511	4324.69
290.968	5243.97
291.425	7003.85
291.882	5844.29
292.339	5091.03
292.796	4977.78
293.252	4609.44
293.709	3662.36
294.166	3255.43
294.623	3582.06
295.079	3399.29
295.536	3425.55
295.992	3109.43
296.449	3084.99
296.905	3207.71
297.362	3070.24
297.818	3194.72
298.274	3355.11
298.731	3404.05
299.187	3370.82
299.643	3618.75
300.099	4423.25
300.555	4874.83
301.011	4077.89
301.467	4018.66
301.923	4678.36
302.379	4600.82
302.835	4577.05
303.291	4594.45
303.746	5246.94
304.202	6659.68
304.658	6739.88
305.113	4558.51
305.569	4494.27
306.024	4810.4
306.479	4532.5
306.935	3884.86
307.39	4262.78
307.845	3975.86
308.301	4052.02
308.756	3995.39
309.211	3899.25
309.666	4036.05
310.121	5093.81
310.576	5217.65
311.031	5222.36
311.486	6023.86
311.94	6018.97
312.395	8128.12
312.85	15412.91
313.305	75936.49
313.759	400889.26
314.214	29386.15
314.668	23600.05
315.123	20006.07
315.577	7291.81
316.032	6602.11
316.486	8353.26
316.94	6681.91
317.394	4665.91
317.849	3625.87
318.303	3423.92
318.757	3209.06
319.211	3543.86
319.665	3073.52
320.119	3105.31
320.572	4395.8
321.026	4084.07
321.48	3385.09
321.934	3649.66
322.387	3657.6
322.841	3965.43
323.295	3625
323.748	4126.28
324.202	4200.34
324.655	5089.71
325.108	7193.24
325.562	5098.28
326.015	6065.47
326.468	4606.02
326.921	5197.93
327.374	4887.17
327.827	5138.07
328.28	5813.07
328.733	3967.72
329.186	3517.14
329.639	3380.34
330.092	2856.13
330.545	2766.47
330.997	2823.76
331.45	3150.93
331.903	3745.54
332.355	6453.4
332.808	6296.52
333.26	5257.23
333.713	5779.18
334.165	5837.26
334.617	7792.06
335.069	6258.69
335.522	11303.8
335.974	12653.65
336.426	11545.91
336.878	7993.18
337.33	4086.69
337.782	4007.97
338.234	5058.48
338.686	6030.57
339.137	7200.66
339.589	6827.09
340.041	5433.42
340.493	4685.1
340.944	4801.22
341.396	5191.61
341.847	4393.25
342.299	5222.48
342.75	6429.39
343.201	5547.85
343.653	6342.03
344.104	7720.78
344.555	6050.87
345.006	9280.12
345.457	7140.07
345.908	5613.02
346.359	5264.75
346.81	4261.72
347.261	4451.06
347.712	4318.44
348.163	4633.44
348.613	4766.95
349.064	4479.56
349.515	3932.3
349.965	4049.81
350.416	4864.96
350.866	5332.81
351.317	5998.29
351.767	10005.99
352.217	12723.25
352.668	10674.13
353.118	9798.51
353.568	9357.72
354.018	7450.63
354.468	7924.93
354.918	5755.2
355.368	5042.93
355.818	7197.26
356.268	20804.39
356.718	87761.44
357.168	21958.24
357.617	11029.23
358.067	12322.75
358.517	11699.7
358.966	13856.26
359.416	15657.77
359.865	16972.49
360.315	20339.47
360.764	9577.44
361.213	5407.14
361.663	5111.38
362.112	6332.24
362.561	10276.05
363.01	7776.09
363.459	6541.31
363.908	7070.28
364.357	6040.74
364.806	10153.39
365.255	7034.53
365.703	6501.95
366.152	6572.49
366.601	5381.98
367.05	4414.7
367.498	4057.36
367.947	4282.41
368.395	4481.66
368.844	3998.18
369.292	4793.38
369.74	3363.02
370.189	5133.35
370.637	6005.69
371.085	5192.35
371.533	6319.42
371.981	6059.81
372.429	5778.44
372.877	6027.61
373.325	5057.64
373.773	5140.25
374.221	4595.7
374.669	5706.95
375.116	4954.78
375.564	5009.4
376.012	5607.34
376.459	4640.21
376.907	5596.71
377.354	6810.49
377.801	6373.41
378.249	7375.41
378.696	9486.81
379.143	11598.91
379.591	12417.47
380.038	21262.41
380.485	15549.97
380.932	16941.75
381.379	15748.15
381.826	11709.06
382.273	8399.38
382.72	7411.11
383.166	7274.9
383.613	4772.33
384.06	4339.06
384.506	5083.61
384.953	3770.72
385.4	3834.82
385.846	3407.34
386.292	3383.34
386.739	3404.2
387.185	3463.16
387.631	3597.65
388.078	3663.87
388.524	4087.63
388.97	3931.36
389.416	3405.81
389.862	3732.11
390.308	3648.01
390.754	3858.84
391.2	4409.02
391.645	4804.74
392.091	4959.18
392.537	5151.2
392.983	5483.78
393.428	5697.46
393.874	6471.55
394.319	7027.81
394.765	7384.51
395.21	8557.83
395.655	9081.62
396.101	9581.85
396.546	9706.9
396.991	11020.51
397.436	11474.19
397.881	12474.68
398.326	13396.87
398.771	14253.38
399.216	13982.02
399.661	13990.65
400.106	15301.43
400.551	17098.78
400.995	16663.19
401.44	17789.34
401.885	17892.02
402.329	19291.77
402.774	19620.11
403.218	20009.32
403.663	20443.95
404.107	22203.71
404.551	23671.88
404.995	23080.38
405.44	23706.95
405.884	25585.59
406.328	26228.09
406.772	27525.81
407.216	26340.02
407.66	26874.45
408.104	27170.51
408.547	26882.42
408.991	27369.83
409.435	27601.52
409.879	28259.6
410.322	28896.07
410.766	28887.9
411.209	28476.21
411.653	28462.32
412.096	28935.99
412.54	30036.87
412.983	30769.63
413.426	31686.88
413.869	32609.36
414.312	32795.33
414.756	32511.4
415.199	31855.44
415.642	31667.1
416.085	32404.72
416.527	32851.25
416.97	34054.01
417.413	32791.58
417.856	32984.78
418.298	33097.51
418.741	33206.34
419.184	33462.95
419.626	35221.59
420.069	35481.43
420.511	35962.87
420.953	35513.26
421.396	35574.99
421.838	35130.44
422.28	36347.69
422.722	36909.89
423.164	38094.58
423.606	38065.63
424.048	38742.29
424.49	37295.84
424.932	37712.55
425.374	37773.45
425.816	38827.23
426.258	39557.76
426.699	39610.12
427.141	38283.35
427.582	38302.93
428.024	37719.52
428.465	37632.26
428.907	37103.64
429.348	37366.25
429.789	37911.45
430.231	37512.26
430.672	38488.93
431.113	38290.22
431.554	38879.11
431.995	39600.8
432.436	39629.88
432.877	40081.88
433.318	40263.6
433.759	40894.2
434.2	41459.35
434.64	41598.15
435.081	42292.64
435.522	40726.09
435.962	40006.03
436.403	39749.51
436.843	40995.86
437.284	40805.34
437.724	40274.17
438.164	40994.32
438.604	40467.41
439.045	39202.69
439.485	37881.99
439.925	37625.39
440.365	37200.98
440.805	37133.03
441.245	36913.91
441.685	35756.47
442.125	35715.42
442.564	36075.23
443.004	35256.46
443.444	35278.6
443.883	35458.47
444.323	35553.71
444.762	36009.57
445.202	36706.81
445.641	37391.65
446.081	37533.14
446.52	37935.79
446.959	37696.12
447.398	36942.84
447.837	36777.97
448.276	36383.85
448.716	36878.04
449.154	37300.15
449.593	36216
450.032	35945.84
450.471	35322.83
450.91	35235.84
451.349	34923
451.787	34654.16
452.226	34972
452.664	34752.37
453.103	34555.54
453.541	34310.61
453.98	33802.99
454.418	33819.72
454.856	32956.63
455.295	32674.42
455.733	32570.56
456.171	32528.66
456.609	32241.72
457.047	31913.96
457.485	32039.89
457.923	31834.35
458.361	31267.08
458.798	31342.42
459.236	31200.85
459.674	31537.1
460.111	31659.32
460.549	31424.89
460.987	31462.63
461.424	31473.32
461.862	31458.4
462.299	31093.46
462.736	31091.86
463.173	31320.64
463.611	30904.98
464.048	30906.11
464.485	31234.03
464.922	31126.92
465.359	31186.94
465.796	30411.84
466.233	30371.43
466.67	30163.63
467.106	30219.41
467.543	30206.43
467.98	30014.8
468.416	29596.84
468.853	29607.26
469.29	28895.97
469.726	28715.83
470.162	28045.55
470.599	28159.09
471.035	27996.45
471.471	27402.89
471.907	27372.44
472.344	27200.2
472.78	27138.21
473.216	27382.85
473.652	26882.81
474.088	26679.83
474.523	26317.97
474.959	26348.95
475.395	25875.81
475.831	25419.13
476.266	25295.87
476.702	24950.33
477.138	24347.36
477.573	23973.17
478.008	23527.55
478.444	23226.75
478.879	23004.49
479.314	22766.88
479.75	22394.38
480.185	22184.6
480.62	22046.62
481.055	21832.47
481.49	21605.28
481.925	21557.99
482.36	21472.88
482.795	21739.74
483.229	22031.85
483.664	22149.51
484.099	21896.38
484.534	21858.59
484.968	21730.39
485.403	21489.23
485.837	21205.97
486.271	20895.73
486.706	20644.69
487.14	20259.81
487.574	19699.96
488.009	19303.56
488.443	18946.74
488.877	18901.17
489.311	18789.4
489.745	18803.59
490.179	18778.71
490.613	18851.74
491.046	18841.18
491.48	18819.12
491.914	18660.54
492.348	18640.06
492.781	18591.06
493.215	18501.7
493.648	18444.12
494.082	18451.84
494.515	18330.7
494.948	18377.09
495.382	18420
495.815	18383.6
496.248	18370.66
496.681	18558.7
497.114	18712.94
497.547	18793.91
497.98	18910.44
498.413	18832.97
498.846	18870.94
499.279	18898.28
499.711	18833.14
500.144	18696.6
500.577	18724.84
501.009	18792.64
501.442	18782.05
501.874	18566.99
502.306	18434.05
502.739	18330.22
503.171	18490.02
503.603	18346.21
504.036	18326.94
504.468	18219.9
504.9	18230.2
505.332	18148.34
505.764	17990.05
506.196	17904.2
506.627	17954.84
507.059	17958.24
507.491	17947.25
507.923	17611.48
508.354	17622.18
508.786	17555.3
509.217	17602.89
509.649	17599.18
510.08	17669.99
510.512	17676.1
510.943	17673.81
511.374	17606.01
511.805	17665.77
512.237	17720.2
512.668	17999.88
513.099	18179.25
513.53	18325.83
513.961	18352.61
514.391	18535.27
514.822	18684.22
515.253	18899.91
515.684	18942.98
516.114	19039.95
516.545	18997.28
516.975	19016.26
517.406	18913.3
517.836	18621.19
518.267	18381.02
518.697	18285.5
519.127	18031.92
519.558	17839.34
519.988	17600.74
520.418	17452.83
520.848	17386.49
521.278	17233.7
521.708	16701.51
522.138	16621.11
522.567	16738.79
522.997	16793.89
523.427	16757.88
523.857	16725.62
524.286	16646.12
524.716	16614.98
525.145	16614.73
525.575	16556.1
526.004	16548.59
526.433	16751.51
526.863	16611.83
527.292	16360.27
527.721	16281.33
528.15	16224.48
528.579	16119.55
529.008	16122.99
529.437	16247.96
529.866	16289.22
530.295	16361.29
530.724	16372.09
531.152	16528.2
531.581	16559.62
532.01	16648.4
532.438	16652.09
532.867	16718.06
533.295	16821.02
533.723	16810.71
534.152	16727.87
534.58	16664.39
535.008	16469.61
535.436	16436.36
535.865	16467.76
536.293	16567.94
536.721	16678.02
537.149	16868.28
537.576	16862.77
538.004	16963.93
538.432	17024
538.86	16995.59
539.287	17060.09
539.715	17178.01
540.143	17225.24
540.57	17208.68
540.998	17200.09
541.425	16988.26
541.852	16840.5
542.28	16855.2
542.707	16747.11
543.134	16649.96
543.561	16640.03
543.988	16603.37
544.415	16644.05
544.842	16633.8
545.269	16596.33
545.696	16636.64
546.123	16817.8
546.549	16754.28
546.976	16663.97
547.403	16683.97
547.829	16742.74
548.256	16808.13
548.682	16806.09
549.108	16763.69
549.535	16797.7
549.961	16852.64
550.387	16765.12
550.813	16731.22
551.24	16823.35
551.666	16868.03
552.092	16806.67
552.518	16781.62
552.943	16742.55
553.369	16857.06
553.795	16948.21
554.221	16975.12
554.646	16974.02
555.072	17073.08
555.498	17152.48
555.923	17262.92
556.349	17422.64
556.774	17527.56
557.199	17552.31
557.625	17652.89
558.05	17601.11
558.475	17714.49
558.9	17716.94
559.325	17644.74
559.75	17613.81
560.175	17569.52
560.6	17529
561.025	17519.04
561.449	17540.61
561.874	17600.34
562.299	17624.76
562.723	17705.75
563.148	17599.7
563.572	17636.22
563.997	17732.11
564.421	17780.72
564.846	17775.44
565.27	17782.01
565.694	17748.95
566.118	17824.1
566.542	17862.68
566.966	17775.96
567.39	17689.41
567.814	17558
568.238	17539.28
568.662	17576.43
569.086	17590.32
569.509	17675.77
569.933	17537.41
570.357	17507.41
570.78	17357.47
571.204	17279.3
571.627	17256.1
572.05	17337.46
572.474	17434.15
572.897	17438.57
573.32	17488.3
573.743	17548.63
574.166	17494.96
574.589	17663.71
575.012	17739.35
575.435	17907.94
575.858	17991.53
576.281	18055.76
576.704	18071.44
577.126	18132.02
577.549	18181.24
577.972	18265.13
578.394	18316.58
578.817	18382.3
579.239	18348.36
579.661	18359.75
580.084	18312.91
580.506	18332.11
580.928	18456.56
581.35	18494.2
581.772	18596.3
582.194	18592.44
582.616	18583.02
583.038	18579.31
583.46	18629.89
583.882	18728.51
584.303	18937.78
584.725	19058.69
585.147	19142.56
585.568	19389.87
585.99	19641.76
586.411	19836.97
586.833	20131.27
587.254	20256.6
587.675	20544.56
588.096	20818.89
588.518	20852.77
588.939	20720.92
589.36	20775.89
589.781	20814.6
590.202	20456.49
590.623	20425.34
591.043	20461.7
591.464	20339.6
591.885	20324.67
592.305	20282.84
592.726	20113.27
593.147	20121.53
593.567	20041.35
593.987	19913.53
594.408	19811.9
594.828	19804.64
595.248	19648.03
595.669	19307.35
596.089	19134.39
596.509	18978.03
596.929	18689.65
597.349	18597.12
597.769	18368.39
598.189	18172.56
598.608	18092.35
599.028	18008.12
599.448	17912.77
599.867	17670.84
600.287	17558.83
600.706	17416.33
601.126	17206.15
601.545	17121.11
601.965	17059.63
602.384	16960.9
602.803	16976.62
603.222	16886.97
603.641	16804.26
604.061	16751.01
604.48	16724.84
604.898	16854.55
605.317	16970.21
605.736	17055.93
606.155	17078.94
606.574	17031.74
606.992	17176.98
607.411	17192.31
607.829	17201.44
608.248	17268.23
608.666	17351.37
609.085	17443.61
609.503	17428.51
609.921	17449.96
610.339	17589.9
610.758	17709.26
611.176	17768.96
611.594	17759.85
612.012	17837.49
612.43	17976.63
612.847	18177.86
613.265	18283.69
613.683	18467.59
614.101	18612.3
614.518	18696.19
614.936	18673.69
615.353	18573.86
615.771	18633.27
616.188	18746.43
616.606	18803.39
617.023	18817.22
617.44	18709.93
617.857	18734.51
618.274	18712.27
618.691	18702.71
619.108	18655.49
619.525	18655.73
619.942	18827.33
620.359	18939.38
620.776	18938.15
621.192	18928.6
621.609	18952.84
622.026	19098.04
622.442	19240.51
622.859	19343.74
623.275	19292.57
623.691	19416.21
624.108	19634.1
624.524	19909.51
624.94	19956
625.356	20147.97
625.772	20410.08
626.188	20644.96
626.604	20712.79
627.02	20685.77
627.436	20679.68
627.852	20808.55
628.268	21023.57
628.683	20933.8
629.099	20846.89
629.514	20831.15
629.93	20945.15
630.345	21075.72
630.761	21077.49
631.176	21203.65
631.591	21143.5
632.007	21123.59
632.422	21207.06
632.837	21130.26
633.252	21164.78
633.667	21102.86
634.082	21054.05
634.497	20954.74
634.911	20722.08
635.326	20790.68
635.741	20641.09
636.155	20652.68
636.57	20814.98
636.984	20972.41
637.399	21146.07
637.813	21343.35
638.228	21505.91
638.642	21796.93
639.056	21830.11
639.47	22079.3
639.884	22147.53
640.298	22264.28
640.712	22461.66
641.126	22470.32
641.54	22558.87
641.954	22751.84
642.368	22742.19
642.781	22772.5
643.195	22658.12
643.609	22894.69
644.022	23005.83
644.436	23145.3
644.849	23127.15
645.262	23103
645.676	23361.71
646.089	23434.1
646.502	23247.52
646.915	23316.42
647.328	23176.2
647.741	23289.9
648.154	23168.18
648.567	23181.54
648.98	23015.7
649.393	23164.97
649.805	23222.52
650.218	23194.55
650.631	22939.23
651.043	22942.4
651.456	22907.33
651.868	23031.43
652.28	23517.6
652.693	23868.38
653.105	24045.19
653.517	24231.92
653.929	24187.26
654.341	24309.95
654.753	24033.25
655.165	24279.61
655.577	24326.05
655.989	24368.28
656.401	24363.95
656.813	23646.85
657.224	23413.54
657.636	23070.31
658.047	22949.29
658.459	22811.11
658.87	22941.71
659.282	22966.37
659.693	22667.03
660.104	22523.03
660.515	22408.54
660.926	22588.79
661.338	22781.87
661.749	22857.76
662.159	22792.01
662.57	22936.44
662.981	23027.17
663.392	23007.49
663.803	23305.15
664.213	23465.53
664.624	23559.73
665.035	23849.27
665.445	23635.97
665.855	23556.25
666.266	23431.79
666.676	23517.39
667.086	23371.14
667.497	23435.28
667.907	23345.73
668.317	23155.9
668.727	22996.85
669.137	23094.38
669.547	23049.02
669.956	23180.74
670.366	23271.55
670.776	23340.75
671.186	23482
671.595	23562.72
672.005	23689.94
672.414	23620.65
672.824	23517.34
673.233	23754.6
673.642	23770.97
674.052	23788.73
674.461	23748.82
674.87	23848.62
675.279	23674.56
675.688	23691.76
676.097	23623.28
676.506	23437.96
676.915	23817.07
677.323	23827.93
677.732	23677.29
678.141	23578.77
678.549	23197.83
678.958	23103.25
679.366	22984.52
679.775	23063.25
680.183	23115.82
680.592	23154.8
681	23140.59
681.408	22735.48
681.816	22742.49
682.224	22767.15
682.632	22709.25
683.04	23191.28
683.448	23408.99
683.856	23609.9
684.264	23786.34
684.671	23894.91
685.079	24089.12
685.487	24329.57
685.894	24906.37
686.302	25147.41
686.709	25073.66
687.116	25144.27
687.524	24961.27
687.931	24729.98
688.338	24519.53
688.745	24329.26
689.152	24178.77
689.559	24149.05
689.966	24011.35
690.373	23485.14
690.78	23227.32
691.187	23293.41
691.593	23074.23
692	22775.99
692.407	22723.61
692.813	22780.11
693.22	22662.96
693.626	22616.35
694.032	22416.45
694.439	22540.26
694.845	22499.48
695.251	22631.18
695.657	22666.28
696.063	23035.52
696.469	23106.06
696.875	23108.97
697.281	22852.49
697.687	22638.76
698.093	22325.47
698.498	22332.65
698.904	22197.36
699.31	22307.74
699.715	22199.62
700.12	22369.5
700.526	22012.56
700.931	22092.13
701.337	22058.81
701.742	21927.09
702.147	22180.8
702.552	22062.09
702.957	22166.87
703.362	22010.05
703.767	21928.43
704.172	21947.04
704.577	21388.04
704.981	21442.47
705.386	21281.72
705.791	20978.69
706.195	21192.84
706.6	20998.98
707.004	21262.16
707.408	20860.9
707.813	20803.43
708.217	20516.31
708.621	20325.17
709.025	20679.3
709.43	20469.11
709.834	20608.87
710.237	20811.16
710.641	20536.68
711.045	20468.04
711.449	20238.16
711.853	20167.86
712.256	20191.07
712.66	20185.51
713.064	20339.03
713.467	20257.51
713.87	20464.42
714.274	20243.49
714.677	20257.9
715.08	20440.12
715.484	20577.36
715.887	20781.29
716.29	20956.33
716.693	21079.75
717.096	21300.77
717.499	21146.1
717.901	20753.44
718.304	20583.08
718.707	20619.3
719.109	20333.19
719.512	20382.03
719.915	20048.82
720.317	20016.69
720.719	20313.08
721.122	20315.45
721.524	20210.62
721.926	20058.65
722.328	20381.76
722.731	20185.52
723.133	20045.49
723.535	20478.22
723.937	20258.71
724.338	20184.5
724.74	20104.61
725.142	19540.31
725.544	19438.05
725.945	19416.69
726.347	19361.43
726.748	19272.17
727.15	19278.44
727.551	19091.53
727.952	18944.54
728.354	18804.8
728.755	18805.86
729.156	18718.82
729.557	18950.2
729.958	18640.97
730.359	18633.17
730.76	18744.17
731.161	18731.39
731.562	18837.7
731.962	19051.85
732.363	18990.46
732.763	18915.73
733.164	19184.02
733.564	19018.91
733.965	18703.42
734.365	18611.99
734.766	18731.59
735.166	18575.66
735.566	18328.26
735.966	18173.69
736.366	18102.16
736.766	17843.59
737.166	17947.62
737.566	17785.8
737.966	17686.49
738.365	17821.66
738.765	17771.42
739.165	17471.75
739.564	17360.06
739.964	17538.52
740.363	17391.74
740.763	17415.85
741.162	17375.85
741.561	17260.77
741.96	17088.3
742.36	17167.31
742.759	17198.77
743.158	17360.42
743.557	17422.24
743.955	17567.92
744.354	17381.37
744.753	17571.21
745.152	17383.36
745.55	17572.34
745.949	17519.49
746.348	17483.17
746.746	17502.23
747.144	17298.43
747.543	17166.59
747.941	17287.24
748.339	16972.34
748.737	16884.58
749.136	16792.37
749.534	16972.69
749.932	16802.37
750.33	16828.77
750.727	16992.61
751.125	16864.43
751.523	16776.2
751.921	16873.94
752.318	16714.41
752.716	16875.35
753.113	16886.96
753.511	16932.59
753.908	16882.27
754.305	16762.29
754.703	16927.64
755.1	17069.34
755.497	17199.95
755.894	17714.91
756.291	18027.63
756.688	18551.06
757.085	19054.89
757.482	19692.95
757.878	20119.09
758.275	20172.81
758.672	20690.62
759.068	20681.07
759.465	21067.08
759.861	21631.25
760.258	22216.97
760.654	21745.23
761.05	20588.12
761.447	19535.21
761.843	18687.1
762.239	18066.83
762.635	18243.31
763.031	18322.84
763.427	18000.81
763.822	17629.21
764.218	17337.19
764.614	16647.76
765.01	16419.57
765.405	16496.69
765.801	16657.79
766.196	16532.09
766.592	16668.7
766.987	16354.79
767.382	16217.78
767.778	16347.4
768.173	16274.58
768.568	16288.49
768.963	16083.45
769.358	16252.36
769.753	16195.28
770.148	15998.76
770.542	16041.06
770.937	15972.4
771.332	16257.37
771.726	16309.9
772.121	16082.14
772.515	16226.85
772.91	16163.13
773.304	16359.56
773.699	16136.34
774.093	16269.49
774.487	16401.2
774.881	16477.53
775.275	16413.72
775.669	16246.55
776.063	16335.43
776.457	16409.45
776.851	16138.26
777.245	16055.29
777.638	16092.47
778.032	16376.11
778.425	16207.85
778.819	16267.76
779.212	16093.78
779.606	15923.07
779.999	15927.06
780.392	15814.71
780.786	15992.73
781.179	15984.1
781.572	16045.25
781.965	16019.09
782.358	15787.39
782.751	15885.02
783.143	15683.11
783.536	15812.89
783.929	15856.51
784.322	16080.55
784.714	16079.85
785.107	15971.5
785.499	16067.67
785.891	15890.84
786.284	15718.38
786.676	15968.26
787.068	15773.76
787.46	15781.28
787.852	15702.89
788.245	15792.24
788.636	15748.5
789.028	15796.11
789.42	15772.17
789.812	15680.45
790.204	15815.29
790.595	15960.12
790.987	15392.19
791.378	15376.04
791.77	15616.54
792.161	15872.77
792.553	15930.43
792.944	15579.57
793.335	15326.48
793.726	15408.82
794.117	15538.34
794.508	15790.83
794.899	15658.07
795.29	15920.87
795.681	15984.24
796.072	15582.56
796.463	15032.86
796.853	14957.02
797.244	15219.63
797.634	15213.6
798.025	15130.57
798.415	15068.16
798.806	15153.23
799.196	15219.47
799.586	15197.48
799.976	14979.81
800.366	15339.66
800.756	15759.88
801.146	15562.05
801.536	15514.6
801.926	15557.45
802.316	15508.07
802.706	15556.17
803.095	15215.72
803.485	15341.42
803.874	15349.47
804.264	15797.69
804.653	15665.23
805.043	15855.93
805.432	15975.58
805.821	15870.37
806.21	15795.56
806.599	15885.36
806.988	15818.52
807.377	15863.89
807.766	15924.65
808.155	16245.23
808.544	15548.19
808.933	15351.85
809.321	15089.39
809.71	15353
810.098	15343.88
810.487	15807.16
810.875	16260.1
811.264	15922.62
811.652	15961.46
812.04	15750.7
812.428	15553.7
812.816	16197.74
813.204	16282.52
813.592	16523.43
813.98	16487.81
814.368	15923.12
814.756	16119.71
815.144	15652.26
815.531	15890.08
815.919	15545.93
816.306	15684.74
816.694	15150.79
817.081	15106.16
817.469	15476.43
817.856	15515.61
818.243	15871.11
818.63	16370.45
819.017	15900.18
819.404	15882.92
819.791	16131.27
820.178	16571.28
820.565	16617.03
820.952	17455.02
821.339	16785.45
821.725	16839.56
822.112	15898.75
822.498	15683.56
822.885	15655.06
823.271	15452.11
823.657	15894.72
824.044	15975.89
824.43	16146.71
824.816	16151.37
825.202	15656.88
825.588	16575.43
825.974	16414.47
826.36	16736.3
826.746	16570.69
827.132	16722.74
827.517	16505.51
827.903	15547.31
828.289	15404.77
828.674	14521.74
829.06	14298.55
829.445	14550.61
829.83	14782.42
830.216	15113.44
830.601	15335.6
830.986	14872.93
831.371	14678.22
831.756	15110.61
832.141	14681.08
832.526	14626.62
832.911	14838.48
833.295	14705.71
833.68	15097.13
834.065	14537.06
834.449	13738.52
834.834	13672.82
835.218	13660.87
835.603	13936.6
835.987	13708.95
836.371	14386.28
836.755	14261.25
837.139	14568.17
837.524	14736.96
837.908	14530.44
838.291	14526.93
838.675	14519.96
839.059	14640.22
839.443	14582.08
839.827	14330.1
840.21	14666.25
840.594	14470.19
840.977	14553.92
841.361	14444.98
841.744	14665.73
842.127	14465.52
842.511	14583.94
842.894	14992.84
843.277	15214.07
843.66	15547.6
844.043	15521.36
844.426	14813.97
844.809	14494.29
845.191	14453.66
845.574	14033.84
845.957	13671.6
846.339	13485.86
846.722	12964.94
847.104	12874.01
847.487	12609.45
847.869	12501
848.252	12582.52
848.634	12706.48
849.016	12778.61
849.398	12752.67
849.78	13223.83
850.162	13109.78
850.544	13266.21
850.926	13541.28
851.307	13315.07
851.689	13333.81
852.071	13463.24
852.452	13527.69
852.834	13379.34
853.215	13512.33
853.597	13489.93
853.978	13582.14
854.359	13775.92
854.741	13114.82
855.122	13065.48
855.503	12937.31
855.884	13063.15
856.265	13063.32
856.646	13140.4
857.026	12880.6
857.407	12815.37
857.788	12875.9
858.169	12993.93
858.549	12426.36
858.93	12745.41
859.31	12707.47
859.69	12765.09
860.071	12450.92
860.451	12244.88
860.831	11734.48
861.211	12341.92
861.591	12583.52
861.971	12476.23
862.351	12496.65
862.731	12583.76
863.111	12580.5
863.491	12593.89
863.87	12889.5
864.25	12909.68
864.629	12532.65
865.009	12653.71
865.388	12960.27
865.768	13734.93
866.147	13554.14
866.526	12702.27
866.905	12785.93
867.284	13483.81
867.663	12800.95
868.042	12282.89
868.421	12234.65
868.8	12418.66
869.179	12526.81
869.558	11773.82
869.936	10836.41
870.315	11007.98
870.693	11243.97
871.072	12093.29
871.45	11474.05
871.828	11579.31
872.207	12124.04
872.585	11903.52
872.963	12180.11
873.341	11716.1
873.719	11545.54
874.097	11361.58
874.475	11530.07
874.853	11742.2
875.23	11223.47
875.608	11659.61
875.986	12572.05
876.363	11981.11
876.741	12313.52
877.118	11964.73
877.495	12499.65
877.873	12635.64
878.25	13241.3
878.627	12638.57
879.004	12755.63
879.381	12618.3
879.758	12227.86
880.135	11322.52
880.512	11914.36
880.889	11525.74
881.265	11358.62
881.642	11206.56
882.019	11356.59
882.395	11085.91
882.772	11492.32
883.148	10947.61
883.524	10851.02
883.901	10730.13
884.277	10835.78
884.653	10706.61
885.029	10963.92
885.405	12078.3
885.781	11933.91
886.157	11379.3
886.532	11452.87
886.908	11381.12
887.284	12601
887.659	12956.78
888.035	13303.81
888.411	13578.14
888.786	13707.36
889.161	14116.92
889.537	13773.12
889.912	14113.66
890.287	13996.21
890.662	14230.22
891.037	13839.89
891.412	12771.66
891.787	12493.3
892.162	11897.42
892.536	11992.11
892.911	11345.24
893.286	10888.25
893.66	10232.48
894.035	10263.77
894.409	10920.79
894.784	10249.41
895.158	10179
895.532	10516.87
895.906	10533.73
896.281	10496.85
896.655	10082.05
897.029	11242.71
897.402	11454.58
897.776	12500.18
898.15	12238.55
898.524	11905.89
898.898	11870.23
899.271	13123.06
899.645	11252
900.018	10751.92
900.392	11148.92
900.765	11272.18
901.138	10505.14
901.511	10451.83
901.884	9722.17
902.258	9105.2
902.631	9560.05
903.003	11155.41
903.376	10192.5
903.749	11553.65
904.122	12458.49
904.495	13760.19
904.867	13916.95
905.24	12007.9
905.612	11077.25
905.985	11170.49
906.357	11490.33
906.729	10767.58
907.102	9039.44
907.474	8539.08
907.846	8453.06
908.218	8212.25
908.59	7171.32
908.962	6871.12
909.334	7354.82
909.705	7680.7
910.077	7425.3
910.449	7676.66
910.82	7849.26
911.192	8594.4
911.563	8910.07
911.935	9493.31
912.306	9475.51
912.677	9742.29
913.048	9585.17
913.419	10307.11
913.79	10285.55
914.161	10962.73
914.532	10453.3
914.903	9575.22
915.274	9081.91
915.645	8915.92
916.015	7827.22
916.386	7474.09
916.756	7973.67
917.127	8281.03
917.497	7487.24
917.868	8248.39
918.238	7930.15
918.608	8249.7
918.978	8522.44
919.348	9122.79
919.718	9519.37
920.088	9294.47
920.458	9736.33
920.828	10306.8
921.198	9808.68
921.567	10477.12
921.937	8084.39
922.306	8139.1
922.676	8738.75
923.045	7277.65
923.415	6899.19
923.784	6266.28
924.153	6401.02
924.522	6361.18
924.891	5950.17
925.26	6317.15
925.629	6101.88
925.998	6937.59
926.367	6686.94
926.736	6296.62
927.104	7357.19
927.473	7710.94
927.842	9049.9
928.21	8692.73
928.578	8816.35
928.947	8022.92
929.315	7768.01
929.683	8739.36
930.051	8429.88
930.42	9299.06
930.788	7535.07
931.156	7073.36
931.523	6326.63
931.891	5548.93
932.259	5065.85
932.627	5608.56
932.994	7555.02
933.362	6014.61
933.729	5037.76
934.097	4669.63
934.464	3861.96
934.831	4348.7
935.199	4235.72
935.566	4084.2
935.933	4234.27
936.3	5187.21
936.667	4090.88
937.034	3921.33
937.401	3975.4
937.767	3559.64
938.134	3305.32
938.501	4864.63
938.867	5451.92
939.234	9671.24
939.6	8592.46
939.967	9718.48
940.333	6799.81
940.699	6004.89
941.065	4836.23
941.431	6498.53
941.798	6411.08
942.163	8520.08
942.529	5365.22
942.895	4929.39
943.261	3197.38
943.627	4184.86
943.992	3657.54
944.358	3618.66
944.723	3605.2
945.089	3470.74
945.454	3186.02
945.82	3358.14
946.185	3201.96
946.55	3726.47
946.915	3338.38
947.28	3899.62
947.645	3430.86
948.01	3177.12
948.375	3327.44
948.74	3966.09
949.104	4633.88
949.469	6613.85
949.834	11646.8
950.198	11179.28
950.562	6673.43
950.927	5568.03
951.291	6661.11
951.655	5626.18
952.02	5224.29
952.384	3948.44
952.748	3469.8
953.112	3407.87
953.476	2970.8
953.839	2727.56
954.203	2696.42
954.567	3350.56
954.931	5199.32
955.294	4463.12
955.658	4493.01
956.021	7675.1
956.385	12897.14
956.748	18934.62
957.111	29117.45
957.474	32540.55
957.837	36646.94
958.2	27436.45
958.563	9884.35
958.926	6764.31
959.289	10281.54
959.652	11539.51
960.015	8690.03
960.377	12496.43
960.74	14292.88
961.102	24691.91
961.465	26979.91
961.827	15035.88
962.189	29134.63
962.552	20479.13
962.914	16541.54
963.276	10812.33
963.638	8998.86
964	8951.77
964.362	6141.55
964.724	5964.16
965.085	4288.69
965.447	3546.53
965.809	3964.27
966.17	4003.75
966.532	4355.97
966.893	4055.46
967.255	3742.36
967.616	4482.22
967.977	3666.06
968.338	4063.73
968.699	3436.94
969.061	3503.52
969.421	3589.33
969.782	4121.12
970.143	3551.89
970.504	3777.93
970.865	4354.14
971.225	4530.04
971.586	4478.97
971.946	6408.47
972.307	5583.4
972.667	7261.41
973.027	7498.39
973.388	9055.86
973.748	6142.5
974.108	6687.99
974.468	8926.96
974.828	6921.04
975.188	5260.55
975.548	4807.92
975.907	4023.2
976.267	4503.68
976.627	3817.67
976.986	3943.48
977.346	3767.8
977.705	3639.43
978.064	3313.41
978.424	2766.8
978.783	2839
979.142	3265.81
979.501	3158.91
979.86	3374.83
980.219	3259.78
980.578	4193.72
980.937	4739.39
981.296	4274.67
981.654	4431.8
982.013	6929.64
982.371	9073.6
982.73	8557.92
983.088	9732.31
983.447	10424.45
983.805	15035.53
984.163	31686.04
984.521	35443.26
984.879	52371.53
985.237	-85448.23
985.595	83199.11
985.953	20729.15
986.311	11998.86
986.669	7036.03
987.026	6141.97
987.384	8350.93
987.741	8667.79
988.099	6329.81
988.456	5084.28
988.814	4802.07
989.171	4208.53
989.528	4145.39
989.885	4409.47
990.242	3549.3
990.599	4419.28
990.956	3637.89
991.313	2557.38
991.67	2112.88
992.027	2284.3
992.383	2045.28
992.74	1813.23
993.096	1919.74
993.453	2004.85
993.809	2095.24
994.165	2784.78
994.522	2621.96
994.878	2882.91
995.234	3629.65
995.59	3590.28
995.946	3333.44
996.302	3832.44
996.658	4410.09
997.013	4863.75
997.369	5863.33
997.725	7555.18
998.08	4931.53
998.436	7474.72
998.791	10471.86
999.147	10507.63
999.502	11527.12
999.857	8450.38
1000.212	13791.53
1000.567	19814.32
1000.922	11447.87
1001.277	7250.88
1001.632	5415.4
1001.987	6988.99
1002.342	5044.7
1002.696	4054.24
1003.051	3268.75
1003.406	3991.27
1003.76	3982.19
1004.114	3937.36
1004.469	3350.42
1004.823	2810.48
1005.177	3035.2
1005.531	2407.85
1005.885	2163.35
1006.239	2464.26
1006.593	3101.71
1006.947	4158.21
1007.301	3131.47
1007.655	3434.89
1008.008	2552.91
1008.362	2864.02
1008.715	4120.23
1009.069	3759.61
1009.422	5793.2
1009.776	11624.57
1010.129	7720.97
1010.482	6482.89
1010.835	5511.51
1011.188	11515.68
1011.541	10865.21
1011.894	-66859.03
1012.247	199448.24
1012.6	13569.03
1012.952	8710.99
1013.305	4416.06
1013.657	3244.07
1014.01	3105.07
1014.362	2585.69
1014.715	2361.13
1015.067	2093.56
1015.419	2074.11
1015.771	1858.54
1016.123	1670.67
1016.475	1733.7
1016.827	1846.68
1017.179	2038.7
1017.531	2053.79
1017.883	2092.23
1018.234	2072.52
1018.586	2633.75
1018.938	2832.49
1019.289	3937.18
1019.64	4507.46
1019.992	4201.76
1020.343	3859.87
1020.694	3121.95
1021.045	2761.64
1021.396	3174.55
1021.747	3479.45
1022.098	4142.43
1022.449	3023.12
1022.8	2820.91
1023.151	1980.63
1023.501	1782.45
1023.852	1967.27
1024.202	2071.91
1024.553	2273.8
1024.903	2256.54
1025.253	1975.44
1025.604	1804.36
1025.954	2265.07
1026.304	2762.64
1026.654	3269.69
1027.004	4855.6
1027.354	7861.63
1027.703	7466.42
1028.053	9957.35
1028.403	14669.69
1028.753	21357.82
1029.102	28967.55
1029.452	148567.81
1029.801	6448.62
1030.15	4183.72
1030.499	3501.87
897.758	2492.49
901.051	2446.46
904.343	2477.21
907.636	2477.05
910.928	2542.5
914.22	2455.35
917.511	2459.71
920.803	2517.36
924.094	2530.41
927.384	2517.64
930.675	2481.89
933.965	2439.92
937.255	2453.46
940.544	2420.07
943.834	2388.73
947.123	2325.25
950.411	2416.85
953.7	2392.05
956.988	2366.49
960.276	2305.21
963.563	2373.91
966.851	2375.68
970.138	2426.51
973.424	2420.55
976.711	2376.17
979.997	2473.51
983.283	2514.53
986.568	2430.02
989.853	2441.66
993.138	2466.77
996.423	2549.02
999.708	2493.8
1002.992	2542.14
1006.275	2410.96
1009.559	2438.97
1012.842	2546.93
1016.125	2483.8
1019.408	2465.33
1022.69	2542.32
1025.972	2563.08
1029.254	2538.93
1032.536	2481.22
1035.817	2506.03
1039.098	2458.87
1042.379	2567.63
1045.659	2579.09
1048.939	2515.85
1052.219	2531.48
1055.498	2536.62
1058.778	2524.84
1062.057	2507.02
1065.335	2527.33
1068.614	2542.06
1071.892	2525.72
1075.17	2596.37
1078.447	2587.46
1081.724	2580.8
1085.001	2613.05
1088.278	2591.69
1091.554	2602.23
1094.83	2595.98
1098.106	2625.02
1101.382	2665.14
1104.657	2668.65
1107.932	2665.64
1111.206	2633.86
1114.481	2593.58
1117.755	2596.45
1121.029	2581.87
1124.302	2633.48
1127.575	2593.1
1130.848	2585.35
1134.121	2547.41
1137.393	2500.99
1140.665	2562.92
1143.937	2540.27
1147.208	2497.86
1150.48	2539.99
1153.75	2526.02
1157.021	2549.95
1160.291	2522.83
1163.561	2566.62
1166.831	2552.16
1170.101	2582.8
1173.37	2554.85
1176.639	2504.32
1179.907	2558.93
1183.176	2569.44
1186.444	2574.42
1189.711	2603.23
1192.979	2617.82
1196.246	2572.37
1199.513	2589.42
1202.78	2587.54
1206.046	2596.14
1209.312	2619.99
1212.578	2643.6
1215.843	2599.12
1219.108	2573.06
1222.373	2598.35
1225.638	2561.79
1228.902	2547.17
1232.166	2515.77
1235.43	2497.4
1238.693	2522.16
1241.956	2518.56
1245.219	2561.29
1248.482	2548.81
1251.744	2543.83
1255.006	2680.68
1258.268	2633.98
1261.529	2581.8
1264.79	2587.86
1268.051	2687.98
1271.312	2701.88
1274.572	2668.49
1277.832	2657.79
1281.092	2646.64
1284.351	2625.46
1287.61	2607.72
1290.869	2531.92
1294.128	2512.83
1297.386	2590.25
1300.644	2579.96
1303.902	2590.33
1307.159	2457.74
1310.416	2509.38
1313.673	2533.33
1316.93	2520.87
1320.186	2563.15
1323.442	2602.1
1326.697	2594.88
1329.953	2580.01
1333.208	2607.54
1336.463	2586.63
1339.717	2531.55
1342.972	2655.54
1346.226	2631.79
1349.479	2571.39
1352.733	2545.75
1355.986	2562.6
1359.238	2541.89
1362.491	2544.12
1365.743	2548.79
1368.995	2542.15
1372.247	2554.73
1375.498	2577.49
1378.749	2598.99
1382	2557.58
1385.251	2605.44
1388.501	2564.08
1391.751	2553.98
1395	2521.88
1398.25	2554.9
1401.499	2567.31
1404.748	2499.8
1407.996	2487.82
1411.244	2476.68
1414.492	2458.83
1417.74	2435.24
1420.987	2444.35
1424.234	2502.25
1427.481	2476.81
1430.728	2535.32
1433.974	2509.07
1437.22	2517.32
1440.465	2520.56
1443.711	2494.16
1446.956	2524.17
1450.201	2507.25
1453.445	2551.39
1456.689	2531.68
1459.933	2545.7
1463.177	2577.01
1466.42	2549.08
1469.663	2530.96
1472.906	2531.87
1476.148	2590.88
1479.391	2578.09
1482.633	2545.53
1485.874	2557.97
1489.115	2550.5
1492.356	2551.26
1495.597	2526.05
1498.838	2528.42
1502.078	2503.14
1505.318	2458.69
1508.557	2499.92
1511.797	2487.55
1515.036	2525.6
1518.274	2517.06
1521.513	2486.82
1524.751	2503.84
1527.989	2516.28
1531.227	2532.79
1534.464	2531.48
1537.701	2545.87
1540.938	2563.96
1544.174	2511.17
1547.41	2509.74
1550.646	2548.26
1553.882	2587.72
1557.117	2638.96
1560.352	2652.72
1563.587	2613.62
1566.821	2573.94
1570.055	2604.11
1573.289	2575.43
1576.523	2643.86
1579.756	2655.74
1582.989	2672.23
1586.222	2633.82
1589.454	2669.26
1592.686	2648.08
1595.918	2673.58
1599.15	2664.82
1602.381	2730.79
1605.612	2694.08
1608.843	2788.53
1612.073	2705.11
1615.303	2691.04
1618.533	2683.88
1621.762	2686.71
1624.992	2668.36
1628.221	2658.77
1631.449	2645.62
1634.678	2691.81
1637.906	2650.22
1641.134	2686.43
1644.361	2648.24
1647.588	2634.51
1650.815	2652.63
1654.042	2626.92
1657.269	2656.95
1660.495	2616.61
1663.72	2630.96
1666.946	2596.39
1670.171	2550.99
1673.396	2526.91
1676.621	2510.09
1679.845	2523.8
1683.069	2542.95
1686.293	2579.77
1689.517	2560.33
1692.74	2495.86
1695.963	2522.55
1699.185	2543.24
1702.408	2518.74
1705.63	2556.8
1708.852	2568.55
1712.073	2544.93
1715.294	2536.01
1718.515	2589.88
1721.736	2542.93
1724.956	2530.58
1728.176	2554.41
1731.396	2578.94
1734.616	2565.29
1737.835	2596.1
1741.054	2574.03
1744.272	2567.92
1747.491	2597.93
1750.709	2641.85
1753.927	2562.61
1757.144	2600.13
1760.361	2645.57
1763.578	2634.52
1766.795	2578.03
1770.011	2580.58
1773.227	2614.75
1776.443	2652.2
1779.658	2695.16
1782.874	2638.38
1786.089	2620.15
1789.303	2621.26
1792.518	2624.7
1795.732	2614.26
1798.945	2625.27
1802.159	2673.42
1805.372	2586.97
1808.585	2575.39
1811.797	2574.93
1815.01	2616.01
1818.222	2624.87
1821.434	2604.3
1824.645	2657.5
1827.856	2650.77
1831.067	2681.54
1834.278	2634.73
1837.488	2618.07
1840.698	2758.94
1843.908	2689.61
1847.117	2654
1850.326	2551.63
1853.535	2640.07
1856.744	2659.3
1859.952	2576.82
1863.16	2579.29
1866.368	2599.7
1869.575	2701.72
1872.782	2590.99
1875.989	2531
1879.196	2600.84
1882.402	2591.49
1885.608	2631.17
1888.814	2547.26
1892.019	2447.15
1895.224	2501.32
1898.429	2477.32
1901.634	2458.4
1904.838	2435.75
1908.042	2483.72
1911.246	2490.14
1914.449	2435.16
1917.652	2428.41
1920.855	2410.25
1924.058	2450.33
1927.26	2490.22
1930.462	2515.32
1933.664	2543.04
1936.865	2483.56
1940.066	2492.68
1943.267	2442.1
1946.467	2455.82
1949.668	2479.15
1952.868	2546.28
1956.067	2527
1959.267	2465.55
1962.466	2490.23
1965.665	2475.34
1968.863	2470.33
1972.061	2481.8
1975.259	2479.14
1978.457	2554.36
1981.654	2514.77
1984.852	2515.68
1988.048	2455.68
1991.245	2456.22
1994.441	2538.69
1997.637	2517.38
2000.833	2496.96
2004.028	2536.09
2007.223	2590.11
2010.418	2570.08
2013.613	2530.33
2016.807	2506.35
2020.001	2511.35
2023.194	2548.04
2026.388	2525.25
2029.581	2471.54
2032.774	2523.35
2035.966	2531.37
2039.158	2467.87
2042.35	2495.81
2045.542	2423.17
2048.733	2517.04
2051.924	2532.39
2055.115	2556.25
2058.306	2507.2
2061.496	2564.59
2064.686	2623.29
2067.875	2533.85
2071.065	2546.15
2074.254	2570.69
2077.442	2520.97
2080.631	2609.92
2083.819	2512.56
2087.007	2496.91
2090.195	2472.88
2093.382	2501.31
2096.569	2483.06
2099.756	2440.17
2102.942	2473.29
2106.128	2479.02
2109.314	2469.83
2112.5	2440.35
2115.685	2412.55
2118.87	2422.37
2122.055	2484.44
2125.239	2455.81
2128.424	2436.54
2131.608	2524.03
2134.791	2505.01
2137.974	2556.97
2141.157	2544.29
2144.34	2502
2147.523	2512.43
2150.705	2530.54
2153.887	2506.34
2157.068	2465.32
2160.25	2458.18
2163.431	2488.46
2166.611	2443.01
2169.792	2461.14
2172.972	2362.56
2176.152	2431.59
2179.331	2464.01
2182.511	2447.71
2185.69	2474
2188.868	2471.63
2192.047	2520.29
2195.225	2519.66
2198.403	2472.53
2201.58	2460.15
2204.758	2457.23
2207.935	2534.76
2211.111	2430.43
2214.288	2417.43
2217.464	2457.21
2220.64	2424.56
2223.815	2477.07
2226.991	2403.93
2230.166	2420.94
2233.34	2451.28
2236.515	2474.2
2239.689	2542.13
2242.863	2487.29
2246.036	2544.74
2249.209	2539.2
2252.382	2568.31
2255.555	2563.55
2258.727	2506.68
2261.9	2540.63
2265.071	2534.43
2268.243	2535.65
2271.414	2473.95
2274.585	2440.94
2277.756	2506.97
2280.926	2464
2284.096	2502.14
2287.266	2416.86
2290.436	2466.12
2293.605	2493.98
2296.774	2525.37
2299.942	2540.25
2303.111	2558.26
2306.279	2608.71
2309.447	2592.71
2312.614	2569.95
2315.781	2587.79
2318.948	2560.25
2322.115	2597.82
2325.281	2503.24
2328.447	2516.58
2331.613	2489.8
2334.779	2468.85
2337.944	2468.5
2341.109	2467.59
2344.274	2453.97
2347.438	2416.06
2350.602	2444.27
2353.766	2456.46
2356.929	2444.76
2360.092	2483.66
2363.255	2442.17
2366.418	2388.24
2369.58	2484.9
2372.742	2303.36
2375.904	2310.01
2379.066	2289.86
2382.227	2324.33
2385.388	2284.28
2388.548	2220.96
2391.709	2268.76
2394.869	2253.91
2398.029	2337.83
2401.188	2345.25
2404.347	2289.32
2407.506	2409.03
2410.665	2439.32
2413.823	2439.35
2416.981	2403.21
2420.139	2430.57
2423.296	2476.29
2426.453	2449.13
2429.61	2471.7
2432.767	2415.31
2435.923	2452.6
2439.079	2412.85
2442.235	2456.98
2445.391	2391.5
2448.546	2422.92
2451.701	2468.57
2454.855	2447.13
2458.009	2490.31
2461.163	2490.29
2464.317	2451.3
2467.471	2482.62
2470.624	2519.44
2473.777	2495.85
2476.929	2508.24
2480.082	2532.69
2483.234	2500.66
2486.385	2448.04
2489.537	2441.57
2492.688	2411.63
2495.839	2429.15
2498.989	2442.37
2502.14	2427.66
2505.29	2413.64
2508.439	2435.46
2511.589	2366.46
2514.738	2373.2
2517.887	2400.58
2521.035	2470.5
2524.183	2448.03
2527.331	2430.4
2530.479	2410.56
2533.627	2417.21
