Data from C_2_DIV_OH_2N_Splice17_12-22-41-088.txt Node
Date: Sat Mar 14 12:22:41 EDT 2020
User: sa697716
Spectrometer: FLMS03696
Trigger mode: 0
Integration Time (sec): 3.180400E-1
Scans to average: 20
Electric dark correction enabled: true
Nonlinearity correction enabled: true
Boxcar width: 5
XAxis mode: Wavelengths
Number of Pixels in Spectrum: 2048
>>>>>Begin Spectral Data<<<<<
187.83	-236577.83
188.298	1614.79
188.766	912.25
189.233	796.42
189.701	1174.47
190.169	1615.06
190.636	606.73
191.104	445.4
191.571	39.25
192.039	-102.61
192.506	-92.33
192.974	413.89
193.441	-871.78
193.908	-353.76
194.375	-115.75
194.842	-14.3
195.31	51.8
195.777	172.85
196.244	358.49
196.711	451.75
197.177	556.15
197.644	764.25
198.111	1334.93
198.578	1864.39
199.045	1507.29
199.511	2473.33
199.978	2852.9
200.445	2401.1
200.911	2635.96
201.378	2947.34
201.844	2661.93
202.31	4565.2
202.777	4797.78
203.243	2658.71
203.709	2538.98
204.176	3025.16
204.642	2503.76
205.108	2355.45
205.574	1933.56
206.04	1764.91
206.506	1642.89
206.972	1546.48
207.438	1496.25
207.903	1697.57
208.369	1501.86
208.835	1509.21
209.301	1560.74
209.766	1575.49
210.232	1547.66
210.697	1917.06
211.163	2355.65
211.628	3573.15
212.094	3005.92
212.559	3691
213.024	2299.94
213.49	2788.55
213.955	2693.57
214.42	2633.02
214.885	2466.78
215.35	2374.73
215.815	2301.56
216.28	2459.07
216.745	2015.01
217.21	2199.46
217.675	2035.48
218.14	2304.54
218.604	2600.15
219.069	2994.47
219.534	3181.6
219.998	3718.01
220.463	4536.58
220.927	5614.99
221.392	5332.28
221.856	5440.1
222.32	6868.74
222.785	8482.26
223.249	10724.48
223.713	12003.08
224.177	12067.2
224.642	15503.69
225.106	19153.75
225.57	21030.44
226.034	15634.41
226.497	23827.41
226.961	21549.63
227.425	25166.44
227.889	28054.29
228.353	28113.98
228.816	58131.49
229.28	55667.92
229.744	47085.88
230.207	28667.75
230.671	28202.45
231.134	46786.87
231.597	54044.03
232.061	54073.74
232.524	52867.88
232.987	36477.4
233.45	32896.13
233.914	29566.8
234.377	30397.41
234.84	27879.55
235.303	32905.35
235.766	36789.5
236.229	38045.3
236.691	24003.49
237.154	27017.37
237.617	20342.74
238.08	20853.89
238.542	24434.86
239.005	17478.24
239.468	17342.95
239.93	16355.45
240.393	14896.07
240.855	13089.25
241.317	13447.99
241.78	16379.24
242.242	16948.29
242.704	18317.36
243.166	15980.12
243.629	14535.13
244.091	16780.08
244.553	18425.45
245.015	19855.84
245.477	25729.82
245.939	37772.91
246.4	40113.58
246.862	39024.58
247.324	36863.6
247.786	41330.39
248.247	54236.98
248.709	56068.82
249.17	42018.41
249.632	39614.15
250.093	45931.72
250.555	39703.67
251.016	24247.35
251.477	23046.58
251.939	24892.48
252.4	26145.55
252.861	31118.17
253.322	28955.06
253.783	34503.33
254.244	44789.45
254.705	35367.87
255.166	31498.68
255.627	31036.93
256.088	43816.77
256.549	46538.8
257.009	40101.95
257.47	48686.42
257.931	39655.3
258.391	29734.76
258.852	30620.1
259.312	32096.07
259.773	39623.31
260.233	33462.04
260.694	28222.54
261.154	32013.41
261.614	25694
262.074	22992.08
262.534	23909.66
262.994	22535.29
263.455	30039.62
263.915	25317.08
264.374	23833.52
264.834	26014.52
265.294	28845.54
265.754	29891.09
266.214	28289.84
266.673	26500.89
267.133	33438.35
267.593	33157.68
268.052	40587.58
268.512	35274.2
268.971	42544.56
269.431	46679.77
269.89	41812.07
270.349	62713.33
270.809	69918.3
271.268	62829.84
271.727	140960.21
272.186	91406.27
272.645	68558.83
273.104	49482.58
273.563	71677.14
274.022	56407.17
274.481	48004.24
274.94	36989.15
275.399	27515.65
275.857	32037.3
276.316	43367.53
276.775	38561.47
277.233	37943.74
277.692	35509.11
278.15	40137.73
278.609	41304.78
279.067	38227.69
279.525	35504.2
279.984	45843.96
280.442	55010.68
280.9	54216.89
281.358	35671.51
281.816	33283.37
282.274	32580.58
282.732	33658.77
283.19	33815.85
283.648	29187.87
284.106	31065.38
284.564	31594.98
285.021	29319.18
285.479	21833.47
285.937	19849.66
286.394	17415.64
286.852	17900.28
287.309	18827.22
287.767	18176.02
288.224	17295.62
288.682	18965.88
289.139	20824.05
289.596	19030.97
290.053	19786.41
290.511	25002.03
290.968	30358.21
291.425	41200.58
291.882	34329.83
292.339	29861.75
292.796	29664.71
293.252	27952.98
293.709	22223.38
294.166	19912.58
294.623	22032.81
295.079	21145.82
295.536	21225.75
295.992	19275.84
296.449	19069.61
296.905	19824.52
297.362	19024.83
297.818	20023.48
298.274	20779.3
298.731	21159.25
299.187	20955.84
299.643	22510.63
300.099	27218.31
300.555	29895.01
301.011	24979.59
301.467	24076.62
301.923	28198.3
302.379	27542.03
302.835	27041.91
303.291	27079.17
303.746	30824.58
304.202	38941.22
304.658	39126.97
305.113	26321.06
305.569	25771.91
306.024	27480.77
306.479	26148.51
306.935	22036.7
307.39	24062.49
307.845	22241.53
308.301	22363.63
308.756	21807.91
309.211	20996.73
309.666	21483.03
310.121	26670.41
310.576	27081.06
311.031	26891.56
311.486	30821.43
311.94	30738.55
312.395	41077.06
312.85	77110.16
313.305	379595.76
313.759	1964260.37
314.214	142714.26
314.668	113157.41
315.123	95118.14
315.577	34122.77
316.032	30336.55
316.486	38053.69
316.94	30084.8
317.394	21006.89
317.849	16335.84
318.303	15465.19
318.757	14597.46
319.211	16124.23
319.665	14125.87
320.119	14317.67
320.572	20543.05
321.026	19204.34
321.48	15988.05
321.934	17458.56
322.387	17477.16
322.841	18891.79
323.295	16979.46
323.748	19577.24
324.202	19860.42
324.655	23858.34
325.108	33339.1
325.562	23561.92
326.015	27994.98
326.468	21183.7
326.921	23715.34
327.374	22129.1
327.827	23036.61
328.28	26097.14
328.733	17495
329.186	15401.82
329.639	14685.13
330.092	12384.74
330.545	11786.88
330.997	11907.61
331.45	13011.2
331.903	15231.75
332.355	26219.65
332.808	25501.47
333.26	21057.95
333.713	22857.92
334.165	23047.72
334.617	30748.73
335.069	24857.17
335.522	45003.27
335.974	49789.15
336.426	45498.3
336.878	31547.21
337.33	15999.1
337.782	15629
338.234	19564.02
338.686	23397.27
339.137	27684.86
339.589	26085.24
340.041	20464
340.493	17612.72
340.944	18052.66
341.396	19458.57
341.847	16374.1
342.299	19317.45
342.75	23605.51
343.201	20654.99
343.653	23803.49
344.104	29332.25
344.555	23122.73
345.006	36009.77
345.457	27592.95
345.908	21932.16
346.359	20629.26
346.81	16835.47
347.261	17759.56
347.712	17489.87
348.163	18786.47
348.613	19067.4
349.064	17773.25
349.515	15580.16
349.965	16008.54
350.416	19274.57
350.866	21156.94
351.317	23907.47
351.767	39525.4
352.217	49999.12
352.668	41478.4
353.118	37910.62
353.568	36497.61
354.018	28899.99
354.468	30455.64
354.918	21773.32
355.368	19081.62
355.818	26965.85
356.268	77754.42
356.718	325571.55
357.168	81035.66
357.617	40737.78
358.067	45416.85
358.517	42574.95
358.966	50026.83
359.416	56178.67
359.865	60830.87
360.315	72371.21
360.764	33832.05
361.213	18978.42
361.663	18009.43
362.112	22267.59
362.561	36022.08
363.01	27187.55
363.459	22910.16
363.908	24779.23
364.357	21050.69
364.806	35616.54
365.255	24539.77
365.703	22529.09
366.152	22581.46
366.601	18314.71
367.05	14873.35
367.498	13519.44
367.947	14147.78
368.395	14723.26
368.844	13056.41
369.292	15794.71
369.74	10931.34
370.189	16773.96
370.637	19674.96
371.085	17023.48
371.533	20796.66
371.981	20069.77
372.429	19166.5
372.877	20022.69
373.325	16779.73
373.773	17153.21
374.221	15294.45
374.669	19042.18
375.116	16507.44
375.564	16684.92
376.012	18708.88
376.459	15468.34
376.907	18556.99
377.354	22566.28
377.801	21107.25
378.249	24422.88
378.696	31399
379.143	38255.36
379.591	40974.12
380.038	69720.96
380.485	50730.99
380.932	55134.16
381.379	50828.66
381.826	37742.55
382.273	26997.91
382.72	23812.35
383.166	23376.05
383.613	15255.04
384.06	13866.58
384.506	16186.04
384.953	11993.11
385.4	12179.49
385.846	10766.38
386.292	10600.63
386.739	10481.17
387.185	10479.15
387.631	10582.56
388.078	10375.02
388.524	11224.66
388.97	10470.37
389.416	8821.07
389.862	9463.32
390.308	9049.87
390.754	9264.3
391.2	10142.59
391.645	10464.77
392.091	10073.44
392.537	9813.24
392.983	9900.24
393.428	9786.78
393.874	10567.5
394.319	10672.59
394.765	10192.56
395.21	10553.55
395.655	9961.44
396.101	9384.37
396.546	8515.54
396.991	8646.82
397.436	8069.07
397.881	7840.61
398.326	7474.37
398.771	7085.02
399.216	6225.06
399.661	5633.13
400.106	5631.88
400.551	5782.93
400.995	5209.31
401.44	5166.03
401.885	4865.47
402.329	4930.56
402.774	4738.91
403.218	4584.85
403.663	4432.35
404.107	4565.39
404.551	4600.95
404.995	4231.41
405.44	4088.92
405.884	4155.3
406.328	4030.53
406.772	4026.59
407.216	3672.38
407.66	3555.02
408.104	3390.36
408.547	3177.07
408.991	3075.74
409.435	2962.81
409.879	2921.11
410.322	2883.74
410.766	2780.72
411.209	2641.27
411.653	2534.03
412.096	2475.09
412.54	2475.96
412.983	2454.08
413.426	2460.26
413.869	2460.82
414.312	2410.26
414.756	2320.77
415.199	2212.76
415.642	2146.99
416.085	2147.11
416.527	2130.89
416.97	2166.9
417.413	2053.84
417.856	2034.88
418.298	2012.81
418.741	1998.07
419.184	1998.76
419.626	2082.69
420.069	2083.2
420.511	2092.88
420.953	2045.41
421.396	2026.63
421.838	1977.05
422.28	2017.59
422.722	2024.89
423.164	2053.3
423.606	2018.01
424.048	2012.86
424.49	1912.47
424.932	1901.85
425.374	1876.29
425.816	1913.88
426.258	1950.79
426.699	1970.04
427.141	1944.47
427.582	1975.72
428.024	1965.47
428.465	1951.8
428.907	1903.04
429.348	1878.44
429.789	1873.05
430.231	1830.93
430.672	1851.2
431.113	1805.93
431.554	1778.96
431.995	1733.13
432.436	1666.64
432.877	1627.58
433.318	1596.98
433.759	1588.62
434.2	1590.54
434.64	1576.3
435.081	1580.44
435.522	1497.65
435.962	1443.52
436.403	1410.21
436.843	1429.78
437.284	1400.53
437.724	1364.99
438.164	1370.33
438.604	1341.96
439.045	1289.91
439.485	1236.05
439.925	1213.32
440.365	1183.9
440.805	1169.59
441.245	1157.88
441.685	1116.33
442.125	1112.55
442.564	1120.44
443.004	1097.44
443.444	1094.9
443.883	1097.98
444.323	1096.04
444.762	1101.33
445.202	1120.59
445.641	1140.73
446.081	1136.77
446.52	1150.8
446.959	1140.41
447.398	1116.07
447.837	1104.49
448.276	1088.25
448.716	1099.81
449.154	1110.28
449.593	1084.01
450.032	1080.45
450.471	1063.12
450.91	1066.14
451.349	1063.77
451.787	1061.27
452.226	1078.79
452.664	1079.89
453.103	1082.4
453.541	1083.8
453.98	1082.06
454.418	1092.72
454.856	1076.39
455.295	1076.69
455.733	1085.91
456.171	1093.2
456.609	1096.66
457.047	1097.16
457.485	1112.99
457.923	1117.21
458.361	1103.27
458.798	1108.37
459.236	1106.22
459.674	1116.97
460.111	1123.63
460.549	1112.81
460.987	1110.56
461.424	1107.06
461.862	1102.5
462.299	1088.21
462.736	1086.4
463.173	1091.59
463.611	1079.12
464.048	1074.54
464.485	1082.41
464.922	1072.17
465.359	1068.23
465.796	1047.46
466.233	1037.9
466.67	1025.31
467.106	1020.65
467.543	1010.73
467.98	997.17
468.416	971.76
468.853	966.14
469.29	937.3
469.726	926.01
470.162	901.25
470.599	894.24
471.035	887.6
471.471	868.43
471.907	864.46
472.344	860.24
472.78	861.37
473.216	872.06
473.652	860.71
474.088	859.5
474.523	856.2
474.959	863.67
475.395	855.95
475.831	849.55
476.266	852.79
476.702	850
477.138	839.54
477.573	837.15
478.008	834.04
478.444	837.59
478.879	843.4
479.314	848.11
479.75	847.95
480.185	852.17
480.62	860.22
481.055	866.29
481.49	873.39
481.925	886.96
482.36	900.88
482.795	927.87
483.229	954.17
483.664	976.8
484.099	981.95
484.534	998.77
484.968	1011.2
485.403	1017.66
485.837	1019.3
486.271	1021.61
486.706	1025
487.14	1017.78
487.574	1003.67
488.009	997.68
488.443	991.21
488.877	1002.63
489.311	1008.49
489.745	1022.35
490.179	1033.82
490.613	1053.86
491.046	1064.02
491.48	1074.85
491.914	1079.28
492.348	1090.44
492.781	1100.46
493.215	1106.71
493.648	1113.05
494.082	1125.57
494.515	1129.11
494.948	1144.63
495.382	1156.92
495.815	1168.38
496.248	1180.29
496.681	1204.94
497.114	1227.76
497.547	1246.63
497.98	1270.07
498.413	1282.02
498.846	1300.18
499.279	1317.75
499.711	1328.6
500.144	1334.81
500.577	1351.89
501.009	1372.9
501.442	1389.14
501.874	1390.71
502.306	1395.8
502.739	1407
503.171	1432.48
503.603	1436.7
504.036	1451.39
504.468	1458.25
504.9	1474.84
505.332	1486.33
505.764	1490.63
506.196	1500.16
506.627	1520.42
507.059	1537.96
507.491	1550.12
507.923	1541.7
508.354	1561.93
508.786	1572.91
509.217	1595.86
509.649	1613.91
510.08	1637.38
510.512	1656.71
510.943	1673.37
511.374	1683.67
511.805	1707.02
512.237	1729.13
512.668	1771.54
513.099	1804.56
513.53	1836.97
513.961	1858.31
514.391	1895.47
514.822	1932.05
515.253	1972.42
515.684	1998.36
516.114	2029.43
516.545	2046.29
516.975	2070.86
517.406	2082.18
517.836	2070.68
518.267	2066.78
518.697	2078.74
519.127	2070.37
519.558	2068.63
519.988	2061.93
520.418	2062.41
520.848	2074.36
521.278	2073.88
521.708	2070.37
522.138	2076.53
522.567	2107.99
522.997	2130.49
523.427	2139.81
523.857	2152.06
524.286	2154.34
524.716	2163.3
525.145	2177.39
525.575	2181.53
526.004	2191.75
526.433	2185.59
526.863	2177.42
527.292	2155.2
527.721	2153.84
528.15	2152.9
528.579	2145.69
529.008	2152.74
529.437	2176.48
529.866	2187.8
530.295	2203.07
530.724	2213
531.152	2241.82
531.581	2252.88
532.01	2270.24
532.438	2277.2
532.867	2292.26
533.295	2312.55
533.723	2316.86
534.152	2310.42
534.58	2308.23
535.008	2285.99
535.436	2286.36
535.865	2294.27
536.293	2312.25
536.721	2331.43
537.149	2360.89
537.576	2362.19
538.004	2376.74
538.432	2386.19
538.86	2383.65
539.287	2391.58
539.715	2408.31
540.143	2412.56
540.57	2407.08
540.998	2401.4
541.425	2371.19
541.852	2344.7
542.28	2343.09
542.707	2321.97
543.134	2302.16
543.561	2295.81
543.988	2285.4
544.415	2283.53
544.842	2273.83
545.269	2263.52
545.696	2264.56
546.123	2280.15
546.549	2265.09
546.976	2247.74
547.403	2246.25
547.829	2248.56
548.256	2249.38
548.682	2243.53
549.108	2233.05
549.535	2232.96
549.961	2235.52
550.387	2219.22
550.813	2211.15
551.24	2218.9
551.666	2220.14
552.092	2207.81
552.518	2199.76
552.943	2192.97
553.369	2203.26
553.795	2211.66
554.221	2213.12
554.646	2210.25
555.072	2223.49
555.498	2230.96
555.923	2245.19
556.349	2266.17
556.774	2280.3
557.199	2284.39
557.625	2294.4
558.05	2289.27
558.475	2305.94
558.9	2308.75
559.325	2301.83
559.75	2298.57
560.175	2295.17
560.6	2291.34
561.025	2293.14
561.449	2298.07
561.874	2310.82
562.299	2321.33
562.723	2336.54
563.148	2328.63
563.572	2338.71
563.997	2357.12
564.421	2370.77
564.846	2378.74
565.27	2390.55
565.694	2394.32
566.118	2417.88
566.542	2434.82
566.966	2434.76
567.39	2437.52
567.814	2431.95
568.238	2440.55
568.662	2456.54
569.086	2469.67
569.509	2488.7
569.933	2476.57
570.357	2476.3
570.78	2457.38
571.204	2448.57
571.627	2443.69
572.05	2450.33
572.474	2458.96
572.897	2450.5
573.32	2448.18
573.743	2443.57
574.166	2425.15
574.589	2434.25
575.012	2430.73
575.435	2436.65
575.858	2430.94
576.281	2422.65
576.704	2406.46
577.126	2396.3
577.549	2387.29
577.972	2379.87
578.394	2369.84
578.817	2364.29
579.239	2343.35
579.661	2330.58
580.084	2312.22
580.506	2299.35
580.928	2298.26
581.35	2287.89
581.772	2286.85
582.194	2272.45
582.616	2259.46
583.038	2244.23
583.46	2235.11
583.882	2233.74
584.303	2244.81
584.725	2244.65
585.147	2248.6
585.568	2268.63
585.99	2291.6
586.411	2304.95
586.833	2329.92
587.254	2335.77
587.675	2361.24
588.096	2385.33
588.518	2382.76
588.939	2360.04
589.36	2360.22
589.781	2352.14
590.202	2309.61
590.623	2296.8
591.043	2295.96
591.464	2279.18
591.885	2275.24
592.305	2268.06
592.726	2248.09
593.147	2251.33
593.567	2245.12
593.987	2234.96
594.408	2228.86
594.828	2230.2
595.248	2223.93
595.669	2197.27
596.089	2188.36
596.509	2183.12
596.929	2164.46
597.349	2167.08
597.769	2153.32
598.189	2145.31
598.608	2148.09
599.028	2152.78
599.448	2155.09
599.867	2137.48
600.287	2133.39
600.706	2129.89
601.126	2116.05
601.545	2115.5
601.965	2115.76
602.384	2110.51
602.803	2118.12
603.222	2114.67
603.641	2108.02
604.061	2105.7
604.48	2103.9
604.898	2120.9
605.317	2133.13
605.736	2139.92
606.155	2139.13
606.574	2130.93
606.992	2144.47
607.411	2143.18
607.829	2135.51
608.248	2135.69
608.666	2138.64
609.085	2143.52
609.503	2135.8
609.921	2130.19
610.339	2139.7
610.758	2147
611.176	2145.47
611.594	2136.8
612.012	2136.93
612.43	2148.53
612.847	2165.06
613.265	2171.26
613.683	2185.22
614.101	2193.93
614.518	2195.47
614.936	2185.49
615.353	2166.4
615.771	2166.78
616.188	2173.62
616.606	2172.69
617.023	2166.28
617.44	2147.75
617.857	2141.36
618.274	2131.31
618.691	2124.07
619.108	2113.16
619.525	2106.84
619.942	2123.29
620.359	2130.92
620.776	2126.75
621.192	2122.89
621.609	2122.13
622.026	2136.69
622.442	2150.37
622.859	2159.32
623.275	2151.38
623.691	2163.27
624.108	2185.91
624.524	2211.51
624.94	2214.75
625.356	2232.15
625.772	2258.05
626.188	2281.59
626.604	2285.05
627.02	2278.8
627.436	2275.84
627.852	2288.36
628.268	2310.99
628.683	2296.11
629.099	2282.5
629.514	2274.99
629.93	2281.99
630.345	2289.95
630.761	2282.53
631.176	2289.83
631.591	2279.4
632.007	2269.35
632.422	2267.11
632.837	2246.31
633.252	2242.09
633.667	2225.14
634.082	2210.17
634.497	2188.42
634.911	2153.56
635.326	2149.12
635.741	2120.12
636.155	2105.37
636.57	2108.46
636.984	2108.59
637.399	2112.07
637.813	2113.61
638.228	2114.14
638.642	2123.22
639.056	2108.83
639.47	2112.62
639.884	2099.09
640.298	2089.57
640.712	2088.43
641.126	2068.57
641.54	2055.03
641.954	2049.83
642.368	2029.35
642.781	2015.04
643.195	1985.05
643.609	1986.93
644.022	1979.39
644.436	1975.14
644.849	1956.85
645.262	1938.85
645.676	1945.52
646.089	1939.7
646.502	1913.11
646.915	1906.62
647.328	1880.31
647.741	1879.74
648.154	1858.27
648.567	1852.12
648.98	1829.95
649.393	1832.59
649.805	1828.51
650.218	1817.13
650.631	1790.61
651.043	1783.24
651.456	1775.64
651.868	1780
652.28	1814.75
652.693	1843.64
653.105	1861.69
653.517	1883.38
653.929	1888.61
654.341	1903.5
654.753	1886.02
655.165	1904.25
655.577	1905.31
655.989	1901.8
656.401	1894.99
656.813	1831.96
657.224	1800.44
657.636	1752.99
658.047	1723.67
658.459	1693.4
658.87	1682.84
659.282	1666.61
659.693	1631.59
660.104	1609.05
660.515	1588.33
660.926	1588.88
661.338	1588.08
661.749	1579.27
662.159	1563.61
662.57	1558.73
662.981	1551.5
663.392	1537.48
663.803	1543.54
664.213	1541.26
664.624	1532.3
665.035	1538.02
665.445	1511.35
665.855	1495.99
666.266	1478.31
666.676	1474.07
667.086	1456.38
667.497	1453.49
667.907	1440.67
668.317	1422.81
668.727	1409.78
669.137	1411.6
669.547	1404.23
669.956	1406.28
670.366	1407.98
670.776	1410.83
671.186	1417.11
671.595	1420.94
672.005	1426.19
672.414	1423.36
672.824	1418.98
673.233	1429.7
673.642	1431.95
674.052	1435.81
674.461	1437.72
674.87	1446.78
675.279	1440.34
675.688	1444.12
676.097	1446.43
676.506	1440.09
676.915	1469.1
677.323	1475.23
677.732	1473.6
678.141	1474.59
678.549	1459.9
678.958	1462.47
679.366	1466.21
679.775	1481.21
680.183	1502.64
680.592	1520.69
681	1539.95
681.408	1532.86
681.816	1556.05
682.224	1582.37
682.632	1609.27
683.04	1676.02
683.448	1733.21
683.856	1801.12
684.264	1879.91
684.671	1955.58
685.079	2044.35
685.487	2139.24
685.894	2270.26
686.302	2378.96
686.709	2461.41
687.116	2559.67
687.524	2629.75
687.931	2686.93
688.338	2730.81
688.745	2759.74
689.152	2791.85
689.559	2840.27
689.966	2883.25
690.373	2879.47
690.78	2908.97
691.187	2979.93
691.593	3014
692	3039.57
692.407	3094.96
692.813	3169.22
693.22	3217.28
693.626	3266.37
694.032	3290.38
694.439	3354.84
694.845	3391.99
695.251	3451.79
695.657	3496.76
696.063	3594.56
696.469	3649.03
696.875	3695.12
697.281	3694.38
697.687	3706.54
698.093	3708.16
698.498	3762.42
698.904	3794.43
699.31	3866
699.715	3899.8
700.12	3973.71
700.526	3949.91
700.931	3993.68
701.337	4013.77
701.742	4012.63
702.147	4078.82
702.552	4076.09
702.957	4111.78
703.362	4096.76
703.767	4096.57
704.172	4109.79
704.577	4016.91
704.981	4041.11
705.386	4028.03
705.791	3989.18
706.195	4048.34
706.6	4028.32
707.004	4091.14
707.408	4026.61
707.813	4030.36
708.217	3988.99
708.621	3966.69
709.025	4050.74
709.43	4021.83
709.834	4065.59
710.237	4118.17
710.641	4076.84
711.045	4077.99
711.449	4049.33
711.853	4056.29
712.256	4078.32
712.66	4096.22
713.064	4153.89
713.467	4175.82
713.87	4275.05
714.274	4299.73
714.677	4392.07
715.08	4539.96
715.484	4691.65
715.887	4880.54
716.29	5064.46
716.693	5255.75
717.096	5476.28
717.499	5587.45
717.901	5593.74
718.304	5601.28
718.707	5606.03
719.109	5487.25
719.512	5436.91
719.915	5285.41
720.317	5207.5
720.719	5234.97
721.122	5189.37
721.524	5126.76
721.926	5071.38
722.328	5150.04
722.731	5127.47
723.133	5142.9
723.535	5311.1
723.937	5315.93
724.338	5349.93
724.74	5379.04
725.142	5309.85
725.544	5296.81
725.945	5308.7
726.347	5294.81
726.748	5282.21
727.15	5284.06
727.551	5237.13
727.952	5202.6
728.354	5167.72
728.755	5161.11
729.156	5112.97
729.557	5089.01
729.958	4969.45
730.359	4910.53
730.76	4886.56
731.161	4821.7
731.562	4791.95
731.962	4790.53
732.363	4724.1
732.763	4658.94
733.164	4690.02
733.564	4623.64
733.965	4532.84
734.365	4493.51
734.766	4515.45
735.166	4474.5
735.566	4421.56
735.966	4394.25
736.366	4384.97
736.766	4327.77
737.166	4350.87
737.566	4307.33
737.966	4280.11
738.365	4311.32
738.765	4306.69
739.165	4234.47
739.564	4206.6
739.964	4244.65
740.363	4199.68
740.763	4194.19
741.162	4180.78
741.561	4152.6
741.96	4108.27
742.36	4124.69
742.759	4129.02
743.158	4159.91
743.557	4172.66
743.955	4207.44
744.354	4164.19
744.753	4213.79
745.152	4173.93
745.55	4218.86
745.949	4211.55
746.348	4210.82
746.746	4222.76
747.144	4183.06
747.543	4162.2
747.941	4204.39
748.339	4140.45
748.737	4133.74
749.136	4125.05
749.534	4182.88
749.932	4159.4
750.33	4177.18
750.727	4225.06
751.125	4204.79
751.523	4190.12
751.921	4227.6
752.318	4197.44
752.716	4249.66
753.113	4259.9
753.511	4280.81
753.908	4280.06
754.305	4266.1
754.703	4319.48
755.1	4374.46
755.497	4425.85
755.894	4593.99
756.291	4750.3
756.688	5042.39
757.085	5429.16
757.482	5976.54
757.878	6574.34
758.275	7113.77
758.672	7855.7
759.068	8464.09
759.465	9323.85
759.861	10435.24
760.258	11719.01
760.654	12384
761.05	12277.62
761.447	11716.43
761.843	10904.72
762.239	10063.93
762.635	9681.7
763.031	9310.4
763.427	8785.87
763.822	8236.31
764.218	7693.73
764.614	6992.8
765.01	6521.09
765.405	6214.57
765.801	5983.65
766.196	5689.15
766.592	5524.29
766.987	5248.09
767.382	5062.15
767.778	4982.81
768.173	4869.91
768.568	4806.17
768.963	4696.87
769.358	4712.37
769.753	4673.38
770.148	4598.33
770.542	4596.24
770.937	4568.33
771.332	4648.05
771.726	4664.93
772.121	4609.63
772.515	4658.64
772.91	4645.68
773.304	4708.59
773.699	4651.96
774.093	4698.86
774.487	4747.69
774.881	4787.53
775.275	4787.05
775.669	4750.72
776.063	4791.03
776.457	4822.55
776.851	4755.18
777.245	4748.37
777.638	4776.71
778.032	4878.43
778.425	4846.09
778.819	4886.47
779.212	4846.45
779.606	4810.46
779.999	4826.93
780.392	4809.57
780.786	4884.13
781.179	4902.89
781.572	4940.98
781.965	4952.07
782.358	4901.72
782.751	4952.58
783.143	4908.89
783.536	4978.26
783.929	5014.19
784.322	5116.6
784.714	5143.97
785.107	5137.11
785.499	5198.63
785.891	5178.16
786.284	5163.53
786.676	5286.87
787.068	5270.54
787.46	5315.22
787.852	5330.66
788.245	5405.23
788.636	5430.25
789.028	5491.58
789.42	5528.67
789.812	5538.56
790.204	5625.78
790.595	5711.95
790.987	5537.89
791.378	5557
791.77	5671.98
792.161	5786.64
792.553	5837.98
792.944	5739.4
793.335	5679.44
793.726	5744.36
794.117	5822.59
794.508	5941.99
794.899	5916.53
795.29	6040.11
795.681	6089.64
796.072	5961.5
796.463	5802.17
796.853	5809
797.244	5945.73
797.634	5977.41
798.025	5976.21
798.415	5983.37
798.806	6058.32
799.196	6132.84
799.586	6178.96
799.976	6144.92
800.366	6347.05
800.756	6557.4
801.146	6521.33
801.536	6546.23
801.926	6606.23
802.316	6626.69
802.706	6691.47
803.095	6587.62
803.485	6673.23
803.874	6710.01
804.264	6937.97
804.653	6914.48
805.043	7042.3
805.432	7137.93
805.821	7143.46
806.21	7163.73
806.599	7267.49
806.988	7311.79
807.377	7401.24
807.766	7517.66
808.155	7763.53
808.544	7532.56
808.933	7546.17
809.321	7525.38
809.71	7788.19
810.098	7926.4
810.487	8329.72
810.875	8746.08
811.264	8758.5
811.652	9016.64
812.04	9145.01
812.428	9287.01
812.816	9954.43
813.204	10320.92
813.592	10804.81
813.98	11099
814.368	11016.07
814.756	11434.02
815.144	11367.95
815.531	11780.54
815.919	11715.4
816.306	11982.7
816.694	11713.72
817.081	11760.67
817.469	12065.23
817.856	12066.82
818.243	12297.56
818.63	12647.82
819.017	12284.71
819.404	12338.65
819.791	12669.54
820.178	13204.27
820.565	13426.12
820.952	14246.5
821.339	13812.03
821.725	13972.89
822.112	13321.14
822.498	13291.71
822.885	13394.05
823.271	13312.29
823.657	13682.52
824.044	13694.09
824.43	13761.34
824.816	13730.87
825.202	13349.84
825.588	14238.18
825.974	14255.03
826.36	14707.36
826.746	14734.7
827.132	15054.76
827.517	15036.31
827.903	14351.1
828.289	14387.81
828.674	13701.8
829.06	13610.9
829.445	13962.22
829.83	14284.44
830.216	14702.07
830.601	15021.14
830.986	14664.42
831.371	14548.17
831.756	15028.85
832.141	14657.37
832.526	14647.72
832.911	14900.63
833.295	14801.02
833.68	15210.55
834.065	14660.91
834.449	13861.34
834.834	13796.47
835.218	13792.22
835.603	14088.62
835.987	13905.29
836.371	14627.03
836.755	14534.48
837.139	14885.69
837.524	15093.55
837.908	14938.24
838.291	14991.5
838.675	15052.19
839.059	15230.93
839.443	15217.55
839.827	15012.5
840.21	15432.56
840.594	15303.74
840.977	15488.14
841.361	15474.87
841.744	15803.55
842.127	15670.21
842.511	15893.1
842.894	16416.75
843.277	16755.17
843.66	17239.86
844.043	17314.38
844.426	16610.02
844.809	16343.76
845.191	16373.7
845.574	15960.39
845.957	15643.83
846.339	15541.63
846.722	15073.52
847.104	15127.71
847.487	14973.14
847.869	14977.5
848.252	15217.71
848.634	15504.95
849.016	15729.96
849.398	15834.54
849.78	16578.88
850.162	16583.15
850.544	16947.63
850.926	17500.03
851.307	17421.06
851.689	17672.35
852.071	18067.45
852.452	18354.5
852.834	18339.2
853.215	18683.81
853.597	18824.22
853.978	19088.32
854.359	19485.19
854.741	18608.61
855.122	18530.97
855.503	18288.11
855.884	18401.98
856.265	18354.87
856.646	18461.55
857.026	18111.64
857.407	18057.58
857.788	18199.05
858.169	18449.92
858.549	17704.2
858.93	18254.36
859.31	18294.68
859.69	18465.6
860.071	18114.26
860.451	17911.61
860.831	17255.61
861.211	18273.87
861.591	18748.81
861.971	18716.48
862.351	18881.11
862.731	19217.45
863.111	19446.35
863.491	19726.57
863.87	20491.29
864.25	20785.73
864.629	20444.8
865.009	20889.09
865.388	21632.77
865.768	23186.28
866.147	23093.36
866.526	21802.22
866.905	22059.28
867.284	23300.02
867.663	22128.74
868.042	21219.58
868.421	21163.69
868.8	21522.38
869.179	21738.58
869.558	20462.55
869.936	18863.12
870.315	19202.26
870.693	19682.16
871.072	21223.72
871.45	20210.89
871.828	20467.93
872.207	21510.2
872.585	21176.31
872.963	21737.9
873.341	20990.27
873.719	20746.94
874.097	20496.32
874.475	20881.67
874.853	21355.37
875.23	20467.87
875.608	21323.32
875.986	23060.46
876.363	22052.14
876.741	22720.33
877.118	22158.73
877.495	23242.77
877.873	23626.27
878.25	24851.97
878.627	23834.09
879.004	24169.2
879.381	24053.88
879.758	23421.95
880.135	21791.58
880.512	23035.68
880.889	22422.46
881.265	22185.09
881.642	21998.58
882.019	22366.07
882.395	21904.96
882.772	22781.52
883.148	21800.87
883.524	21708.56
883.901	21580.75
884.277	21907.27
884.653	21778.69
885.029	22405.86
885.405	24812.79
885.781	24624.41
886.157	23624.42
886.532	23915.56
886.908	23892.89
887.284	26550.92
887.659	27423.48
888.035	28287.64
888.411	29022.62
888.786	29389.12
889.161	30407.95
889.537	29849.63
889.912	30798.71
890.287	30746.5
890.662	31544.81
891.037	30984.49
891.412	28893.96
891.787	28600.01
892.162	27607.98
892.536	28240.88
892.911	27182.06
893.286	26606.53
893.66	25525.69
894.035	26182.39
894.409	28522.34
894.784	27373.85
895.158	27827.95
895.532	29480.22
895.906	30302.81
896.281	31005.42
896.655	30518.6
897.029	34880.26
897.402	36330.9
897.776	40459.13
898.15	40325.3
898.524	39878.06
898.898	40406.39
899.271	45227.45
899.645	39165.08
900.018	37610.38
900.392	39001.59
900.765	39319.44
901.138	36389.36
901.511	35816.71
901.884	32863.57
902.258	30295.44
902.631	31302.71
903.003	36008.41
903.376	32480.34
903.749	36428.77
904.122	38981.16
904.495	42910.07
904.867	43464.86
905.24	37722.43
905.612	35132.5
905.985	35942.63
906.357	37581.61
906.729	35882.92
907.102	30665.14
907.474	29475.33
907.846	29640.22
908.218	29236
908.59	25835.01
908.962	24989.36
909.334	26918.63
909.705	28269.46
910.077	27437.7
910.449	28559.76
910.82	29347.4
911.192	32287.62
911.563	33567.45
911.935	35918.4
912.306	35963.08
912.677	37121.57
913.048	36721.42
913.419	39831.26
913.79	40052.07
914.161	42939.92
914.532	41035.32
914.903	37713.5
915.274	35824.7
915.645	35284.98
916.015	31059.58
916.386	29619.89
916.756	31528.5
917.127	32526.95
917.497	29062.36
917.868	31635.01
918.238	30072.42
918.608	30925.64
918.978	31540.28
919.348	33390.98
919.718	34521.24
920.088	33263.7
920.458	34549.69
920.828	36353.92
921.198	34443.44
921.567	36803.16
921.937	28496.99
922.306	28742.19
922.676	31004.19
923.045	25888.08
923.415	24585.94
923.784	22367.4
924.153	22996.43
924.522	22974.73
924.891	21595.09
925.26	23134.45
925.629	22565.44
925.998	25951.08
926.367	25342.7
926.736	24124.36
927.104	28722.14
927.473	30868.66
927.842	37303.25
928.21	36913.17
928.578	38799.59
928.947	36685.1
929.315	36929.32
929.683	43307.59
930.051	43630.93
930.42	50690.61
930.788	43368.14
931.156	43048.5
931.523	40363.11
931.891	37273.41
932.259	35821.58
932.627	41490.72
932.994	58694.31
933.362	48484.64
933.729	42094.98
934.097	40262.4
934.464	34023.95
934.831	39215.04
935.199	38628.81
935.566	37444.44
935.933	38037.75
936.3	46066.56
936.667	35868.39
937.034	32348.22
937.401	32008.08
937.767	27638.71
938.134	24630.41
938.501	34772.13
938.867	37112.96
939.234	62782.76
939.6	53587.9
939.967	58849.21
940.333	39390.05
940.699	33569.53
941.065	26944.52
941.431	35307.06
941.798	34063.2
942.163	44716.37
942.529	27932.12
942.895	25691.51
943.261	16627.13
943.627	21814.57
943.992	19115.67
944.358	19158.07
944.723	19218.06
945.089	18748.35
945.454	17330.69
945.82	18500.53
946.185	17762.99
946.55	20588.08
946.915	18463.46
947.28	21637.5
947.645	19054.79
948.01	17595.73
948.375	18347.41
948.74	21974.64
949.104	25614.97
949.469	36980.78
949.834	65342.76
950.198	62006.62
950.562	37123.97
950.927	30906.83
951.291	37185.79
951.655	31658.97
952.02	29721.69
952.384	22440.69
952.748	19551.44
953.112	19060.12
953.476	16583.33
953.839	15332.71
954.203	15168.74
954.567	18986.98
954.931	29917.62
955.294	25602.52
955.658	25733.53
956.021	43726.21
956.385	74211.01
956.748	109465.67
957.111	169805.74
957.474	190301.68
957.837	214210.59
958.2	162096.05
958.563	58312.7
958.926	39406.79
959.289	59715.77
959.652	66776.21
960.015	50157.23
960.377	72000.59
960.74	82186.9
961.102	141930.89
961.465	152609.19
961.827	81805.49
962.189	156894.83
962.552	108815.11
962.914	87196.7
963.276	56631.59
963.638	46800.22
964	46330.01
964.362	31315.97
964.724	30251.95
965.085	21569.05
965.447	17685.71
965.809	20148.62
966.17	20182.51
966.532	21816.7
966.893	20040.4
967.255	18239.76
967.616	21524.49
967.977	17216.66
968.338	18787.51
968.699	15445.91
969.061	15430.99
969.421	15514.43
969.782	17405.85
970.143	14705.28
970.504	15221.47
970.865	17285.31
971.225	17673.11
971.586	17291.29
971.946	24657.61
972.307	21417.78
972.667	27959.88
973.027	28826.15
973.388	34999.39
973.748	23807.68
974.108	25912.92
974.468	35065.29
974.828	27070.79
975.188	20834.27
975.548	19137.32
975.907	16070.67
976.267	18039.6
976.627	15188.07
976.986	15734.97
977.346	14978.22
977.705	14406.84
978.064	13135.74
978.424	10937.24
978.783	11300.14
979.142	12887.95
979.501	12327.84
979.86	13030.5
980.219	12520.58
980.578	16116.16
980.937	18015.98
981.296	16050.71
981.654	16513.09
982.013	25669.23
982.371	33306.86
982.73	31050.58
983.088	35110.73
983.447	37518.53
983.805	53672.45
984.163	112324.27
984.521	124895.71
984.879	183407.48
985.237	-298277.98
985.595	287462.5
985.953	71447.22
986.311	41232.58
986.669	23952.57
987.026	20714.78
987.384	27864.88
987.741	28765.7
988.099	20586.54
988.456	16386.56
988.814	15327.07
989.171	13360.43
989.528	13198.67
989.885	13922.9
990.242	11024.88
990.599	13759.15
990.956	11246.73
991.313	7854.99
991.67	6447.99
992.027	6845.96
992.383	6084.25
992.74	5344.67
993.096	5602.77
993.453	5802.68
993.809	6018.86
994.165	8022.85
994.522	7360.63
994.878	8115.29
995.234	10183.28
995.59	10035.62
995.946	9463.51
996.302	10818.5
996.658	12498.78
997.013	13752.2
997.369	16318.44
997.725	20889.24
998.08	13538.13
998.436	20827.36
998.791	28735.04
999.147	28756.66
999.502	31398.2
999.857	22876.21
1000.212	37189.91
1000.567	52976.31
1000.922	30538.49
1001.277	19386.96
1001.632	14375.54
1001.987	18529.78
1002.342	13285.9
1002.696	10619.24
1003.051	8471.96
1003.406	10278.98
1003.76	10203.65
1004.114	10062.33
1004.469	8476
1004.823	7033.53
1005.177	7568.83
1005.531	6010.07
1005.885	5331.03
1006.239	6020.57
1006.593	7552.02
1006.947	10106.69
1007.301	7592.89
1007.655	8278.33
1008.008	6081.64
1008.362	6814.04
1008.715	9733.33
1009.069	8850.09
1009.422	13287.95
1009.776	26551.28
1010.129	17594.32
1010.482	14728.24
1010.835	12396.47
1011.188	25699.85
1011.541	24184.02
1011.894	-148098.13
1012.247	437140.01
1012.6	29792.69
1012.952	18866.81
1013.305	9730.85
1013.657	7048.9
1014.01	6681.13
1014.362	5504.61
1014.715	4899.6
1015.067	4282.15
1015.419	4190.6
1015.771	3712.13
1016.123	3294.6
1016.475	3375.8
1016.827	3593.25
1017.179	3869.45
1017.531	3908.59
1017.883	4000.31
1018.234	3857.84
1018.586	4868.25
1018.938	5153.22
1019.289	7105.2
1019.64	8119.63
1019.992	7563.37
1020.343	6917.89
1020.694	5468
1021.045	4820.9
1021.396	5496.22
1021.747	5873.32
1022.098	7062.39
1022.449	5143.46
1022.8	4774.17
1023.151	3347.99
1023.501	2972.73
1023.852	3225.67
1024.202	3333.08
1024.553	3664.55
1024.903	3593.95
1025.253	3065.75
1025.604	2779.48
1025.954	3448.67
1026.304	4202.36
1026.654	4881.32
1027.004	7148.95
1027.354	11548.48
1027.703	10854.49
1028.053	14362.96
1028.403	20995.23
1028.753	30320.94
1029.102	41295.18
1029.452	211485.62
1029.801	9146.12
1030.15	5904.48
1030.499	5027.77
897.758	2541.48
901.051	2497.81
904.343	2530.67
907.636	2532.42
910.928	2596.56
914.22	2509.05
917.511	2515.45
920.803	2575.9
924.094	2587.77
927.384	2572.96
930.675	2538.17
933.965	2495.45
937.255	2506.01
940.544	2472.12
943.834	2431.45
947.123	2370.9
950.411	2463.96
953.7	2438.12
956.988	2410.93
960.276	2352.96
963.563	2426.38
966.851	2424.97
970.138	2476.99
973.424	2471.29
976.711	2424.48
979.997	2532.95
983.283	2571.88
986.568	2482.6
989.853	2496.16
993.138	2520.39
996.423	2602.87
999.708	2543.89
1002.992	2597
1006.275	2457.09
1009.559	2490.18
1012.842	2599.64
1016.125	2534.03
1019.408	2516.51
1022.69	2595.5
1025.972	2614.37
1029.254	2592.45
1032.536	2529.91
1035.817	2553.78
1039.098	2505.15
1042.379	2623.08
1045.659	2631.66
1048.939	2568.23
1052.219	2586.24
1055.498	2591.82
1058.778	2581.58
1062.057	2562.78
1065.335	2582.87
1068.614	2600.31
1071.892	2586.09
1075.17	2658.46
1078.447	2648.07
1081.724	2640.59
1085.001	2674.92
1088.278	2649.3
1091.554	2662.24
1094.83	2655.87
1098.106	2687.51
1101.382	2727.42
1104.657	2730.66
1107.932	2724.99
1111.206	2690.27
1114.481	2648.58
1117.755	2650.42
1121.029	2632.77
1124.302	2687.07
1127.575	2641.6
1130.848	2632.56
1134.121	2594.32
1137.393	2546.92
1140.665	2610.56
1143.937	2585.46
1147.208	2544.43
1150.48	2587.77
1153.75	2572.41
1157.021	2600.25
1160.291	2571.57
1163.561	2616.96
1166.831	2601.78
1170.101	2630.9
1173.37	2604.79
1176.639	2550.94
1179.907	2608.2
1183.176	2615.16
1186.444	2621.75
1189.711	2650.18
1192.979	2660.62
1196.246	2617.73
1199.513	2633.41
1202.78	2632.29
1206.046	2641.48
1209.312	2665.5
1212.578	2688.56
1215.843	2646.29
1219.108	2618.95
1222.373	2643.38
1225.638	2608.97
1228.902	2596.84
1232.166	2562.24
1235.43	2545.51
1238.693	2568.91
1241.956	2567.06
1245.219	2608.71
1248.482	2597.3
1251.744	2589.9
1255.006	2734.97
1258.268	2687.14
1261.529	2635.06
1264.79	2637.51
1268.051	2740.5
1271.312	2755.57
1274.572	2719.89
1277.832	2707.48
1281.092	2699.01
1284.351	2676.25
1287.61	2657.4
1290.869	2576.49
1294.128	2557.43
1297.386	2638.31
1300.644	2628.92
1303.902	2639.3
1307.159	2501.42
1310.416	2555.92
1313.673	2582.23
1316.93	2565.72
1320.186	2608.66
1323.442	2650.48
1326.697	2643.6
1329.953	2630.07
1333.208	2653.52
1336.463	2632.16
1339.717	2575.14
1342.972	2704.35
1346.226	2680.39
1349.479	2615.66
1352.733	2590.99
1355.986	2611.59
1359.238	2587.8
1362.491	2588.3
1365.743	2592.23
1368.995	2588.47
1372.247	2603.64
1375.498	2626.2
1378.749	2646.3
1382	2602.85
1385.251	2653.02
1388.501	2614.52
1391.751	2600.59
1395	2571.76
1398.25	2606.51
1401.499	2618.5
1404.748	2549.43
1407.996	2535.94
1411.244	2523.75
1414.492	2504.72
1417.74	2484.33
1420.987	2491.58
1424.234	2546.77
1427.481	2524.47
1430.728	2583.01
1433.974	2556.7
1437.22	2566.61
1440.465	2566.11
1443.711	2538.33
1446.956	2571.64
1450.201	2554.97
1453.445	2599.59
1456.689	2579.34
1459.933	2592.19
1463.177	2623.14
1466.42	2597.25
1469.663	2574.95
1472.906	2572.28
1476.148	2634.81
1479.391	2616.91
1482.633	2579.94
1485.874	2593.48
1489.115	2582.71
1492.356	2585.78
1495.597	2559.87
1498.838	2563.31
1502.078	2533.74
1505.318	2490.05
1508.557	2531.28
1511.797	2516.88
1515.036	2565.48
1518.274	2559.57
1521.513	2526.66
1524.751	2546.47
1527.989	2560.61
1531.227	2575.62
1534.464	2573.25
1537.701	2585.56
1540.938	2603.4
1544.174	2555.33
1547.41	2552.66
1550.646	2588.24
1553.882	2627.07
1557.117	2682.66
1560.352	2694.31
1563.587	2652.31
1566.821	2613.85
1570.055	2643.73
1573.289	2618.35
1576.523	2689.67
1579.756	2697.6
1582.989	2715.34
1586.222	2676.79
1589.454	2708.91
1592.686	2683.39
1595.918	2708.93
1599.15	2699.37
1602.381	2767.41
1605.612	2727.85
1608.843	2821.53
1612.073	2736.52
1615.303	2722.96
1618.533	2718.13
1621.762	2716.05
1624.992	2704.23
1628.221	2694.18
1631.449	2680.31
1634.678	2731.25
1637.906	2688.69
1641.134	2725.32
1644.361	2684.31
1647.588	2672.95
1650.815	2688.83
1654.042	2665.66
1657.269	2696.82
1660.495	2652.82
1663.72	2671.53
1666.946	2635.75
1670.171	2587.39
1673.396	2563.05
1676.621	2550.24
1679.845	2564.29
1683.069	2579.64
1686.293	2619.77
1689.517	2596.68
1692.74	2534.36
1695.963	2561.27
1699.185	2579.29
1702.408	2556.91
1705.63	2593.19
1708.852	2604.31
1712.073	2580.44
1715.294	2571.76
1718.515	2630.78
1721.736	2579
1724.956	2569
1728.176	2593.02
1731.396	2616.17
1734.616	2602.96
1737.835	2631.58
1741.054	2611.83
1744.272	2604.46
1747.491	2632.38
1750.709	2679.87
1753.927	2596.01
1757.144	2636.35
1760.361	2680.63
1763.578	2669.5
1766.795	2614.95
1770.011	2617.41
1773.227	2654.08
1776.443	2691.73
1779.658	2735.65
1782.874	2676.66
1786.089	2657.17
1789.303	2658.41
1792.518	2666.22
1795.732	2652.48
1798.945	2663.9
1802.159	2711.41
1805.372	2623.73
1808.585	2608.9
1811.797	2607.78
1815.01	2653.45
1818.222	2661.77
1821.434	2643.28
1824.645	2700.49
1827.856	2688.71
1831.067	2722.91
1834.278	2676.73
1837.488	2660.01
1840.698	2803.48
1843.908	2734.83
1847.117	2697.6
1850.326	2593.24
1853.535	2685.73
1856.744	2702.9
1859.952	2617.91
1863.16	2621.84
1866.368	2641.85
1869.575	2745.33
1872.782	2635.73
1875.989	2572.05
1879.196	2647.38
1882.402	2641.01
1885.608	2680.21
1888.814	2593.83
1892.019	2496.2
1895.224	2548.83
1898.429	2526.49
1901.634	2506.81
1904.838	2482.72
1908.042	2531.03
1911.246	2543.09
1914.449	2483.05
1917.652	2477.6
1920.855	2460.01
1924.058	2501.77
1927.26	2538.41
1930.462	2565.93
1933.664	2596.24
1936.865	2536.46
1940.066	2545.98
1943.267	2493.33
1946.467	2505.51
1949.668	2530.44
1952.868	2598.88
1956.067	2578.85
1959.267	2515.47
1962.466	2541.08
1965.665	2525.88
1968.863	2520.33
1972.061	2531.56
1975.259	2530.54
1978.457	2607.57
1981.654	2566.78
1984.852	2568.02
1988.048	2504.72
1991.245	2505.46
1994.441	2588.95
1997.637	2566.91
2000.833	2545.77
2004.028	2584.16
2007.223	2642.93
2010.418	2624.65
2013.613	2581.62
2016.807	2557.39
2020.001	2563.68
2023.194	2599.1
2026.388	2576.31
2029.581	2522.3
2032.774	2575.59
2035.966	2584.57
2039.158	2518.75
2042.35	2540.61
2045.542	2468.01
2048.733	2565.7
2051.924	2580.7
2055.115	2604.73
2058.306	2555.79
2061.496	2612.49
2064.686	2674.83
2067.875	2585.21
2071.065	2597.65
2074.254	2622.42
2077.442	2576.39
2080.631	2663.67
2083.819	2564.43
2087.007	2548.55
2090.195	2523.25
2093.382	2553.84
2096.569	2535.67
2099.756	2488.66
2102.942	2521.32
2106.128	2526.42
2109.314	2517.94
2112.5	2486.63
2115.685	2459.65
2118.87	2469.87
2122.055	2535.9
2125.239	2503.59
2128.424	2482.43
2131.608	2574.78
2134.791	2559.24
2137.974	2610.52
2141.157	2598.42
2144.34	2555.82
2147.523	2563.58
2150.705	2579.76
2153.887	2558.56
2157.068	2512.1
2160.25	2509.27
2163.431	2541.16
2166.611	2492.99
2169.792	2510.56
2172.972	2409.08
2176.152	2479.71
2179.331	2513.04
2182.511	2499.27
2185.69	2530.19
2188.868	2523.76
2192.047	2572.62
2195.225	2568.9
2198.403	2520.47
2201.58	2511.7
2204.758	2506.56
2207.935	2590.45
2211.111	2482.59
2214.288	2466.88
2217.464	2507.34
2220.64	2471.61
2223.815	2525.25
2226.991	2451.67
2230.166	2471.07
2233.34	2504.96
2236.515	2523.92
2239.689	2592.06
2242.863	2538.65
2246.036	2596.81
2249.209	2592.54
2252.382	2620.37
2255.555	2617.64
2258.727	2558.83
2261.9	2594.2
2265.071	2586.16
2268.243	2587.38
2271.414	2524.77
2274.585	2492.85
2277.756	2555.71
2280.926	2511.11
2284.096	2549.84
2287.266	2462.73
2290.436	2512.31
2293.605	2538.51
2296.774	2572.61
2299.942	2588.22
2303.111	2604.74
2306.279	2656.33
2309.447	2640.99
2312.614	2617.39
2315.781	2639.21
2318.948	2610.55
2322.115	2649.89
2325.281	2553.56
2328.447	2572.03
2331.613	2544.31
2334.779	2523.04
2337.944	2522.84
2341.109	2520.02
2344.274	2504.6
2347.438	2470.36
2350.602	2497.49
2353.766	2512.2
2356.929	2499.24
2360.092	2537.98
2363.255	2493.34
2366.418	2436.23
2369.58	2537.94
2372.742	2346.43
2375.904	2358.5
2379.066	2336.59
2382.227	2368.29
2385.388	2328.75
2388.548	2259.78
2391.709	2311.11
2394.869	2294.57
2398.029	2381.72
2401.188	2390.04
2404.347	2332.56
2407.506	2458.13
2410.665	2488.58
2413.823	2490.56
2416.981	2452.73
2420.139	2479.95
2423.296	2530.07
2426.453	2501.24
2429.61	2524.81
2432.767	2468.41
2435.923	2506.08
2439.079	2466
2442.235	2512.45
2445.391	2441.01
2448.546	2474.08
2451.701	2520.29
2454.855	2499.02
2458.009	2543.56
2461.163	2544.87
2464.317	2505.25
2467.471	2537.7
2470.624	2574.96
2473.777	2548.89
2476.929	2561.94
2480.082	2588.76
2483.234	2553.93
2486.385	2502.8
2489.537	2496.12
2492.688	2464.1
2495.839	2482.98
2498.989	2495.02
2502.14	2479.69
2505.29	2464.97
2508.439	2488.89
2511.589	2417.08
2514.738	2424.91
2517.887	2455.24
2521.035	2524.65
2524.183	2499.9
2527.331	2481.32
2530.479	2458.78
2533.627	2466.88
