Data from C_2_DEC_OH_4N_Splice17_12-05-07-427.txt Node
Date: Sat Mar 14 12:05:07 EDT 2020
User: sa697716
Spectrometer: FLMS03696
Trigger mode: 0
Integration Time (sec): 3.180400E-1
Scans to average: 20
Electric dark correction enabled: true
Nonlinearity correction enabled: true
Boxcar width: 5
XAxis mode: Wavelengths
Number of Pixels in Spectrum: 2048
>>>>>Begin Spectral Data<<<<<
187.83	-173863.9
188.298	1444.87
188.766	779.75
189.233	764.05
189.701	1051.86
190.169	1454.68
190.636	515.01
191.104	396.14
191.571	49.04
192.039	-91.04
192.506	-101.11
192.974	464.2
193.441	-616.89
193.908	-189.05
194.375	-17.93
194.842	16.46
195.31	67.07
195.777	148.08
196.244	315.75
196.711	369.77
197.177	465.21
197.644	631.42
198.111	1103.53
198.578	1552.09
199.045	1241.99
199.511	2039.74
199.978	2347.8
200.445	1979.86
200.911	2177.08
201.378	2424.81
201.844	2216.39
202.31	3719.94
202.777	3887.65
203.243	2138.68
203.709	2028.2
204.176	2398.69
204.642	1977.12
205.108	1865.04
205.574	1533.92
206.04	1391
206.506	1312.35
206.972	1236.87
207.438	1207.05
207.903	1363.53
208.369	1197.61
208.835	1186.71
209.301	1236.68
209.766	1253.03
210.232	1232.39
210.697	1515.23
211.163	1856.98
211.628	2737.84
212.094	2305.4
212.559	2838.94
213.024	1772.25
213.49	2170.15
213.955	2140.47
214.42	2091.34
214.885	1960.66
215.35	1867.22
215.815	1806.46
216.28	1902.74
216.745	1558.84
217.21	1667.07
217.675	1493.02
218.14	1634.57
218.604	1788.06
219.069	1998.74
219.534	2075.01
219.998	2370.49
220.463	2854.96
220.927	3435.14
221.392	3200.72
221.856	3209.91
222.32	4008.44
222.785	4950.91
223.249	6234.24
223.713	6939.57
224.177	6918.07
224.642	8819.75
225.106	10804.6
225.57	11755
226.034	8786.18
226.497	13418.64
226.961	12118.52
227.425	14118.3
227.889	15609.67
228.353	15564.15
228.816	32068.26
229.28	30617.36
229.744	25854.38
230.207	15721.73
230.671	15452.36
231.134	25423.57
231.597	29247.47
232.061	29151.45
232.524	28298.53
232.987	19509.69
233.45	17580.32
233.914	15742.27
234.377	16110.16
234.84	14728.78
235.303	17380.66
235.766	19405.76
236.229	20047.37
236.691	12600.87
237.154	14168.95
237.617	10684.5
238.08	10930.12
238.542	12783.59
239.005	9161.36
239.468	9101.45
239.93	8577.37
240.393	7795.44
240.855	6849.57
241.317	7000.95
241.78	8532.04
242.242	8825.6
242.704	9551.86
243.166	8328.68
243.629	7598.98
244.091	8754.31
244.553	9597.22
245.015	10355.8
245.477	13389.09
245.939	19578.79
246.4	20854.01
246.862	20273.53
247.324	19175.01
247.786	21446.32
248.247	28087.73
248.709	28888.41
249.17	21657.72
249.632	20514.97
250.093	23774.03
250.555	20572.83
251.016	12604.01
251.477	11947.13
251.939	12916.11
252.4	13529.45
252.861	16106.83
253.322	15015.34
253.783	17887.29
254.244	23166.2
254.705	18241.4
255.166	16223.42
255.627	15991.84
256.088	22621.33
256.549	24102.05
257.009	20756.23
257.47	25250.61
257.931	20575.09
258.391	15434.43
258.852	15923
259.312	16744.8
259.773	20720.88
260.233	17574.31
260.694	14844.21
261.154	16820.43
261.614	13537.56
262.074	12133.02
262.534	12614.96
262.994	11909.96
263.455	15891.79
263.915	13416.39
264.374	12649.25
264.834	13837.53
265.294	15321.3
265.754	15923.21
266.214	15091.73
266.673	14162.83
267.133	17918.25
267.593	17808.13
268.052	21851.11
268.512	19020.9
268.971	23047.04
269.431	25316.75
269.89	22690.15
270.349	34091.21
270.809	38060.02
271.268	34260.31
271.727	76963.92
272.186	49900.36
272.645	37515.38
273.104	27048.94
273.563	39265.05
274.022	30817.38
274.481	26280.23
274.94	20282.1
275.399	15111.26
275.857	17606.3
276.316	23875.59
276.775	21243.21
277.233	20945.33
277.692	19643.58
278.15	22289.32
278.609	23007.61
279.067	21371.34
279.525	19885.82
279.984	25709.7
280.442	30880.58
280.9	30513.84
281.358	20095.93
281.816	18784.3
282.274	18427.7
282.732	19042.13
283.19	19149.85
283.648	16515.76
284.106	17570.89
284.564	17887.09
285.021	16589.2
285.479	12392.01
285.937	11267.66
286.394	9908.65
286.852	10192.96
287.309	10712.34
287.767	10374.59
288.224	9893.67
288.682	10877.88
289.139	11985.76
289.596	10964.26
290.053	11410.77
290.511	14405.73
290.968	17498.08
291.425	23776.25
291.882	19865.64
292.339	17350.76
292.796	17228.69
293.252	16220.57
293.709	12916.1
294.166	11567.2
294.623	12842.72
295.079	12334.22
295.536	12421.06
295.992	11284.76
296.449	11159.38
296.905	11599.6
297.362	11124.28
297.818	11698.95
298.274	12156.56
298.731	12368.61
299.187	12283.37
299.643	13159.78
300.099	15947.48
300.555	17500.24
301.011	14634.55
301.467	14145.64
301.923	16557.81
302.379	16176.49
302.835	15913.36
303.291	15960.81
303.746	18197.63
304.202	22997.24
304.658	23098.65
305.113	15551.5
305.569	15268.17
306.024	16296.36
306.479	15498.01
306.935	13084.68
307.39	14297.9
307.845	13226.32
308.301	13322.97
308.756	12967.4
309.211	12489.95
309.666	12814.82
310.121	15932.28
310.576	16145.14
311.031	16019.82
311.486	18360.49
311.94	18355.46
312.395	24592.41
312.85	46156.18
313.305	226597.17
313.759	1176468.77
314.214	85407.65
314.668	67871.95
315.123	57184.82
315.577	20564.85
316.032	18325.13
316.486	23020.85
316.94	18169.41
317.394	12656.47
317.849	9859.4
318.303	9342.98
318.757	8832.12
319.211	9745.13
319.665	8527.71
320.119	8625.91
320.572	12352.73
321.026	11546.91
321.48	9610.68
321.934	10490.59
322.387	10532.81
322.841	11395.65
323.295	10281.63
323.748	11840.47
324.202	12049.81
324.655	14518.92
325.108	20347.75
325.562	14447.88
326.015	17200.75
326.468	12990.93
326.921	14545.43
327.374	13566.32
327.827	14109.3
328.28	15931.55
328.733	10691.96
329.186	9410.9
329.639	8958.39
330.092	7548
330.545	7185.31
330.997	7259.8
331.45	7955.24
331.903	9345.25
332.355	16066.82
332.808	15647.25
333.26	12950
333.713	14065.01
334.165	14184.45
334.617	18943.99
335.069	15305.52
335.522	27617.91
335.974	30558.48
336.426	27920.55
336.878	19288.9
337.33	9806.95
337.782	9592.64
338.234	12019.54
338.686	14384.66
339.137	17042.11
339.589	16033.98
340.041	12571.64
340.493	10834.27
340.944	11083.1
341.396	11958.14
341.847	10083.68
342.299	11896.08
342.75	14515.94
343.201	12664.22
343.653	14553.15
344.104	17869.13
344.555	14070.5
345.006	21896.68
345.457	16792.79
345.908	13379.48
346.359	12599.14
346.81	10256.27
347.261	10833.22
347.712	10663.28
348.163	11439.62
348.613	11628.38
349.064	10877.47
349.515	9553.17
349.965	9806.53
350.416	11810.82
350.866	12943.18
351.317	14612.02
351.767	24228.85
352.217	30542.63
352.668	25448.74
353.118	23373.08
353.568	22508.39
354.018	17816.74
354.468	18792.3
354.918	13504.43
355.368	11809.1
355.818	16729.28
356.268	48125.93
356.718	202577.85
357.168	50546.12
357.617	25288.23
358.067	28113.16
358.517	26339.17
358.966	30962.61
359.416	34772.08
359.865	37590.01
360.315	44817.94
360.764	20936.03
361.213	11760.22
361.663	11093.32
362.112	13677.19
362.561	22090.55
363.01	16683.17
363.459	14045.5
363.908	15124.74
364.357	12837.16
364.806	21638.4
365.255	14867.42
365.703	13602.61
366.152	13623.36
366.601	11040.18
367.05	8979.5
367.498	8191.46
367.947	8543.55
368.395	8886.91
368.844	7897.24
369.292	9511.81
369.74	6575.48
370.189	10067.81
370.637	11794.65
371.085	10165.99
371.533	12363.73
371.981	11901.86
372.429	11316.48
372.877	11762.78
373.325	9852.2
373.773	10041.14
374.221	8940.34
374.669	11082.21
375.116	9571.5
375.564	9675.82
376.012	10785.3
376.459	8905.31
376.907	10637.87
377.354	12898.44
377.801	12068.15
378.249	13866.92
378.696	17682.53
379.143	21422.51
379.591	22807.84
380.038	38654.42
380.485	27873.79
380.932	30185.73
381.379	27606.51
381.826	20298.07
382.273	14393.05
382.72	12566.92
383.166	12264.67
383.613	7962.5
384.06	7170.16
384.506	8304.39
384.953	6094.59
385.4	6132.99
385.846	5375.89
386.292	5232.59
386.739	5113
387.185	5048.58
387.631	5053.26
388.078	4904.04
388.524	5253.21
388.97	4853.76
389.416	4061.92
389.862	4316.37
390.308	4107
390.754	4162.4
391.2	4522.96
391.645	4645.38
392.091	4461.18
392.537	4321.78
392.983	4324.78
393.428	4264.07
393.874	4571.26
394.319	4583.95
394.765	4364.71
395.21	4478.26
395.655	4207.16
396.101	3954.91
396.546	3575.72
396.991	3606.85
397.436	3358.45
397.881	3257.46
398.326	3083.96
398.771	2928.97
399.216	2563.34
399.661	2308.2
400.106	2306.28
400.551	2372.57
400.995	2122.35
401.44	2103.15
401.885	1981.61
402.329	2001.93
402.774	1921.29
403.218	1867.31
403.663	1800.09
404.107	1856.94
404.551	1876.37
404.995	1722.86
405.44	1659.04
405.884	1686.99
406.328	1631.71
406.772	1626.66
407.216	1483.38
407.66	1432.93
408.104	1359.85
408.547	1273.7
408.991	1233.74
409.435	1187
409.879	1171.75
410.322	1158.84
410.766	1123.18
411.209	1072.61
411.653	1033.06
412.096	1014.86
412.54	1018.44
412.983	1013.83
413.426	1022.31
413.869	1022.08
414.312	1006.12
414.756	971.95
415.199	926.97
415.642	901.27
416.085	902.81
416.527	897.1
416.97	909
417.413	862.74
417.856	854.58
418.298	843.85
418.741	838.56
419.184	835.81
419.626	871.72
420.069	877.58
420.511	884.01
420.953	866.48
421.396	858.75
421.838	839.29
422.28	858.51
422.722	865
423.164	878.51
423.606	866.97
424.048	865.94
424.49	822.83
424.932	815.6
425.374	804.51
425.816	816.22
426.258	829.6
426.699	837.59
427.141	829.32
427.582	839.03
428.024	834.24
428.465	826.55
428.907	807.02
429.348	796.3
429.789	796.32
430.231	780.35
430.672	793.06
431.113	776.66
431.554	766.77
431.995	744.65
432.436	718.65
432.877	702.27
433.318	691
433.759	686.48
434.2	685.08
434.64	678.71
435.081	678.27
435.522	641.51
435.962	616.66
436.403	603.16
436.843	608.83
437.284	594.6
437.724	577.25
438.164	576.65
438.604	564.95
439.045	544.25
439.485	522.37
439.925	512.78
440.365	499.3
440.805	493.28
441.245	487.37
441.685	470.64
442.125	467.19
442.564	469.13
443.004	458.71
443.444	455.58
443.883	455.72
444.323	449.14
444.762	446.79
445.202	451.3
445.641	458.52
446.081	453.45
446.52	456.13
446.959	450.72
447.398	440.5
447.837	435.24
448.276	427.09
448.716	430.92
449.154	434.22
449.593	424.63
450.032	423.74
450.471	414.15
450.91	413.08
451.349	413.23
451.787	411.34
452.226	416.48
452.664	416.69
453.103	416.44
453.541	414.41
453.98	414.31
454.418	417.01
454.856	410.9
455.295	410.4
455.733	413.12
456.171	414.86
456.609	416.37
457.047	416.55
457.485	422.73
457.923	423.85
458.361	417.68
458.798	418.78
459.236	418.09
459.674	420.17
460.111	422.74
460.549	420.46
460.987	417.25
461.424	414.17
461.862	412.91
462.299	406.52
462.736	407.71
463.173	410.93
463.611	408.73
464.048	408.73
464.485	413.55
464.922	410
465.359	407.71
465.796	407.45
466.233	406.24
466.67	404.38
467.106	405.66
467.543	400.06
467.98	394.17
468.416	383.25
468.853	379.75
469.29	367.09
469.726	363.5
470.162	354.4
470.599	347.49
471.035	343.65
471.471	333.84
471.907	329.37
472.344	328.99
472.78	330.68
473.216	334.67
473.652	330.63
474.088	329.66
474.523	329.07
474.959	331.71
475.395	327.76
475.831	326.68
476.266	328.49
476.702	327.52
477.138	323.41
477.573	322.03
478.008	320.54
478.444	322.08
478.879	326.41
479.314	326.61
479.75	326.82
480.185	328.07
480.62	329.97
481.055	331.27
481.49	334.59
481.925	340.01
482.36	347.15
482.795	356.68
483.229	366.19
483.664	373.08
484.099	375.45
484.534	380.82
484.968	385.84
485.403	387.09
485.837	386.86
486.271	386.83
486.706	387.19
487.14	381.64
487.574	376.36
488.009	373.43
488.443	370.08
488.877	374.51
489.311	376.51
489.745	380.99
490.179	385.17
490.613	393.57
491.046	396.01
491.48	399.53
491.914	401.13
492.348	404.4
492.781	407.58
493.215	410.01
493.648	411.07
494.082	415
494.515	416.77
494.948	422.92
495.382	426.79
495.815	431.37
496.248	436.13
496.681	445.23
497.114	453.6
497.547	461.59
497.98	471.53
498.413	477.43
498.846	486.02
499.279	492.85
499.711	496.87
500.144	499.59
500.577	508.74
501.009	517.47
501.442	526.76
501.874	530.09
502.306	534.03
502.739	542.11
503.171	554.42
503.603	558.6
504.036	567.25
504.468	574.02
504.9	584.6
505.332	591.5
505.764	597.21
506.196	603.61
506.627	616.5
507.059	628.09
507.491	636.13
507.923	638.08
508.354	651.24
508.786	661.95
509.217	677.69
509.649	691.73
510.08	707.5
510.512	722.96
510.943	737.46
511.374	748.57
511.805	766.09
512.237	783.67
512.668	809.71
513.099	831.83
513.53	853.73
513.961	871.67
514.391	896.63
514.822	924.49
515.253	953.46
515.684	974
516.114	997.61
516.545	1015.18
516.975	1035.54
517.406	1050.42
517.836	1054.88
518.267	1062.06
518.697	1077.32
519.127	1083.39
519.558	1089.35
519.988	1093.6
520.418	1103.66
520.848	1117.97
521.278	1126.25
521.708	1149.69
522.138	1161.4
522.567	1185.86
522.997	1206.18
523.427	1219.76
523.857	1233.65
524.286	1243.41
524.716	1256.08
525.145	1271.33
525.575	1281.81
526.004	1294.07
526.433	1282.64
526.863	1282.97
527.292	1276.83
527.721	1282.59
528.15	1286.5
528.579	1287.48
529.008	1296.61
529.437	1313.93
529.866	1324.9
530.295	1338.43
530.724	1348.2
531.152	1369.61
531.581	1381.79
532.01	1396.16
532.438	1403.01
532.867	1416.27
533.295	1431.7
533.723	1437.45
534.152	1438.2
534.58	1438.89
535.008	1427.27
535.436	1430.02
535.865	1436.55
536.293	1448.65
536.721	1461.28
537.149	1482.46
537.576	1485.35
538.004	1495.82
538.432	1502.47
538.86	1501.44
539.287	1507.87
539.715	1520.42
540.143	1523.13
540.57	1521.71
540.998	1518.77
541.425	1501.83
541.852	1485.05
542.28	1482.99
542.707	1471.14
543.134	1460.49
543.561	1457.6
543.988	1452.29
544.415	1451.7
544.842	1447.84
545.269	1441.55
545.696	1444.31
546.123	1454.81
546.549	1446.33
546.976	1437.02
547.403	1436.58
547.829	1438.06
548.256	1439.33
548.682	1437.29
549.108	1430.87
549.535	1430.4
549.961	1432.18
550.387	1420.79
550.813	1415.67
551.24	1421.57
551.666	1422.02
552.092	1414.28
552.518	1409.72
552.943	1405
553.369	1408.93
553.795	1413.36
554.221	1413.79
554.646	1411.3
555.072	1419.54
555.498	1423.84
555.923	1432.15
556.349	1444.42
556.774	1450.69
557.199	1451.61
557.625	1456.13
558.05	1452.07
558.475	1459.46
558.9	1458.35
559.325	1451.92
559.75	1447.56
560.175	1441.75
560.6	1434.98
561.025	1432.33
561.449	1433.34
561.874	1436.93
562.299	1440.04
562.723	1446.12
563.148	1439.42
563.572	1442.22
563.997	1448.79
564.421	1453.11
564.846	1453.54
565.27	1456.67
565.694	1455.25
566.118	1464.05
566.542	1470.21
566.966	1465.04
567.39	1460.78
567.814	1451.51
568.238	1451.98
568.662	1456.77
569.086	1458.27
569.509	1464.67
569.933	1453.31
570.357	1447.92
570.78	1431.46
571.204	1421.15
571.627	1413.31
572.05	1412.34
572.474	1411.97
572.897	1401.82
573.32	1395.47
573.743	1387.49
574.166	1373.14
574.589	1372.47
575.012	1366.17
575.435	1364.45
575.858	1356.4
576.281	1347.16
576.704	1334.49
577.126	1324.43
577.549	1316.09
577.972	1308.11
578.394	1299.6
578.817	1293.14
579.239	1277.56
579.661	1266.75
580.084	1255.1
580.506	1245.45
580.928	1241.69
581.35	1232.47
581.772	1229.35
582.194	1218.02
582.616	1207.29
583.038	1194.45
583.46	1185.11
583.882	1182.26
584.303	1183.82
584.725	1179.11
585.147	1181.72
585.568	1188.94
585.99	1197.39
586.411	1201.56
586.833	1212.3
587.254	1213.75
587.675	1226.21
588.096	1236.52
588.518	1231.87
588.939	1219.84
589.36	1218.33
589.781	1208.04
590.202	1186.63
590.623	1179.59
591.043	1177.7
591.464	1168.19
591.885	1164.89
592.305	1159.75
592.726	1148.94
593.147	1150.88
593.567	1146.25
593.987	1141.14
594.408	1136.78
594.828	1135.01
595.248	1130.39
595.669	1115.89
596.089	1109.64
596.509	1104.2
596.929	1093.57
597.349	1094.05
597.769	1085.72
598.189	1081.05
598.608	1081.68
599.028	1083.52
599.448	1083.2
599.867	1073.68
600.287	1070.3
600.706	1068.28
601.126	1060.68
601.545	1059.86
601.965	1058.23
602.384	1053.76
602.803	1054.92
603.222	1050.34
603.641	1044.55
604.061	1041.63
604.48	1038.07
604.898	1043.66
605.317	1045.61
605.736	1046.94
606.155	1044.07
606.574	1036.44
606.992	1039.42
607.411	1035.73
607.829	1028.92
608.248	1025.12
608.666	1022.68
609.085	1021.12
609.503	1014
609.921	1009.46
610.339	1010.38
610.758	1008.7
611.176	1004.9
611.594	997.86
612.012	994.91
612.43	997.95
612.847	1002.49
613.265	1003.21
613.683	1006.67
614.101	1007.64
614.518	1004.07
614.936	996.49
615.353	985.93
615.771	984.13
616.188	983.4
616.606	979.29
617.023	972.4
617.44	961.83
617.857	954.51
618.274	947.13
618.691	941
619.108	933.33
619.525	928.17
619.942	932.73
620.359	933.1
620.776	929.68
621.192	928.77
621.609	927.35
622.026	931.33
622.442	935.79
622.859	938.34
623.275	933.95
623.691	938.35
624.108	946.56
624.524	957.36
624.94	957.39
625.356	964.5
625.772	972.46
626.188	980.85
626.604	981.82
627.02	979.26
627.436	978.02
627.852	984.25
628.268	993.84
628.683	988.3
629.099	981.87
629.514	977.92
629.93	980.02
630.345	983.97
630.761	980.76
631.176	984.88
631.591	981.12
632.007	976.87
632.422	974.12
632.837	964.65
633.252	961.97
633.667	954.48
634.082	949.05
634.497	940.25
634.911	925.39
635.326	922.65
635.741	909.3
636.155	901.43
636.57	901.13
636.984	900.54
637.399	901.04
637.813	899.47
638.228	896.84
638.642	897.82
639.056	888.79
639.47	886.64
639.884	878.65
640.298	871.81
640.712	868.88
641.126	857.44
641.54	848.63
641.954	842.34
642.368	831.05
642.781	824.68
643.195	809.82
643.609	807.84
644.022	801.74
644.436	797.03
644.849	786.27
645.262	774.71
645.676	774.18
646.089	768.64
646.502	756.52
646.915	751
647.328	736.3
647.741	733.1
648.154	722.8
648.567	720.02
648.98	709.73
649.393	708.39
649.805	705.57
650.218	700.14
650.631	688.2
651.043	683.09
651.456	678.01
651.868	676.95
652.28	687.2
652.693	695
653.105	697.68
653.517	702.03
653.929	700.72
654.341	703.5
654.753	692.97
655.165	695.48
655.577	692.39
655.989	687.96
656.401	680.76
656.813	657.34
657.224	642.15
657.636	620.95
658.047	608.2
658.459	594.81
658.87	586.87
659.282	577.77
659.693	563.42
660.104	552.44
660.515	541.95
660.926	538.91
661.338	534.34
661.749	528.12
662.159	521.71
662.57	516.12
662.981	510.8
663.392	505.12
663.803	505.77
664.213	501.75
664.624	496.85
665.035	496.94
665.445	486.85
665.855	481.45
666.266	476.24
666.676	473.61
667.086	468.74
667.497	467.87
667.907	463.02
668.317	456.89
668.727	457.17
669.137	457
669.547	454.76
669.956	456.18
670.366	455.85
670.776	456.87
671.186	458.59
671.595	459.21
672.005	460.59
672.414	461.17
672.824	461.14
673.233	461.24
673.642	462.11
674.052	463.79
674.461	466.17
674.87	469.7
675.279	468.35
675.688	468.65
676.097	470.38
676.506	469.29
676.915	477.26
677.323	479.25
677.732	478.46
678.141	479.21
678.549	474.58
678.958	473.88
679.366	472.83
679.775	476.19
680.183	484.88
680.592	490.21
681	494.85
681.408	492.18
681.816	497.95
682.224	505.38
682.632	514.96
683.04	536.01
683.448	554.43
683.856	578.01
684.264	604.51
684.671	628.51
685.079	657.47
685.487	691.05
685.894	736.72
686.302	775.28
686.709	810.19
687.116	848.35
687.524	881.77
687.931	912.77
688.338	941.27
688.745	964.97
689.152	992.68
689.559	1030.45
689.966	1067.3
690.373	1087.48
690.78	1123.03
691.187	1174.03
691.593	1214.24
692	1249.71
692.407	1300.46
692.813	1362.45
693.22	1413.18
693.626	1464
694.032	1503.91
694.439	1564.55
694.845	1613.73
695.251	1673.24
695.657	1726.32
696.063	1806.04
696.469	1866.95
696.875	1921.55
697.281	1952.33
697.687	1991.79
698.093	2025.86
698.498	2087.73
698.904	2134.46
699.31	2204.32
699.715	2255.25
700.12	2330.81
700.526	2345.66
700.931	2400.67
701.337	2444
701.742	2471.27
702.147	2536.53
702.552	2560.26
702.957	2607.87
703.362	2622.99
703.767	2647.9
704.172	2681.51
704.577	2640.64
704.981	2678.89
705.386	2691.9
705.791	2685.26
706.195	2745.93
706.6	2753.56
707.004	2815.39
707.408	2788.69
707.813	2810.2
708.217	2799.16
708.621	2798.77
709.025	2877.5
709.43	2876.95
709.834	2923.53
710.237	2977.82
710.641	2963.95
711.045	2978.93
711.449	2974.5
711.853	2998.41
712.256	3031.8
712.66	3059.42
713.064	3117.14
713.467	3147.6
713.87	3236
714.274	3272.07
714.677	3356.67
715.08	3481.95
715.484	3616.23
715.887	3776.17
716.29	3931.34
716.693	4092.84
717.096	4279.8
717.499	4381.61
717.901	4400.19
718.304	4418.65
718.707	4435.22
719.109	4353.74
719.512	4329.04
719.915	4221.3
720.317	4173.13
720.719	4205.72
721.122	4181.57
721.524	4144.34
721.926	4111.29
722.328	4188.01
722.731	4179.35
723.133	4200.07
723.535	4350.96
723.937	4364.21
724.338	4401.76
724.74	4432.3
725.142	4394.17
725.544	4390.46
725.945	4409.53
726.347	4404.53
726.748	4400.66
727.15	4411.81
727.551	4382.46
727.952	4356.97
728.354	4335.14
728.755	4335.22
729.156	4302.06
729.557	4278.04
729.958	4183.45
730.359	4135.94
730.76	4122.36
731.161	4073.86
731.562	4053.01
731.962	4052.08
732.363	4003.53
732.763	3952.25
733.164	3981.91
733.564	3931.81
733.965	3860.02
734.365	3834.13
734.766	3858.21
735.166	3826.91
735.566	3783.43
735.966	3763.61
736.366	3762.77
736.766	3714.74
737.166	3737.66
737.566	3703.4
737.966	3681.69
738.365	3711.01
738.765	3704.15
739.165	3645.27
739.564	3624.43
739.964	3659.21
740.363	3621.81
740.763	3619.12
741.162	3609.18
741.561	3585.87
741.96	3549.4
742.36	3565.13
742.759	3568.32
743.158	3599.03
743.557	3611.01
743.955	3642.64
744.354	3606.11
744.753	3650.3
745.152	3617.66
745.55	3660.21
745.949	3654.87
746.348	3656.68
746.746	3669.79
747.144	3639.4
747.543	3622.1
747.941	3658.06
748.339	3603.43
748.737	3598.75
749.136	3592.37
749.534	3641.91
749.932	3620.73
750.33	3638.19
750.727	3682.37
751.125	3661.28
751.523	3648.95
751.921	3682.33
752.318	3656.75
752.716	3701.66
753.113	3711.78
753.511	3731.91
753.908	3733.26
754.305	3720.9
754.703	3768.87
755.1	3814.93
755.497	3862.07
755.894	4007.64
756.291	4144.13
756.688	4396.53
757.085	4732.8
757.482	5206.88
757.878	5721.98
758.275	6186.68
758.672	6828.87
759.068	7353.9
759.465	8100.3
759.861	9065.85
760.258	10186.46
760.654	10769.64
761.05	10688.41
761.447	10204.6
761.843	9499.71
762.239	8776.55
762.635	8448.67
763.031	8136.5
763.427	7676.09
763.822	7196.34
764.218	6722.64
764.614	6109.96
765.01	5696.8
765.405	5429.86
765.801	5229.69
766.196	4974.39
766.592	4830.86
766.987	4590.17
767.382	4424.04
767.778	4357.75
768.173	4257.08
768.568	4203.31
768.963	4107.12
769.358	4123.56
769.753	4087.38
770.148	4021.26
770.542	4020.33
770.937	3996.28
771.332	4064.66
771.726	4081.48
772.121	4034.55
772.515	4076.41
772.91	4064.88
773.304	4118.9
773.699	4065.89
774.093	4107.51
774.487	4150.43
774.881	4185.57
775.275	4183.52
775.669	4152.56
776.063	4184.28
776.457	4209.63
776.851	4155.88
777.245	4148.93
777.638	4174.49
778.032	4264.75
778.425	4236.66
778.819	4271.19
779.212	4236.74
779.606	4203.88
779.999	4219.57
780.392	4206.79
780.786	4268.71
781.179	4282.71
781.572	4317.2
781.965	4326.47
782.358	4281.94
782.751	4325.4
783.143	4288.36
783.536	4347.54
783.929	4380.35
784.322	4469.08
784.714	4492.58
785.107	4489.63
785.499	4545.08
785.891	4526.05
786.284	4510.75
786.676	4617.92
787.068	4602.73
787.46	4641.82
787.852	4654.93
788.245	4723.11
788.636	4745.93
789.028	4798.43
789.42	4829.19
789.812	4836.75
790.204	4911.67
790.595	4989.4
790.987	4841.59
791.378	4861.91
791.77	4960.54
792.161	5059.12
792.553	5100.24
792.944	5012.75
793.335	4963.67
793.726	5022.64
794.117	5092.98
794.508	5198.48
794.899	5174.23
795.29	5279.86
795.681	5320.69
796.072	5210.47
796.463	5074.6
796.853	5080.62
797.244	5200.32
797.634	5223.28
798.025	5218.86
798.415	5226.25
798.806	5294.25
799.196	5359.52
799.586	5400.2
799.976	5369.08
800.366	5543.68
800.756	5722.4
801.146	5690.43
801.536	5710.73
801.926	5762.5
802.316	5784.33
802.706	5835.27
803.095	5740.03
803.485	5817.88
803.874	5844.04
804.264	6044.87
804.653	6024.91
805.043	6137.29
805.432	6222.64
805.821	6224.6
806.21	6243.59
806.599	6332.38
806.988	6365.08
807.377	6448.79
807.766	6545.99
808.155	6763.62
808.544	6562.04
808.933	6575.63
809.321	6560.83
809.71	6785.66
810.098	6905.8
810.487	7254.26
810.875	7622.1
811.264	7641.05
811.652	7860.23
812.04	7970.53
812.428	8093.85
812.816	8669.75
813.204	8983.06
813.592	9397.36
813.98	9650.34
814.368	9578.05
814.756	9939.78
815.144	9871.59
815.531	10229.42
815.919	10169.35
816.306	10403.46
816.694	10166.78
817.081	10210.98
817.469	10477.99
817.856	10477.82
818.243	10673.27
818.63	10969.75
819.017	10657.92
819.404	10708.53
819.791	10992.74
820.178	11455.47
820.565	11643.2
820.952	12355.57
821.339	11981.38
821.725	12113.34
822.112	11547.93
822.498	11525.18
822.885	11623.55
823.271	11545.96
823.657	11861.34
824.044	11867.27
824.43	11918.95
824.816	11893.89
825.202	11557.85
825.588	12334.49
825.974	12349.65
826.36	12742.74
826.746	12765.24
827.132	13034.74
827.517	13015.33
827.903	12423.73
828.289	12452.2
828.674	11869.08
829.06	11786.57
829.445	12090.45
829.83	12356.66
830.216	12722.97
830.601	12999.43
830.986	12692.74
831.371	12592.5
831.756	13019.73
832.141	12695.58
832.526	12698.19
832.911	12913.02
833.295	12826.42
833.68	13174.19
834.065	12704.09
834.449	12006.88
834.834	11953.24
835.218	11959.47
835.603	12217.3
835.987	12056.13
836.371	12687.07
836.755	12599.49
837.139	12900.08
837.524	13085.44
837.908	12957.3
838.291	13002.6
838.675	13059.53
839.059	13223.54
839.443	13207.13
839.827	13040.65
840.21	13413.83
840.594	13310.9
840.977	13475.32
841.361	13463.94
841.744	13756.75
842.127	13643.25
842.511	13839.81
842.894	14290.27
843.277	14578.92
843.66	14992.55
844.043	15051.91
844.426	14437.45
844.809	14191.1
845.191	14216.96
845.574	13871.95
845.957	13591.99
846.339	13512.22
846.722	13104.22
847.104	13157.38
847.487	13024.35
847.869	13038.66
848.252	13253.31
848.634	13498.94
849.016	13698.73
849.398	13796.39
849.78	14440
850.162	14447.01
850.544	14767.56
850.926	15249.68
851.307	15180.85
851.689	15396.73
852.071	15736.37
852.452	15983.03
852.834	15970.88
853.215	16272.55
853.597	16378.79
853.978	16605.83
854.359	16952.22
854.741	16192.78
855.122	16121.96
855.503	15902.82
855.884	15998.8
856.265	15950.19
856.646	16042
857.026	15742.26
857.407	15696.98
857.788	15825.7
858.169	16042.32
858.549	15407.59
858.93	15878.1
859.31	15907.25
859.69	16066.81
860.071	15762.45
860.451	15601.01
860.831	15023.46
861.211	15905.26
861.591	16320.77
861.971	16297.94
862.351	16446.47
862.731	16734.75
863.111	16926.03
863.491	17180.04
863.87	17845.09
864.25	18106.42
864.629	17806.24
865.009	18195.58
865.388	18832.88
865.768	20180.33
866.147	20099.91
866.526	18988.36
866.905	19197.69
867.284	20280.03
867.663	19257.22
868.042	18465.29
868.421	18406.95
868.8	18702.02
869.179	18888.64
869.558	17793.75
869.936	16404.86
870.315	16696.74
870.693	17099.65
871.072	18439.19
871.45	17563.21
871.828	17788.46
872.207	18694.43
872.585	18411.4
872.963	18920.13
873.341	18274.51
873.719	18064.94
874.097	17845.14
874.475	18189.01
874.853	18597.69
875.23	17824.85
875.608	18575.49
875.986	20084
876.363	19206.88
876.741	19796.97
877.118	19300.18
877.495	20241.45
877.873	20567.55
878.25	21648.54
878.627	20754.83
879.004	21062.43
879.381	20959.55
879.758	20415.81
880.135	19009.49
880.512	20095.66
880.889	19561.68
881.265	19350.63
881.642	19195.76
882.019	19525.2
882.395	19131.52
882.772	19891.08
883.148	19023.23
883.524	18949.51
883.901	18835.84
884.277	19115.84
884.653	19004.68
885.029	19554.96
885.405	21666.47
885.781	21501.14
886.157	20620.84
886.532	20864.26
886.908	20856.15
887.284	23193.48
887.659	23960.52
888.035	24705.95
888.411	25358.44
888.786	25693.31
889.161	26584.37
889.537	26098.42
889.912	26947.28
890.287	26918.15
890.662	27610.09
891.037	27123.93
891.412	25283.19
891.787	25025.57
892.162	24162.28
892.536	24730.85
892.911	23799.07
893.286	23292.08
893.66	22347.09
894.035	22909.92
894.409	24943.3
894.784	23942.22
895.158	24328.09
895.532	25781.73
895.906	26485.52
896.281	27088.35
896.655	26635.58
897.029	30431.39
897.402	31695.55
897.776	35277.92
898.15	35139.51
898.524	34766.81
898.898	35206.42
899.271	39416.15
899.645	34116.71
900.018	32763.03
900.392	33994.61
900.765	34297.49
901.138	31743.84
901.511	31255.01
901.884	28702.74
902.258	26487.45
902.631	27380.43
903.003	31533.89
903.376	28468.61
903.749	31935.71
904.122	34191.73
904.495	37644.29
904.867	38099.08
905.24	33070.13
905.612	30776.58
905.985	31463.26
906.357	32887.44
906.729	31377.79
907.102	26801.46
907.474	25758.33
907.846	25915.69
908.218	25575.28
908.59	22590.54
908.962	21838.21
909.334	23520.69
909.705	24719.99
910.077	24016.35
910.449	25000.71
910.82	25702.98
911.192	28287.61
911.563	29399.98
911.935	31479.93
912.306	31522.03
912.677	32536.96
913.048	32241.84
913.419	34988.15
913.79	35178.57
914.161	37697.52
914.532	36035.23
914.903	33095.67
915.274	31417.39
915.645	30945.94
916.015	27207.15
916.386	25943.48
916.756	27631.8
917.127	28493.71
917.497	25451.3
917.868	27691.45
918.238	26336.11
918.608	27071.93
918.978	27653.48
919.348	29295.71
919.718	30266.06
920.088	29170.06
920.458	30305.43
920.828	31870.39
921.198	30205.01
921.567	32285.28
921.937	25016.46
922.306	25240.6
922.676	27233.84
923.045	22708.42
923.415	21576.57
923.784	19662.72
924.153	20211.73
924.522	20202.39
924.891	19002.45
925.26	20355.8
925.629	19859.97
925.998	22833.93
926.367	22285.99
926.736	21238.81
927.104	25290.38
927.473	27159.52
927.842	32782.54
928.21	32467.87
928.578	34119.12
928.947	32261.04
929.315	32445.29
929.683	38060.53
930.051	38332.72
930.42	44495.23
930.788	37987.52
931.156	37734.16
931.523	35403.78
931.891	32714.76
932.259	31450.06
932.627	36430.96
932.994	51568.73
933.362	42613.77
933.729	37022.78
934.097	35453.45
934.464	29999.51
934.831	34634.38
935.199	34118.78
935.566	33094.15
935.933	33624.72
936.3	40724.77
936.667	31714.36
937.034	28604.23
937.401	28316.5
937.767	24441.5
938.134	21767.19
938.501	30736.38
938.867	32778.99
939.234	55473.09
939.6	47295.13
939.967	51944.64
940.333	34770.93
940.699	29586.49
941.065	23761.52
941.431	31171.99
941.798	30056.63
942.163	39480.6
942.529	24642.61
942.895	22682.33
943.261	14667.17
943.627	19236.27
943.992	16847.53
944.358	16874.2
944.723	16952.67
945.089	16515.1
945.454	15255.11
945.82	16276.32
946.185	15650
946.55	18156.43
946.915	16280.98
947.28	19096.08
947.645	16848.56
948.01	15557.76
948.375	16209.35
948.74	19408.38
949.104	22625.15
949.469	32648.61
949.834	57710.19
950.198	54693.4
950.562	32737.65
950.927	27274.47
951.291	32810.69
951.655	27930.27
952.02	26192.99
952.384	19818.54
952.748	17248.61
953.112	16829.33
953.476	14627.26
953.839	13531.45
954.203	13392.65
954.567	16754.24
954.931	26381.06
955.294	22579.58
955.658	22709.39
956.021	38616.12
956.385	65377.82
956.748	96589.88
957.111	149785.01
957.474	168286.25
957.837	189357.5
958.2	143338.28
958.563	51597.99
958.926	34896.5
959.289	52882.84
959.652	59009.46
960.015	44287.73
960.377	63557.56
960.74	72550.77
961.102	125064.78
961.465	134229.18
961.827	71959.45
962.189	137976.22
962.552	95657.39
962.914	76712.41
963.276	49812.33
963.638	41221.44
964	40824.12
964.362	27656.53
964.724	26719.25
965.085	19063.77
965.447	15636.66
965.809	17809.73
966.17	17837.9
966.532	19275.49
966.893	17675.3
967.255	16077.83
967.616	18955.46
967.977	15191.46
968.338	16552.22
968.699	13613.4
969.061	13620.9
969.421	13716.01
969.782	15393.9
970.143	12997.28
970.504	13479.62
970.865	15314.42
971.225	15663.38
971.586	15334.03
971.946	21848
972.307	18985.8
972.667	24787.59
973.027	25550.96
973.388	30964.17
973.748	21044.12
974.108	22940.63
974.468	31023.58
974.828	23956.78
975.188	18426.09
975.548	16910.32
975.907	14191.88
976.267	15912.51
976.627	13372.87
976.986	13847.32
977.346	13214.36
977.705	12738.89
978.064	11582.85
978.424	9632.93
978.783	9964.16
979.142	11386.63
979.501	10908.32
979.86	11524.5
980.219	11108.52
980.578	14348.52
980.937	16070.63
981.296	14304.1
981.654	14692.42
982.013	22875.01
982.371	29707.62
982.73	27716.07
983.088	31343.62
983.447	33502.03
983.805	47961.68
984.163	100193.03
984.521	111109.71
984.879	162903.74
985.237	-265301.48
985.595	255819.36
985.953	63629.62
986.311	36737.19
986.669	21302.72
987.026	18391.78
987.384	24720.67
987.741	25521.03
988.099	18253.07
988.456	14529.25
988.814	13618.83
989.171	11839.22
989.528	11684.1
989.885	12329.05
990.242	9773.19
990.599	12185.69
990.956	9985.78
991.313	6988.95
991.67	5745.32
992.027	6098.26
992.383	5420.85
992.74	4744.91
993.096	4969.48
993.453	5145.02
993.809	5338.41
994.165	7117.95
994.522	6519.65
994.878	7174.28
995.234	8996.19
995.59	8876.74
995.946	8384.86
996.302	9584.01
996.658	11111.83
997.013	12264.25
997.369	14580.18
997.725	18635.08
998.08	12057.01
998.436	18611.63
998.791	25707.93
999.147	25674.21
999.502	27994.38
999.857	20362.82
1000.212	33124.49
1000.567	47161.48
1000.922	27225.82
1001.277	17283.53
1001.632	12850.65
1001.987	16536.03
1002.342	11884.17
1002.696	9517.68
1003.051	7596.17
1003.406	9198.67
1003.76	9149.13
1004.114	9025.19
1004.469	7576
1004.823	6272.74
1005.177	6762.13
1005.531	5347.84
1005.885	4750.8
1006.239	5352.05
1006.593	6704.22
1006.947	8983.08
1007.301	6738.55
1007.655	7352.36
1008.008	5407.91
1008.362	6073.46
1008.715	8679.31
1009.069	7884.27
1009.422	11890.5
1009.776	23836.2
1010.129	15809.17
1010.482	13185.05
1010.835	11112.61
1011.188	23213.5
1011.541	21870.87
1011.894	-133771.88
1012.247	393525.29
1012.6	26690.58
1012.952	16852.01
1013.305	8672.07
1013.657	6272
1014.01	5923.59
1014.362	4903.24
1014.715	4350.47
1015.067	3778.38
1015.419	3690.31
1015.771	3261.25
1016.123	2909.87
1016.475	2990.25
1016.827	3183.36
1017.179	3421.58
1017.531	3435.07
1017.883	3513.43
1018.234	3388.07
1018.586	4284.42
1018.938	4560.59
1019.289	6282.76
1019.64	7217.75
1019.992	6715.35
1020.343	6152.36
1020.694	4889.9
1021.045	4327.69
1021.396	4919.86
1021.747	5293.72
1022.098	6343.86
1022.449	4618.71
1022.8	4282.6
1023.151	2995.25
1023.501	2650.41
1023.852	2889.39
1024.202	2997.69
1024.553	3271.88
1024.903	3192.68
1025.253	2754.27
1025.604	2485.54
1025.954	3078.5
1026.304	3763.21
1026.654	4365.55
1027.004	6403.16
1027.354	10317.61
1027.703	9595.54
1028.053	12679.47
1028.403	18641.55
1028.753	27004.99
1029.102	36396.39
1029.452	185094.99
1029.801	7960.21
1030.15	5102.89
1030.499	4311.87
897.758	2224.84
901.051	2156.45
904.343	2190.37
907.636	2198.49
910.928	2261.94
914.22	2178.65
917.511	2181.41
920.803	2233.36
924.094	2230.39
927.384	2234.25
930.675	2198.08
933.965	2160.72
937.255	2190.21
940.544	2158.08
943.834	2156.92
947.123	2095.79
950.411	2186.79
953.7	2167.52
956.988	2150.37
960.276	2086.49
963.563	2136.07
966.851	2145.57
970.138	2186.18
973.424	2189.53
976.711	2141.93
979.997	2190.92
983.283	2235.04
986.568	2164.39
989.853	2155.94
993.138	2182.84
996.423	2269.21
999.708	2226.61
1002.992	2257.21
1006.275	2171.98
1009.559	2177.06
1012.842	2274.92
1016.125	2226.06
1019.408	2205.08
1022.69	2263.38
1025.972	2298.28
1029.254	2270.61
1032.536	2231.03
1035.817	2239.65
1039.098	2210.33
1042.379	2260.68
1045.659	2287.3
1048.939	2236.53
1052.219	2243.2
1055.498	2237.28
1058.778	2233.01
1062.057	2206.75
1065.335	2231.33
1068.614	2244.02
1071.892	2241.14
1075.17	2292.94
1078.447	2296.98
1081.724	2290.82
1085.001	2317.31
1088.278	2296.05
1091.554	2300.92
1094.83	2294.05
1098.106	2329.84
1101.382	2362.45
1104.657	2358.97
1107.932	2360.17
1111.206	2337.98
1114.481	2288.37
1117.755	2288.24
1121.029	2280.53
1124.302	2340.32
1127.575	2305.59
1130.848	2303.37
1134.121	2273.85
1137.393	2233.07
1140.665	2294.23
1143.937	2270.8
1147.208	2218.68
1150.48	2278.21
1153.75	2266.21
1157.021	2269.5
1160.291	2245.69
1163.561	2298.79
1166.831	2265.52
1170.101	2292.22
1173.37	2254.19
1176.639	2209.96
1179.907	2254.1
1183.176	2278.12
1186.444	2275.86
1189.711	2302.15
1192.979	2325.25
1196.246	2282.22
1199.513	2294.34
1202.78	2302.07
1206.046	2309.67
1209.312	2337.4
1212.578	2355.31
1215.843	2322
1219.108	2287.81
1222.373	2315.41
1225.638	2287.38
1228.902	2280.66
1232.166	2235.89
1235.43	2225.13
1238.693	2250.51
1241.956	2242.33
1245.219	2289.69
1248.482	2272.37
1251.744	2271.64
1255.006	2396.76
1258.268	2343.26
1261.529	2299.82
1264.79	2297.78
1268.051	2397.49
1271.312	2405.37
1274.572	2375.47
1277.832	2363.63
1281.092	2343.26
1284.351	2333.64
1287.61	2317.14
1290.869	2248.46
1294.128	2246.32
1297.386	2294.72
1300.644	2289.33
1303.902	2299.18
1307.159	2170.81
1310.416	2220.06
1313.673	2247.65
1316.93	2248.34
1320.186	2280.54
1323.442	2315.27
1326.697	2316.63
1329.953	2289.5
1333.208	2326.42
1336.463	2296.46
1339.717	2256.17
1342.972	2362
1346.226	2337.79
1349.479	2286.27
1352.733	2264.47
1355.986	2268.52
1359.238	2249.69
1362.491	2257.87
1365.743	2257.27
1368.995	2249.73
1372.247	2264.75
1375.498	2285.83
1378.749	2326.97
1382	2275.77
1385.251	2312.67
1388.501	2266.73
1391.751	2268.75
1395	2233.96
1398.25	2258.84
1401.499	2281.88
1404.748	2231.13
1407.996	2207.91
1411.244	2195.61
1414.492	2181.53
1417.74	2164.34
1420.987	2172
1424.234	2230.66
1427.481	2192.53
1430.728	2251.16
1433.974	2225.15
1437.22	2223.66
1440.465	2221.96
1443.711	2221.62
1446.956	2245.16
1450.201	2217.99
1453.445	2260.16
1456.689	2246.49
1459.933	2256.35
1463.177	2297.21
1466.42	2267.9
1469.663	2252.22
1472.906	2268.07
1476.148	2313.38
1479.391	2285.95
1482.633	2260.62
1485.874	2283.26
1489.115	2288.62
1492.356	2270.59
1495.597	2251.46
1498.838	2245.05
1502.078	2228.87
1505.318	2199.12
1508.557	2232.21
1511.797	2229.83
1515.036	2272.34
1518.274	2245.02
1521.513	2197.6
1524.751	2210.04
1527.989	2235.8
1531.227	2252.36
1534.464	2263.43
1537.701	2257.52
1540.938	2269.9
1544.174	2217.84
1547.41	2207.55
1550.646	2244.63
1553.882	2293.58
1557.117	2351.59
1560.352	2358.97
1563.587	2321.41
1566.821	2287.55
1570.055	2302.16
1573.289	2286.31
1576.523	2343.45
1579.756	2357.19
1582.989	2377.27
1586.222	2339.85
1589.454	2366.68
1592.686	2350.02
1595.918	2376.45
1599.15	2373.04
1602.381	2419.35
1605.612	2402.21
1608.843	2492.07
1612.073	2419.18
1615.303	2406.55
1618.533	2405.15
1621.762	2403.96
1624.992	2381
1628.221	2382.52
1631.449	2372.89
1634.678	2399.67
1637.906	2366.77
1641.134	2394.54
1644.361	2360.39
1647.588	2347.56
1650.815	2370.42
1654.042	2333.98
1657.269	2361.77
1660.495	2340.85
1663.72	2327.87
1666.946	2295.04
1670.171	2268.73
1673.396	2244.02
1676.621	2226.27
1679.845	2222.67
1683.069	2230.76
1686.293	2258.72
1689.517	2250.36
1692.74	2200.23
1695.963	2223.48
1699.185	2261.39
1702.408	2234.18
1705.63	2263.34
1708.852	2280.79
1712.073	2252.34
1715.294	2263.03
1718.515	2304.87
1721.736	2265.28
1724.956	2244
1728.176	2267.1
1731.396	2287.1
1734.616	2274.02
1737.835	2311.53
1741.054	2281.92
1744.272	2275.64
1747.491	2313.44
1750.709	2338.31
1753.927	2286.97
1757.144	2310.94
1760.361	2367.74
1763.578	2345.96
1766.795	2295
1770.011	2285.99
1773.227	2311.49
1776.443	2354.24
1779.658	2395.28
1782.874	2337.49
1786.089	2329.37
1789.303	2331.88
1792.518	2333.26
1795.732	2317.29
1798.945	2333.1
1802.159	2373.21
1805.372	2315.84
1808.585	2309.56
1811.797	2311.16
1815.01	2331.86
1818.222	2353.03
1821.434	2312.93
1824.645	2355.8
1827.856	2365.3
1831.067	2397.44
1834.278	2333
1837.488	2319.56
1840.698	2441.36
1843.908	2383.86
1847.117	2352.03
1850.326	2276.37
1853.535	2338
1856.744	2373.13
1859.952	2295.52
1863.16	2297.84
1866.368	2313.85
1869.575	2428.14
1872.782	2310.6
1875.989	2243.7
1879.196	2294.52
1882.402	2286.39
1885.608	2324.02
1888.814	2264.93
1892.019	2173.05
1895.224	2225.44
1898.429	2190.8
1901.634	2175.74
1904.838	2148.37
1908.042	2207.35
1911.246	2219.61
1914.449	2181.64
1917.652	2162.6
1920.855	2141.84
1924.058	2167.5
1927.26	2213.39
1930.462	2235.39
1933.664	2271.63
1936.865	2215.93
1940.066	2235.6
1943.267	2179.37
1946.467	2188.99
1949.668	2208.35
1952.868	2279.88
1956.067	2269.57
1959.267	2209.35
1962.466	2232.13
1965.665	2214.51
1968.863	2209.84
1972.061	2210.61
1975.259	2203.56
1978.457	2277.73
1981.654	2238.83
1984.852	2242.17
1988.048	2193.4
1991.245	2182.15
1994.441	2269.32
1997.637	2230.88
2000.833	2210.9
2004.028	2248.2
2007.223	2311.32
2010.418	2299.92
2013.613	2249.74
2016.807	2243.95
2020.001	2237.69
2023.194	2262.75
2026.388	2247.86
2029.581	2191.45
2032.774	2252.62
2035.966	2267.32
2039.158	2209.42
2042.35	2227.18
2045.542	2152.26
2048.733	2237.37
2051.924	2230.27
2055.115	2247.38
2058.306	2209.95
2061.496	2264.28
2064.686	2316.96
2067.875	2223.16
2071.065	2226.69
2074.254	2247.17
2077.442	2200.59
2080.631	2283.52
2083.819	2212.32
2087.007	2205.36
2090.195	2188.91
2093.382	2205.32
2096.569	2187.64
2099.756	2147.54
2102.942	2195.1
2106.128	2206.6
2109.314	2195.41
2112.5	2180.68
2115.685	2149.19
2118.87	2157.38
2122.055	2217.87
2125.239	2197.27
2128.424	2182.38
2131.608	2245.16
2134.791	2230.28
2137.974	2269.28
2141.157	2258.54
2144.34	2229.03
2147.523	2221.12
2150.705	2246.29
2153.887	2214.4
2157.068	2186.37
2160.25	2168.18
2163.431	2193.58
2166.611	2162.46
2169.792	2183.01
2172.972	2093.68
2176.152	2145.86
2179.331	2172.68
2182.511	2176.35
2185.69	2199.53
2188.868	2203.11
2192.047	2239.44
2195.225	2255.67
2198.403	2204.35
2201.58	2192.53
2204.758	2180.37
2207.935	2255.05
2211.111	2168.98
2214.288	2157.76
2217.464	2189.21
2220.64	2145.74
2223.815	2196.13
2226.991	2130.01
2230.166	2145.67
2233.34	2186.4
2236.515	2199.66
2239.689	2263.18
2242.863	2215.29
2246.036	2268.22
2249.209	2251.53
2252.382	2272.89
2255.555	2279.55
2258.727	2229.86
2261.9	2256.66
2265.071	2248.45
2268.243	2247.52
2271.414	2194.54
2274.585	2177.7
2277.756	2237.04
2280.926	2197.07
2284.096	2225
2287.266	2154.55
2290.436	2202.08
2293.605	2221.8
2296.774	2259.94
2299.942	2264.72
2303.111	2281
2306.279	2333.19
2309.447	2319.38
2312.614	2289.5
2315.781	2310.4
2318.948	2291.9
2322.115	2328.13
2325.281	2227.55
2328.447	2236.57
2331.613	2203.67
2334.779	2195.65
2337.944	2191.34
2341.109	2192.56
2344.274	2179.88
2347.438	2149.31
2350.602	2171.11
2353.766	2179.03
2356.929	2168.41
2360.092	2206.72
2363.255	2177.42
2366.418	2144.69
2369.58	2212.56
2372.742	2082.28
2375.904	2077.48
2379.066	2063.24
2382.227	2088.11
2385.388	2049.92
2388.548	1999.33
2391.709	2041.9
2394.869	2030.14
2398.029	2084.32
2401.188	2081.59
2404.347	2043.77
2407.506	2127.25
2410.665	2164.79
2413.823	2150.65
2416.981	2128.92
2420.139	2146.06
2423.296	2187.05
2426.453	2158.65
2429.61	2180.29
2432.767	2151.13
2435.923	2191.18
2439.079	2138.69
2442.235	2172.25
2445.391	2114.61
2448.546	2157.22
2451.701	2190.02
2454.855	2185.78
2458.009	2215.49
2461.163	2205.4
2464.317	2176.23
2467.471	2203.12
2470.624	2232.83
2473.777	2220.5
2476.929	2236.77
2480.082	2259.47
2483.234	2232.43
2486.385	2174.33
2489.537	2168.18
2492.688	2155.74
2495.839	2173.31
2498.989	2189.21
2502.14	2175.71
2505.29	2166.12
2508.439	2190.69
2511.589	2131.66
2514.738	2129.87
2517.887	2153.56
2521.035	2228.39
2524.183	2189.66
2527.331	2177.24
2530.479	2169.59
2533.627	2170.72
