Data from C_3_DIV_OH_2N_Splice17_12-48-08-651.txt Node
Date: Sat Mar 14 12:48:08 EDT 2020
User: sa697716
Spectrometer: FLMS03696
Trigger mode: 0
Integration Time (sec): 3.180400E-1
Scans to average: 20
Electric dark correction enabled: true
Nonlinearity correction enabled: true
Boxcar width: 5
XAxis mode: Wavelengths
Number of Pixels in Spectrum: 2048
>>>>>Begin Spectral Data<<<<<
187.83	-305279.25
188.298	2184.17
188.766	1279.55
189.233	1119.03
189.701	1611.43
190.169	2214.38
190.636	851.83
191.104	722.62
191.571	99.47
192.039	-125.45
192.506	-155.6
192.974	425.07
193.441	-807.39
193.908	-103.83
194.375	-51.4
194.842	7.44
195.31	128.13
195.777	187.92
196.244	363.55
196.711	214.77
197.177	179.98
197.644	157.94
198.111	256.41
198.578	345.38
199.045	251.58
199.511	364.27
199.978	347.83
200.445	310.77
200.911	299.33
201.378	240.15
201.844	285.55
202.31	467.82
202.777	501.46
203.243	282.67
203.709	266.82
204.176	332.56
204.642	300.95
205.108	304.8
205.574	229.69
206.04	168.99
206.506	153.51
206.972	105.16
207.438	100.31
207.903	108.55
208.369	111.64
208.835	127.12
209.301	134.52
209.766	110.84
210.232	114.56
210.697	127.78
211.163	149.87
211.628	214.88
212.094	218.94
212.559	402.26
213.024	266.33
213.49	352.83
213.955	337.37
214.42	293.45
214.885	296.55
215.35	326.7
215.815	438.04
216.28	522.31
216.745	424.87
217.21	496.11
217.675	425.13
218.14	516.6
218.604	569.18
219.069	690.4
219.534	804.18
219.998	937.18
220.463	1132.77
220.927	1330.09
221.392	1263.87
221.856	1331.35
222.32	1675.79
222.785	2159.54
223.249	2728.3
223.713	3119.4
224.177	3155.42
224.642	4004.63
225.106	4967.75
225.57	5495.84
226.034	4208.53
226.497	6511.82
226.961	6015.78
227.425	7112.59
227.889	7850.62
228.353	7926.28
228.816	16461.56
229.28	15964.96
229.744	13657.29
230.207	8486.14
230.671	8453.77
231.134	13895.94
231.597	16207.06
232.061	16177.7
232.524	15814.11
232.987	10987.24
233.45	9982.51
233.914	9005.19
234.377	9198.43
234.84	8432.19
235.303	9889.72
235.766	11044
236.229	11476.38
236.691	7218.04
237.154	8137.99
237.617	6167.91
238.08	6318.69
238.542	7395.09
239.005	5307.8
239.468	5301.87
239.93	5037.09
240.393	4599.38
240.855	4062.94
241.317	4166.16
241.78	5068.05
242.242	5279.77
242.704	5753.2
243.166	5044.5
243.629	4653.66
244.091	5398.1
244.553	5935.09
245.015	6406.21
245.477	8330.48
245.939	12223.27
246.4	13068.93
246.862	12737.52
247.324	12030.74
247.786	13476.32
248.247	17699.93
248.709	18126.69
249.17	13591.72
249.632	12958.23
250.093	15124.9
250.555	13150.99
251.016	8089.66
251.477	7693.98
251.939	8369.57
252.4	8821.31
252.861	10459.55
253.322	9795.88
253.783	11724.96
254.244	15216.03
254.705	12001.82
255.166	10659.02
255.627	10507.74
256.088	14861.78
256.549	15854.75
257.009	13653.44
257.47	16576.13
257.931	13538.65
258.391	10187.84
258.852	10509.14
259.312	11040.9
259.773	13648.03
260.233	11628.95
260.694	9860.66
261.154	11202.46
261.614	9061.55
262.074	8140.15
262.534	8510.33
262.994	8083.07
263.455	10766.83
263.915	9119.24
264.374	8620.03
264.834	9432.2
265.294	10456.53
265.754	10858.85
266.214	10301.07
266.673	9655.91
267.133	12204
267.593	12126.92
268.052	14897.32
268.512	12987.73
268.971	15753.38
269.431	17334.36
269.89	15559.24
270.349	23392.99
270.809	26194.72
271.268	23589.56
271.727	52838.05
272.186	34232.16
272.645	25695.84
273.104	18510.19
273.563	26888.86
274.022	21131.18
274.481	18084.81
274.94	14005.27
275.399	10411.85
275.857	12117.64
276.316	16423.37
276.775	14667.79
277.233	14524.41
277.692	13681.48
278.15	15534.49
278.609	16049.1
279.067	14861.65
279.525	13835.94
279.984	17865.99
280.442	21536.82
280.9	21375.5
281.358	14110.59
281.816	13186.23
282.274	12922.33
282.732	13332.89
283.19	13414.07
283.648	11566.67
284.106	12345.7
284.564	12546.45
285.021	11680.5
285.479	8700.33
285.937	7880.93
286.394	6942.22
286.852	7161.86
287.309	7562.7
287.767	7368.91
288.224	7045.68
288.682	7772.16
289.139	8592.11
289.596	7914.27
290.053	8251.85
290.511	10485.47
290.968	12830.65
291.425	17488
291.882	14707.68
292.339	12889.86
292.796	12803.03
293.252	12101.35
293.709	9695.88
294.166	8721.15
294.623	9663.64
295.079	9287.4
295.536	9368.35
295.992	8540.96
296.449	8469.6
296.905	8817.05
297.362	8486.21
297.818	8951.33
298.274	9323.44
298.731	9484.31
299.187	9384.03
299.643	10088.47
300.099	12228.8
300.555	13407.74
301.011	11187.13
301.467	10853.98
301.923	12669.68
302.379	12387.56
302.835	12170.87
303.291	12209.03
303.746	13901.13
304.202	17615.41
304.658	17706.93
305.113	11915.1
305.569	11694.13
306.024	12455.52
306.479	11780.57
306.935	9920.93
307.39	10771.3
307.845	9950.98
308.301	10015.97
308.756	9729.85
309.211	9356.75
309.666	9547.29
310.121	11888.12
310.576	12041.95
311.031	11918.98
311.486	13623.52
311.94	13630.14
312.395	18262.89
312.85	34234.66
313.305	167090.55
313.759	870265.57
314.214	63194.48
314.668	50182.75
315.123	42077.95
315.577	15141.34
316.032	13503.84
316.486	16931.3
316.94	13386.6
317.394	9338.55
317.849	7264.46
318.303	6878.97
318.757	6512.18
319.211	7201.33
319.665	6313.61
320.119	6406.38
320.572	9183.72
321.026	8590.98
321.48	7175.32
321.934	7808.92
322.387	7812.18
322.841	8455.73
323.295	7664.32
323.748	8770.61
324.202	8909.79
324.655	10722.91
325.108	15061.78
325.562	10650.29
326.015	12669.45
326.468	9587.27
326.921	10716.39
327.374	10033.09
327.827	10471.55
328.28	11834.39
328.733	7961.7
329.186	7010.63
329.639	6683.29
330.092	5639.19
330.545	5370.81
330.997	5411.18
331.45	5914.82
331.903	6975.33
332.355	11948.82
332.808	11587.17
333.26	9536.05
333.713	10350.5
334.165	10373.8
334.617	13816.36
335.069	11048.3
335.522	19928.61
335.974	22070.23
336.426	20110.38
336.878	13794.7
337.33	6987.14
337.782	6786.24
338.234	8527.81
338.686	10182.34
339.137	12094.36
339.589	11362.29
340.041	8918.78
340.493	7681.85
340.944	7897.5
341.396	8542.18
341.847	7241.46
342.299	8650.56
342.75	10680.09
343.201	9314.85
343.653	10729.17
344.104	13197.67
344.555	10420.82
345.006	16234.45
345.457	12526.33
345.908	9934.05
346.359	9380.71
346.81	7693.2
347.261	8085.72
347.712	7964.94
348.163	8551.79
348.613	8733.1
349.064	8167.27
349.515	7169.77
349.965	7391.68
350.416	8894
350.866	9774.27
351.317	11016.41
351.767	18201.85
352.217	23003.06
352.668	19100.28
353.118	17565.68
353.568	16800.15
354.018	13337.44
354.468	14118.04
354.918	10128.21
355.368	8874.48
355.818	12580.17
356.268	36238.61
356.718	152033.37
357.168	37901.39
357.617	19001.54
358.067	21034.58
358.517	19744.46
358.966	23191.88
359.416	26092.6
359.865	28202.34
360.315	33527.66
360.764	15684.11
361.213	8801.61
361.663	8281.31
362.112	10218.59
362.561	16515.87
363.01	12505.8
363.459	10530.34
363.908	11375.96
364.357	9653.66
364.806	16259.78
365.255	11178.67
365.703	10269.45
366.152	10299.45
366.601	8384.4
367.05	6820.7
367.498	6218.24
367.947	6488.87
368.395	6750.28
368.844	5980.61
369.292	7157.94
369.74	4962.6
370.189	7586.94
370.637	8847.08
371.085	7619.31
371.533	9260.61
371.981	8903.13
372.429	8472.02
372.877	8829.6
373.325	7393.61
373.773	7498.74
374.221	6687.25
374.669	8281.49
375.116	7157.76
375.564	7223.83
376.012	8081.74
376.459	6670.83
376.907	7946.97
377.354	9600.45
377.801	8968
378.249	10281.61
378.696	13124.77
379.143	15901.88
379.591	16926.67
380.038	28598.72
380.485	20673.59
380.932	22288.85
381.379	20497.09
381.826	15143.2
382.273	10717.06
382.72	9317.51
383.166	9111.12
383.613	5922.43
384.06	5315.2
384.506	6149.47
384.953	4508.81
385.4	4508.2
385.846	3929.17
386.292	3786.63
386.739	3679.89
387.185	3628.25
387.631	3625.25
388.078	3525.41
388.524	3740.92
388.97	3446.38
389.416	2864.13
389.862	3041.17
390.308	2876.3
390.754	2912.91
391.2	3153.03
391.645	3201.5
392.091	3083.01
392.537	2967.61
392.983	2937.36
393.428	2915.66
393.874	3113.8
394.319	3124
394.765	2957.91
395.21	3028.09
395.655	2830.06
396.101	2637.81
396.546	2381.86
396.991	2371.88
397.436	2191.52
397.881	2099.97
398.326	1956.16
398.771	1845.44
399.216	1593.8
399.661	1422.65
400.106	1410.68
400.551	1436.65
400.995	1285.2
401.44	1266.95
401.885	1182.44
402.329	1190.95
402.774	1143.27
403.218	1119.66
403.663	1071.31
404.107	1102.32
404.551	1110.71
404.995	1012.15
405.44	968.94
405.884	978.08
406.328	939.53
406.772	936.07
407.216	850.82
407.66	817.94
408.104	760.23
408.547	710.8
408.991	686.12
409.435	654.31
409.879	647.21
410.322	639.97
410.766	617.55
411.209	588.26
411.653	560.67
412.096	549.76
412.54	545.55
412.983	544.36
413.426	548.47
413.869	544.05
414.312	537.25
414.756	515.12
415.199	486.95
415.642	474.29
416.085	470.76
416.527	466.19
416.97	470.57
417.413	446.58
417.856	436.81
418.298	427.11
418.741	420.18
419.184	412.99
419.626	426.64
420.069	427.53
420.511	428.1
420.953	422.09
421.396	416.96
421.838	404.32
422.28	413.44
422.722	418.24
423.164	422.18
423.606	416.86
424.048	412.97
424.49	394.03
424.932	387.71
425.374	377.01
425.816	379.69
426.258	387.47
426.699	390.22
427.141	387.8
427.582	391.92
428.024	390.81
428.465	387.84
428.907	380.76
429.348	372.89
429.789	378.05
430.231	375.34
430.672	381.81
431.113	372.19
431.554	368.77
431.995	353.58
432.436	342.13
432.877	334.09
433.318	331.98
433.759	330.36
434.2	329.36
434.64	324.15
435.081	323.76
435.522	305.43
435.962	293.67
436.403	285.68
436.843	288.1
437.284	278.75
437.724	266.73
438.164	259.71
438.604	250.25
439.045	242.71
439.485	236.2
439.925	227.74
440.365	221.02
440.805	215.96
441.245	213.89
441.685	206.18
442.125	204.15
442.564	205.58
443.004	201.73
443.444	200.42
443.883	199.6
444.323	189.92
444.762	184.74
445.202	185.35
445.641	190.05
446.081	183.74
446.52	185.06
446.959	183.08
447.398	179.07
447.837	175.97
448.276	170.6
448.716	169.39
449.154	170.32
449.593	168.55
450.032	167.31
450.471	160.88
450.91	159.96
451.349	161.36
451.787	157.59
452.226	158.55
452.664	156.96
453.103	157.07
453.541	154.77
453.98	158.5
454.418	159.49
454.856	159.17
455.295	158.13
455.733	161.24
456.171	159.6
456.609	161.33
457.047	161.78
457.485	166.67
457.923	170.28
458.361	168.4
458.798	166.13
459.236	166.48
459.674	165.62
460.111	166.6
460.549	165.9
460.987	165.5
461.424	164.08
461.862	163.08
462.299	159.73
462.736	159.59
463.173	160.61
463.611	163.14
464.048	162.53
464.485	164.13
464.922	162.23
465.359	159.4
465.796	168.16
466.233	168.68
466.67	169.93
467.106	171.92
467.543	168.4
467.98	166.01
468.416	158.13
468.853	155.66
469.29	150.72
469.726	149.46
470.162	145.34
470.599	133.24
471.035	129.79
471.471	125.14
471.907	120.34
472.344	118.2
472.78	119.34
473.216	119.7
473.652	118.64
474.088	117.09
474.523	117.14
474.959	118.21
475.395	117.6
475.831	117.86
476.266	118.48
476.702	118.88
477.138	118.81
477.573	117.41
478.008	118.29
478.444	120.3
478.879	122.97
479.314	124.13
479.75	124.36
480.185	124.12
480.62	124.91
481.055	125.18
481.49	126.66
481.925	128.41
482.36	133.32
482.795	135.83
483.229	138.3
483.664	140.65
484.099	139.41
484.534	141.7
484.968	143.94
485.403	143.48
485.837	141.92
486.271	141.25
486.706	140.3
487.14	136.88
487.574	134.64
488.009	132.46
488.443	130.52
488.877	133.56
489.311	132.7
489.745	133.73
490.179	135.05
490.613	139.34
491.046	139.14
491.48	139.44
491.914	138.54
492.348	138.61
492.781	139.29
493.215	138.49
493.648	136.11
494.082	136.56
494.515	135.63
494.948	136.92
495.382	134.44
495.815	133.96
496.248	134.65
496.681	135.32
497.114	135.39
497.547	136.17
497.98	138.6
498.413	140.13
498.846	140.58
499.279	139.91
499.711	138.53
500.144	137.4
500.577	139.44
501.009	139.14
501.442	140.34
501.874	139.72
502.306	137.15
502.739	139.36
503.171	138.48
503.603	137.07
504.036	136.47
504.468	134.85
504.9	134.82
505.332	132.06
505.764	130.82
506.196	129.3
506.627	129.51
507.059	129.21
507.491	123.5
507.923	121.65
508.354	121.66
508.786	121
509.217	121.01
509.649	120.5
510.08	120.67
510.512	121.09
510.943	120.29
511.374	118.68
511.805	118.47
512.237	118.28
512.668	118.39
513.099	117.82
513.53	117.71
513.961	117.93
514.391	118.59
514.822	121.74
515.253	123.22
515.684	122.71
516.114	123.84
516.545	124.69
516.975	124.84
517.406	123.73
517.836	121.13
518.267	120.33
518.697	120.52
519.127	118.85
519.558	115.41
519.988	112.42
520.418	111.17
520.848	109.21
521.278	106.74
521.708	136.91
522.138	137.45
522.567	137.88
522.997	138.22
523.427	136.53
523.857	136.3
524.286	135.26
524.716	135.61
525.145	136.73
525.575	137.48
526.004	136.99
526.433	105.42
526.863	103.2
527.292	103.5
527.721	104.23
528.15	103.75
528.579	102.9
529.008	103.29
529.437	102.73
529.866	102.11
530.295	101.27
530.724	102.96
531.152	103.6
531.581	105.03
532.01	104.76
532.438	102.47
532.867	102.13
533.295	103.52
533.723	103.22
534.152	103.23
534.58	102.88
535.008	102.25
535.436	103.36
535.865	103.38
536.293	102.68
536.721	102.75
537.149	104.87
537.576	106.48
538.004	106.91
538.432	106.67
538.86	107.04
539.287	107.06
539.715	107.79
540.143	105.63
540.57	105.56
540.998	105.54
541.425	106.33
541.852	104.49
542.28	103.27
542.707	101.6
543.134	101.61
543.561	100.84
543.988	100.63
544.415	99.46
544.842	98.43
545.269	98.26
545.696	98.98
546.123	98.91
546.549	98.35
546.976	98.03
547.403	98.38
547.829	96.99
548.256	96.92
548.682	96.79
549.108	98.76
549.535	98.69
549.961	97.57
550.387	96.11
550.813	96.72
551.24	97.23
551.666	96.16
552.092	95.36
552.518	95.12
552.943	95.24
553.369	95.19
553.795	94.35
554.221	94.95
554.646	95.91
555.072	98.23
555.498	96.49
555.923	96.14
556.349	97.77
556.774	97.75
557.199	97.91
557.625	97.15
558.05	97.28
558.475	97.71
558.9	98.18
559.325	98.91
559.75	98.77
560.175	98.59
560.6	98.46
561.025	97.86
561.449	98.66
561.874	99.01
562.299	101.12
562.723	101.42
563.148	101.02
563.572	100.99
563.997	101.05
564.421	99.99
564.846	100.55
565.27	102.11
565.694	102.95
566.118	103.99
566.542	107.25
566.966	107.03
567.39	107.77
567.814	108.31
568.238	109.38
568.662	109.44
569.086	111.01
569.509	111.77
569.933	113.1
570.357	113.13
570.78	112.6
571.204	112.49
571.627	112.23
572.05	112.8
572.474	114.12
572.897	113.84
573.32	115.49
573.743	114.91
574.166	115.76
574.589	113.97
575.012	114.48
575.435	114.74
575.858	114.09
576.281	113.97
576.704	113.05
577.126	112.68
577.549	112.16
577.972	110.69
578.394	111.06
578.817	113.22
579.239	113.01
579.661	113.51
580.084	115.67
580.506	115.82
580.928	115.42
581.35	115.38
581.772	115.29
582.194	115.05
582.616	114.62
583.038	113.21
583.46	110.57
583.882	111.06
584.303	109.75
584.725	107.24
585.147	113.74
585.568	116.07
585.99	117.68
586.411	119.1
586.833	120.9
587.254	121.29
587.675	122.06
588.096	123.32
588.518	123.41
588.939	122.77
589.36	123.76
589.781	115.01
590.202	117.03
590.623	116.45
591.043	114.96
591.464	114.53
591.885	115.71
592.305	116.17
592.726	114.9
593.147	115.59
593.567	116.15
593.987	115.55
594.408	115.49
594.828	111.02
595.248	112.07
595.669	112.27
596.089	111.72
596.509	110.38
596.929	109.46
597.349	110.38
597.769	109.5
598.189	109.29
598.608	109.34
599.028	110.01
599.448	110.49
599.867	108.62
600.287	106.6
600.706	107.37
601.126	108.03
601.545	109.04
601.965	108.89
602.384	108.76
602.803	108.46
603.222	108.84
603.641	108.48
604.061	109.28
604.48	109.69
604.898	111.57
605.317	111.54
605.736	111.34
606.155	112.11
606.574	111.46
606.992	111.53
607.411	112.29
607.829	110.83
608.248	110.93
608.666	110.21
609.085	110.76
609.503	110.44
609.921	111.4
610.339	112.18
610.758	111
611.176	111.05
611.594	111.76
612.012	111.65
612.43	114
612.847	114.71
613.265	116.65
613.683	117.25
614.101	117.82
614.518	116.66
614.936	116.71
615.353	117.21
615.771	118.46
616.188	118.82
616.606	119.34
617.023	119.41
617.44	119.01
617.857	117.05
618.274	115.79
618.691	116.94
619.108	116.61
619.525	115.83
619.942	117.13
620.359	117.52
620.776	117.6
621.192	118.94
621.609	118.97
622.026	120.93
622.442	123.04
622.859	124.29
623.275	122.67
623.691	123.24
624.108	124.88
624.524	125.65
624.94	125.59
625.356	126.52
625.772	126.05
626.188	126.93
626.604	126.56
627.02	126.21
627.436	126.38
627.852	128.76
628.268	130.93
628.683	130.26
629.099	129.85
629.514	128.67
629.93	129.6
630.345	131.07
630.761	130.38
631.176	131.08
631.591	132.86
632.007	133.17
632.422	131.58
632.837	129.85
633.252	131.14
633.667	130.36
634.082	129.62
634.497	129.12
634.911	129.68
635.326	130.25
635.741	129.37
636.155	126.28
636.57	128.31
636.984	130.22
637.399	133.71
637.813	133.01
638.228	133.78
638.642	135.38
639.056	134.78
639.47	134.55
639.884	135
640.298	135.65
640.712	137.76
641.126	136.49
641.54	135.25
641.954	132.2
642.368	133.15
642.781	137.06
643.195	137.03
643.609	139.36
644.022	139.07
644.436	139.47
644.849	138.18
645.262	137.14
645.676	138.06
646.089	139.28
646.502	141.27
646.915	140.18
647.328	137.44
647.741	138.86
648.154	137.75
648.567	142.38
648.98	141.78
649.393	143.45
649.805	144.61
650.218	144.24
650.631	143.67
651.043	143.24
651.456	144.66
651.868	144.5
652.28	146.28
652.693	148.18
653.105	146.56
653.517	148.68
653.929	148.43
654.341	150.34
654.753	150.04
655.165	151.75
655.577	152.64
655.989	152.27
656.401	149.87
656.813	147.97
657.224	146.42
657.636	142.47
658.047	141.59
658.459	141.43
658.87	139.78
659.282	138.53
659.693	137.71
660.104	136.45
660.515	134.89
660.926	137.98
661.338	137.41
661.749	136.41
662.159	137.2
662.57	137.28
662.981	137.19
663.392	137.96
663.803	140.23
664.213	139.87
664.624	140.3
665.035	142.4
665.445	139.28
665.855	139.97
666.266	141.81
666.676	142.6
667.086	140.9
667.497	141.63
667.907	141.42
668.317	140.48
668.727	144.5
669.137	144.13
669.547	143.79
669.956	145.41
670.366	146.1
670.776	146.56
671.186	147.04
671.595	148.98
672.005	149.25
672.414	149.78
672.824	150.46
673.233	146.95
673.642	148.16
674.052	150.36
674.461	151.43
674.87	151.9
675.279	152.09
675.688	150.71
676.097	151.67
676.506	150.87
676.915	152.03
677.323	152.18
677.732	151.36
678.141	150.12
678.549	145.2
678.958	143.11
679.366	140.72
679.775	137.99
680.183	142.4
680.592	140.91
681	140.11
681.408	137.68
681.816	135.96
682.224	135.33
682.632	137.09
683.04	141.89
683.448	144.47
683.856	148.48
684.264	153.4
684.671	153
685.079	155.54
685.487	159.37
685.894	164.59
686.302	166.9
686.709	169.75
687.116	170.39
687.524	171.85
687.931	172.49
688.338	170.3
688.745	165.61
689.152	162.85
689.559	162.47
689.966	162.52
690.373	159.5
690.78	158.61
691.187	157.22
691.593	156.57
692	152.85
692.407	150.73
692.813	155.16
693.22	155.96
693.626	153.22
694.032	153.03
694.439	154.04
694.845	152.46
695.251	152.67
695.657	153.24
696.063	152.76
696.469	150.77
696.875	150.9
697.281	145.68
697.687	143.81
698.093	144.78
698.498	144.77
698.904	141.74
699.31	143.04
699.715	146.3
700.12	147.08
700.526	146.97
700.931	148.89
701.337	149.96
701.742	149.93
702.147	151.43
702.552	150.42
702.957	148.98
703.362	148.09
703.767	147.25
704.172	143.65
704.577	139.38
704.981	136.74
705.386	136.39
705.791	133.43
706.195	132.27
706.6	131.35
707.004	130.16
707.408	126.77
707.813	127.32
708.217	126.24
708.621	125.15
709.025	127.09
709.43	129.06
709.834	130.44
710.237	131.51
710.641	130.8
711.045	131.26
711.449	132.7
711.853	138.96
712.256	138.35
712.66	137.88
713.064	139.09
713.467	141.32
713.87	142.27
714.274	142.4
714.677	145.29
715.08	150.39
715.484	153.77
715.887	162.04
716.29	160.7
716.693	168.48
717.096	175.54
717.499	179.8
717.901	178.21
718.304	178.85
718.707	176.8
719.109	171.79
719.512	167.86
719.915	166.54
720.317	161.36
720.719	161.03
721.122	157.01
721.524	154.96
721.926	159.1
722.328	161.38
722.731	158.89
723.133	159.58
723.535	166.2
723.937	166.52
724.338	167.08
724.74	170.04
725.142	245.76
725.544	251.33
725.945	269.49
726.347	262.6
726.748	263.2
727.15	266.48
727.551	270.52
727.952	266.45
728.354	264.18
728.755	262.22
729.156	257.46
729.557	182.48
729.958	172.49
730.359	153.05
730.76	152.08
731.161	149.06
731.562	145.48
731.962	139.04
732.363	137.53
732.763	136.54
733.164	134.29
733.564	133
733.965	131.65
734.365	131.25
734.766	132.82
735.166	131.35
735.566	131.61
735.966	131.42
736.366	132.6
736.766	131.13
737.166	131.22
737.566	131.3
737.966	130.14
738.365	131.33
738.765	133.42
739.165	129.83
739.564	129.04
739.964	127.45
740.363	125.18
740.763	123.35
741.162	124.01
741.561	122.65
741.96	121.48
742.36	119.8
742.759	119.15
743.158	117.06
743.557	117.71
743.955	118.51
744.354	116.83
744.753	118
745.152	118.75
745.55	118.18
745.949	118.78
746.348	118.85
746.746	118.42
747.144	120.28
747.543	119.56
747.941	119.84
748.339	117.46
748.737	120
749.136	121.07
749.534	121.28
749.932	124.29
750.33	124.65
750.727	124.63
751.125	126.87
751.523	124.06
751.921	129.72
752.318	130.38
752.716	135.1
753.113	133.6
753.511	133.35
753.908	133.83
754.305	137.45
754.703	138.74
755.1	142.5
755.497	143.59
755.894	147.32
756.291	148.13
756.688	156.17
757.085	164.58
757.482	182.97
757.878	206.42
758.275	224.98
758.672	236.16
759.068	253.72
759.465	276.6
759.861	306.09
760.258	340.03
760.654	359.05
761.05	360.4
761.447	340.41
761.843	315.89
762.239	288.32
762.635	273.22
763.031	260.05
763.427	246.43
763.822	231.74
764.218	216.62
764.614	199.96
765.01	184.81
765.405	173.98
765.801	170.48
766.196	160.79
766.592	153.32
766.987	146.89
767.382	142.68
767.778	140.55
768.173	136.35
768.568	134.87
768.963	132.61
769.358	134.45
769.753	134.55
770.148	132.84
770.542	131.34
770.937	130.16
771.332	133.57
771.726	133.89
772.121	137.94
772.515	141.58
772.91	141.82
773.304	142.97
773.699	140.23
774.093	140.5
774.487	140.57
774.881	142.7
775.275	143.21
775.669	140.27
776.063	141.62
776.457	138.27
776.851	134.47
777.245	134.65
777.638	135.66
778.032	137.93
778.425	138.54
778.819	144.04
779.212	147.84
779.606	150.04
779.999	149.51
780.392	151.42
780.786	150.84
781.179	152.5
781.572	154.95
781.965	155.92
782.358	155.67
782.751	155.19
783.143	149.19
783.536	148.12
783.929	144.27
784.322	149.35
784.714	146.92
785.107	149.85
785.499	154.65
785.891	156.57
786.284	154.79
786.676	156.25
787.068	160.22
787.46	162.56
787.852	160.29
788.245	163.76
788.636	161.39
789.028	166.55
789.42	167.08
789.812	166.21
790.204	163.82
790.595	170.97
790.987	167.38
791.378	166.31
791.77	167.71
792.161	172.32
792.553	176.31
792.944	175.69
793.335	171.37
793.726	173.86
794.117	178.5
794.508	179.61
794.899	172.65
795.29	176.08
795.681	175.81
796.072	172.52
796.463	198.43
796.853	202.5
797.244	206.41
797.634	209.19
798.025	206.6
798.415	200.75
798.806	208.89
799.196	214.45
799.586	221.2
799.976	224.11
800.366	230.85
800.756	201.57
801.146	195.68
801.536	195.84
801.926	194.72
802.316	198.44
802.706	202.08
803.095	197.5
803.485	197.81
803.874	194.8
804.264	198.77
804.653	199.18
805.043	209.7
805.432	215.27
805.821	219.95
806.21	225.52
806.599	227.69
806.988	231.53
807.377	230.42
807.766	234.48
808.155	243.01
808.544	235.52
808.933	236.34
809.321	236.5
809.71	238.4
810.098	240.57
810.487	246.17
810.875	255.95
811.264	254.27
811.652	281.59
812.04	283.92
812.428	289.6
812.816	303.56
813.204	315.62
813.592	321.73
813.98	333.09
814.368	339.38
814.756	353.21
815.144	351.1
815.531	369.82
815.919	346.93
816.306	358.01
816.694	347.5
817.081	355.5
817.469	368.25
817.856	366.59
818.243	373.04
818.63	371.23
819.017	364.73
819.404	372.23
819.791	373.75
820.178	385.98
820.565	394.14
820.952	431.21
821.339	418.45
821.725	421.68
822.112	410.57
822.498	410.16
822.885	412.21
823.271	406.1
823.657	405.56
824.044	409.92
824.43	412.17
824.816	427.22
825.202	408.77
825.588	434.63
825.974	438.7
826.36	448.32
826.746	449.91
827.132	463.81
827.517	471.42
827.903	456.28
828.289	464.28
828.674	444.54
829.06	429.73
829.445	434.49
829.83	440.88
830.216	445.54
830.601	460.37
830.986	462.03
831.371	458.01
831.756	472.57
832.141	472.63
832.526	468.58
832.911	477.92
833.295	471.43
833.68	483.99
834.065	471.35
834.449	447.04
834.834	444.6
835.218	440.89
835.603	453.04
835.987	440.59
836.371	455.32
836.755	454.35
837.139	463.13
837.524	467.17
837.908	458.2
838.291	463.37
838.675	463.75
839.059	465.38
839.443	455.94
839.827	441.76
840.21	452.02
840.594	450.53
840.977	452.68
841.361	453.08
841.744	463.35
842.127	464.34
842.511	467.28
842.894	478.15
843.277	488.1
843.66	501.36
844.043	508.71
844.426	495.9
844.809	480.68
845.191	483.27
845.574	471.5
845.957	460.49
846.339	463.01
846.722	449.8
847.104	453.01
847.487	442.48
847.869	445.73
848.252	455.82
848.634	461.75
849.016	469.68
849.398	467.46
849.78	486.69
850.162	489.7
850.544	495.66
850.926	503.26
851.307	504.07
851.689	516.89
852.071	522.31
852.452	527.79
852.834	526.08
853.215	543.23
853.597	547.29
853.978	561.97
854.359	575.9
854.741	551.44
855.122	548.87
855.503	538.19
855.884	544.86
856.265	546.53
856.646	542.3
857.026	534.88
857.407	528.81
857.788	531.11
858.169	527.05
858.549	515.23
858.93	533.3
859.31	538.62
859.69	552.05
860.071	537.72
860.451	535.08
860.831	517.94
861.211	542.27
861.591	552.95
861.971	550.17
862.351	561.31
862.731	554.45
863.111	558.04
863.491	572.84
863.87	589.12
864.25	594.27
864.629	591.59
865.009	601.36
865.388	625.84
865.768	667.36
866.147	676.64
866.526	637.66
866.905	652.81
867.284	680.51
867.663	632.84
868.042	613.93
868.421	615.28
868.8	615.57
869.179	632.84
869.558	591.84
869.936	549.36
870.315	551.66
870.693	571.48
871.072	610.91
871.45	582.6
871.828	600.91
872.207	629.79
872.585	622.35
872.963	642.14
873.341	627.21
873.719	636.47
874.097	630.64
874.475	640.77
874.853	648.48
875.23	625.28
875.608	659.62
875.986	713.78
876.363	681.98
876.741	719.11
877.118	706.95
877.495	739
877.873	738.54
878.25	776.01
878.627	750.24
879.004	765.96
879.381	760.57
879.758	740.09
880.135	688.58
880.512	724.8
880.889	681.47
881.265	665.9
881.642	645.59
882.019	658.68
882.395	657.45
882.772	691.3
883.148	658.54
883.524	654.67
883.901	649.95
884.277	650.9
884.653	643.71
885.029	675.15
885.405	760.58
885.781	761.79
886.157	722.87
886.532	720.08
886.908	713.81
887.284	785.26
887.659	816.04
888.035	836.63
888.411	857.24
888.786	871.25
889.161	899.52
889.537	864.71
889.912	887.3
890.287	896.36
890.662	913.15
891.037	878.91
891.412	822.91
891.787	803.89
892.162	779.63
892.536	800.43
892.911	774.89
893.286	752.22
893.66	724.92
894.035	749.43
894.409	806.21
894.784	780.93
895.158	802.09
895.532	851.96
895.906	885.98
896.281	910.18
896.655	906.78
897.029	1028.3
897.402	1071.81
897.776	1189.49
898.15	1179.64
898.524	1165.94
898.898	1179.8
899.271	1338.03
899.645	1171.71
900.018	1118.58
900.392	1160.07
900.765	1153.65
901.138	1075.27
901.511	1052.08
901.884	985.3
902.258	920.43
902.631	971.56
903.003	1114.69
903.376	990.97
903.749	1105.92
904.122	1175.33
904.495	1272.24
904.867	1285.13
905.24	1109.96
905.612	1036.89
905.985	1043.93
906.357	1078.9
906.729	1016.07
907.102	874.16
907.474	849.65
907.846	859.72
908.218	862.71
908.59	785.63
908.962	760.4
909.334	820.31
909.705	870.27
910.077	838.15
910.449	867.08
910.82	893
911.192	979.59
911.563	1024.13
911.935	1079.73
912.306	1057.76
912.677	1078.76
913.048	1088.45
913.419	1184.76
913.79	1169.22
914.161	1263.09
914.532	1243.37
914.903	1150.05
915.274	1094.55
915.645	1075.76
916.015	940.41
916.386	898.78
916.756	955.13
917.127	958.91
917.497	860.67
917.868	949.83
918.238	893.72
918.608	889.13
918.978	890.71
919.348	923.08
919.718	951.64
920.088	921.89
920.458	971.41
920.828	1006.32
921.198	981.65
921.567	1037.73
921.937	804.62
922.306	805.59
922.676	877.26
923.045	770.38
923.415	756.2
923.784	685.66
924.153	726.58
924.522	733.96
924.891	690.98
925.26	725.77
925.629	701.53
925.998	796.56
926.367	779.53
926.736	778.77
927.104	888.31
927.473	938.61
927.842	1132.65
928.21	1081.83
928.578	1109.37
928.947	1056.23
929.315	1098.52
929.683	1331.71
930.051	1364.39
930.42	1611.97
930.788	1341.43
931.156	1339.05
931.523	1308.48
931.891	1213.07
932.259	1199.85
932.627	1423.71
932.994	2021.95
933.362	1675.63
933.729	1436.85
934.097	1356.87
934.464	1151.48
934.831	1310.6
935.199	1289.98
935.566	1213.99
935.933	1200.19
936.3	1434.74
936.667	1087.67
937.034	1108.88
937.401	1073.96
937.767	925.51
938.134	820.15
938.501	1138.66
938.867	1214.92
939.234	1991.57
939.6	1626.99
939.967	1826.97
940.333	1231.19
940.699	1036.37
941.065	695.15
941.431	927.59
941.798	997.69
942.163	1366.57
942.529	833.49
942.895	744.87
943.261	508.4
943.627	692.29
943.992	611.97
944.358	615.68
944.723	672.5
945.089	652.59
945.454	614.37
945.82	599.46
946.185	551.91
946.55	663.15
946.915	594.43
947.28	687.11
947.645	595.88
948.01	600.54
948.375	646.55
948.74	722.73
949.104	840.66
949.469	1094.08
949.834	1889
950.198	2010.51
950.562	1237.24
950.927	1064.94
951.291	1259.05
951.655	1057.61
952.02	894.34
952.384	663.66
952.748	619.18
953.112	668.11
953.476	601.18
953.839	547.78
954.203	542.52
954.567	660.56
954.931	996.29
955.294	897.11
955.658	919.5
956.021	1589.24
956.385	2543.37
956.748	3761.54
957.111	5217.29
957.474	5683.15
957.837	6403.97
958.2	4485.06
958.563	1605.17
958.926	1157.99
959.289	1698.75
959.652	1906.07
960.015	1459.86
960.377	2167.74
960.74	2343.41
961.102	3955.2
961.465	4566.29
961.827	3086.67
962.189	6031.36
962.552	4294.62
962.914	3353.64
963.276	2177.65
963.638	1792.13
964	1747.74
964.362	1212.56
964.724	1147.27
965.085	842.64
965.447	692.4
965.809	647.38
966.17	607.86
966.532	615.43
966.893	560.11
967.255	493.78
967.616	565.97
967.977	448.23
968.338	468.93
968.699	422.26
969.061	415.31
969.421	419.46
969.782	477.44
970.143	439.79
970.504	526.89
970.865	617.77
971.225	688.53
971.586	684.93
971.946	955.6
972.307	821.75
972.667	1017.91
973.027	1059.66
973.388	1255.37
973.748	860.61
974.108	956.05
974.468	1119.78
974.828	941.35
975.188	674.48
975.548	602.42
975.907	537.41
976.267	592.17
976.627	532.69
976.986	540.05
977.346	506.19
977.705	488.17
978.064	421.79
978.424	369.62
978.783	323
979.142	357.31
979.501	370.47
979.86	395.39
980.219	388.29
980.578	455.41
980.937	479.86
981.296	434.48
981.654	442.56
982.013	658.87
982.371	864.08
982.73	866.12
983.088	1023.3
983.447	1052.36
983.805	1509.79
984.163	3153.34
984.521	3558.84
984.879	5314.89
985.237	-8783.16
985.595	8812.46
985.953	2156.37
986.311	1151.39
986.669	658.71
987.026	532.59
987.384	670.04
987.741	617.94
988.099	521.56
988.456	416.35
988.814	418.5
989.171	353.21
989.528	303.99
989.885	298.09
990.242	275.28
990.599	296.12
990.956	250.43
991.313	185.18
991.67	156.86
992.027	220.91
992.383	203.22
992.74	184.2
993.096	209.82
993.453	226.6
993.809	240.6
994.165	309.71
994.522	380.84
994.878	421.83
995.234	537.15
995.59	540.67
995.946	394.81
996.302	451.84
996.658	504.86
997.013	543.3
997.369	669.6
997.725	934.42
998.08	606.42
998.436	637.67
998.791	855.7
999.147	869.15
999.502	939.75
999.857	686.05
1000.212	1116.47
1000.567	1640.12
1000.922	888.37
1001.277	583.27
1001.632	411.88
1001.987	536.47
1002.342	437.31
1002.696	368.38
1003.051	310.39
1003.406	401.47
1003.76	390.54
1004.114	383.36
1004.469	331.71
1004.823	294.27
1005.177	303.51
1005.531	242.71
1005.885	231.06
1006.239	276.84
1006.593	368.55
1006.947	506.82
1007.301	338.05
1007.655	350.6
1008.008	272.12
1008.362	313.93
1008.715	424.9
1009.069	348.29
1009.422	621.11
1009.776	1141.23
1010.129	698.25
1010.482	555.1
1010.835	364.91
1011.188	761.78
1011.541	776.29
1011.894	-4665.14
1012.247	13316.22
1012.6	835.26
1012.952	658.25
1013.305	236.42
1013.657	188.28
1014.01	166.54
1014.362	116.8
1014.715	199.14
1015.067	221.6
1015.419	230.38
1015.771	208.38
1016.123	201.33
1016.475	221.24
1016.827	230.1
1017.179	273.13
1017.531	255.68
1017.883	240.77
1018.234	313.43
1018.586	372.27
1018.938	444.01
1019.289	585.48
1019.64	636.64
1019.992	532.27
1020.343	466.18
1020.694	400.06
1021.045	349.78
1021.396	386.1
1021.747	482.59
1022.098	455
1022.449	287.31
1022.8	217.12
1023.151	196.65
1023.501	202.41
1023.852	216.8
1024.202	249.72
1024.553	231.56
1024.903	267.68
1025.253	289.17
1025.604	267.68
1025.954	320.62
1026.304	363.19
1026.654	406.6
1027.004	490.8
1027.354	594.8
1027.703	672.93
1028.053	675.65
1028.403	1382.94
1028.753	1543.6
1029.102	1388.14
1029.452	5207.61
1029.801	224.43
1030.15	162.43
1030.499	87.6
897.758	2822.31
901.051	2786.05
904.343	2818.4
907.636	2816.62
910.928	2883.17
914.22	2789.13
917.511	2796.92
920.803	2865.13
924.094	2887.77
927.384	2857.38
930.675	2825.12
933.965	2774.94
937.255	2778.97
940.544	2748.3
943.834	2668.31
947.123	2614.24
950.411	2714.48
953.7	2683.72
956.988	2643.91
960.276	2584.58
963.563	2673.16
966.851	2662.12
970.138	2724.38
973.424	2712.69
976.711	2661.67
979.997	2815.77
983.283	2847.06
986.568	2742.12
989.853	2764.69
993.138	2791.99
996.423	2872.79
999.708	2801.61
1002.992	2877.89
1006.275	2691.51
1009.559	2747.85
1012.842	2863.9
1016.125	2790.82
1019.408	2766.62
1022.69	2861.18
1025.972	2872.59
1029.254	2846.28
1032.536	2770.8
1035.817	2801.12
1039.098	2732
1042.379	2899.2
1045.659	2884.92
1048.939	2813.72
1052.219	2834.25
1055.498	2851.41
1058.778	2830.33
1062.057	2818.2
1065.335	2836.11
1068.614	2853.97
1071.892	2831.04
1075.17	2912.89
1078.447	2895.29
1081.724	2884.54
1085.001	2922.13
1088.278	2898.6
1091.554	2908.05
1094.83	2903.75
1098.106	2924.84
1101.382	2972.4
1104.657	2973.7
1107.932	2969.44
1111.206	2927.5
1114.481	2884.37
1117.755	2890.39
1121.029	2863.75
1124.302	2911.85
1127.575	2858.58
1130.848	2843.31
1134.121	2801.82
1137.393	2749.05
1140.665	2817.08
1143.937	2790.09
1147.208	2755.89
1150.48	2789.53
1153.75	2772.36
1157.021	2813.07
1160.291	2780.31
1163.561	2821.84
1166.831	2819.36
1170.101	2852.74
1173.37	2830.78
1176.639	2772.45
1179.907	2833.17
1183.176	2832.05
1186.444	2844.77
1189.711	2871.46
1192.979	2880.8
1196.246	2836.93
1199.513	2858.5
1202.78	2852.66
1206.046	2859.91
1209.312	2885.9
1212.578	2911.37
1215.843	2861.73
1219.108	2839.83
1222.373	2860.43
1225.638	2823.58
1228.902	2804.93
1232.166	2779.11
1235.43	2758.36
1238.693	2782.22
1241.956	2781.72
1245.219	2819.76
1248.482	2816.51
1251.744	2809.12
1255.006	2965.09
1258.268	2922.11
1261.529	2863.33
1264.79	2872.24
1268.051	2971.96
1271.312	2992.02
1274.572	2950.84
1277.832	2941.1
1281.092	2929.57
1284.351	2896.85
1287.61	2875.18
1290.869	2782.04
1294.128	2752.33
1297.386	2852.43
1300.644	2838.69
1303.902	2850.62
1307.159	2707.81
1310.416	2763.85
1313.673	2787.26
1316.93	2774.27
1320.186	2821.87
1323.442	2870.21
1326.697	2859.41
1329.953	2858.49
1333.208	2877.72
1336.463	2864.83
1339.717	2801.57
1342.972	2945.14
1346.226	2926.19
1349.479	2855.62
1352.733	2823.63
1355.986	2858.03
1359.238	2829.04
1362.491	2832.27
1365.743	2836.77
1368.995	2838.3
1372.247	2848.68
1375.498	2875.78
1378.749	2887.08
1382	2848.13
1385.251	2910.33
1388.501	2873.96
1391.751	2853.99
1395	2832.34
1398.25	2868.76
1401.499	2875.78
1404.748	2797.31
1407.996	2795.31
1411.244	2779.55
1414.492	2760.17
1417.74	2733.97
1420.987	2746.65
1424.234	2808
1427.481	2790.9
1430.728	2851.72
1433.974	2825.55
1437.22	2845.07
1440.465	2846.47
1443.711	2802.01
1446.956	2839.73
1450.201	2829.45
1453.445	2877.4
1456.689	2849.35
1459.933	2861.37
1463.177	2889.99
1466.42	2858.09
1469.663	2837.07
1472.906	2821.62
1476.148	2908.12
1479.391	2855.05
1482.633	2827.58
1485.874	2832.53
1489.115	2811.91
1492.356	2821.28
1495.597	2792.7
1498.838	2795.06
1502.078	2760.93
1505.318	2702.48
1508.557	2745.41
1511.797	2707.39
1515.036	2788.4
1518.274	2773
1521.513	2751.23
1524.751	2773.48
1527.989	2778.61
1531.227	2788.74
1534.464	2773.11
1537.701	2797.91
1540.938	2816.56
1544.174	2772.46
1547.41	2771.85
1550.646	2811.55
1553.882	2843.23
1557.117	2890.47
1560.352	2904.85
1563.587	2861.34
1566.821	2819.02
1570.055	2856.59
1573.289	2823.36
1576.523	2902.85
1579.756	2902.63
1582.989	2917.43
1586.222	2878.02
1589.454	2917.34
1592.686	2885.8
1595.918	2907.3
1599.15	2891.5
1602.381	2974.95
1605.612	2921.89
1608.843	3016.36
1612.073	2929.58
1615.303	2911.05
1618.533	2899.69
1621.762	2902.52
1624.992	2891.93
1628.221	2871.33
1631.449	2859.08
1634.678	2925.59
1637.906	2871.62
1641.134	2915.84
1644.361	2868.02
1647.588	2853.8
1650.815	2870.95
1654.042	2855.95
1657.269	2884.25
1660.495	2829.08
1663.72	2852.72
1666.946	2817.44
1670.171	2750.56
1673.396	2731.82
1676.621	2721.33
1679.845	2749.09
1683.069	2773.85
1686.293	2819.34
1689.517	2785.38
1692.74	2711.57
1695.963	2744.65
1699.185	2762.66
1702.408	2738.91
1705.63	2782.13
1708.852	2790.18
1712.073	2767.69
1715.294	2746.83
1718.515	2813.47
1721.736	2758.28
1724.956	2757.26
1728.176	2784.92
1731.396	2807.48
1734.616	2795.72
1737.835	2819.6
1741.054	2804.84
1744.272	2802.62
1747.491	2828.23
1750.709	2891.18
1753.927	2785.88
1757.144	2835.23
1760.361	2874.07
1763.578	2873.29
1766.795	2814.16
1770.011	2828.71
1773.227	2874.52
1776.443	2908.54
1779.658	2951.01
1782.874	2897.69
1786.089	2872.47
1789.303	2876.11
1792.518	2886.65
1795.732	2874.5
1798.945	2883.87
1802.159	2936.71
1805.372	2829.65
1808.585	2812.43
1811.797	2816.53
1815.01	2873.54
1818.222	2872.01
1821.434	2835.73
1824.645	2899.65
1827.856	2879.71
1831.067	2917.38
1834.278	2882.98
1837.488	2868.34
1840.698	3025.49
1843.908	2945.89
1847.117	2910.44
1850.326	2784.86
1853.535	2900.77
1856.744	2943.41
1859.952	2856.51
1863.16	2862.01
1866.368	2890.53
1869.575	2995.14
1872.782	2882.68
1875.989	2825.75
1879.196	2926.94
1882.402	2922.73
1885.608	2970.74
1888.814	2869.99
1892.019	2762.97
1895.224	2820.97
1898.429	2805.49
1901.634	2783.68
1904.838	2763.65
1908.042	2819.12
1911.246	2827.69
1914.449	2748.4
1917.652	2747.6
1920.855	2727.91
1924.058	2784.51
1927.26	2820.23
1930.462	2851.08
1933.664	2874.95
1936.865	2810.29
1940.066	2815.86
1943.267	2758.97
1946.467	2778.99
1949.668	2807.38
1952.868	2877.72
1956.067	2852.65
1959.267	2779.53
1962.466	2808.51
1965.665	2792.25
1968.863	2790.57
1972.061	2809.19
1975.259	2807.84
1978.457	2890.01
1981.654	2842.19
1984.852	2842.71
1988.048	2769.49
1991.245	2779.32
1994.441	2863.44
1997.637	2852.75
2000.833	2831.79
2004.028	2870.57
2007.223	2920.56
2010.418	2897.3
2013.613	2862.72
2016.807	2826.79
2020.001	2840
2023.194	2888.23
2026.388	2858.21
2029.581	2804.28
2032.774	2852.61
2035.966	2856.79
2039.158	2784.01
2042.35	2815.66
2045.542	2740.92
2048.733	2843.88
2051.924	2874.87
2055.115	2903.83
2058.306	2840.73
2061.496	2904.08
2064.686	2971.66
2067.875	2884.29
2071.065	2902.05
2074.254	2931.44
2077.442	2880.7
2080.631	2973.65
2083.819	2854.8
2087.007	2833.74
2090.195	2801.41
2093.382	2839.27
2096.569	2816.19
2099.756	2767.44
2102.942	2788.18
2106.128	2793.01
2109.314	2784.18
2112.5	2741.15
2115.685	2717.86
2118.87	2729.39
2122.055	2795.67
2125.239	2757.7
2128.424	2729.46
2131.608	2842.75
2134.791	2823.06
2137.974	2887.99
2141.157	2872.79
2144.34	2819.68
2147.523	2840.95
2150.705	2851.51
2153.887	2832.62
2157.068	2776.89
2160.25	2783.17
2163.431	2826.5
2166.611	2766.16
2169.792	2782.31
2172.972	2669.3
2176.152	2754.9
2179.331	2794.62
2182.511	2772.83
2185.69	2801.39
2188.868	2795.3
2192.047	2857.46
2195.225	2841.89
2198.403	2790.8
2201.58	2787.41
2204.758	2783.04
2207.935	2873.12
2211.111	2753.06
2214.288	2734.69
2217.464	2775.84
2220.64	2753.33
2223.815	2810.82
2226.991	2727.85
2230.166	2749.91
2233.34	2777.03
2236.515	2804.35
2239.689	2884.34
2242.863	2821.74
2246.036	2879.89
2249.209	2883.88
2252.382	2923.87
2255.555	2905.64
2258.727	2839.25
2261.9	2883.55
2265.071	2874.57
2268.243	2880.17
2271.414	2805.74
2274.585	2762.76
2277.756	2834.61
2280.926	2790.11
2284.096	2835.98
2287.266	2734.71
2290.436	2795.55
2293.605	2825.67
2296.774	2855.5
2299.942	2878.75
2303.111	2899.29
2306.279	2945.79
2309.447	2932.51
2312.614	2907.4
2315.781	2927.54
2318.948	2896.16
2322.115	2935.87
2325.281	2834.65
2328.447	2860.01
2331.613	2834.63
2334.779	2804.57
2337.944	2806.31
2341.109	2808.66
2344.274	2787.51
2347.438	2753.18
2350.602	2778.77
2353.766	2796.51
2356.929	2781.98
2360.092	2824.32
2363.255	2772.93
2366.418	2697.98
2369.58	2826.12
2372.742	2582.35
2375.904	2602.61
2379.066	2576.46
2382.227	2614.08
2385.388	2577.93
2388.548	2494.4
2391.709	2556
2394.869	2533.14
2398.029	2642.16
2401.188	2659.04
2404.347	2583.59
2407.506	2749.75
2410.665	2776.21
2413.823	2787.58
2416.981	2739.12
2420.139	2774.92
2423.296	2827.05
2426.453	2799.01
2429.61	2825.09
2432.767	2749.87
2435.923	2788.72
2439.079	2737.59
2442.235	2792.07
2445.391	2711.72
2448.546	2739.06
2451.701	2792.39
2454.855	2756.04
2458.009	2817.72
2461.163	2821.64
2464.317	2778.9
2467.471	2816.95
2470.624	2859.92
2473.777	2842.65
2476.929	2853.46
2480.082	2881.66
2483.234	2840.97
2486.385	2793.3
2489.537	2785.29
2492.688	2740.13
2495.839	2759.19
2498.989	2768.74
2502.14	2750.44
2505.29	2729.63
2508.439	2759.58
2511.589	2677.25
2514.738	2688.13
2517.887	2722.68
2521.035	2792.35
2524.183	2780.26
2527.331	2757.51
2530.479	2725.62
2533.627	2738.75
