Data from C_3_DEC_NC_4N_Splice17_13-05-57-222.txt Node
Date: Sat Mar 14 13:05:57 EDT 2020
User: sa697716
Spectrometer: FLMS03696
Trigger mode: 0
Integration Time (sec): 3.180400E-1
Scans to average: 20
Electric dark correction enabled: true
Nonlinearity correction enabled: true
Boxcar width: 5
XAxis mode: Wavelengths
Number of Pixels in Spectrum: 2048
>>>>>Begin Spectral Data<<<<<
187.83	-321453.84
188.298	2290.32
188.766	1224.53
189.233	1139.07
189.701	1616.93
190.169	2347.55
190.636	865.02
191.104	714.29
191.571	89.4
192.039	-93.73
192.506	-19.97
192.974	443.44
193.441	-732.35
193.908	-174.22
194.375	9.33
194.842	87.73
195.31	288.31
195.777	218.89
196.244	461.43
196.711	498.28
197.177	591.05
197.644	832.93
198.111	1448.49
198.578	2016.83
199.045	1631.85
199.511	2645.26
199.978	3071.24
200.445	2596.13
200.911	2878.92
201.378	3194.35
201.844	2901.52
202.31	4976.3
202.777	5179.27
203.243	2849.38
203.709	2706.86
204.176	3198.36
204.642	2609.21
205.108	2456.15
205.574	1994.05
206.04	1830.8
206.506	1719.66
206.972	1621.66
207.438	1571.51
207.903	1801.43
208.369	1600.87
208.835	1605.35
209.301	1680.65
209.766	1727.78
210.232	1705.4
210.697	2108.63
211.163	2577.43
211.628	3898.58
212.094	3288.97
212.559	4016.61
213.024	2494.79
213.49	3044.76
213.955	2966.85
214.42	2890.23
214.885	2712.4
215.35	2597.37
215.815	2514.14
216.28	2664.18
216.745	2153.74
217.21	2307.9
217.675	2099.91
218.14	2340.7
218.604	2591.2
219.069	2937.24
219.534	3078.94
219.998	3562.69
220.463	4293.97
220.927	5247.71
221.392	4929.93
221.856	4994.51
222.32	6285.67
222.785	7756.85
223.249	9758.15
223.713	10889.65
224.177	10902.87
224.642	13965.61
225.106	17150.54
225.57	18719.09
226.034	13927.86
226.497	21166.18
226.961	19088.43
227.425	22218.34
227.889	24666.56
228.353	24669.88
228.816	50846.87
229.28	48477.26
229.744	40813.32
230.207	24837.85
230.671	24447.49
231.134	40409.33
231.597	46623.43
232.061	46603.14
232.524	45403.49
232.987	31276.78
233.45	28129.44
233.914	25197.13
234.377	25871.89
234.84	23659.71
235.303	27860.9
235.766	31060.01
236.229	32081.6
236.691	20185.02
237.154	22707.68
237.617	17103.15
238.08	17483.5
238.542	20437.31
239.005	14621.31
239.468	14501.42
239.93	13669.05
240.393	12421.08
240.855	10908.03
241.317	11167.79
241.78	13567.22
242.242	14003.77
242.704	15109.11
243.166	13150.22
243.629	11950.29
244.091	13767.71
244.553	15065.46
245.015	16210.56
245.477	20949.79
245.939	30704.06
246.4	32582.74
246.862	31677.87
247.324	29861.51
247.786	33410.18
248.247	43855.56
248.709	45273.43
249.17	33856.73
249.632	31961.52
250.093	37005.56
250.555	31951.35
251.016	19501.48
251.477	18509.44
251.939	19988.59
252.4	20971.63
252.861	24904.02
253.322	23162.78
253.783	27582.29
254.244	35802.6
254.705	28220.88
255.166	25145.02
255.627	24814.22
256.088	35029.56
256.549	37235.57
257.009	32081.88
257.47	38964.04
257.931	31802.33
258.391	23862.89
258.852	24616.44
259.312	25789.3
259.773	31874.58
260.233	26931.42
260.694	22708.64
261.154	25729.39
261.614	20644.05
262.074	18482.6
262.534	19205.35
262.994	18110.29
263.455	24127.22
263.915	20308.5
264.374	19131.33
264.834	20880.46
265.294	23115.23
265.754	23924.71
266.214	22670.67
266.673	21247.69
267.133	26812.49
267.593	26579.55
268.052	32476.83
268.512	28236.12
268.971	34065.96
269.431	37400.67
269.89	33456.66
270.349	50221.58
270.809	56076.34
271.268	50382.49
271.727	112873.95
272.186	73172.1
272.645	54913.22
273.104	39664.87
273.563	57383.05
274.022	45104.24
274.481	38354.13
274.94	29567.19
275.399	21984.18
275.857	25584.19
276.316	34609.53
276.775	30818.06
277.233	30322.4
277.692	28396.83
278.15	32106.34
278.609	33044.87
279.067	30611.45
279.525	28452.76
279.984	36773.32
280.442	44181.77
280.9	43593.26
281.358	28654.06
281.816	26714.49
282.274	26130.45
282.732	26950.56
283.19	27085.19
283.648	23387.92
284.106	24874.66
284.564	25267.62
285.021	23436.63
285.479	17454.28
285.937	15856.46
286.394	13921.04
286.852	14327.8
287.309	15080.11
287.767	14611.68
288.224	13907.56
288.682	15243.64
289.139	16753.64
289.596	15346.08
290.053	15935.76
290.511	20095.24
290.968	24356.38
291.425	33083.68
291.882	27521.44
292.339	23926.4
292.796	23687.86
293.252	22278.15
293.709	17713.37
294.166	15850.64
294.623	17504.55
295.079	16791.4
295.536	16881.36
295.992	15318.53
296.449	15128.87
296.905	15720.96
297.362	15087.01
297.818	15859.04
298.274	16460.08
298.731	16753.12
299.187	16568.26
299.643	17773.44
300.099	21489.25
300.555	23539.76
301.011	19677.82
301.467	18991.15
301.923	22231.56
302.379	21688.28
302.835	21325.57
303.291	21351.98
303.746	24324.72
304.202	30775.24
304.658	30903.62
305.113	20788.16
305.569	20368.46
306.024	21707.8
306.479	20627.67
306.935	17388.05
307.39	18999.07
307.845	17530.91
308.301	17665.06
308.756	17208.66
309.211	16571.39
309.666	16980.05
310.121	21060.89
310.576	21375.09
311.031	21197.14
311.486	24298.54
311.94	24279.28
312.395	32457.41
312.85	60987.81
313.305	298504
313.759	1544660.54
314.214	111997.6
314.668	88927.38
315.123	74893.11
315.577	26896.46
316.032	23928
316.486	29985.94
316.94	23643.29
317.394	16457.2
317.849	12773.54
318.303	12119.88
318.757	11427.65
319.211	12640.86
319.665	11048.78
320.119	11181.72
320.572	16021.38
321.026	14985.29
321.48	12479.43
321.934	13603.79
322.387	13641.05
322.841	14761.35
323.295	13279.96
323.748	15299.45
324.202	15534.39
324.655	18653.25
325.108	26078.46
325.562	18446.54
326.015	21902.46
326.468	16533.41
326.921	18513.07
327.374	17261.73
327.827	18005.52
328.28	20353.72
328.733	13655.4
329.186	11988.35
329.639	11422.43
330.092	9638.98
330.545	9178.46
330.997	9266.96
331.45	10140.3
331.903	11899.73
332.355	20446.67
332.808	19843.44
333.26	16380.6
333.713	17774.91
334.165	17903.61
334.617	23915.67
335.069	19266.57
335.522	34812.26
335.974	38554.9
336.426	35201.76
336.878	24300.52
337.33	12365.01
337.782	12051.07
338.234	15127.78
338.686	18103.32
339.137	21474.53
339.589	20234.18
340.041	15897.23
340.493	13675.96
340.944	14009.36
341.396	15094.77
341.847	12722.61
342.299	14995.48
342.75	18337.91
343.201	15989.83
343.653	18377.05
344.104	22607.06
344.555	17800.48
345.006	27694.81
345.457	21220.9
345.908	16839.85
346.359	15845.61
346.81	12891.32
347.261	13583.07
347.712	13385.09
348.163	14334.97
348.613	14536.98
349.064	13564.53
349.515	11857.86
349.965	12166.38
350.416	14645.07
350.866	16072.52
351.317	18180.67
351.767	30161.17
352.217	38049.44
352.668	31593.98
353.118	28999.78
353.568	27939.75
354.018	22117.94
354.468	23380.86
354.918	16765.34
355.368	14671.8
355.818	20778.6
356.268	59848.94
356.718	250576.6
357.168	62540.22
357.617	31359.53
358.067	34926.3
358.517	32758.62
358.966	38342.45
359.416	42940.1
359.865	46378.23
360.315	55265.61
360.764	25841.28
361.213	14490.27
361.663	13719.68
362.112	16922.47
362.561	27412.57
363.01	20695.93
363.459	17395.71
363.908	18833.14
364.357	16033.17
364.806	27131.92
365.255	18655.73
365.703	17076.41
366.152	17075.11
366.601	13823.81
367.05	11248.59
367.498	10220.56
367.947	10664.5
368.395	11095.1
368.844	9842.08
369.292	11837.02
369.74	8179.15
370.189	12504.29
370.637	14624.13
371.085	12613.57
371.533	15391.69
371.981	14801.72
372.429	14091.01
372.877	14671.29
373.325	12292.61
373.773	12510.31
374.221	11131.28
374.669	13789.27
375.116	11924.52
375.564	12035.05
376.012	13466.76
376.459	11077.19
376.907	13246.01
377.354	16028.69
377.801	14963.22
378.249	17206.56
378.696	22001.04
379.143	26663.31
379.591	28377.48
380.038	47958.47
380.485	34653.7
380.932	37426.19
381.379	34277.9
381.826	25249.07
382.273	17883.82
382.72	15586.56
383.166	15152.78
383.613	9820.43
384.06	8853.7
384.506	10261.29
384.953	7541.12
385.4	7570.22
385.846	6604.57
386.292	6424.23
386.739	6265.06
387.185	6200.66
387.631	6200.89
388.078	6017.56
388.524	6418.58
388.97	5921.96
389.416	4940.43
389.862	5243.19
390.308	4971.56
390.754	5049.51
391.2	5478.24
391.645	5599.25
392.091	5369.03
392.537	5179.77
392.983	5181.83
393.428	5107.42
393.874	5454.75
394.319	5468.31
394.765	5181.01
395.21	5318.74
395.655	4985.47
396.101	4663.37
396.546	4206.26
396.991	4231.65
397.436	3939.67
397.881	3801.39
398.326	3592.16
398.771	3403.71
399.216	2970.67
399.661	2675.07
400.106	2665.61
400.551	2735.63
400.995	2455.04
401.44	2428.64
401.885	2275.13
402.329	2289.87
402.774	2192.83
403.218	2126.34
403.663	2046.33
404.107	2102.49
404.551	2120.71
404.995	1943.78
405.44	1865.79
405.884	1895.7
406.328	1834.16
406.772	1828.08
407.216	1668.42
407.66	1615.57
408.104	1531.49
408.547	1433.32
408.991	1388.55
409.435	1332.97
409.879	1314.43
410.322	1298.25
410.766	1253.38
411.209	1193.45
411.653	1147.58
412.096	1126.58
412.54	1124.83
412.983	1114.49
413.426	1120.53
413.869	1118.93
414.312	1100.81
414.756	1058.15
415.199	1010.27
415.642	980.55
416.085	981.52
416.527	973.33
416.97	986.01
417.413	938.24
417.856	931.76
418.298	919.69
418.741	911.16
419.184	905.09
419.626	940.17
420.069	938.87
420.511	943.2
420.953	922.51
421.396	913.2
421.838	887.73
422.28	906.02
422.722	908.92
423.164	921.7
423.606	906.65
424.048	905.25
424.49	862.7
424.932	857.49
425.374	845.88
425.816	858.92
426.258	875.84
426.699	887.33
427.141	875.86
427.582	889.04
428.024	881.9
428.465	874
428.907	854.02
429.348	843.08
429.789	846.48
430.231	830.31
430.672	843.62
431.113	823.39
431.554	812.35
431.995	792.24
432.436	766.52
432.877	753.38
433.318	744.83
433.759	740.47
434.2	742.11
434.64	732.45
435.081	735.52
435.522	696.99
435.962	673.31
436.403	660
436.843	668.17
437.284	651.67
437.724	632.12
438.164	631.32
438.604	619.78
439.045	597.26
439.485	574.98
439.925	559.47
440.365	546.7
440.805	539.11
441.245	533.44
441.685	515.13
442.125	511.13
442.564	515
443.004	504.03
443.444	502.89
443.883	504.6
444.323	498.26
444.762	498.78
445.202	504.51
445.641	514.89
446.081	508.91
446.52	513.67
446.959	509.31
447.398	498.35
447.837	491.39
448.276	481.03
448.716	483.96
449.154	487.5
449.593	479.08
450.032	476.18
450.471	465.45
450.91	465.08
451.349	463.35
451.787	461.52
452.226	467.13
452.664	468.95
453.103	470.72
453.541	470.14
453.98	471.19
454.418	472.87
454.856	467.57
455.295	466.58
455.733	470.66
456.171	472.02
456.609	471.63
457.047	472.07
457.485	478.42
457.923	478.35
458.361	470.93
458.798	471.47
459.236	469.75
459.674	470.82
460.111	473.42
460.549	468.76
460.987	467.15
461.424	466.89
461.862	464.4
462.299	456.99
462.736	457.49
463.173	459.45
463.611	455.75
464.048	455.35
464.485	460.34
464.922	455.26
465.359	453.02
465.796	452.63
466.233	449.96
466.67	446.41
467.106	447.45
467.543	443.1
467.98	437.13
468.416	425.82
468.853	422.79
469.29	409.78
469.726	406.24
470.162	396.24
470.599	387.17
471.035	383.34
471.471	374.02
471.907	369.86
472.344	367.59
472.78	369.58
473.216	373.55
473.652	369.55
474.088	368.75
474.523	367.97
474.959	372.01
475.395	368.6
475.831	366.4
476.266	368.25
476.702	367.04
477.138	362.73
477.573	361.19
478.008	359.95
478.444	361.79
478.879	366.2
479.314	367.94
479.75	367.56
480.185	369.53
480.62	372.44
481.055	374.4
481.49	377.7
481.925	383.89
482.36	392.14
482.795	403.09
483.229	412.52
483.664	420.67
484.099	421.64
484.534	427.67
484.968	432.36
485.403	433.21
485.837	432.48
486.271	431.96
486.706	431.88
487.14	425.96
487.574	419.3
488.009	416.19
488.443	411.87
488.877	417.05
489.311	418.53
489.745	422.71
490.179	427.5
490.613	436.75
491.046	440.61
491.48	444.85
491.914	446.42
492.348	450.66
492.781	454.9
493.215	457.95
493.648	459.42
494.082	464.6
494.515	466.92
494.948	473.61
495.382	477.88
495.815	482.65
496.248	488.19
496.681	498.25
497.114	507.6
497.547	516.07
497.98	527.18
498.413	534.84
498.846	543.56
499.279	551.13
499.711	556.07
500.144	559.83
500.577	570.41
501.009	580.4
501.442	590.85
501.874	594.71
502.306	598.8
502.739	608.52
503.171	622.04
503.603	627.69
504.036	638.3
504.468	646.55
504.9	659.07
505.332	667.03
505.764	674.09
506.196	682.6
506.627	697.99
507.059	712.43
507.491	721.64
507.923	723.95
508.354	739.98
508.786	752.85
509.217	771.03
509.649	786.44
510.08	806.83
510.512	825.56
510.943	842.77
511.374	856.48
511.805	876.94
512.237	897.24
512.668	927.49
513.099	954.42
513.53	981.72
513.961	1004.27
514.391	1036.34
514.822	1068.4
515.253	1102.72
515.684	1128.79
516.114	1158.66
516.545	1182.33
516.975	1209.95
517.406	1230.22
517.836	1237.05
518.267	1247.07
518.697	1266.49
519.127	1273.63
519.558	1284.1
519.988	1291.29
520.418	1303.68
520.848	1322.79
521.278	1332.85
521.708	1362.98
522.138	1378.26
522.567	1409.71
522.997	1434.57
523.427	1451.81
523.857	1470.38
524.286	1482.12
524.716	1498.92
525.145	1518.71
525.575	1531.44
526.004	1547.92
526.433	1534.56
526.863	1537.48
527.292	1530.01
527.721	1537.81
528.15	1544.85
528.579	1547.32
529.008	1559.83
529.437	1581.19
529.866	1595.51
530.295	1612.13
530.724	1624.95
531.152	1652
531.581	1665.71
532.01	1683.33
532.438	1692.68
532.867	1707.27
533.295	1725.67
533.723	1731.32
534.152	1730.47
534.58	1730.55
535.008	1715.53
535.436	1718.05
535.865	1723.6
536.293	1737.24
536.721	1752.71
537.149	1776.25
537.576	1778.88
538.004	1790.55
538.432	1798.73
538.86	1797.17
539.287	1804.63
539.715	1818.77
540.143	1820.26
540.57	1817.02
540.998	1812.8
541.425	1791
541.852	1770.79
542.28	1768.69
542.707	1752.64
543.134	1739.19
543.561	1735.96
543.988	1728.71
544.415	1727.85
544.842	1724.09
545.269	1717.34
545.696	1719.21
546.123	1731.24
546.549	1721.07
546.976	1709.5
547.403	1710.47
547.829	1712.42
548.256	1714.51
548.682	1711.92
549.108	1705.72
549.535	1705.45
549.961	1707.42
550.387	1695.97
550.813	1691.37
551.24	1699.14
551.666	1700.64
552.092	1691.73
552.518	1686.18
552.943	1680.2
553.369	1686.94
553.795	1692.99
554.221	1692.95
554.646	1690.13
555.072	1700.49
555.498	1704.6
555.923	1713.21
556.349	1726.37
556.774	1734.43
557.199	1734.91
557.625	1741.13
558.05	1734.81
558.475	1743.61
558.9	1742.65
559.325	1734.97
559.75	1728.68
560.175	1722.51
560.6	1715.58
561.025	1713.37
561.449	1712.12
561.874	1716.06
562.299	1718.08
562.723	1723.61
563.148	1712.4
563.572	1715.16
563.997	1722.81
564.421	1726.1
564.846	1723.38
565.27	1724.61
565.694	1720.4
566.118	1729.53
566.542	1734.86
566.966	1727.86
567.39	1720.74
567.814	1708.31
568.238	1705.83
568.662	1708.2
569.086	1707.9
569.509	1712.97
569.933	1696.35
570.357	1687.89
570.78	1666.95
571.204	1653.02
571.627	1640.31
572.05	1637.37
572.474	1636.46
572.897	1622.97
573.32	1614.89
573.743	1604.28
574.166	1586
574.589	1583.52
575.012	1574.45
575.435	1572.35
575.858	1562.49
576.281	1550.99
576.704	1535.54
577.126	1523.65
577.549	1512.31
577.972	1501.1
578.394	1490.12
578.817	1482.49
579.239	1465.29
579.661	1452.5
580.084	1436.75
580.506	1423.55
580.928	1419.22
581.35	1407.83
581.772	1401.19
582.194	1388.11
582.616	1374.89
583.038	1361.6
583.46	1350.99
583.882	1347.12
584.303	1349.08
584.725	1344.34
585.147	1346.73
585.568	1354.71
585.99	1364.63
586.411	1369.23
586.833	1381.12
587.254	1382.91
587.675	1394.51
588.096	1405.88
588.518	1400.29
588.939	1385.1
589.36	1381.58
589.781	1368.53
590.202	1342.63
590.623	1334.13
591.043	1331.02
591.464	1319.03
591.885	1315.18
592.305	1309.22
592.726	1295.22
593.147	1295.62
593.567	1289.97
593.987	1283.28
594.408	1278.16
594.828	1275.68
595.248	1269.64
595.669	1252.53
596.089	1245.63
596.509	1238.38
596.929	1224.75
597.349	1224.29
597.769	1214.56
598.189	1208.08
598.608	1208.7
599.028	1210.31
599.448	1210.36
599.867	1199.05
600.287	1194.9
600.706	1190.19
601.126	1181.88
601.545	1180.6
601.965	1179.1
602.384	1174.02
602.803	1175.94
603.222	1170.35
603.641	1163.26
604.061	1158.59
604.48	1154.24
604.898	1160.39
605.317	1163.69
605.736	1164.31
606.155	1161.62
606.574	1152.98
606.992	1157.65
607.411	1153.09
607.829	1145.44
608.248	1142
608.666	1138.64
609.085	1137.21
609.503	1129.03
609.921	1124.02
610.339	1124.94
610.758	1123.11
611.176	1117.66
611.594	1108.18
612.012	1104.14
612.43	1107.06
612.847	1112
613.265	1113.17
613.683	1115.67
614.101	1116.27
614.518	1111.38
614.936	1102.03
615.353	1088.76
615.771	1086.28
616.188	1086.63
616.606	1082.59
617.023	1074.04
617.44	1060.46
617.857	1052.35
618.274	1044.42
618.691	1037.39
619.108	1028.72
619.525	1022.13
619.942	1027.44
620.359	1028.65
620.776	1023.45
621.192	1019.37
621.609	1017.69
622.026	1022.65
622.442	1027.36
622.859	1029.23
623.275	1023.03
623.691	1027.01
624.108	1035.73
624.524	1046.27
624.94	1046.9
625.356	1053.97
625.772	1064.25
626.188	1073.9
626.604	1074.8
627.02	1071
627.436	1069.46
627.852	1075.44
628.268	1085.2
628.683	1077.61
629.099	1069.66
629.514	1064.13
629.93	1066.12
630.345	1068.65
630.761	1063.22
631.176	1065.96
631.591	1061.19
632.007	1056.26
632.422	1053.01
632.837	1042.13
633.252	1038.81
633.667	1028.39
634.082	1018.85
634.497	1006.72
634.911	989.47
635.326	984.76
635.741	968.74
636.155	956.9
636.57	953.9
636.984	950.41
637.399	949.58
637.813	945.44
638.228	941.6
638.642	942.05
639.056	930.19
639.47	926.74
639.884	916.77
640.298	906.72
640.712	902.48
641.126	888.07
641.54	877.24
641.954	867.91
642.368	855.37
642.781	846.82
643.195	828.83
643.609	825.5
644.022	817.21
644.436	809.5
644.849	797.43
645.262	784.68
645.676	782.32
646.089	775.51
646.502	762.68
646.915	756.52
647.328	741.11
647.741	737.2
648.154	725.9
648.567	723.42
648.98	713.28
649.393	713.67
649.805	711.83
650.218	705.97
650.631	695.67
651.043	690.43
651.456	686.66
651.868	687.04
652.28	698.84
652.693	707.97
653.105	710.49
653.517	716.94
653.929	715.27
654.341	717.5
654.753	708.99
655.165	712.51
655.577	710.54
655.989	706.31
656.401	699.53
656.813	674.66
657.224	659.88
657.636	639.79
658.047	628.13
658.459	614.04
658.87	606.36
659.282	596.8
659.693	581.93
660.104	570.96
660.515	559.76
660.926	556.7
661.338	552.55
661.749	547.18
662.159	540.75
662.57	534.6
662.981	530.6
663.392	524.63
663.803	526.59
664.213	523.62
664.624	519.2
665.035	520.83
665.445	512.1
665.855	508.35
666.266	503.02
666.676	500.16
667.086	494.18
667.497	494.67
667.907	491.12
668.317	484.84
668.727	484.93
669.137	485.81
669.547	483.75
669.956	485.14
670.366	486.36
670.776	488.09
671.186	491.02
671.595	494.61
672.005	496.08
672.414	496.52
672.824	497.2
673.233	498.51
673.642	501.38
674.052	505.99
674.461	509.07
674.87	512.65
675.279	512.99
675.688	514.26
676.097	517.76
676.506	517.47
676.915	528.79
677.323	531.19
677.732	532.14
678.141	533.03
678.549	527.45
678.958	529.18
679.366	530.63
679.775	534.1
680.183	545.46
680.592	551.51
681	558.19
681.408	555.24
681.816	563.99
682.224	572.82
682.632	583.15
683.04	606.81
683.448	627.17
683.856	652.09
684.264	682.57
684.671	707.75
685.079	739.8
685.487	777.09
685.894	829.15
686.302	872.5
686.709	910.6
687.116	953.94
687.524	990.47
687.931	1025.24
688.338	1057.52
688.745	1085.7
689.152	1119.55
689.559	1161.22
689.966	1201.45
690.373	1225.36
690.78	1266.28
691.187	1324.66
691.593	1372.13
692	1415.27
692.407	1475.16
692.813	1547.72
693.22	1606.49
693.626	1666.14
694.032	1717.76
694.439	1793.74
694.845	1852.89
695.251	1927.66
695.657	1997.07
696.063	2095.08
696.469	2171.53
696.875	2242.32
697.281	2285.62
697.687	2338.19
698.093	2384.41
698.498	2460.94
698.904	2521.82
699.31	2613.71
699.715	2679.16
700.12	2770.55
700.526	2791.35
700.931	2863.62
701.337	2918.95
701.742	2957.1
702.147	3044.51
702.552	3079.4
702.957	3143.03
703.362	3168.8
703.767	3201.24
704.172	3245.81
704.577	3205.46
704.981	3260.17
705.386	3280.39
705.791	3279.88
706.195	3357.35
706.6	3369.67
707.004	3451.5
707.408	3425.99
707.813	3456.26
708.217	3448.79
708.621	3455.21
709.025	3555.32
709.43	3558.05
709.834	3621.24
710.237	3690.78
710.641	3679.97
711.045	3704.07
711.449	3701.03
711.853	3734.01
712.256	3777.19
712.66	3817.63
713.064	3893.08
713.467	3936.84
713.87	4051.4
714.274	4100.56
714.677	4212.42
715.08	4375.7
715.484	4546.02
715.887	4751.3
716.29	4949.37
716.693	5160.76
717.096	5402.05
717.499	5537.15
717.901	5562.26
718.304	5589.9
718.707	5615.21
719.109	5516.09
719.512	5484.6
719.915	5351.3
720.317	5296.11
720.719	5343.5
721.122	5315.72
721.524	5266.37
721.926	5225.43
722.328	5327.66
722.731	5321.49
723.133	5350.63
723.535	5543.72
723.937	5566.59
724.338	5617.28
724.74	5659.89
725.142	5597.24
725.544	5595.99
725.945	5623.91
726.347	5619.23
726.748	5614.71
727.15	5628.2
727.551	5593.52
727.952	5564.74
728.354	5535.95
728.755	5536.2
729.156	5495.05
729.557	5480.79
729.958	5360.07
730.359	5304.97
730.76	5290.56
731.161	5228.76
731.562	5204.7
731.962	5205.26
732.363	5144.41
732.763	5079.72
733.164	5119.05
733.564	5051.56
733.965	4955.92
734.365	4922.07
734.766	4950.72
735.166	4910.74
735.566	4858.4
735.966	4832.62
736.366	4828.02
736.766	4766.1
737.166	4799.42
737.566	4757.74
737.966	4732.4
738.365	4773.16
738.765	4765.51
739.165	4691.65
739.564	4663.98
739.964	4709.66
740.363	4665.57
740.763	4663.35
741.162	4651.92
741.561	4618.2
741.96	4572.8
742.36	4591.88
742.759	4595.67
743.158	4636.3
743.557	4650.87
743.955	4692.72
744.354	4645.78
744.753	4701.34
745.152	4660.32
745.55	4713.48
745.949	4708.37
746.348	4710.64
746.746	4730.23
747.144	4692.68
747.543	4669.45
747.941	4716.71
748.339	4646.26
748.737	4638.23
749.136	4628.61
749.534	4694.27
749.932	4666.43
750.33	4688.06
750.727	4741.01
751.125	4714.63
751.523	4698.29
751.921	4741.69
752.318	4710.8
752.716	4769.83
753.113	4784.65
753.511	4810.34
753.908	4808.96
754.305	4791.04
754.703	4852.23
755.1	4914.06
755.497	4974.72
755.894	5163.61
756.291	5341.19
756.688	5663.86
757.085	6097.51
757.482	6709
757.878	7375.94
758.275	7980.87
758.672	8814.86
759.068	9492.69
759.465	10457.56
759.861	11698.95
760.258	13145.73
760.654	13888.17
761.05	13778.84
761.447	13147.43
761.843	12240.76
762.239	11303.66
762.635	10873.22
763.031	10462.47
763.427	9878.51
763.822	9266.29
764.218	8657.77
764.614	7865.89
765.01	7336.45
765.405	6992.9
765.801	6733.8
766.196	6401.8
766.592	6218.19
766.987	5907.16
767.382	5697.17
767.778	5608.26
768.173	5475.47
768.568	5406.61
768.963	5282.56
769.358	5300.22
769.753	5254.03
770.148	5172.3
770.542	5170.84
770.937	5137.7
771.332	5227.31
771.726	5247.45
772.121	5184.63
772.515	5239.47
772.91	5222.97
773.304	5293.44
773.699	5226.64
774.093	5280.48
774.487	5332.83
774.881	5375.79
775.275	5371.26
775.669	5330.09
776.063	5372.87
776.457	5408.34
776.851	5336.37
777.245	5327.53
777.638	5361.6
778.032	5476.65
778.425	5439.72
778.819	5482.62
779.212	5439.47
779.606	5401.01
779.999	5421.92
780.392	5403.27
780.786	5486.02
781.179	5505.02
781.572	5546.47
781.965	5556.27
782.358	5502.04
782.751	5555.57
783.143	5506.97
783.536	5580.09
783.929	5622.5
784.322	5732.99
784.714	5767.37
785.107	5760.17
785.499	5832.87
785.891	5814.33
786.284	5796.76
786.676	5930.27
787.068	5911.72
787.46	5965.95
787.852	5985.07
788.245	6071.38
788.636	6102.13
789.028	6166.04
789.42	6207.15
789.812	6215.77
790.204	6306.72
790.595	6406
790.987	6217.13
791.378	6244.27
791.77	6370.3
792.161	6503.45
792.553	6558.41
792.944	6450.29
793.335	6385.96
793.726	6456.51
794.117	6542.16
794.508	6678.73
794.899	6646.93
795.29	6787.66
795.681	6846.37
796.072	6707.16
796.463	6527.3
796.853	6536.48
797.244	6692.41
797.634	6726.86
798.025	6727.61
798.415	6738.09
798.806	6828.51
799.196	6916.02
799.586	6965.72
799.976	6924.38
800.366	7150.59
800.756	7385.91
801.146	7345.85
801.536	7374.44
801.926	7443.3
802.316	7469.48
802.706	7544.4
803.095	7421.8
803.485	7521.37
803.874	7565.2
804.264	7823.05
804.653	7798.65
805.043	7943.06
805.432	8049.9
805.821	8052.62
806.21	8076.08
806.599	8191.06
806.988	8239.23
807.377	8346.16
807.766	8477.15
808.155	8756.49
808.544	8493.87
808.933	8513.31
809.321	8492.8
809.71	8787.3
810.098	8945.18
810.487	9402.76
810.875	9880.02
811.264	9906.13
811.652	10196.65
812.04	10340.14
812.428	10503.07
812.816	11266.86
813.204	11680.83
813.592	12228.62
813.98	12566.22
814.368	12474.23
814.756	12950.89
815.144	12870.75
815.531	13329.02
815.919	13257.75
816.306	13553.75
816.694	13245.92
817.081	13296.88
817.469	13635.26
817.856	13636.11
818.243	13908.67
818.63	14302.97
819.017	13888.51
819.404	13954.92
819.791	14330
820.178	14937.53
820.565	15192.15
820.952	16120.61
821.339	15625.8
821.725	15818.06
822.112	15084.49
822.498	15035.75
822.885	15154.07
823.271	15064.81
823.657	15483.79
824.044	15496.44
824.43	15566.15
824.816	15541.82
825.202	15106.41
825.588	16121.78
825.974	16127.16
826.36	16639.54
826.746	16672.63
827.132	17033.59
827.517	17004.21
827.903	16223.96
828.289	16250.69
828.674	15485.94
829.06	15373.6
829.445	15767.03
829.83	16118.92
830.216	16588.49
830.601	16945.65
830.986	16541.23
831.371	16402.6
831.756	16949.43
832.141	16519.69
832.526	16512.19
832.911	16788.18
833.295	16679.85
833.68	17143.19
834.065	16527.04
834.449	15622.12
834.834	15546.71
835.218	15544.15
835.603	15883.57
835.987	15675.14
836.371	16498.34
836.755	16393.43
837.139	16783.89
837.524	17016.4
837.908	16836.02
838.291	16892.05
838.675	16960.96
839.059	17164.9
839.443	17151.87
839.827	16911.13
840.21	17374.19
840.594	17220.92
840.977	17426.45
841.361	17402.18
841.744	17767.05
842.127	17612.89
842.511	17855.02
842.894	18436.93
843.277	18803.13
843.66	19333.05
844.043	19416.07
844.426	18626.5
844.809	18324.07
845.191	18350.09
845.574	17889.87
845.957	17525.63
846.339	17412.42
846.722	16888.65
847.104	16951
847.487	16787.15
847.869	16795.19
848.252	17073.33
848.634	17396.21
849.016	17649.43
849.398	17770.49
849.78	18608.9
850.162	18620.45
850.544	19031.68
850.926	19652.01
851.307	19572.02
851.689	19842.98
852.071	20292.02
852.452	20600.96
852.834	20585.01
853.215	20973.59
853.597	21132.68
853.978	21417.6
854.359	21861.32
854.741	20882.17
855.122	20784.28
855.503	20500.84
855.884	20643.64
856.265	20576.39
856.646	20682.76
857.026	20302.42
857.407	20237.33
857.788	20385.52
858.169	20672.47
858.549	19836.06
858.93	20446.59
859.31	20500.28
859.69	20705.3
860.071	20294.59
860.451	20079.27
860.831	19360.76
861.211	20488.59
861.591	21029.22
861.971	20994.01
862.351	21188.48
862.731	21571.23
863.111	21825.59
863.491	22144.68
863.87	23004.65
864.25	23352.47
864.629	22965.5
865.009	23464.16
865.388	24307.03
865.768	26057.83
866.147	25978.3
866.526	24525.38
866.905	24820.72
867.284	26227.3
867.663	24894.5
868.042	23849.92
868.421	23769.59
868.8	24170.39
869.179	24422.62
869.558	22998.03
869.936	21189.9
870.315	21550.95
870.693	22082.29
871.072	23807.5
871.45	22677.1
871.828	22970.11
872.207	24151.82
872.585	23792.93
872.963	24438.89
873.341	23588.48
873.719	23298.13
874.097	23021.79
874.475	23471.25
874.853	24018.35
875.23	23021.42
875.608	23988.78
875.986	25957.39
876.363	24831.24
876.741	25581.79
877.118	24922.2
877.495	26155.3
877.873	26593.62
878.25	27990.15
878.627	26851.51
879.004	27205.13
879.381	27060.53
879.758	26345.63
880.135	24521.56
880.512	25920.65
880.889	25233.87
881.265	24990.29
881.642	24780.29
882.019	25202.22
882.395	24691.8
882.772	25664.8
883.148	24562.58
883.524	24484.55
883.901	24335.52
884.277	24700.98
884.653	24546.06
885.029	25254.37
885.405	27949.79
885.781	27725.43
886.157	26570.24
886.532	26884.75
886.908	26863.65
887.284	29870.75
887.659	30835.64
888.035	31781.97
888.411	32617.45
888.786	33033.14
889.161	34157.67
889.537	33531.43
889.912	34596.8
890.287	34575.1
890.662	35449.87
891.037	34810.99
891.412	32446.04
891.787	32119.12
892.162	30994.56
892.536	31690.08
892.911	30502.96
893.286	29859.78
893.66	28632.38
894.035	29351.3
894.409	31939.9
894.784	30655.39
895.158	31146.2
895.532	32982.15
895.906	33859.45
896.281	34656.13
896.655	34112.09
897.029	38957.85
897.402	40563.26
897.776	45179.72
898.15	45029.69
898.524	44546.08
898.898	45142.05
899.271	50538.94
899.645	43787.69
900.018	42065.09
900.392	43631.98
900.765	43959.08
901.138	40689.31
901.511	40072.26
901.884	36810.35
902.258	33966.44
902.631	35105.35
903.003	40389.91
903.376	36447.97
903.749	40867.53
904.122	43750.86
904.495	48141.54
904.867	48755.07
905.24	42326.38
905.612	39398.12
905.985	40272.59
906.357	42080.95
906.729	40176.69
907.102	34315.75
907.474	32995.97
907.846	33205.01
908.218	32768.17
908.59	28952.37
908.962	28007.15
909.334	30180.19
909.705	31712.14
910.077	30785.54
910.449	32068.46
910.82	32960.65
911.192	36284.99
911.563	37719.41
911.935	40354.72
912.306	40399.16
912.677	41750.65
913.048	41348.01
913.419	44857.04
913.79	45121.02
914.161	48392.41
914.532	46249.03
914.903	42518.44
915.274	40372.53
915.645	39807.98
916.015	35041.9
916.386	33432.98
916.756	35576.2
917.127	36682.62
917.497	32773.86
917.868	35670.21
918.238	33888.79
918.608	34859.38
918.978	35580.39
919.348	37689.83
919.718	38948.09
920.088	37549.18
920.458	39030.57
920.828	41089.96
921.198	38958.34
921.567	41615.67
921.937	32234.86
922.306	32553.08
922.676	35106
923.045	29285.62
923.415	27819.46
923.784	25330.26
924.153	26039.95
924.522	25988.46
924.891	24427.67
925.26	26183.78
925.629	25583.18
925.998	29406.95
926.367	28701.93
926.736	27335.15
927.104	32554.26
927.473	35020.23
927.842	42299.79
928.21	41891.55
928.578	44055.48
928.947	41680.78
929.315	41924.3
929.683	49166.85
930.051	49563.22
930.42	57542.47
930.788	49190.89
931.156	48830.44
931.523	45760.16
931.891	42262.63
932.259	40572.05
932.627	47050.56
932.994	66545.59
933.362	55002.14
933.729	47746.54
934.097	45689.76
934.464	38682.51
934.831	44613.36
935.199	43938.73
935.566	42606.3
935.933	43124.83
936.3	52234.37
936.667	40610.97
937.034	36621.85
937.401	36229.59
937.767	31253.8
938.134	27820.25
938.501	39256.55
938.867	41907.79
939.234	70996.06
939.6	60574.63
939.967	66901.35
940.333	44802.75
940.699	38200.7
941.065	30672.57
941.431	40219.78
941.798	38858.55
942.163	51121.12
942.529	31927.68
942.895	29377.64
943.261	18993.25
943.627	24939.83
943.992	21856.19
944.358	21909.87
944.723	22001.37
945.089	21472.46
945.454	19850.27
945.82	21165.65
946.185	20332.79
946.55	23575.6
946.915	21145.29
947.28	24790.03
947.645	21817.96
948.01	20123.63
948.375	20981.93
948.74	25142.22
949.104	29323.78
949.469	42334.94
949.834	74826.63
950.198	70919.84
950.562	42500.63
950.927	35409.47
951.291	42637.73
951.655	36363.48
952.02	34111.21
952.384	25790.24
952.748	22438.46
953.112	21868.55
953.476	19012.71
953.839	17601.05
954.203	17416.66
954.567	21772.04
954.931	34257.87
955.294	29320.19
955.658	29451.85
956.021	50073.93
956.385	84882.57
956.748	125315.21
957.111	194377.22
957.474	218221.43
957.837	245305.32
958.2	185565.95
958.563	66701.13
958.926	45174.03
959.289	68464.68
959.652	76421.39
960.015	57391.02
960.377	82324.23
960.74	93888.9
961.102	162139.87
961.465	174118.69
961.827	93281.67
962.189	178922.43
962.552	124129.9
962.914	99445.61
963.276	64551.33
963.638	53414.79
964	52902.92
964.362	35772.32
964.724	34581.46
965.085	24641.74
965.447	20199.64
965.809	23036.65
966.17	23063.6
966.532	24965.01
966.893	22901.38
967.255	20855.9
967.616	24624.22
967.977	19711.04
968.338	21517.81
968.699	17687.06
969.061	17700.5
969.421	17811.21
969.782	19968.88
970.143	16864.64
970.504	17460.51
970.865	19828.45
971.225	20273.52
971.586	19839.31
971.946	28280.04
972.307	24577.76
972.667	32144.55
973.027	33070.63
973.388	40114.09
973.748	27279.65
974.108	29721.8
974.468	40219.92
974.828	31017.65
975.188	23858.21
975.548	21912.01
975.907	18412.83
976.267	20641.37
976.627	17347.43
976.986	17999.65
977.346	17147.42
977.705	16512.91
978.064	15044.65
978.424	12523
978.783	12956.65
979.142	14782.41
979.501	14120.16
979.86	14913.73
980.219	14374.43
980.578	18517.68
980.937	20724.97
981.296	18473.12
981.654	18988.97
982.013	29568.83
982.371	38336.52
982.73	35740.16
983.088	40443.44
983.447	43259.99
983.805	61864.51
984.163	129181.48
984.521	143349.03
984.879	209987.85
985.237	-341370.93
985.595	328746.56
985.953	81657.62
986.311	47147.47
986.669	27420.74
987.026	23702.46
987.384	31869.1
987.741	32905.69
988.099	23490.42
988.456	18731.6
988.814	17534.55
989.171	15244.59
989.528	15079.44
989.885	15928.22
990.242	12616.78
990.599	15736.5
990.956	12854.53
991.313	8979.2
991.67	7373.81
992.027	7836.87
992.383	6960.69
992.74	6116.09
993.096	6416.31
993.453	6651.22
993.809	6888.49
994.165	9170.88
994.522	8393.16
994.878	9265.28
995.234	11639.18
995.59	11497.77
995.946	10870.68
996.302	12407.74
996.658	14354.34
997.013	15848.73
997.369	18767.2
997.725	24052.73
998.08	15581.09
998.436	24065.48
998.791	33186.75
999.147	33140.26
999.502	36149.49
999.857	26280.2
1000.212	42868.6
1000.567	60966.82
1000.922	35178.42
1001.277	22326.27
1001.632	16575.23
1001.987	21370.37
1002.342	15304.91
1002.696	12251.19
1003.051	9790.17
1003.406	11846.59
1003.76	11781.47
1004.114	11618.5
1004.469	9764.91
1004.823	8072.85
1005.177	8723.11
1005.531	6903.75
1005.885	6118.05
1006.239	6907.92
1006.593	8647.35
1006.947	11561.68
1007.301	8660.49
1007.655	9465.09
1008.008	6949.18
1008.362	7824.09
1008.715	11174.17
1009.069	10164.15
1009.422	15302.01
1009.776	30736.02
1010.129	20396.23
1010.482	17051.4
1010.835	14407.59
1011.188	30014.52
1011.541	28260.34
1011.894	-172857.51
1012.247	507867.14
1012.6	34536.21
1012.952	21796.3
1013.305	11227.08
1013.657	8119.4
1014.01	7706.88
1014.362	6355.95
1014.715	5649.25
1015.067	4930.44
1015.419	4820.56
1015.771	4265.51
1016.123	3789.23
1016.475	3885.22
1016.827	4137.32
1017.179	4450.34
1017.531	4484.86
1017.883	4566.55
1018.234	4413
1018.586	5570.26
1018.938	5917.68
1019.289	8179.82
1019.64	9370.26
1019.992	8744.03
1020.343	8065.09
1020.694	6398.48
1021.045	5648.31
1021.396	6402.66
1021.747	6867.3
1022.098	8230.91
1022.449	5973.58
1022.8	5513.84
1023.151	3829.9
1023.501	3402.53
1023.852	3696.32
1024.202	3817.58
1024.553	4172.22
1024.903	4091.27
1025.253	3521.93
1025.604	3171.82
1025.954	3951.65
1026.304	4812.49
1026.654	5606.08
1027.004	8201.11
1027.354	13244.58
1027.703	12511.09
1028.053	16431.6
1028.403	23851.94
1028.753	34393.02
1029.102	46821.07
1029.452	241355.86
1029.801	10395.68
1030.15	6710.73
1030.499	5702.48
897.758	2684.64
901.051	2639.42
904.343	2674.78
907.636	2674.21
910.928	2738.5
914.22	2649.51
917.511	2656.85
920.803	2719.71
924.094	2739.28
927.384	2721.62
930.675	2684.96
933.965	2635.85
937.255	2644.44
940.544	2612.25
943.834	2552.16
947.123	2496.2
950.411	2592.43
953.7	2567.53
956.988	2534.26
960.276	2472.5
963.563	2554.99
966.851	2549.85
970.138	2608.04
973.424	2604.48
976.711	2550.66
979.997	2686.26
983.283	2720.28
986.568	2625.35
989.853	2640.58
993.138	2669.07
996.423	2754.65
999.708	2687.28
1002.992	2754.46
1006.275	2587.74
1009.559	2634.01
1012.842	2754.04
1016.125	2682.46
1019.408	2662.75
1022.69	2748.44
1025.972	2768.17
1029.254	2742.9
1032.536	2673.56
1035.817	2703.21
1039.098	2644.18
1042.379	2792.46
1045.659	2788.65
1048.939	2720.52
1052.219	2744.38
1055.498	2756.54
1058.778	2743.39
1062.057	2727.03
1065.335	2746.62
1068.614	2768.89
1071.892	2750.19
1075.17	2828.44
1078.447	2818.6
1081.724	2808.77
1085.001	2845.65
1088.278	2816.89
1091.554	2829.25
1094.83	2825.09
1098.106	2854.04
1101.382	2901.49
1104.657	2899.44
1107.932	2897.07
1111.206	2861.15
1114.481	2815.28
1117.755	2818.56
1121.029	2798.1
1124.302	2854.83
1127.575	2805.99
1130.848	2792.21
1134.121	2752.6
1137.393	2701.28
1140.665	2770.64
1143.937	2744.29
1147.208	2703
1150.48	2744.33
1153.75	2730.52
1157.021	2762.77
1160.291	2730.94
1163.561	2776.72
1166.831	2767.72
1170.101	2800.22
1173.37	2773.11
1176.639	2714.88
1179.907	2777.69
1183.176	2782.34
1186.444	2788.61
1189.711	2817.68
1192.979	2827.42
1196.246	2784.88
1199.513	2803.76
1202.78	2800.06
1206.046	2809.9
1209.312	2839
1212.578	2864.36
1215.843	2814.2
1219.108	2789.7
1222.373	2813.61
1225.638	2776.29
1228.902	2761.73
1232.166	2723.77
1235.43	2706.64
1238.693	2731.42
1241.956	2727.68
1245.219	2765.97
1248.482	2757.38
1251.744	2751.48
1255.006	2901.39
1258.268	2858.68
1261.529	2801.46
1264.79	2809.76
1268.051	2912.78
1271.312	2928.93
1274.572	2890.65
1277.832	2878.94
1281.092	2867.96
1284.351	2841.51
1287.61	2820.06
1290.869	2735.25
1294.128	2709.25
1297.386	2800.51
1300.644	2787.01
1303.902	2804.39
1307.159	2658.29
1310.416	2715.28
1313.673	2743.39
1316.93	2727.91
1320.186	2773.29
1323.442	2817.18
1326.697	2805.2
1329.953	2795.25
1333.208	2821.07
1336.463	2799.7
1339.717	2737.14
1342.972	2875.42
1346.226	2849.26
1349.479	2779.53
1352.733	2750.51
1355.986	2773.95
1359.238	2749.86
1362.491	2754.08
1365.743	2757.57
1368.995	2750.68
1372.247	2762.43
1375.498	2787.57
1378.749	2802.18
1382	2756.6
1385.251	2808.45
1388.501	2772.07
1391.751	2755.04
1395	2726.24
1398.25	2759.55
1401.499	2767.81
1404.748	2693.12
1407.996	2687.38
1411.244	2670.53
1414.492	2651.75
1417.74	2630.96
1420.987	2641.26
1424.234	2699.14
1427.481	2680.63
1430.728	2740.99
1433.974	2712.59
1437.22	2726.78
1440.465	2727.93
1443.711	2689.74
1446.956	2728.16
1450.201	2714.13
1453.445	2760.83
1456.689	2739.8
1459.933	2752.44
1463.177	2785.25
1466.42	2753.73
1469.663	2735.37
1472.906	2730.13
1476.148	2806.17
1479.391	2766.17
1482.633	2733.59
1485.874	2746.74
1489.115	2732.2
1492.356	2736.52
1495.597	2710.54
1498.838	2713.48
1502.078	2683.75
1505.318	2633.16
1508.557	2675.28
1511.797	2653.41
1515.036	2722.49
1518.274	2713.64
1521.513	2685.92
1524.751	2707.19
1527.989	2722.2
1531.227	2736.22
1534.464	2729.62
1537.701	2751.69
1540.938	2770.39
1544.174	2723.04
1547.41	2719.9
1550.646	2763.71
1553.882	2798.61
1557.117	2852.29
1560.352	2869.71
1563.587	2827.39
1566.821	2784.53
1570.055	2821.58
1573.289	2790.24
1576.523	2867.65
1579.756	2874.08
1582.989	2894.09
1586.222	2851.59
1589.454	2895.56
1592.686	2867.1
1595.918	2892.09
1599.15	2879.22
1602.381	2956.11
1605.612	2908.69
1608.843	3007.68
1612.073	2918.25
1615.303	2903.3
1618.533	2894.27
1621.762	2897.49
1624.992	2879.71
1628.221	2867.03
1631.449	2853.06
1634.678	2909.05
1637.906	2863.28
1641.134	2901.88
1644.361	2857.96
1647.588	2847.8
1650.815	2864.48
1654.042	2843.21
1657.269	2874.56
1660.495	2825.74
1663.72	2846.58
1666.946	2808.5
1670.171	2753
1673.396	2727.55
1676.621	2717.69
1679.845	2736.39
1683.069	2758.36
1686.293	2801.06
1689.517	2769.34
1692.74	2697.82
1695.963	2731.99
1699.185	2747.78
1702.408	2720.84
1705.63	2763.8
1708.852	2774.56
1712.073	2745.21
1715.294	2730.97
1718.515	2788.58
1721.736	2737.1
1724.956	2731.39
1728.176	2758.47
1731.396	2778.36
1734.616	2765.2
1737.835	2794.92
1741.054	2776.08
1744.272	2768.78
1747.491	2801.93
1750.709	2855.18
1753.927	2760
1757.144	2806.16
1760.361	2850.31
1763.578	2840.2
1766.795	2778.76
1770.011	2786.51
1773.227	2828.62
1776.443	2862.58
1779.658	2908.5
1782.874	2850.71
1786.089	2827.61
1789.303	2831.07
1792.518	2836.07
1795.732	2821.38
1798.945	2833.78
1802.159	2885.47
1805.372	2786.1
1808.585	2771.67
1811.797	2770.88
1815.01	2821.75
1818.222	2821.86
1821.434	2796.11
1824.645	2855.77
1827.856	2836.14
1831.067	2877.63
1834.278	2831.29
1837.488	2814.58
1840.698	2966.86
1843.908	2888.14
1847.117	2849.95
1850.326	2730.04
1853.535	2837.62
1856.744	2862.5
1859.952	2774.9
1863.16	2778.26
1866.368	2797.94
1869.575	2907.26
1872.782	2789.19
1875.989	2726.89
1879.196	2811.25
1882.402	2805.17
1885.608	2848.72
1888.814	2746.97
1892.019	2640.23
1895.224	2692.23
1898.429	2674.8
1901.634	2652.13
1904.838	2626.84
1908.042	2677.71
1911.246	2685.4
1914.449	2616.58
1917.652	2611.08
1920.855	2592.07
1924.058	2644.17
1927.26	2682.43
1930.462	2710.72
1933.664	2735.25
1936.865	2671.76
1940.066	2680.02
1943.267	2626.87
1946.467	2641.31
1949.668	2670.98
1952.868	2739.81
1956.067	2717.1
1959.267	2646.47
1962.466	2674.84
1965.665	2658.12
1968.863	2655.66
1972.061	2670.29
1975.259	2670.91
1978.457	2751.04
1981.654	2712.79
1984.852	2709.18
1988.048	2642.81
1991.245	2645.41
1994.441	2731.37
1997.637	2716.11
2000.833	2700.21
2004.028	2738.41
2007.223	2792.52
2010.418	2766.36
2013.613	2728.68
2016.807	2695.55
2020.001	2706.88
2023.194	2750.7
2026.388	2726.29
2029.581	2672.25
2032.774	2722.42
2035.966	2726.7
2039.158	2656.18
2042.35	2687.29
2045.542	2614.63
2048.733	2714.3
2051.924	2735.15
2055.115	2762.77
2058.306	2705.15
2061.496	2766.14
2064.686	2830.89
2067.875	2744.53
2071.065	2757.45
2074.254	2787.2
2077.442	2737.53
2080.631	2826.32
2083.819	2717.86
2087.007	2702.65
2090.195	2673.64
2093.382	2709.03
2096.569	2687.87
2099.756	2643.07
2102.942	2666.87
2106.128	2674.87
2109.314	2666.13
2112.5	2628.66
2115.685	2603.56
2118.87	2614.34
2122.055	2681.33
2125.239	2644.92
2128.424	2620.77
2131.608	2723.01
2134.791	2703.9
2137.974	2761.78
2141.157	2746.9
2144.34	2696.68
2147.523	2711.52
2150.705	2728.7
2153.887	2707.01
2157.068	2654.19
2160.25	2657.24
2163.431	2697.06
2166.611	2642.16
2169.792	2658.01
2172.972	2552.01
2176.152	2632.72
2179.331	2666.3
2182.511	2650.52
2185.69	2680.65
2188.868	2674.35
2192.047	2730.67
2195.225	2721.57
2198.403	2668.89
2201.58	2660.15
2204.758	2654.95
2207.935	2736.9
2211.111	2624.53
2214.288	2610.17
2217.464	2647.44
2220.64	2617.48
2223.815	2675.07
2226.991	2595.39
2230.166	2613.97
2233.34	2642.9
2236.515	2672.6
2239.689	2746.2
2242.863	2691.52
2246.036	2745.58
2249.209	2747.99
2252.382	2784.29
2255.555	2769.33
2258.727	2704.37
2261.9	2745.52
2265.071	2738.29
2268.243	2737.97
2271.414	2669.06
2274.585	2629.43
2277.756	2699.77
2280.926	2657.22
2284.096	2695.71
2287.266	2600.2
2290.436	2660.24
2293.605	2687.17
2296.774	2717.87
2299.942	2741.96
2303.111	2758.79
2306.279	2807.84
2309.447	2792.6
2312.614	2765.65
2315.781	2785.36
2318.948	2754.68
2322.115	2794.72
2325.281	2694.54
2328.447	2714.94
2331.613	2690.13
2334.779	2659.84
2337.944	2663.71
2341.109	2659.4
2344.274	2644.83
2347.438	2608.75
2350.602	2632.35
2353.766	2649.91
2356.929	2636.12
2360.092	2676.42
2363.255	2628.89
2366.418	2559.38
2369.58	2675.49
2372.742	2459.61
2375.904	2475.94
2379.066	2450.14
2382.227	2486.49
2385.388	2448.71
2388.548	2376.04
2391.709	2430.22
2394.869	2411.9
2398.029	2512.09
2401.188	2526.81
2404.347	2457.11
2407.506	2601.46
2410.665	2629.95
2413.823	2637.71
2416.981	2593.63
2420.139	2627.97
2423.296	2673.8
2426.453	2648.51
2429.61	2672.06
2432.767	2604.92
2435.923	2643.44
2439.079	2606.59
2442.235	2658.16
2445.391	2584.64
2448.546	2613.94
2451.701	2664.99
2454.855	2633.63
2458.009	2692.19
2461.163	2693.29
2464.317	2650.64
2467.471	2685.23
2470.624	2723.21
2473.777	2694.37
2476.929	2706.87
2480.082	2732.31
2483.234	2694.34
2486.385	2648.67
2489.537	2642.13
2492.688	2599.49
2495.839	2620.42
2498.989	2630.88
2502.14	2616.11
2505.29	2597.07
2508.439	2625.73
2511.589	2547.02
2514.738	2561.18
2517.887	2592.17
2521.035	2658.37
2524.183	2639.57
2527.331	2621.03
2530.479	2591.66
2533.627	2603.77
