Data from C_3_HIR_IL_4N_Splice17_13-39-36-452.txt Node
Date: Sat Mar 14 13:39:36 EDT 2020
User: sa697716
Spectrometer: FLMS03696
Trigger mode: 0
Integration Time (sec): 3.180400E-1
Scans to average: 20
Electric dark correction enabled: true
Nonlinearity correction enabled: true
Boxcar width: 5
XAxis mode: Wavelengths
Number of Pixels in Spectrum: 2048
>>>>>Begin Spectral Data<<<<<
187.83	-510769.18
188.298	3591.3
188.766	1920.3
189.233	1662.22
189.701	2309.84
190.169	3219
190.636	1238.73
191.104	969.56
191.571	178.62
192.039	-48.54
192.506	-5.45
192.974	563.31
193.441	-973.96
193.908	-201.88
194.375	-90.2
194.842	-2.58
195.31	182.72
195.777	232.69
196.244	433.5
196.711	313.33
197.177	302.74
197.644	324.73
198.111	526.18
198.578	694.28
199.045	523.85
199.511	763.91
199.978	790.89
200.445	681.88
200.911	681.51
201.378	628.24
201.844	606.85
202.31	1020.54
202.777	1108.31
203.243	599.3
203.709	543
204.176	624.74
204.642	519.71
205.108	478.09
205.574	346.71
206.04	286.68
206.506	275.72
206.972	218.5
207.438	199.84
207.903	208.54
208.369	201.81
208.835	227.71
209.301	258.37
209.766	251.36
210.232	266.62
210.697	331.23
211.163	412.98
211.628	599.43
212.094	564.67
212.559	845.52
213.024	569.72
213.49	727.81
213.955	691.98
214.42	621.91
214.885	584.63
215.35	583.03
215.815	700.6
216.28	777.94
216.745	649.91
217.21	752.18
217.675	644.6
218.14	728.38
218.604	800.42
219.069	954.64
219.534	1093.15
219.998	1285.8
220.463	1597.06
220.927	1892.27
221.392	1809.73
221.856	1876.32
222.32	2335.91
222.785	2977.75
223.249	3806.91
223.713	4316.43
224.177	4371.86
224.642	5571.88
225.106	6928.75
225.57	7556.47
226.034	5744.57
226.497	8789.89
226.961	8063.39
227.425	9530.94
227.889	10561.21
228.353	10629.06
228.816	22059.16
229.28	21280.35
229.744	18002.17
230.207	11070.45
230.671	10997.92
231.134	18098.54
231.597	21101.77
232.061	21008.21
232.524	20503.45
232.987	14190.41
233.45	12843.37
233.914	11565.33
234.377	11834.17
234.84	10871.38
235.303	12787.43
235.766	14306.49
236.229	14805.32
236.691	9319.8
237.154	10471.98
237.617	7897.98
238.08	8092.9
238.542	9472.67
239.005	6795.89
239.468	6768.74
239.93	6411.18
240.393	5851.95
240.855	5143.75
241.317	5262.84
241.78	6378.52
242.242	6655.18
242.704	7262.98
243.166	6345.39
243.629	5817.33
244.091	6724.59
244.553	7386.28
245.015	7963.13
245.477	10306.82
245.939	15126.59
246.4	16124.16
246.862	15707.87
247.324	14854.46
247.786	16561.36
248.247	21756.28
248.709	22318.11
249.17	16739.35
249.632	15931.26
250.093	18615.15
250.555	16161.25
251.016	9921.17
251.477	9456.04
251.939	10288.69
252.4	10796.32
252.861	12883.73
253.322	12032.27
253.783	14378.69
254.244	18667.15
254.705	14715.31
255.166	13058.25
255.627	12870.1
256.088	18236.14
256.549	19391.36
257.009	16694.14
257.47	20294.48
257.931	16521.51
258.391	12418.69
258.852	12817.65
259.312	13456.59
259.773	16611.15
260.233	14160.27
260.694	12020.04
261.154	13645.89
261.614	11043.24
262.074	9906.6
262.534	10349.21
262.994	9801.81
263.455	13086.59
263.915	11080.58
264.374	10490.29
264.834	11488.85
265.294	12690.76
265.754	13161.68
266.214	12492.77
266.673	11704.5
267.133	14815.35
267.593	14708.91
268.052	18059.33
268.512	15754.14
268.971	19100.1
269.431	20985.09
269.89	18826.17
270.349	28343.54
270.809	31750.4
271.268	28578.84
271.727	64077.67
272.186	41571.75
272.645	31253.35
273.104	22553.37
273.563	32684.74
274.022	25682.39
274.481	21986.3
274.94	17008.13
275.399	12673.52
275.857	14763.69
276.316	19999.92
276.775	17888.62
277.233	17684.03
277.692	16648.07
278.15	18910.12
278.609	19570.99
279.067	18174.83
279.525	16916.24
279.984	21865.98
280.442	26313.49
280.9	26029.97
281.358	17192.66
281.816	16055.98
282.274	15733.32
282.732	16207.53
283.19	16277.98
283.648	14024.41
284.106	14914.91
284.564	15145.28
285.021	14103.22
285.479	10506.76
285.937	9538.08
286.394	8394.53
286.852	8653.48
287.309	9131.26
287.767	8907.84
288.224	8511.15
288.682	9375.95
289.139	10374.59
289.596	9539.87
290.053	9940.85
290.511	12602.71
290.968	15379.74
291.425	20944.6
291.882	17555.46
292.339	15355.32
292.796	15228.52
293.252	14387.66
293.709	11518.09
294.166	10351.99
294.623	11479.58
295.079	11017.18
295.536	11124.65
295.992	10136.52
296.449	10039.98
296.905	10447.71
297.362	10050.43
297.818	10598.9
298.274	11053.58
298.731	11225.05
299.187	11109.09
299.643	11912.49
300.099	14450.6
300.555	15844.68
301.011	13237.9
301.467	12833.27
301.923	14992.77
302.379	14631.83
302.835	14373.59
303.291	14374.96
303.746	16386.72
304.202	20707.22
304.658	20803.88
305.113	14005.42
305.569	13755.1
306.024	14641.37
306.479	13876.62
306.935	11730.09
307.39	12773.83
307.845	11808.2
308.301	11909.68
308.756	11590.16
309.211	11191.56
309.666	11460.86
310.121	14257.23
310.576	14423.61
311.031	14305.16
311.486	16302.15
311.94	16261.07
312.395	21738.57
312.85	40708.75
313.305	198651.7
313.759	1034867.82
314.214	74721.21
314.668	59205.96
315.123	49753.78
315.577	17883.54
316.032	15932.26
316.486	20015.44
316.94	15819.83
317.394	11036.34
317.849	8580.73
318.303	8135.02
318.757	7662.44
319.211	8512.37
319.665	7456.39
320.119	7548.33
320.572	10800.66
321.026	10125.83
321.48	8433.62
321.934	9156.82
322.387	9170.77
322.841	9939.53
323.295	8975.05
323.748	10299.78
324.202	10429.33
324.655	12547.4
325.108	17605.01
325.562	12463.66
326.015	14745.79
326.468	11150.48
326.921	12492.79
327.374	11659.65
327.827	12138.83
328.28	13747.18
328.733	9218.87
329.186	8112.01
329.639	7724.04
330.092	6494.34
330.545	6181.32
330.997	6271.89
331.45	6881.69
331.903	8078.86
332.355	13852.03
332.808	13450.26
333.26	11037.37
333.713	11994.79
334.165	12039.51
334.617	16048.07
335.069	12860.41
335.522	23122.17
335.974	25537.84
336.426	23225.57
336.878	15997.89
337.33	8138.97
337.782	7926.81
338.234	9990.41
338.686	11947.28
339.137	14176.4
339.589	13383.48
340.041	10555.54
340.493	9116.32
340.944	9344.4
341.396	10109.91
341.847	8568.45
342.299	10151.22
342.75	12494.06
343.201	10885.84
343.653	12532.18
344.104	15432.19
344.555	12152.41
345.006	18871.53
345.457	14585.08
345.908	11567.38
346.359	10896.71
346.81	8868.35
347.261	9337.39
347.712	9172.72
348.163	9857.26
348.613	10049.58
349.064	9404.25
349.515	8235.34
349.965	8489.67
350.416	10179.75
350.866	11186.34
351.317	12633.88
351.767	20960.8
352.217	26550.96
352.668	22045.17
353.118	20238.6
353.568	19338.96
354.018	15294.16
354.468	16195.77
354.918	11605.49
355.368	10152.02
355.818	14350.75
356.268	41208.06
356.718	173010.9
357.168	43047.11
357.617	21550.59
358.067	23862.39
358.517	22492.04
358.966	26413.07
359.416	29652.79
359.865	31972.3
360.315	37958.96
360.764	17748.69
361.213	9979.59
361.663	9401.68
362.112	11590.89
362.561	18789.48
363.01	14222.77
363.459	11950.16
363.908	12930.65
364.357	11033.48
364.806	18657.75
365.255	12868.53
365.703	11802.55
366.152	11811.28
366.601	9581.97
367.05	7792.26
367.498	7069.97
367.947	7354.7
368.395	7651.06
368.844	6762.23
369.292	8073.76
369.74	5604.24
370.189	8569.99
370.637	10042.06
371.085	8631
371.533	10534.49
371.981	10128.43
372.429	9695.54
372.877	10101.75
373.325	8462.57
373.773	8618.1
374.221	7655.85
374.669	9426.02
375.116	8138.41
375.564	8191.69
376.012	9171.73
376.459	7537.67
376.907	9000.87
377.354	10819.18
377.801	10130.7
378.249	11612.3
378.696	14846.57
379.143	17987.49
379.591	19176.73
380.038	32359.31
380.485	23382.23
380.932	25230.75
381.379	23239.12
381.826	17191.02
382.273	12228.35
382.72	10638.34
383.166	10374.37
383.613	6718.31
384.06	6047.62
384.506	7011.94
384.953	5140.29
385.4	5138.58
385.846	4480.21
386.292	4309.92
386.739	4178.87
387.185	4101.84
387.631	4086.95
388.078	3973.61
388.524	4223.37
388.97	3896.5
389.416	3231.42
389.862	3441.3
390.308	3259.48
390.754	3306.45
391.2	3588.04
391.645	3649.58
392.091	3525.52
392.537	3399.19
392.983	3360.1
393.428	3327.98
393.874	3544.32
394.319	3569.63
394.765	3375.34
395.21	3447.93
395.655	3215.77
396.101	2989.27
396.546	2694.16
396.991	2673.63
397.436	2479.15
397.881	2392.55
398.326	2235.52
398.771	2104.47
399.216	1813.25
399.661	1618.5
400.106	1611.6
400.551	1647.96
400.995	1477.26
401.44	1449.59
401.885	1354.52
402.329	1361.39
402.774	1301.16
403.218	1270.07
403.663	1220.23
404.107	1255.14
404.551	1266.67
404.995	1154.38
405.44	1104.39
405.884	1113.1
406.328	1071.26
406.772	1066.64
407.216	968.63
407.66	931.88
408.104	868.57
408.547	807.37
408.991	778.44
409.435	740.59
409.879	729.56
410.322	718.68
410.766	697.07
411.209	665.08
411.653	635.76
412.096	626.55
412.54	621.77
412.983	619.06
413.426	626.34
413.869	620.42
414.312	612.09
414.756	587.88
415.199	560.05
415.642	544.69
416.085	545.08
416.527	540.08
416.97	541.39
417.413	513.33
417.856	504.12
418.298	494.66
418.741	488.36
419.184	482.49
419.626	495.77
420.069	494.2
420.511	496.5
420.953	484.53
421.396	478.37
421.838	463.7
422.28	476.46
422.722	480.39
423.164	482.89
423.606	475.8
424.048	474.64
424.49	457.27
424.932	452.55
425.374	441.31
425.816	445.78
426.258	454.41
426.699	461.23
427.141	456.89
427.582	460.59
428.024	457.38
428.465	454.49
428.907	441.79
429.348	433.59
429.789	436.98
430.231	430.4
430.672	438.05
431.113	427.15
431.554	418.46
431.995	402.83
432.436	392.42
432.877	387.91
433.318	383.66
433.759	381.81
434.2	378.97
434.64	371.73
435.081	372.16
435.522	351.24
435.962	335.95
436.403	329.51
436.843	331.55
437.284	319.92
437.724	304.95
438.164	298.49
438.604	289.36
439.045	280.22
439.485	270.81
439.925	260.39
440.365	251.17
440.805	246.88
441.245	244.58
441.685	235.54
442.125	231.14
442.564	232.1
443.004	227.82
443.444	225.39
443.883	225.5
444.323	216.72
444.762	212.25
445.202	214.21
445.641	220.71
446.081	215.1
446.52	215.49
446.959	214.74
447.398	210.38
447.837	207.37
448.276	202
448.716	200.9
449.154	202.24
449.593	200.29
450.032	199.21
450.471	190.96
450.91	189.77
451.349	189.96
451.787	186.26
452.226	187.7
452.664	186.7
453.103	187.88
453.541	185.58
453.98	189.95
454.418	190.47
454.856	190.33
455.295	190.81
455.733	194.34
456.171	195.29
456.609	196.17
457.047	195.73
457.485	200.32
457.923	200.98
458.361	199.06
458.798	197.31
459.236	197.35
459.674	195.75
460.111	195.85
460.549	193.56
460.987	190.93
461.424	190.05
461.862	189.9
462.299	185.74
462.736	187.62
463.173	188.18
463.611	189.99
464.048	190.52
464.485	192.59
464.922	190.09
465.359	186.33
465.796	197.04
466.233	195.87
466.67	196.67
467.106	199.16
467.543	193.92
467.98	189.37
468.416	180.8
468.853	176.72
469.29	170.63
469.726	169.22
470.162	165.84
470.599	152.9
471.035	149.98
471.471	143.77
471.907	139.31
472.344	138.16
472.78	140.43
473.216	141.09
473.652	138.8
474.088	137
474.523	137.28
474.959	138.29
475.395	136.38
475.831	137.23
476.266	137.95
476.702	137.63
477.138	137.33
477.573	136.6
478.008	136.59
478.444	139.41
478.879	143.01
479.314	144.41
479.75	144.39
480.185	144.96
480.62	145.1
481.055	145.84
481.49	148.07
481.925	149.83
482.36	154.75
482.795	158.37
483.229	160.56
483.664	162.84
484.099	162.36
484.534	165.27
484.968	167.8
485.403	168.28
485.837	166.57
486.271	165.36
486.706	165.01
487.14	160.3
487.574	157.69
488.009	156
488.443	153.87
488.877	155.87
489.311	154.43
489.745	155.12
490.179	156.64
490.613	161.6
491.046	161.13
491.48	161.11
491.914	160.95
492.348	161.02
492.781	161.76
493.215	161.31
493.648	159.03
494.082	159.15
494.515	158.16
494.948	159.1
495.382	157.01
495.815	157.21
496.248	157.27
496.681	157.73
497.114	157.79
497.547	158.07
497.98	160.44
498.413	161.75
498.846	162.74
499.279	162.02
499.711	159.63
500.144	157.13
500.577	158.45
501.009	158.58
501.442	160.14
501.874	158.86
502.306	156.41
502.739	159.18
503.171	158.74
503.603	156.86
504.036	155.79
504.468	154.69
504.9	154.87
505.332	152.46
505.764	150.93
506.196	148.59
506.627	148.58
507.059	148.16
507.491	141.06
507.923	138.54
508.354	139.03
508.786	138.46
509.217	138.66
509.649	138.35
510.08	137.63
510.512	138.33
510.943	137.67
511.374	136.38
511.805	136.12
512.237	136.77
512.668	136.31
513.099	135.3
513.53	135.37
513.961	134.73
514.391	136
514.822	140.21
515.253	141.02
515.684	140.84
516.114	141.81
516.545	142.67
516.975	142.74
517.406	142.6
517.836	139.66
518.267	138.37
518.697	139.61
519.127	137.29
519.558	133.32
519.988	130
520.418	127.76
520.848	125.93
521.278	123.74
521.708	175.83
522.138	176.95
522.567	177.64
522.997	178.67
523.427	176.39
523.857	176.17
524.286	174.84
524.716	175.96
525.145	177.5
525.575	178.14
526.004	177.23
526.433	122.99
526.863	119.6
527.292	120.1
527.721	119.88
528.15	119.03
528.579	117.95
529.008	118.75
529.437	118.05
529.866	117.15
530.295	116.39
530.724	118.59
531.152	120.23
531.581	122.16
532.01	121.75
532.438	119.81
532.867	119.63
533.295	120.82
533.723	120.64
534.152	120.33
534.58	120.74
535.008	119.56
535.436	119.67
535.865	118.61
536.293	117.28
536.721	117.2
537.149	119.64
537.576	121.52
538.004	122.38
538.432	121.28
538.86	121.96
539.287	121.24
539.715	122.37
540.143	120.65
540.57	120.77
540.998	120.66
541.425	121.77
541.852	119.19
542.28	118.19
542.707	115.82
543.134	114.97
543.561	114.03
543.988	114.39
544.415	113.62
544.842	112.73
545.269	112.37
545.696	113.51
546.123	113.25
546.549	113.46
546.976	112.11
547.403	112.27
547.829	111.45
548.256	110.61
548.682	109.69
549.108	110.73
549.535	110.81
549.961	110.37
550.387	108.92
550.813	109.95
551.24	110.55
551.666	110.28
552.092	109.52
552.518	109.84
552.943	110.73
553.369	111.2
553.795	110.46
554.221	111.17
554.646	111.32
555.072	113.82
555.498	111.41
555.923	110.8
556.349	112.45
556.774	113.19
557.199	112.99
557.625	111.8
558.05	112.27
558.475	113.37
558.9	113.19
559.325	114.26
559.75	113.29
560.175	113.41
560.6	113.38
561.025	112.58
561.449	113.11
561.874	113.84
562.299	116.4
562.723	116.59
563.148	116.1
563.572	116.08
563.997	116.56
564.421	115.92
564.846	116.14
565.27	117.45
565.694	118.16
566.118	119.88
566.542	122.94
566.966	122.22
567.39	122.97
567.814	123.33
568.238	125.32
568.662	125.26
569.086	127.35
569.509	128.19
569.933	129.77
570.357	130.2
570.78	129.69
571.204	130.41
571.627	130.54
572.05	131.53
572.474	133.42
572.897	132.62
573.32	134.75
573.743	133.73
574.166	134.64
574.589	133.73
575.012	134.34
575.435	133.78
575.858	132.76
576.281	132.56
576.704	131.42
577.126	129.56
577.549	129.18
577.972	126.88
578.394	127.44
578.817	130.09
579.239	128.64
579.661	128.85
580.084	131.07
580.506	130.8
580.928	130.77
581.35	130.79
581.772	131.56
582.194	131.44
582.616	131.69
583.038	129.74
583.46	126.03
583.882	126.86
584.303	125.66
584.725	123.69
585.147	130.87
585.568	133.51
585.99	135.77
586.411	137.58
586.833	139.62
587.254	140.35
587.675	142.02
588.096	144.78
588.518	145.34
588.939	145.51
589.36	146.66
589.781	137.6
590.202	139.18
590.623	138.36
591.043	136.82
591.464	136.12
591.885	136.59
592.305	136.72
592.726	135.15
593.147	135.26
593.567	135.4
593.987	134.05
594.408	134.01
594.828	129.11
595.248	129.39
595.669	130.01
596.089	129.13
596.509	127.62
596.929	126.4
597.349	126.95
597.769	125.83
598.189	124.98
598.608	124.95
599.028	125.97
599.448	125.92
599.867	123.78
600.287	121.77
600.706	122.84
601.126	123.43
601.545	124.74
601.965	125.03
602.384	125.41
602.803	125.95
603.222	127.78
603.641	127.06
604.061	129.25
604.48	129.85
604.898	131.57
605.317	131.64
605.736	131.59
606.155	132.41
606.574	131.58
606.992	132.5
607.411	133.03
607.829	130.15
608.248	130.06
608.666	128.35
609.085	129
609.503	128.35
609.921	129.59
610.339	131.11
610.758	130.47
611.176	130.69
611.594	130.81
612.012	130.59
612.43	133.85
612.847	135.1
613.265	137.97
613.683	138.87
614.101	140.97
614.518	139.68
614.936	139.34
615.353	138.93
615.771	140.29
616.188	140.68
616.606	141.06
617.023	140.97
617.44	140.4
617.857	137.72
618.274	136.99
618.691	137.49
619.108	137.53
619.525	136.78
619.942	138.98
620.359	139.37
620.776	139.06
621.192	140.39
621.609	140.32
622.026	142.01
622.442	144.29
622.859	144.68
623.275	142.43
623.691	142.54
624.108	144.42
624.524	144.92
624.94	144.75
625.356	145.38
625.772	145.87
626.188	146.7
626.604	147.05
627.02	146
627.436	146.51
627.852	150.1
628.268	152.17
628.683	150.56
629.099	149.58
629.514	148.85
629.93	150.55
630.345	151.35
630.761	150.01
631.176	150.72
631.591	153.52
632.007	153.49
632.422	151.61
632.837	150.09
633.252	151.74
633.667	151.27
634.082	150.42
634.497	150.06
634.911	151.03
635.326	152.1
635.741	150.69
636.155	147.23
636.57	149.8
636.984	150.53
637.399	154.85
637.813	154.71
638.228	155.66
638.642	156.9
639.056	155.9
639.47	155.82
639.884	156.66
640.298	157.15
640.712	160.21
641.126	159.31
641.54	158.26
641.954	155.04
642.368	156.15
642.781	161.23
643.195	160.85
643.609	163.48
644.022	163.68
644.436	162.98
644.849	162.14
645.262	160.61
645.676	160.76
646.089	162.97
646.502	164.23
646.915	164.11
647.328	159.94
647.741	162.11
648.154	161.53
648.567	166.26
648.98	167.3
649.393	168.73
649.805	171.07
650.218	171.77
650.631	170.83
651.043	170.58
651.456	171.37
651.868	171.41
652.28	173.65
652.693	175.29
653.105	173.86
653.517	175.32
653.929	176.99
654.341	178.31
654.753	177.65
655.165	179.78
655.577	180.92
655.989	180.62
656.401	179.9
656.813	177.14
657.224	175.39
657.636	169.91
658.047	170.35
658.459	168.3
658.87	166.35
659.282	164.88
659.693	163.77
660.104	163.52
660.515	161.78
660.926	162.44
661.338	162.3
661.749	161.78
662.159	163.4
662.57	162.42
662.981	163.21
663.392	163.94
663.803	166.96
664.213	166.31
664.624	164.98
665.035	167.68
665.445	166.12
665.855	166.99
666.266	168.69
666.676	168.48
667.086	166.54
667.497	167.9
667.907	167.32
668.317	165.27
668.727	170.88
669.137	171.49
669.547	170.77
669.956	171.24
670.366	171.8
670.776	173.13
671.186	173.82
671.595	175.66
672.005	174.9
672.414	175.11
672.824	176.19
673.233	171.52
673.642	171.97
674.052	174.34
674.461	177.27
674.87	176.86
675.279	176.9
675.688	175.91
676.097	176.97
676.506	176.27
676.915	179.13
677.323	178.71
677.732	177.8
678.141	176.67
678.549	171.55
678.958	168.63
679.366	167.55
679.775	164.14
680.183	168.51
680.592	166.73
681	166.84
681.408	164.57
681.816	164.26
682.224	164.1
682.632	167.16
683.04	170.8
683.448	173.61
683.856	178.51
684.264	184.43
684.671	184.02
685.079	187.91
685.487	191.04
685.894	196.05
686.302	196.95
686.709	198.27
687.116	199.41
687.524	202.19
687.931	202.92
688.338	200.86
688.745	195.55
689.152	193
689.559	192.92
689.966	193.23
690.373	189.35
690.78	188.74
691.187	188.75
691.593	186.6
692	182.47
692.407	182.49
692.813	186.93
693.22	187.28
693.626	185.51
694.032	184.53
694.439	185.04
694.845	182.96
695.251	182.95
695.657	183.17
696.063	183.38
696.469	183.11
696.875	181.4
697.281	174.99
697.687	172.96
698.093	171.45
698.498	171.6
698.904	168.86
699.31	170.49
699.715	174.98
700.12	176.85
700.526	174.63
700.931	175.06
701.337	175.88
701.742	176.09
702.147	176.98
702.552	176.21
702.957	174.04
703.362	172.73
703.767	171.74
704.172	167.84
704.577	160.99
704.981	159.76
705.386	159.81
705.791	156.23
706.195	155.08
706.6	154.88
707.004	155
707.408	152.26
707.813	153.64
708.217	152.34
708.621	150.25
709.025	153.44
709.43	155.28
709.834	155.91
710.237	157.16
710.641	155.75
711.045	155.41
711.449	156.68
711.853	163.19
712.256	160.69
712.66	159.26
713.064	161
713.467	163.47
713.87	165.68
714.274	165.94
714.677	169.75
715.08	175.97
715.484	181.52
715.887	191.61
716.29	190.16
716.693	199.75
717.096	209.24
717.499	214.17
717.901	211.78
718.304	211.3
718.707	209.52
719.109	203.33
719.512	196.9
719.915	194.65
720.317	187.56
720.719	187.18
721.122	184.47
721.524	182.02
721.926	185.95
722.328	189.74
722.731	186.78
723.133	188.29
723.535	194.46
723.937	197.15
724.338	196.55
724.74	201.14
725.142	287.6
725.544	292.16
725.945	314.96
726.347	307.25
726.748	306.7
727.15	309.71
727.551	314.96
727.952	311.34
728.354	307.18
728.755	305.47
729.156	297.67
729.557	212.48
729.958	200.94
730.359	176.86
730.76	175.94
731.161	172.82
731.562	168.82
731.962	160.6
732.363	159.27
732.763	157.98
733.164	155.33
733.564	154.76
733.965	151.78
734.365	151.42
734.766	153.53
735.166	151.42
735.566	151.66
735.966	151.56
736.366	153.1
736.766	151.65
737.166	151.22
737.566	150.68
737.966	149.72
738.365	150.04
738.765	152.6
739.165	147.92
739.564	147.44
739.964	145.68
740.363	143.25
740.763	140.72
741.162	142.1
741.561	141.12
741.96	140.95
742.36	140.1
742.759	140.56
743.158	138.22
743.557	138.54
743.955	139.02
744.354	136.97
744.753	138.09
745.152	138.67
745.55	137.76
745.949	138.4
746.348	137.41
746.746	136.21
747.144	139.07
747.543	137.88
747.941	138.7
748.339	137.25
748.737	140.22
749.136	140.85
749.534	141.29
749.932	144.02
750.33	144.46
750.727	145.53
751.125	147.89
751.523	144.45
751.921	151.96
752.318	152.19
752.716	156.29
753.113	154.88
753.511	154.74
753.908	156.38
754.305	161.51
754.703	163.68
755.1	168.04
755.497	168.82
755.894	173.05
756.291	173.13
756.688	183.54
757.085	193.14
757.482	213.29
757.878	240.87
758.275	261.75
758.672	273.41
759.068	293.31
759.465	317.54
759.861	352.85
760.258	394.6
760.654	418.49
761.05	417.1
761.447	398.84
761.843	371.39
762.239	339.2
762.635	320.66
763.031	307.51
763.427	290.15
763.822	274.94
764.218	257.97
764.614	235.78
765.01	216.65
765.405	205.78
765.801	199.86
766.196	188.88
766.592	181.95
766.987	173.33
767.382	166.99
767.778	164.63
768.173	159.88
768.568	156.94
768.963	154.59
769.358	157.08
769.753	157.42
770.148	155.81
770.542	156.33
770.937	154.11
771.332	158.31
771.726	159.64
772.121	164.59
772.515	166.91
772.91	167.89
773.304	169.46
773.699	166.48
774.093	165.53
774.487	166.15
774.881	166.75
775.275	167.04
775.669	163.33
776.063	162.85
776.457	158.8
776.851	157.92
777.245	157.75
777.638	159.36
778.032	163.55
778.425	164.91
778.819	172.6
779.212	176.06
779.606	179.19
779.999	179.97
780.392	182.37
780.786	182.42
781.179	181.78
781.572	185.43
781.965	185.75
782.358	183.95
782.751	184.79
783.143	177.49
783.536	178.31
783.929	174.36
784.322	179.79
784.714	178.05
785.107	181.2
785.499	185.9
785.891	185.08
786.284	184.41
786.676	187.34
787.068	190.19
787.46	192.01
787.852	188.67
788.245	192.03
788.636	189.97
789.028	196.5
789.42	197.47
789.812	197.26
790.204	196.83
790.595	203.77
790.987	198.31
791.378	196.67
791.77	198.25
792.161	202.13
792.553	206.06
792.944	203.55
793.335	196.64
793.726	198.75
794.117	203.77
794.508	205.4
794.899	198.51
795.29	201.75
795.681	202.43
796.072	198.97
796.463	228.47
796.853	234.18
797.244	241.23
797.634	245.63
798.025	243.89
798.415	237.63
798.806	248.47
799.196	255.01
799.586	263.85
799.976	265.56
800.366	274.14
800.756	242.1
801.146	234.4
801.536	235.28
801.926	235.23
802.316	239.41
802.706	244.2
803.095	237.78
803.485	238.45
803.874	233.42
804.264	239.58
804.653	240.33
805.043	253.48
805.432	261.64
805.821	266.5
806.21	269.94
806.599	269.16
806.988	272.49
807.377	269.47
807.766	272.99
808.155	282.25
808.544	271.86
808.933	271
809.321	269.75
809.71	270.12
810.098	271.07
810.487	279.43
810.875	295.08
811.264	293.83
811.652	325.92
812.04	332.24
812.428	341.98
812.816	361.88
813.204	377.19
813.592	384.51
813.98	396.51
814.368	403.67
814.756	423.23
815.144	422.11
815.531	439.27
815.919	414.11
816.306	423.43
816.694	411.66
817.081	421.92
817.469	434.82
817.856	433.92
818.243	442.68
818.63	441.86
819.017	429.21
819.404	433.06
819.791	443.66
820.178	460.9
820.565	467.76
820.952	510.9
821.339	495.41
821.725	501.76
822.112	489.37
822.498	489.25
822.885	491.5
823.271	484.76
823.657	488.06
824.044	486.77
824.43	486.52
824.816	506.96
825.202	482.6
825.588	511.7
825.974	512.36
826.36	527.85
826.746	531.9
827.132	540.58
827.517	548
827.903	527.32
828.289	538.12
828.674	518.84
829.06	497.11
829.445	505.19
829.83	518.19
830.216	530.6
830.601	543.65
830.986	542.7
831.371	545.1
831.756	567.59
832.141	561.33
832.526	557.25
832.911	565.77
833.295	560.98
833.68	577.46
834.065	559.67
834.449	527.7
834.834	525.1
835.218	520.32
835.603	532.04
835.987	516.49
836.371	540.17
836.755	537.07
837.139	546.88
837.524	549.97
837.908	540.38
838.291	540.83
838.675	540.06
839.059	540.89
839.443	530.61
839.827	517.45
840.21	527.29
840.594	526.78
840.977	533.86
841.361	533.4
841.744	544.82
842.127	540.3
842.511	545.23
842.894	560.45
843.277	572.22
843.66	586.16
844.043	594
844.426	577.16
844.809	556.27
845.191	556.14
845.574	541.35
845.957	532.66
846.339	535.3
846.722	517.11
847.104	520.26
847.487	509.57
847.869	516.28
848.252	526.16
848.634	537.8
849.016	547.24
849.398	545.19
849.78	567.14
850.162	568.76
850.544	579.56
850.926	596.18
851.307	594.95
851.689	611.34
852.071	615.5
852.452	621.21
852.834	612.63
853.215	635.99
853.597	643.49
853.978	665.58
854.359	681.31
854.741	654.31
855.122	647.52
855.503	638.11
855.884	640.97
856.265	646.49
856.646	641.61
857.026	639.98
857.407	632.27
857.788	638.95
858.169	635.04
858.549	624.32
858.93	640.12
859.31	648.29
859.69	662.25
860.071	650.74
860.451	642.98
860.831	625.38
861.211	649.35
861.591	660.35
861.971	650.92
862.351	658.68
862.731	650.06
863.111	657.49
863.491	674.59
863.87	697.59
864.25	701.77
864.629	699.93
865.009	713.86
865.388	750.04
865.768	802.63
866.147	814.68
866.526	774.11
866.905	790.89
867.284	825.51
867.663	769.52
868.042	730.77
868.421	725.7
868.8	724.5
869.179	740.67
869.558	690.15
869.936	641.36
870.315	638.87
870.693	658.59
871.072	702.44
871.45	671.04
871.828	690.07
872.207	727.73
872.585	719.88
872.963	733.58
873.341	714.65
873.719	723.05
874.097	714.78
874.475	728.45
874.853	739.97
875.23	716.69
875.608	748.06
875.986	809.23
876.363	780.19
876.741	827.29
877.118	824.1
877.495	860.29
877.873	864.41
878.25	903.61
878.627	872.63
879.004	880.75
879.381	867.11
879.758	854.9
880.135	790.15
880.512	827.59
880.889	780.74
881.265	767.82
881.642	748.79
882.019	754.65
882.395	757.59
882.772	802.13
883.148	770.2
883.524	773.6
883.901	765.27
884.277	771.79
884.653	764.92
885.029	801.88
885.405	904.04
885.781	897.19
886.157	859.18
886.532	854.14
886.908	839.49
887.284	926.9
887.659	959.02
888.035	983.64
888.411	1003.98
888.786	1023.04
889.161	1048.4
889.537	1007.46
889.912	1041.52
890.287	1045.29
890.662	1069.46
891.037	1043.03
891.412	974.7
891.787	954.16
892.162	923.66
892.536	954.44
892.911	922.69
893.286	895.44
893.66	862.63
894.035	888.81
894.409	957.77
894.784	926.92
895.158	945.39
895.532	1002.91
895.906	1045.84
896.281	1074.91
896.655	1068.44
897.029	1213.39
897.402	1275.05
897.776	1405.23
898.15	1407.61
898.524	1399.37
898.898	1410.92
899.271	1602.98
899.645	1397.14
900.018	1327.36
900.392	1372.47
900.765	1360.35
901.138	1267.47
901.511	1234.06
901.884	1157.38
902.258	1063.31
902.631	1110.03
903.003	1276.25
903.376	1136.8
903.749	1276.13
904.122	1356.82
904.495	1476.92
904.867	1499.09
905.24	1299.29
905.612	1210.06
905.985	1212.6
906.357	1264.21
906.729	1199.38
907.102	1033.68
907.474	997.36
907.846	1006.02
908.218	1002.15
908.59	912.66
908.962	882.92
909.334	952.49
909.705	1007.08
910.077	977.47
910.449	1012.11
910.82	1051.21
911.192	1140.55
911.563	1188.08
911.935	1248.4
912.306	1238.73
912.677	1257.4
913.048	1266.16
913.419	1356.82
913.79	1351.71
914.161	1452.9
914.532	1418.03
914.903	1284.37
915.274	1230.32
915.645	1204.82
916.015	1059.66
916.386	1026.29
916.756	1090.57
917.127	1101.8
917.497	991.43
917.868	1095.63
918.238	1039.91
918.608	1054.78
918.978	1077.78
919.348	1125.47
919.718	1167.66
920.088	1136.84
920.458	1192.47
920.828	1242.91
921.198	1188.97
921.567	1268.83
921.937	987.29
922.306	991.35
922.676	1056.15
923.045	911.21
923.415	890.49
923.784	806.73
924.153	849.32
924.522	853.09
924.891	801.19
925.26	849.51
925.629	820.44
925.998	922.11
926.367	902.05
926.736	906.2
927.104	1051.23
927.473	1113.63
927.842	1337.56
928.21	1272.64
928.578	1293.63
928.947	1239.53
929.315	1271.34
929.683	1547.54
930.051	1585.17
930.42	1843.71
930.788	1525.27
931.156	1521.72
931.523	1468.71
931.891	1378.17
932.259	1357.5
932.627	1614.68
932.994	2270.47
933.362	1922.82
933.729	1652.41
934.097	1571.92
934.464	1352.61
934.831	1520.95
935.199	1487.89
935.566	1427.77
935.933	1425.44
936.3	1746.29
936.667	1322.78
937.034	1358.97
937.401	1303.54
937.767	1127.96
938.134	1007.71
938.501	1394.38
938.867	1568.98
939.234	2637.07
939.6	2177.81
939.967	2451.73
940.333	1641.49
940.699	1390.57
941.065	941.16
941.431	1272.32
941.798	1289.55
942.163	1751.71
942.529	1100.24
942.895	968.34
943.261	649.43
943.627	892.24
943.992	800.38
944.358	799.26
944.723	867.05
945.089	861.07
945.454	802.41
945.82	822.37
946.185	773.6
946.55	900.46
946.915	812.11
947.28	946.25
947.645	828.35
948.01	788.3
948.375	834.98
948.74	939.15
949.104	1084.04
949.469	1432.73
949.834	2549.34
950.198	2628.57
950.562	1634.72
950.927	1381.49
951.291	1626.55
951.655	1336.21
952.02	1153.6
952.384	861.47
952.748	798.43
953.112	853.8
953.476	776.27
953.839	709.22
954.203	703.23
954.567	860.48
954.931	1309.79
955.294	1168.85
955.658	1203.89
956.021	2105.32
956.385	3485.37
956.748	5019.29
957.111	7042.25
957.474	7765.98
957.837	8406.44
958.2	5902.33
958.563	2088.27
958.926	1469.83
959.289	2126.65
959.652	2382.09
960.015	1814.42
960.377	2595.79
960.74	2954.16
961.102	5022.12
961.465	5753.26
961.827	3881.27
962.189	7432.11
962.552	5165.2
962.914	4080.51
963.276	2651.46
963.638	2205.85
964	2123.67
964.362	1493.12
964.724	1398.9
965.085	1020.01
965.447	825.01
965.809	767.4
966.17	737.69
966.532	775.04
966.893	708.36
967.255	639.64
967.616	710.23
967.977	596.12
968.338	626.52
968.699	555.31
969.061	550.85
969.421	553.53
969.782	628.49
970.143	575.37
970.504	671.23
970.865	788.4
971.225	857.34
971.586	857.57
971.946	1165.1
972.307	1007.93
972.667	1226.13
973.027	1254.82
973.388	1442.9
973.748	983.07
974.108	1067.86
974.468	1263.96
974.828	1068.27
975.188	766.05
975.548	690.83
975.907	608.77
976.267	667.78
976.627	621.77
976.986	642.75
977.346	627.07
977.705	609.65
978.064	549.06
978.424	471.33
978.783	415.89
979.142	474.59
979.501	473.63
979.86	503.49
980.219	493.3
980.578	577.09
980.937	621.54
981.296	569.35
981.654	605.91
982.013	890.21
982.371	1226.59
982.73	1190.68
983.088	1353.93
983.447	1466.37
983.805	2124.71
984.163	4340.7
984.521	4869.95
984.879	7294.37
985.237	-11764.87
985.595	11525.7
985.953	2782.14
986.311	1462.33
986.669	869.19
987.026	732.01
987.384	915.97
987.741	867.46
988.099	734.14
988.456	589.04
988.814	593.35
989.171	521.91
989.528	443.88
989.885	492.93
990.242	422.07
990.599	471.67
990.956	389.59
991.313	285.49
991.67	242.75
992.027	318.48
992.383	292.19
992.74	259.28
993.096	290.98
993.453	314.22
993.809	316.63
994.165	418.27
994.522	498.36
994.878	555.07
995.234	691.61
995.59	683.36
995.946	508.97
996.302	599.49
996.658	636.12
997.013	657.69
997.369	815.89
997.725	1125.13
998.08	708.2
998.436	735.69
998.791	1021.76
999.147	1082.66
999.502	1223.63
999.857	878.52
1000.212	1405
1000.567	2135.69
1000.922	1201.39
1001.277	764.62
1001.632	558.13
1001.987	747.17
1002.342	561.08
1002.696	451.36
1003.051	392.96
1003.406	483.78
1003.76	484.8
1004.114	487.28
1004.469	438.55
1004.823	362.01
1005.177	366.91
1005.531	292.58
1005.885	285.49
1006.239	357.99
1006.593	474.5
1006.947	613.51
1007.301	429.39
1007.655	468.92
1008.008	345.09
1008.362	375.39
1008.715	546.83
1009.069	488.66
1009.422	838.79
1009.776	1499.97
1010.129	910.93
1010.482	692.45
1010.835	505.03
1011.188	1062.4
1011.541	998.73
1011.894	-5621.6
1012.247	16190
1012.6	996.72
1012.952	785.84
1013.305	278.22
1013.657	254.06
1014.01	248.59
1014.362	188.34
1014.715	260.8
1015.067	275.47
1015.419	272.18
1015.771	259.98
1016.123	256.07
1016.475	287.62
1016.827	287.48
1017.179	343.67
1017.531	306.09
1017.883	290.12
1018.234	382.06
1018.586	452.08
1018.938	539.92
1019.289	744.98
1019.64	791.72
1019.992	671.64
1020.343	587.84
1020.694	536.39
1021.045	458.86
1021.396	536.15
1021.747	638.48
1022.098	590.71
1022.449	404.76
1022.8	310.32
1023.151	239.58
1023.501	245.66
1023.852	262.8
1024.202	308.72
1024.553	283.8
1024.903	349.75
1025.253	346.73
1025.604	319.9
1025.954	387.71
1026.304	437.88
1026.654	523.5
1027.004	727.19
1027.354	1025.2
1027.703	1113
1028.053	1229.92
1028.403	2246.03
1028.753	2403.27
1029.102	2354.54
1029.452	8333.78
1029.801	350.9
1030.15	227.42
1030.499	93.82
897.758	3323
901.051	3310.06
904.343	3353.14
907.636	3340.8
910.928	3411.45
914.22	3309.81
917.511	3320.62
920.803	3411.57
924.094	3460.4
927.384	3406.86
930.675	3369.47
933.965	3310.29
937.255	3300.06
940.544	3260.49
943.834	3110.59
947.123	3068.21
950.411	3174.63
953.7	3136.41
956.988	3078.13
960.276	3023.17
963.563	3145.94
966.851	3124.95
970.138	3202.11
973.424	3177.06
976.711	3122.72
979.997	3382.13
983.283	3396.94
986.568	3262.67
989.853	3312.68
993.138	3341.1
996.423	3421.2
999.708	3331.97
1002.992	3448.26
1006.275	3173.64
1009.559	3282.08
1012.842	3422.79
1016.125	3324.11
1019.408	3298.24
1022.69	3429.66
1025.972	3424.62
1029.254	3395.75
1032.536	3283.21
1035.817	3328.31
1039.098	3228.51
1042.379	3498.71
1045.659	3445.74
1048.939	3355.08
1052.219	3394.65
1055.498	3427.05
1058.778	3389.97
1062.057	3385.62
1065.335	3399.31
1068.614	3431.43
1071.892	3391.29
1075.17	3491.61
1078.447	3464.94
1081.724	3446.59
1085.001	3497.06
1088.278	3462.53
1091.554	3485.21
1094.83	3484.55
1098.106	3503.07
1101.382	3565.67
1104.657	3564.91
1107.932	3562.49
1111.206	3503.88
1114.481	3461.83
1117.755	3474.93
1121.029	3430.85
1124.302	3474.66
1127.575	3401.98
1130.848	3377.89
1134.121	3327.54
1137.393	3257.7
1140.665	3337.7
1143.937	3313.54
1147.208	3228.1
1150.48	3247.26
1153.75	3226.26
1157.021	3301.04
1160.291	3253.48
1163.561	3288.69
1166.831	3312.41
1170.101	3348.15
1173.37	3345.87
1176.639	3265.56
1179.907	3342.27
1183.176	3390.44
1186.444	3397.16
1189.711	3427.47
1192.979	3426.43
1196.246	3389.44
1199.513	3411.44
1202.78	3402.94
1206.046	3407.37
1209.312	3437.37
1212.578	3473.25
1215.843	3401.51
1219.108	3384.38
1222.373	3410.69
1225.638	3358.78
1228.902	3333.04
1232.166	3310.19
1235.43	3288.46
1238.693	3305.78
1241.956	3311.66
1245.219	3338.16
1248.482	3346.97
1251.744	3335
1255.006	3520.53
1258.268	3483.17
1261.529	3412.12
1264.79	3428.67
1268.051	3546.66
1271.312	3565.71
1274.572	3516.71
1277.832	3507.84
1281.092	3511.85
1284.351	3452.85
1287.61	3423.76
1290.869	3309.36
1294.128	3255.87
1297.386	3401.49
1300.644	3384.63
1303.902	3395.08
1307.159	3244.45
1310.416	3304.1
1313.673	3319.99
1316.93	3288.33
1320.186	3363.38
1323.442	3419.39
1326.697	3395.74
1329.953	3415.67
1333.208	3423.09
1336.463	3412.21
1339.717	3338.33
1342.972	3431.66
1346.226	3441.79
1349.479	3355.88
1352.733	3310.12
1355.986	3355.78
1359.238	3328.12
1362.491	3327.34
1365.743	3332.53
1368.995	3338.95
1372.247	3356.58
1375.498	3371.33
1378.749	3435.12
1382	3375.92
1385.251	3456.08
1388.501	3435.39
1391.751	3401.13
1395	3385.5
1398.25	3428.2
1401.499	3422.45
1404.748	3330.68
1407.996	3243.6
1411.244	3242.04
1414.492	3213.4
1417.74	3189.63
1420.987	3209.22
1424.234	3259.98
1427.481	3267.48
1430.728	3320.46
1433.974	3293.33
1437.22	3328.71
1440.465	3331.71
1443.711	3335.9
1446.956	3371.84
1450.201	3381.48
1453.445	3425.52
1456.689	3384.71
1459.933	3404.18
1463.177	3426.3
1466.42	3396.64
1469.663	3373.57
1472.906	3336.88
1476.148	3480.4
1479.391	3359.96
1482.633	3343.99
1485.874	3338.02
1489.115	3298.64
1492.356	3331.58
1495.597	3294.27
1498.838	3305.59
1502.078	3248.88
1505.318	3166.46
1508.557	3220.15
1511.797	3128.08
1515.036	3302
1518.274	3287.57
1521.513	3273.19
1524.751	3305.74
1527.989	3300.56
1531.227	3303.41
1534.464	3267.83
1537.701	3323.06
1540.938	3351.28
1544.174	3310.52
1547.41	3325.81
1550.646	3358.13
1553.882	3374.37
1557.117	3422.59
1560.352	3447.88
1563.587	3398.64
1566.821	3345.66
1570.055	3409.28
1573.289	3365.13
1576.523	3460.87
1579.756	3453.84
1582.989	3464.73
1586.222	3425.08
1589.454	3473.47
1592.686	3437.47
1595.918	3452.31
1599.15	3427.48
1602.381	3544.93
1605.612	3459.04
1608.843	3554.2
1612.073	3457.49
1615.303	3434.65
1618.533	3411.27
1621.762	3426.67
1624.992	3428.97
1628.221	3385.11
1631.449	3369.93
1634.678	3465.8
1637.906	3401.88
1641.134	3459.03
1644.361	3404.51
1647.588	3388.87
1650.815	3397.96
1654.042	3400.34
1657.269	3433.84
1660.495	3377.87
1663.72	3333.7
1666.946	3323.67
1670.171	3223.26
1673.396	3202.3
1676.621	3204.31
1679.845	3258.54
1683.069	3302.09
1686.293	3364.89
1689.517	3309.35
1692.74	3202.85
1695.963	3224.43
1699.185	3312.12
1702.408	3262.6
1705.63	3320.99
1708.852	3323.95
1712.073	3296
1715.294	3253.97
1718.515	3287.98
1721.736	3225.76
1724.956	3201.64
1728.176	3237.3
1731.396	3252.05
1734.616	3257.08
1737.835	3260.83
1741.054	3259.92
1744.272	3262.44
1747.491	3270.88
1750.709	3366.94
1753.927	3256
1757.144	3326.35
1760.361	3387.45
1763.578	3401.92
1766.795	3334.66
1770.011	3360.94
1773.227	3425.9
1776.443	3452.96
1779.658	3493.34
1782.874	3446.62
1786.089	3404
1789.303	3408.95
1792.518	3423.3
1795.732	3415.5
1798.945	3415.73
1802.159	3478.23
1805.372	3329.28
1808.585	3300.54
1811.797	3303.25
1815.01	3394.94
1818.222	3396.47
1821.434	3273.78
1824.645	3387.74
1827.856	3338
1831.067	3388.3
1834.278	3318.87
1837.488	3311.83
1840.698	3497.42
1843.908	3396.67
1847.117	3359.2
1850.326	3177.02
1853.535	3323.09
1856.744	3456.09
1859.952	3332.69
1863.16	3334.91
1866.368	3364.17
1869.575	3522.97
1872.782	3405.71
1875.989	3357.32
1879.196	3498.04
1882.402	3497.34
1885.608	3552.43
1888.814	3411.49
1892.019	3284.5
1895.224	3342.01
1898.429	3341.88
1901.634	3313.5
1904.838	3302.41
1908.042	3343.93
1911.246	3344.3
1914.449	3229.51
1917.652	3248.35
1920.855	3236.06
1924.058	3314.45
1927.26	3343.19
1930.462	3382.13
1933.664	3398.37
1936.865	3322.76
1940.066	3315.01
1943.267	3264.97
1946.467	3292.39
1949.668	3332.73
1952.868	3396.87
1956.067	3353.05
1959.267	3272.64
1962.466	3307.36
1965.665	3293.95
1968.863	3288.48
1972.061	3330.14
1975.259	3331.33
1978.457	3421.18
1981.654	3372.07
1984.852	3368.75
1988.048	3272.25
1991.245	3293.17
1994.441	3381.89
1997.637	3399.56
2000.833	3379.04
2004.028	3427.41
2007.223	3465.42
2010.418	3428.27
2013.613	3396.12
2016.807	3329.25
2020.001	3358.96
2023.194	3437.38
2026.388	3397.21
2029.581	3347.69
2032.774	3379.34
2035.966	3376.06
2039.158	3282.38
2042.35	3322.83
2045.542	3245.88
2048.733	3386.2
2051.924	3446.21
2055.115	3491.27
2058.306	3397.62
2061.496	3471.52
2064.686	3551.54
2067.875	3470.84
2071.065	3503.94
2074.254	3542.21
2077.442	3488.36
2080.631	3595.65
2083.819	3421.33
2087.007	3385.93
2090.195	3334.42
2093.382	3400.28
2096.569	3372.84
2099.756	3308.83
2102.942	3307.68
2106.128	3297.15
2109.314	3299.19
2112.5	3229.93
2115.685	3214.31
2118.87	3228.78
2122.055	3306.54
2125.239	3251.32
2128.424	3202.12
2131.608	3372.31
2134.791	3352.02
2137.974	3439.51
2141.157	3419.25
2144.34	3339.77
2147.523	3355.34
2150.705	3349.5
2153.887	3346.75
2157.068	3264.98
2160.25	3294.21
2163.431	3358.14
2166.611	3261.82
2169.792	3276.22
2172.972	3143.38
2176.152	3266.87
2179.331	3314.5
2182.511	3299.41
2185.69	3337.15
2188.868	3320.57
2192.047	3407.89
2195.225	3366.78
2198.403	3309.02
2201.58	3317.17
2204.758	3316.86
2207.935	3416.35
2211.111	3261.71
2214.288	3238.53
2217.464	3291.34
2220.64	3279.53
2223.815	3344.78
2226.991	3248.91
2230.166	3274.76
2233.34	3289.78
2236.515	3327.14
2239.689	3424.53
2242.863	3353.85
2246.036	3419.22
2249.209	3444.54
2252.382	3497.9
2255.555	3464.82
2258.727	3380.19
2261.9	3432.83
2265.071	3426.12
2268.243	3437.72
2271.414	3346.11
2274.585	3272.39
2277.756	3355.33
2280.926	3307.44
2284.096	3365.22
2287.266	3237.77
2290.436	3310.99
2293.605	3353.23
2296.774	3375.56
2299.942	3418.87
2303.111	3440.41
2306.279	3482.43
2309.447	3474.78
2312.614	3454.33
2315.781	3469.01
2318.948	3425.67
2322.115	3471.19
2325.281	3362.67
2328.447	3401.84
2331.613	3382.28
2334.779	3328.04
2337.944	3340.3
2341.109	3332.95
2344.274	3305.02
2347.438	3265.19
2350.602	3300.68
2353.766	3325.37
2356.929	3305.66
2360.092	3354.91
2363.255	3279.77
2366.418	3165.46
2369.58	3347.71
2372.742	3004.69
2375.904	3047.38
2379.066	3007.35
2382.227	3056.22
2385.388	3015.32
2388.548	2908.75
2391.709	2986.02
2394.869	2955.39
2398.029	3115.02
2401.188	3152.9
2404.347	3045.17
2407.506	3278.13
2410.665	3303.07
2413.823	3333.05
2416.981	3260.75
2420.139	3314.07
2423.296	3378.54
2426.453	3351.19
2429.61	3380.57
2432.767	3267.29
2435.923	3324.42
2439.079	3187.18
2442.235	3285.62
2445.391	3184.85
2448.546	3193.17
2451.701	3270.01
2454.855	3203.51
2458.009	3289.98
2461.163	3310.76
2464.317	3249.04
2467.471	3292.55
2470.624	3331.33
2473.777	3395.84
2476.929	3381.61
2480.082	3410.23
2483.234	3378.66
2486.385	3233.71
2489.537	3238.2
2492.688	3161.86
2495.839	3178.39
2498.989	3182.8
2502.14	3162.17
2505.29	3128.6
2508.439	3161.56
2511.589	3055.13
2514.738	3087.42
2517.887	3118.3
2521.035	3289.64
2524.183	3282.15
2527.331	3246.6
2530.479	3196.37
2533.627	3217.47
