Data from C_3_DEC_CT_2N_Splice17_13-01-04-637.txt Node
Date: Sat Mar 14 13:01:04 EDT 2020
User: sa697716
Spectrometer: FLMS03696
Trigger mode: 0
Integration Time (sec): 3.180400E-1
Scans to average: 20
Electric dark correction enabled: true
Nonlinearity correction enabled: true
Boxcar width: 5
XAxis mode: Wavelengths
Number of Pixels in Spectrum: 2048
>>>>>Begin Spectral Data<<<<<
187.83	-288443.97
188.298	2201.19
188.766	1209.23
189.233	1049.79
189.701	1507.18
190.169	2068.05
190.636	787.82
191.104	629.41
191.571	83.77
192.039	-75.81
192.506	-139.73
192.974	372.85
193.441	-531.73
193.908	-64.81
194.375	-23.74
194.842	27.93
195.31	46.07
195.777	114.03
196.244	358.01
196.711	530.38
197.177	719.84
197.644	1053.22
198.111	1870.96
198.578	2612.56
199.045	2116.8
199.511	3463.71
199.978	4076.42
200.445	3470.46
200.911	3868.18
201.378	4332.27
201.844	3882.78
202.31	6606.59
202.777	6869.86
203.243	3781.97
203.709	3616.19
204.176	4308.5
204.642	3555.17
205.108	3329.25
205.574	2722.18
206.04	2492.26
206.506	2337.05
206.972	2222.6
207.438	2159.94
207.903	2477.78
208.369	2177.69
208.835	2186.64
209.301	2302.3
209.766	2370.32
210.232	2350.87
210.697	2929.57
211.163	3628.67
211.628	5519.27
212.094	4657.12
212.559	5692.56
213.024	3553.71
213.49	4341.62
213.955	4230.73
214.42	4172.07
214.885	3901.14
215.35	3751.63
215.815	3593.43
216.28	3864.77
216.745	3192.42
217.21	3499.27
217.675	3292.16
218.14	3765.81
218.604	4318.22
219.069	5040.24
219.534	5377.5
219.998	6395.16
220.463	7900.73
220.927	9939.81
221.392	9472.81
221.856	9679.46
222.32	12354.2
222.785	15356.65
223.249	19447.06
223.713	21785.92
224.177	21856.03
224.642	28174.94
225.106	34754.71
225.57	38108.23
226.034	28337.08
226.497	43198.23
226.961	39040.41
227.425	45493.56
227.889	50594.92
228.353	50694.66
228.816	104852.85
229.28	100359.81
229.744	84699.32
230.207	51484.46
230.671	50647.12
231.134	84014.02
231.597	96860.31
232.061	96995.65
232.524	94687.81
232.987	65245.99
233.45	58746.65
233.914	52752.21
234.377	54166.65
234.84	49587.13
235.303	58510.17
235.766	65402.34
236.229	67580.26
236.691	42556.2
237.154	47819.37
237.617	35921.27
238.08	36795.5
238.542	43050.64
239.005	30735.88
239.468	30481.9
239.93	28711.06
240.393	26071.84
240.855	22854.7
241.317	23425.06
241.78	28547.46
242.242	29498.28
242.704	31817.85
243.166	27679.82
243.629	25105.73
244.091	28966.44
244.553	31775.63
245.015	34147.68
245.477	44232.85
245.939	64890.08
246.4	68839.06
246.862	66922.2
247.324	63105.67
247.786	70721.76
248.247	92756.59
248.709	95940.52
249.17	71705.43
249.632	67443.87
250.093	78193.72
250.555	67521.77
251.016	41157.04
251.477	39049.7
251.939	42141.31
252.4	44225.41
252.861	52619.79
253.322	48971.01
253.783	58347.7
254.244	75756.03
254.705	59824.05
255.166	53249.43
255.627	52474.12
256.088	74032.44
256.549	78661.67
257.009	67769.17
257.47	82338.34
257.931	67089.92
258.391	50289.87
258.852	51868.29
259.312	54432.21
259.773	67285.29
260.233	56864.1
260.694	47971.03
261.154	54471.7
261.614	43730.96
262.074	39176.15
262.534	40691.17
262.994	38394.61
263.455	51221.07
263.915	43168.9
264.374	40686.17
264.834	44462.34
265.294	49363.07
265.754	51145.02
266.214	48445.38
266.673	45411.53
267.133	57342.87
267.593	56979.9
268.052	69751.09
268.512	60703.62
268.971	73177.83
269.431	80284.93
269.89	71921.27
270.349	107832.18
270.809	120306.66
271.268	108228.75
271.727	243024.27
272.186	157409.63
272.645	118076.08
273.104	85266.09
273.563	123503.06
274.022	97314.21
274.481	82777.82
274.94	63779.1
275.399	47472.32
275.857	55346.9
276.316	74921.26
276.775	66699
277.233	65721.18
277.692	61521.18
278.15	69576.39
278.609	71550.39
279.067	66219.17
279.525	61514.68
279.984	79537.29
280.442	95492.87
280.9	94018.14
281.358	61817.89
281.816	57613.65
282.274	56443.16
282.732	58370.48
283.19	58703.81
283.648	50678.38
284.106	53958.35
284.564	54899.47
285.021	50838.33
285.479	37879.19
285.937	34495.7
286.394	30233.86
286.852	31118.74
287.309	32674.68
287.767	31504.39
288.224	29914.41
288.682	32850.38
289.139	36034.25
289.596	32973.59
290.053	34330.44
290.511	43374.97
290.968	52551.3
291.425	71436.03
291.882	59432.36
292.339	51714.58
292.796	51382.63
293.252	48465.65
293.709	38457.74
294.166	34485.93
294.623	38114.63
295.079	36579.84
295.536	36715.96
295.992	33337.83
296.449	32959.37
296.905	34241.24
297.362	32823.81
297.818	34540.01
298.274	35809.83
298.731	36508.69
299.187	36131.14
299.643	38797.84
300.099	46873.99
300.555	51428.41
301.011	42987.8
301.467	41371.99
301.923	48459.16
302.379	47339.26
302.835	46469.25
303.291	46528.57
303.746	52973.36
304.202	66911.98
304.658	67145.41
305.113	45180.08
305.569	44239.21
306.024	47161.83
306.479	44930.11
306.935	37833.11
307.39	41312.6
307.845	38111.39
308.301	38326.86
308.756	37342.88
309.211	35937.25
309.666	36810.21
310.121	45640.52
310.576	46323.9
311.031	45951.22
311.486	52659.13
311.94	52630.96
312.395	70375.14
312.85	132391.84
313.305	650561.54
313.759	3360658.8
314.214	243671.04
314.668	193045.55
315.123	162254.49
315.577	58141.89
316.032	51741
316.486	64844.04
316.94	51127.56
317.394	35582.5
317.849	27639.76
318.303	26191.28
318.757	24700.54
319.211	27263.8
319.665	23870.47
320.119	24131.58
320.572	34607.72
321.026	32296.91
321.48	26872.75
321.934	29337.57
322.387	29366.26
322.841	31719.18
323.295	28454.93
323.748	32828.13
324.202	33326.74
324.655	39991.76
325.108	55785.18
325.562	39393.26
326.015	46838.26
326.468	35371.48
326.921	39510.08
327.374	36820.79
327.827	38272.09
328.28	43264.67
328.733	28939.88
329.186	25434.25
329.639	24207.11
330.092	20436.34
330.545	19457.25
330.997	19595.42
331.45	21380.44
331.903	25015.22
332.355	43081.44
332.808	41844.77
333.26	34551.33
333.713	37507.13
334.165	37770.14
334.617	50454.48
335.069	40780.69
335.522	73693.14
335.974	81453.51
336.426	74431.66
336.878	51617.9
337.33	26133.72
337.782	25525.48
338.234	31963.85
338.686	38221.42
339.137	45282.06
339.589	42623.69
340.041	33403.6
340.493	28738.56
340.944	29438.81
341.396	31718.61
341.847	26663.96
342.299	31420.5
342.75	38335.44
343.201	33518.94
343.653	38582.26
344.104	47425.04
344.555	37302.77
345.006	58123.23
345.457	44424.78
345.908	35354.02
346.359	33253.26
346.81	27065.42
347.261	28577.84
347.712	28143.68
348.163	30140.26
348.613	30432.56
349.064	28376.5
349.515	24838.52
349.965	25415.23
350.416	30618.72
350.866	33593.65
351.317	37961.37
351.767	62832.57
352.217	79385.99
352.668	65898.8
353.118	60408.72
353.568	58413
354.018	46181.1
354.468	48741.64
354.918	34999.31
355.368	30611.84
355.818	43238.63
356.268	124543.22
356.718	521144.24
357.168	129602.89
357.617	65063.23
358.067	72361.13
358.517	67707
358.966	79324.19
359.416	88820.81
359.865	96054.83
360.315	114441.78
360.764	53399.56
361.213	29910.49
361.663	28373.5
362.112	35024.89
362.561	56542.51
363.01	42637.66
363.459	35895.24
363.908	38885.06
364.357	33020.33
364.806	55739.07
365.255	38346.7
365.703	35035.81
366.152	35066.89
366.601	28393.97
367.05	23006.27
367.498	20863.93
367.947	21801.06
368.395	22679
368.844	20080.89
369.292	24214.78
369.74	16707.58
370.189	25554.52
370.637	29980.29
371.085	25855.44
371.533	31496.46
371.981	30395.79
372.429	28934.35
372.877	30138.94
373.325	25182.01
373.773	25639.65
374.221	22828.13
374.669	28322.94
375.116	24484.96
375.564	24632.62
376.012	27503.08
376.459	22602.46
376.907	26950.3
377.354	32650.43
377.801	30399.44
378.249	34872.56
378.696	44524.51
379.143	53908.25
379.591	57441.88
380.038	96961.65
380.485	70155.99
380.932	75783.42
381.379	69283.82
381.826	50945.87
382.273	36193.3
382.72	31643.96
383.166	30819.23
383.613	19975.28
384.06	17994.89
384.506	20791.63
384.953	15274.99
385.4	15364.61
385.846	13431.25
386.292	13105.65
386.739	12829.32
387.185	12665.58
387.631	12644.83
388.078	12236.42
388.524	13077.59
388.97	12052.81
389.416	10027.29
389.862	10635.68
390.308	10056.03
390.754	10179.76
391.2	11024.07
391.645	11263.31
392.091	10726.48
392.537	10337.43
392.983	10361.88
393.428	10154.52
393.874	10883.1
394.319	10893.65
394.765	10292.33
395.21	10574.56
395.655	9915.85
396.101	9267.54
396.546	8347.38
396.991	8418.7
397.436	7804.94
397.881	7512.25
398.326	7115.49
398.771	6700.95
399.216	5855.89
399.661	5268.85
400.106	5231.22
400.551	5341.01
400.995	4786.91
401.44	4730.53
401.885	4444.69
402.329	4495.6
402.774	4308.57
403.218	4153.5
403.663	4001.31
404.107	4104.69
404.551	4131.38
404.995	3791.72
405.44	3653.75
405.884	3705.7
406.328	3587.15
406.772	3575.79
407.216	3249.53
407.66	3140.84
408.104	2988.07
408.547	2795.84
408.991	2706.61
409.435	2602.68
409.879	2560.97
410.322	2525.32
410.766	2433.68
411.209	2310.15
411.653	2213.87
412.096	2168.41
412.54	2169.71
412.983	2156.48
413.426	2159.36
413.869	2156.79
414.312	2117.62
414.756	2040.11
415.199	1944.82
415.642	1888.86
416.085	1890.04
416.527	1877.31
416.97	1905.06
417.413	1806.16
417.856	1786.06
418.298	1768.57
418.741	1756.91
419.184	1753.04
419.626	1829.42
420.069	1829.93
420.511	1839.45
420.953	1797.58
421.396	1780.49
421.838	1733.98
422.28	1773.25
422.722	1780.23
423.164	1804.53
423.606	1774.1
424.048	1769.93
424.49	1676.46
424.932	1667.64
425.374	1645.68
425.816	1677.78
426.258	1710.17
426.699	1731.66
427.141	1703.08
427.582	1728.64
428.024	1722.46
428.465	1712.47
428.907	1672.11
429.348	1656.22
429.789	1654.43
430.231	1620.58
430.672	1640.48
431.113	1600.21
431.554	1574.15
431.995	1540.54
432.436	1483.3
432.877	1447.88
433.318	1420.84
433.759	1413.14
434.2	1409.37
434.64	1396.07
435.081	1396.58
435.522	1322.3
435.962	1274.26
436.403	1246
436.843	1262.81
437.284	1236.42
437.724	1203.63
438.164	1209.6
438.604	1182.35
439.045	1138.87
439.485	1090.7
439.925	1066.41
440.365	1039.13
440.805	1023.5
441.245	1009.57
441.685	969.25
442.125	963.1
442.564	968.35
443.004	945.05
443.444	941.11
443.883	940.73
444.323	931.69
444.762	934.7
445.202	946.72
445.641	963.09
446.081	956.87
446.52	962.75
446.959	950.56
447.398	925.67
447.837	910.11
448.276	892.72
448.716	899.63
449.154	906.86
449.593	883.65
450.032	879.2
450.471	861.39
450.91	859.99
451.349	856.42
451.787	851.53
452.226	863.46
452.664	863.92
453.103	863.39
453.541	859.84
453.98	855.4
454.418	859.56
454.856	844.05
455.295	841.38
455.733	847.91
456.171	851.3
456.609	849.87
457.047	847.79
457.485	857.82
457.923	858.72
458.361	847.48
458.798	850.46
459.236	847.76
459.674	853.4
460.111	855.73
460.549	845.7
460.987	842.02
461.424	838.9
461.862	835.33
462.299	822.25
462.736	820.96
463.173	823.21
463.611	813.61
464.048	809.39
464.485	814.92
464.922	807.83
465.359	801.89
465.796	789.74
466.233	784.1
466.67	773.88
467.106	770.43
467.543	761.35
467.98	751.38
468.416	731.69
468.853	726.88
469.29	705.22
469.726	696.92
470.162	679.95
470.599	673
471.035	667.16
471.471	651.3
471.907	648.07
472.344	644.75
472.78	645
473.216	652.61
473.652	643.42
474.088	640.46
474.523	637.2
474.959	643.79
475.395	636.97
475.831	632.12
476.266	635.25
476.702	633.24
477.138	625.95
477.573	623.26
478.008	620.36
478.444	622.48
478.879	627.8
479.314	630.24
479.75	627.81
480.185	629.23
480.62	634.37
481.055	637.55
481.49	640.88
481.925	648.2
482.36	658.76
482.795	676.08
483.229	693.87
483.664	707.07
484.099	708.77
484.534	719.38
484.968	726.06
485.403	727.68
485.837	725.15
486.271	722.41
486.706	723.03
487.14	712.85
487.574	699.56
488.009	691.88
488.443	684.72
488.877	689.91
489.311	689.77
489.745	695.09
490.179	698.82
490.613	709.27
491.046	712.59
491.48	714.94
491.914	713.92
492.348	716.35
492.781	717.79
493.215	717.01
493.648	715.56
494.082	718.97
494.515	716.54
494.948	721.72
495.382	722.95
495.815	724.63
496.248	726.4
496.681	735.78
497.114	743.49
497.547	749.5
497.98	758.23
498.413	760.48
498.846	764.91
499.279	769.36
499.711	768.63
500.144	766.87
500.577	772.73
501.009	779.56
501.442	785.16
501.874	782.86
502.306	780.77
502.739	784.1
503.171	793.63
503.603	791.71
504.036	795.77
504.468	797.08
504.9	804.63
505.332	806.88
505.764	805.87
506.196	807.74
506.627	817.14
507.059	825.02
507.491	828.59
507.923	823.61
508.354	833.91
508.786	841.15
509.217	853.99
509.649	862.99
510.08	876.95
510.512	889.81
510.943	900.74
511.374	908.15
511.805	923.64
512.237	938.21
512.668	964.59
513.099	987.38
513.53	1009.51
513.961	1025.94
514.391	1051.94
514.822	1080.53
515.253	1110.73
515.684	1132.35
516.114	1159.2
516.545	1178.95
516.975	1201.94
517.406	1218.78
517.836	1221.75
518.267	1229.48
518.697	1247.71
519.127	1254.82
519.558	1263.01
519.988	1269.12
520.418	1280.76
520.848	1297.67
521.278	1308.08
521.708	1336.98
522.138	1351.29
522.567	1381.71
522.997	1407.49
523.427	1423.64
523.857	1442.45
524.286	1454.26
524.716	1471.31
525.145	1492.64
525.575	1505.93
526.004	1522.4
526.433	1511.76
526.863	1515.19
527.292	1511.27
527.721	1519.61
528.15	1529.36
528.579	1532.76
529.008	1547.22
529.437	1571.67
529.866	1587.09
530.295	1607.87
530.724	1623.12
531.152	1651.4
531.581	1667.83
532.01	1685.48
532.438	1695.47
532.867	1710.62
533.295	1731.34
533.723	1738.7
534.152	1738.34
534.58	1740.21
535.008	1726.23
535.436	1729.06
535.865	1737.9
536.293	1752.68
536.721	1770.85
537.149	1797.21
537.576	1802.16
538.004	1815.81
538.432	1824.62
538.86	1823.94
539.287	1831.69
539.715	1845.82
540.143	1849.49
540.57	1846.03
540.998	1844.1
541.425	1821.5
541.852	1800.86
542.28	1800.56
542.707	1784.48
543.134	1771.26
543.561	1768.69
543.988	1762.66
544.415	1763.5
544.842	1759.02
545.269	1753.81
545.696	1756.33
546.123	1770.02
546.549	1762.21
546.976	1750.97
547.403	1751.65
547.829	1755.51
548.256	1757.4
548.682	1755.81
549.108	1749.29
549.535	1750.33
549.961	1752.74
550.387	1739.96
550.813	1735.37
551.24	1742.12
551.666	1742.32
552.092	1734.02
552.518	1727.51
552.943	1723.09
553.369	1728.93
553.795	1733.97
554.221	1735.21
554.646	1731.75
555.072	1742.42
555.498	1745.9
555.923	1753.54
556.349	1767.26
556.774	1773.73
557.199	1773.99
557.625	1778.79
558.05	1772.21
558.475	1781.15
558.9	1778.58
559.325	1769.62
559.75	1761.43
560.175	1753.5
560.6	1744.52
561.025	1740.45
561.449	1739.69
561.874	1742.88
562.299	1745.35
562.723	1749.28
563.148	1737.36
563.572	1737.57
563.997	1744.12
564.421	1745.9
564.846	1743.73
565.27	1745.43
565.694	1740.7
566.118	1748.45
566.542	1752.46
566.966	1742.15
567.39	1735.04
567.814	1720.04
568.238	1714.96
568.662	1715.35
569.086	1714.27
569.509	1717.4
569.933	1699.2
570.357	1688.71
570.78	1666.11
571.204	1650.28
571.627	1636.34
572.05	1629.98
572.474	1626.89
572.897	1613.81
573.32	1604.47
573.743	1593.27
574.166	1573.92
574.589	1570.8
575.012	1561.29
575.435	1557.07
575.858	1547.06
576.281	1534.24
576.704	1518.45
577.126	1505.57
577.549	1493.71
577.972	1482.94
578.394	1471.61
578.817	1464.98
579.239	1447.12
579.661	1434.29
580.084	1420.31
580.506	1406.63
580.928	1403.28
581.35	1393.86
581.772	1390.19
582.194	1377.3
582.616	1365.76
583.038	1352.22
583.46	1341.69
583.882	1338.91
584.303	1341.15
584.725	1335.96
585.147	1338.68
585.568	1347.81
585.99	1358.18
586.411	1363.71
586.833	1376.59
587.254	1377.87
587.675	1390.38
588.096	1401.18
588.518	1396.13
588.939	1380.68
589.36	1378.82
589.781	1368.78
590.202	1343.16
590.623	1333.63
591.043	1329.88
591.464	1318.28
591.885	1313.8
592.305	1308.24
592.726	1295.72
593.147	1296.63
593.567	1292.01
593.987	1284.6
594.408	1278.79
594.828	1275.72
595.248	1269.82
595.669	1253.87
596.089	1248.39
596.509	1241.9
596.929	1229.64
597.349	1230.1
597.769	1219.72
598.189	1214.2
598.608	1215.55
599.028	1217.71
599.448	1217.53
599.867	1205.81
600.287	1200.85
600.706	1195.38
601.126	1186.92
601.545	1185.28
601.965	1182.7
602.384	1177.9
602.803	1178.59
603.222	1172.73
603.641	1165.26
604.061	1161.61
604.48	1157.8
604.898	1163.36
605.317	1166.15
605.736	1165.92
606.155	1162.37
606.574	1152.93
606.992	1156.52
607.411	1151.73
607.829	1149.1
608.248	1145.65
608.666	1142.63
609.085	1140.37
609.503	1132.51
609.921	1127.18
610.339	1128.24
610.758	1127
611.176	1123.01
611.594	1114.23
612.012	1110.89
612.43	1107.32
612.847	1111.66
613.265	1112.48
613.683	1117.24
614.101	1118.22
614.518	1115.24
614.936	1106.09
615.353	1093.43
615.771	1091.09
616.188	1091.28
616.606	1087.99
617.023	1082.21
617.44	1069.76
617.857	1062.03
618.274	1052.94
618.691	1047.29
619.108	1037.72
619.525	1032.96
619.942	1039.09
620.359	1040.97
620.776	1036.16
621.192	1032.43
621.609	1030.09
622.026	1035.91
622.442	1041.75
622.859	1044.62
623.275	1038.96
623.691	1044.49
624.108	1054.24
624.524	1063.93
624.94	1063.44
625.356	1072
625.772	1083.95
626.188	1094.42
626.604	1095.74
627.02	1091.5
627.436	1090.46
627.852	1096.59
628.268	1106.7
628.683	1099.82
629.099	1093.4
629.514	1089.97
629.93	1093.88
630.345	1096.63
630.761	1093.72
631.176	1097.76
631.591	1094.65
632.007	1090.78
632.422	1088.48
632.837	1079.28
633.252	1077.94
633.667	1071.27
634.082	1064.09
634.497	1054.1
634.911	1039.1
635.326	1035.94
635.741	1021.81
636.155	1013.46
636.57	1014.92
636.984	1015.7
637.399	1017.91
637.813	1016.05
638.228	1014.65
638.642	1018.95
639.056	1009.98
639.47	1011.33
639.884	1005.21
640.298	1000.56
640.712	1001.19
641.126	990.84
641.54	983.9
641.954	979.18
642.368	971.14
642.781	966.41
643.195	951.95
643.609	954.1
644.022	950.82
644.436	948.41
644.849	938.65
645.262	928.66
645.676	931.43
646.089	928.79
646.502	919.46
646.915	916.79
647.328	903.17
647.741	903.48
648.154	893.29
648.567	891.4
648.98	880.88
649.393	882.64
649.805	881.55
650.218	875
650.631	862.36
651.043	857.68
651.456	853.17
651.868	854.55
652.28	869.43
652.693	881.77
653.105	887.69
653.517	897.44
653.929	899.17
654.341	904.51
654.753	895.74
655.165	902.91
655.577	901.39
655.989	899.6
656.401	893.81
656.813	864.74
657.224	849.66
657.636	826.79
658.047	813.77
658.459	799.08
658.87	793.5
659.282	786.95
659.693	771.84
660.104	762.33
660.515	753.9
660.926	757.12
661.338	757.96
661.749	755.09
662.159	750.98
662.57	750.61
662.981	750.98
663.392	747.76
663.803	754.86
664.213	756.45
664.624	756.02
665.035	761.47
665.445	751.11
665.855	748.27
666.266	745.68
666.676	747.21
667.086	741.51
667.497	743.61
667.907	741.59
668.317	735.57
668.727	736.44
669.137	740.36
669.547	740.38
669.956	745.38
670.366	748.63
670.776	751.07
671.186	756.87
671.595	762.14
672.005	765.91
672.414	766.15
672.824	766.44
673.233	769.94
673.642	771.78
674.052	775.68
674.461	777.16
674.87	782.55
675.279	780.31
675.688	780.51
676.097	781.39
676.506	778.41
676.915	793.37
677.323	795.75
677.732	794.64
678.141	793.08
678.549	781.9
678.958	780.34
679.366	778.79
679.775	783.49
680.183	792.74
680.592	797
681	801.06
681.408	790.67
681.816	796.07
682.224	800.26
682.632	807.08
683.04	832.33
683.448	852.47
683.856	876.57
684.264	903.4
684.671	926.45
685.079	955.71
685.487	988.35
685.894	1037.83
686.302	1073.96
686.709	1102.26
687.116	1134.38
687.524	1158.66
687.931	1178.55
688.338	1192.68
688.745	1203.13
689.152	1219.11
689.559	1245.85
689.966	1272.24
690.373	1279.99
690.78	1304.54
691.187	1349.91
691.593	1385.53
692	1414.92
692.407	1464.49
692.813	1526.96
693.22	1579.58
693.626	1634.52
694.032	1680.4
694.439	1750.51
694.845	1807.41
695.251	1880.44
695.657	1946.78
696.063	2044.44
696.469	2122.42
696.875	2198.05
697.281	2248.27
697.687	2305.57
698.093	2357.75
698.498	2444.92
698.904	2514.69
699.31	2616.79
699.715	2698.46
700.12	2806.63
700.526	2846.52
700.931	2936.68
701.337	3008.09
701.742	3061.16
702.147	3167.5
702.552	3221.53
702.957	3304.16
703.362	3348.96
703.767	3401.33
704.172	3464.85
704.577	3439.34
704.981	3509.15
705.386	3547.68
705.791	3559.82
706.195	3662.07
706.6	3692.75
707.004	3798.14
707.408	3788.42
707.813	3840.44
708.217	3849.22
708.621	3871.03
709.025	4000.44
709.43	4022.66
709.834	4111.86
710.237	4214.56
710.641	4219.36
711.045	4265.87
711.449	4281.7
711.853	4333.88
712.256	4401.84
712.66	4464.58
713.064	4570.78
713.467	4638.45
713.87	4789.07
714.274	4860.39
714.677	5004.61
715.08	5214.42
715.484	5433.77
715.887	5695.04
716.29	5954.23
716.693	6222.42
717.096	6533.67
717.499	6716.92
717.901	6769.59
718.304	6824.61
718.707	6875.95
719.109	6776.89
719.512	6760.24
719.915	6613.33
720.317	6562.2
720.719	6634.51
721.122	6618.34
721.524	6571.89
721.926	6535.47
722.328	6678.09
722.731	6684.5
723.133	6735.97
723.535	6992.51
723.937	7032.84
724.338	7114.71
724.74	7180.13
725.142	7094.93
725.544	7106.73
725.945	7152.83
726.347	7161.67
726.748	7166.24
727.15	7197.27
727.551	7161.07
727.952	7139.46
728.354	7113.54
728.755	7126.33
729.156	7085.98
729.557	7102.55
729.958	6954.82
730.359	6894.76
730.76	6881.2
731.161	6809.2
731.562	6786.18
731.962	6804.12
732.363	6725.82
732.763	6652.45
733.164	6705.63
733.564	6625.52
733.965	6506.9
734.365	6468.71
734.766	6512.09
735.166	6467.63
735.566	6400.56
735.966	6371.42
736.366	6368.38
736.766	6293.05
737.166	6339.59
737.566	6289.83
737.966	6258.73
738.365	6312.07
738.765	6307.75
739.165	6212.86
739.564	6179.92
739.964	6247.14
740.363	6188.69
740.763	6186.92
741.162	6175.12
741.561	6135.57
741.96	6076.81
742.36	6107.35
742.759	6119.93
743.158	6177.14
743.557	6199.43
743.955	6256.41
744.354	6195.8
744.753	6275.82
745.152	6221.05
745.55	6297.4
745.949	6292.14
746.348	6299.16
746.746	6323.16
747.144	6268.78
747.543	6239.19
747.941	6306.81
748.339	6217.33
748.737	6209.91
749.136	6196.82
749.534	6288.73
749.932	6253.57
750.33	6286.02
750.727	6362.77
751.125	6331.79
751.523	6313.65
751.921	6371.74
752.318	6331.49
752.716	6410.16
753.113	6431.01
753.511	6466.26
753.908	6468.94
754.305	6444.32
754.703	6527.15
755.1	6607.75
755.497	6685.29
755.894	6941.93
756.291	7183.55
756.688	7621.9
757.085	8211.31
757.482	9038.16
757.878	9939.24
758.275	10752.33
758.672	11879.11
759.068	12796.71
759.465	14102.23
759.861	15793.85
760.258	17750.42
760.654	18757.33
761.05	18613.07
761.447	17757.61
761.843	16528.42
762.239	15268.2
762.635	14692.84
763.031	14142.92
763.427	13350.59
763.822	12520.02
764.218	11698.95
764.614	10627.84
765.01	9915.05
765.405	9447.9
765.801	9098.28
766.196	8653.76
766.592	8404.05
766.987	7984.1
767.382	7696.99
767.778	7574.58
768.173	7399.2
768.568	7301.11
768.963	7134.7
769.358	7159.98
769.753	7099.09
770.148	6985.57
770.542	6985.11
770.937	6943.78
771.332	7068.27
771.726	7099.02
772.121	7015.46
772.515	7089.66
772.91	7073.5
773.304	7168.82
773.699	7079.74
774.093	7154.09
774.487	7231.74
774.881	7289.59
775.275	7284.89
775.669	7225.64
776.063	7281.17
776.457	7329.54
776.851	7231.46
777.245	7219.88
777.638	7263.82
778.032	7420.47
778.425	7370.8
778.819	7423.9
779.212	7363.81
779.606	7308.02
779.999	7336.83
780.392	7316.54
780.786	7429.66
781.179	7458.79
781.572	7516.13
781.965	7536.15
782.358	7456.04
782.751	7530.75
783.143	7470.58
783.536	7570.3
783.929	7630.77
784.322	7784.93
784.714	7828.81
785.107	7820.76
785.499	7914.46
785.891	7887.58
786.284	7860.2
786.676	8051.65
787.068	8027.44
787.46	8094.52
787.852	8122.89
788.245	8240.1
788.636	8279.71
789.028	8369.4
789.42	8425.05
789.812	8438.17
790.204	8565.95
790.595	8700.34
790.987	8438.37
791.378	8468.93
791.77	8644.42
792.161	8826.65
792.553	8897.27
792.944	8750.5
793.335	8662.28
793.726	8762.84
794.117	8887.16
794.508	9072.59
794.899	9034.3
795.29	9224.03
795.681	9305.38
796.072	9115.75
796.463	8858.75
796.853	8875.22
797.244	9086.53
797.634	9127.29
798.025	9123.39
798.415	9143.32
798.806	9261.23
799.196	9374.68
799.586	9442.15
799.976	9388.9
800.366	9701.97
800.756	10035.87
801.146	9981.43
801.536	10024.76
801.926	10127.45
802.316	10165.05
802.706	10254.43
803.095	10093.95
803.485	10232.16
803.874	10286.83
804.264	10640.45
804.653	10603.6
805.043	10799.76
805.432	10946.58
805.821	10946.42
806.21	10976.21
806.599	11135.43
806.988	11194.09
807.377	11337.03
807.766	11516.89
808.155	11901.34
808.544	11545.36
808.933	11564.77
809.321	11537.18
809.71	11941.43
810.098	12151.75
810.487	12773.85
810.875	13421.92
811.264	13460
811.652	13844.45
812.04	14036.14
812.428	14255.81
812.816	15271.41
813.204	15833.69
813.592	16581.27
813.98	17027.79
814.368	16910.48
814.756	17559.87
815.144	17454.02
815.531	18080.94
815.919	17994.31
816.306	18404.26
816.694	17987.66
817.081	18071.84
817.469	18537.69
817.856	18532.97
818.243	18896.36
818.63	19423.01
819.017	18852.24
819.404	18936.03
819.791	19448.45
820.178	20275.31
820.565	20613.97
820.952	21861.15
821.339	21200.09
821.725	21450.99
822.112	20453.81
822.498	20394.71
822.885	20572.59
823.271	20448.16
823.657	21012.08
824.044	21020.42
824.43	21115.04
824.816	21063.56
825.202	20491.85
825.588	21859.54
825.974	21882.95
826.36	22581.08
826.746	22630.97
827.132	23105.37
827.517	23077.73
827.903	22023.05
828.289	22074.51
828.674	21032.44
829.06	20903.05
829.445	21432.53
829.83	21909.58
830.216	22546.99
830.601	23028.82
830.986	22483.82
831.371	22306.88
831.756	23046.04
832.141	22464.54
832.526	22448.13
832.911	22817.61
833.295	22652.98
833.68	23280.48
834.065	22452.79
834.449	21224.65
834.834	21126.37
835.218	21110.78
835.603	21561.18
835.987	21277.71
836.371	22394.94
836.755	22258.89
837.139	22798.11
837.524	23129.25
837.908	22886.08
838.291	22957.27
838.675	23042.79
839.059	23319.79
839.443	23304.54
839.827	22984.77
840.21	23622.15
840.594	23411.4
840.977	23684.38
841.361	23658.24
841.744	24157.76
842.127	23942.98
842.511	24272.13
842.894	25074.16
843.277	25576.18
843.66	26300.2
844.043	26411.04
844.426	25322.43
844.809	24909.49
845.191	24958.12
845.574	24333.44
845.957	23835.35
846.339	23691.38
846.722	22986.02
847.104	23065.46
847.487	22839.59
847.869	22864.35
848.252	23233.93
848.634	23674.08
849.016	24023.85
849.398	24182.3
849.78	25318.66
850.162	25327.23
850.544	25874.73
850.926	26707.47
851.307	26599.03
851.689	26953.47
852.071	27547.37
852.452	27980.62
852.834	27968.73
853.215	28497.54
853.597	28691.3
853.978	29077.84
854.359	29687.74
854.741	28370.86
855.122	28243.65
855.503	27853.34
855.884	28056.87
856.265	27970.38
856.646	28131.47
857.026	27610.85
857.407	27532.95
857.788	27753.55
858.169	28148.96
858.549	27014.18
858.93	27839.53
859.31	27911.28
859.69	28186.75
860.071	27638.01
860.451	27353.77
860.831	26366.79
861.211	27908
861.591	28630.85
861.971	28597.17
862.351	28849.63
862.731	29364.21
863.111	29727.32
863.491	30167.39
863.87	31357.25
864.25	31830.35
864.629	31302.68
865.009	31977.92
865.388	33121.64
865.768	35496.89
866.147	35362.59
866.526	33401.97
866.905	33802.7
867.284	35699.35
867.663	33901.64
868.042	32477.54
868.421	32365.23
868.8	32900.69
869.179	33221.26
869.558	31288.45
869.936	28856.88
870.315	29370.09
870.693	30094.61
871.072	32455.02
871.45	30929.08
871.828	31323.32
872.207	32948.43
872.585	32464.21
872.963	33349.59
873.341	32219.04
873.719	31829.75
874.097	31430.42
874.475	32029.05
874.853	32757.03
875.23	31399.13
875.608	32700.71
875.986	35366.69
876.363	33811.78
876.741	34827.2
877.118	33947.56
877.495	35612.46
877.873	36208.05
878.25	38114.77
878.627	36562.48
879.004	37089.06
879.381	36914.89
879.758	35939.58
880.135	33458.91
880.512	35393.82
880.889	34459.49
881.265	34101.15
881.642	33814.83
882.019	34392.11
882.395	33683.87
882.772	35016.33
883.148	33480.09
883.524	33342.72
883.901	33151.37
884.277	33655.21
884.653	33437.5
885.029	34383.5
885.405	38077.72
885.781	37772.86
886.157	36215.62
886.532	36656.17
886.908	36623.53
887.284	40720.26
887.659	42046.21
888.035	43363.09
888.411	44479.05
888.786	45049.62
889.161	46603.67
889.537	45745.7
889.912	47213.94
890.287	47156.14
890.662	48375.27
891.037	47522.45
891.412	44323.55
891.787	43866.74
892.162	42331.6
892.536	43308.64
892.911	41670.22
893.286	40790.86
893.66	39130.04
894.035	40117.07
894.409	43674.72
894.784	41897.7
895.158	42574.97
895.532	45078.51
895.906	46313.57
896.281	47372.53
896.655	46598.49
897.029	53256.77
897.402	55471.52
897.776	61752.61
898.15	61541.38
898.524	60880.89
898.898	61690.67
899.271	69050.69
899.645	59827.33
900.018	57476.27
900.392	59634.22
900.765	60141.93
901.138	55642.38
901.511	54786.74
901.884	50292.85
902.258	46387.58
902.631	47935.71
903.003	55188.15
903.376	49833.58
903.749	55893.3
904.122	59814.04
904.495	65862.16
904.867	66685.49
905.24	57902.66
905.612	53930.82
905.985	55191.34
906.357	57730.46
906.729	55120.38
907.102	47080.27
907.474	45244.85
907.846	45512.98
908.218	44912.66
908.59	39688.41
908.962	38387.49
909.334	41354.45
909.705	43459.84
910.077	42190.53
910.449	43912.58
910.82	45133.56
911.192	49660.48
911.563	51635.97
911.935	55240.51
912.306	55328.77
912.677	57145.41
913.048	56596.52
913.419	61415.89
913.79	61743.52
914.161	66228.7
914.532	63296.24
914.903	58178.58
915.274	55307.75
915.645	54504.44
916.015	48018.6
916.386	45800.16
916.756	48736.11
917.127	50298.83
917.497	44927.87
917.868	48921.33
918.238	46465.4
918.608	47828.52
918.978	48817.13
919.348	51666.51
919.718	53371.44
920.088	51393.25
920.458	53426.6
920.828	56245.35
921.198	53300.01
921.567	56948.47
921.937	44082.42
922.306	44524.89
922.676	47993.53
923.045	40026.75
923.415	38010.36
923.784	34620.64
924.153	35586.23
924.522	35519.89
924.891	33387.47
925.26	35747.44
925.629	34893.85
925.998	40124.78
926.367	39167.74
926.736	37306.66
927.104	44443.22
927.473	47790.75
927.842	57693.45
928.21	57146.97
928.578	60075.19
928.947	56776.23
929.315	57124.83
929.683	66997.53
930.051	67530.12
930.42	78404.77
930.788	67034.12
931.156	66549.84
931.523	62350.12
931.891	57606.3
932.259	55331.14
932.627	64113.1
932.994	90769.96
933.362	74985.2
933.729	65114.56
934.097	62300.94
934.464	52690.13
934.831	60778.51
935.199	59901.94
935.566	58101.94
935.933	58974.33
936.3	71403.09
936.667	55606.25
937.034	50120.61
937.401	49587.17
937.767	42793.66
938.134	38101.34
938.501	53789.34
938.867	57284.07
939.234	96850.55
939.6	82684.94
939.967	90950.5
940.333	60899.79
940.699	51812.72
941.065	41629.18
941.431	54617.03
941.798	52719.22
942.163	69255.41
942.529	43254.62
942.895	39858
943.261	25793.33
943.627	33863.31
943.992	29645.19
944.358	29710.16
944.723	29829.69
945.089	29080.1
945.454	26868.39
945.82	28680.72
946.185	27564.33
946.55	31958.94
946.915	28694.76
947.28	33651.23
947.645	29630.94
948.01	27347.38
948.375	28527.62
948.74	34224.9
949.104	39936.96
949.469	57711.53
949.834	102105.82
950.198	96749.52
950.562	57953.39
950.927	48250.68
951.291	58098.06
951.655	49483.82
952.02	46504.66
952.384	35136.04
952.748	30584.28
953.112	29786.61
953.476	25904.72
953.839	23934.71
954.203	23689.34
954.567	29618.61
954.931	46710.1
955.294	39945.73
955.658	40161
956.021	68262.93
956.385	115767.42
956.748	170642.77
957.111	264853.78
957.474	297286.18
957.837	334680.03
958.2	253324.25
958.563	91186.52
958.926	61582.67
959.289	93473.76
959.652	104431.71
960.015	78378.9
960.377	112500.96
960.74	128453.04
961.102	221817.14
961.465	237936.52
961.827	127207.03
962.189	244081.49
962.552	169025.86
962.914	135491.47
963.276	87877.98
963.638	72629.65
964	71933.07
964.362	48639.49
964.724	47034.23
965.085	33534.42
965.447	27517.15
965.809	31416.02
966.17	31447.91
966.532	34068.14
966.893	31287.69
967.255	28483.35
967.616	33631.85
967.977	26927.89
968.338	29393.08
968.699	24135.67
969.061	24150.86
969.421	24300.69
969.782	27263.56
970.143	23028.76
970.504	23848.09
970.865	27049.71
971.225	27630.44
971.586	27015.6
971.946	38542.64
972.307	33486.2
972.667	43848.29
973.027	45111.68
973.388	54705.64
973.748	37210.23
974.108	40511.41
974.468	54778.52
974.828	42245.46
975.188	32563.16
975.548	29911.47
975.907	25091.94
976.267	28110.47
976.627	23578.12
976.986	24451.12
977.346	23311.19
977.705	22429.89
978.064	20432.51
978.424	17017.73
978.783	17611.86
979.142	20070.83
979.501	19208.5
979.86	20307.45
980.219	19588.49
980.578	25295.16
980.937	28345.55
981.296	25271.12
981.654	26002.02
982.013	40463.06
982.371	52465.04
982.73	48980.62
983.088	55452.88
983.447	59209
983.805	84581.8
984.163	176848.2
984.521	196022.92
984.879	287343.38
985.237	-467887.57
985.595	451233.15
985.953	112296.7
986.311	64863.51
986.669	37650.54
987.026	32564.41
987.384	43826.08
987.741	45347.41
988.099	32358.28
988.456	25794.33
988.814	24125.17
989.171	20974.57
989.528	20679.67
989.885	21799.6
990.242	17259.69
990.599	21520.03
990.956	17571.01
991.313	12285.53
991.67	10077.09
992.027	10660.27
992.383	9477.3
992.74	8306.75
993.096	8696.74
993.453	9029.89
993.809	9371.43
994.165	12500.65
994.522	11432.46
994.878	12619.59
995.234	15832.75
995.59	15619.13
995.946	14818.94
996.302	16900.01
996.658	19550.26
997.013	21510.5
997.369	25479.42
997.725	32615.17
998.08	21097.88
998.436	32642.48
998.791	44955.4
999.147	44854.49
999.502	48979.32
999.857	35674.65
1000.212	58281.38
1000.567	83010.56
1000.922	48047.24
1001.277	30555.8
1001.632	22666.49
1001.987	29220.94
1002.342	20951.58
1002.696	16780.42
1003.051	13395.4
1003.406	16217.26
1003.76	16131.09
1004.114	15852.56
1004.469	13331.74
1004.823	11009.84
1005.177	11895.66
1005.531	9430.49
1005.885	8352.11
1006.239	9406.25
1006.593	11790.54
1006.947	15786.32
1007.301	11864.76
1007.655	12917.07
1008.008	9488.16
1008.362	10664.67
1008.715	15224.01
1009.069	13793.33
1009.422	20745.85
1009.776	41680.99
1010.129	27718.34
1010.482	23159.74
1010.835	19603.67
1011.188	40715.73
1011.541	38370.85
1011.894	-234581.51
1012.247	689746.27
1012.6	46948.93
1012.952	29615.38
1013.305	15270.02
1013.657	11016.25
1014.01	10412.72
1014.362	8589.52
1014.715	7603.49
1015.067	6619.32
1015.419	6474.95
1015.771	5743.67
1016.123	5083.96
1016.475	5233.47
1016.827	5567.61
1017.179	5975.76
1017.531	6027.94
1017.883	6176.86
1018.234	5929.48
1018.586	7490.3
1018.938	7911.42
1019.289	10935.07
1019.64	12539.84
1019.992	11739.16
1020.343	10760.04
1020.694	8512.68
1021.045	7519.61
1021.396	8552.32
1021.747	9156.3
1022.098	11078.87
1022.449	8063.28
1022.8	7500.42
1023.151	5191.83
1023.501	4599.89
1023.852	5013.15
1024.202	5199.04
1024.553	5711.72
1024.903	5564.21
1025.253	4743.97
1025.604	4260.68
1025.954	5268.78
1026.304	6416.32
1026.654	7492.63
1027.004	10998.61
1027.354	17774.5
1027.703	16640.95
1028.053	21882.33
1028.403	31679.63
1028.753	46081.23
1029.102	63067.65
1029.452	325000.56
1029.801	14036.68
1030.15	9050.92
1030.499	7658.59
897.758	2663.03
901.051	2615.89
904.343	2652.12
907.636	2652.22
910.928	2717.18
914.22	2627.62
917.511	2636.1
920.803	2696.23
924.094	2714.18
927.384	2695.47
930.675	2661.56
933.965	2613.2
937.255	2625.92
940.544	2592.06
943.834	2534.63
947.123	2478.68
950.411	2577.36
953.7	2547.7
956.988	2519.49
960.276	2459.79
963.563	2539.83
966.851	2535.32
970.138	2595.6
973.424	2589.07
976.711	2537.29
979.997	2669.84
983.283	2706.54
986.568	2611.07
989.853	2625.77
993.138	2654.63
996.423	2740.89
999.708	2680.19
1002.992	2745.52
1006.275	2578.66
1009.559	2622.53
1012.842	2740.15
1016.125	2670.67
1019.408	2648.79
1022.69	2736.18
1025.972	2758.62
1029.254	2733.46
1032.536	2666.8
1035.817	2692.52
1039.098	2637.97
1042.379	2782.97
1045.659	2784.64
1048.939	2719.32
1052.219	2741.26
1055.498	2751.89
1058.778	2737.94
1062.057	2722.23
1065.335	2743.05
1068.614	2764.53
1071.892	2746.86
1075.17	2821.26
1078.447	2812.08
1081.724	2802.08
1085.001	2839.99
1088.278	2814.35
1091.554	2824.25
1094.83	2819.95
1098.106	2849.94
1101.382	2896.44
1104.657	2895.22
1107.932	2892.47
1111.206	2859.58
1114.481	2816.45
1117.755	2818.74
1121.029	2797.34
1124.302	2852.99
1127.575	2810.14
1130.848	2797.53
1134.121	2759.21
1137.393	2709.17
1140.665	2774.54
1143.937	2751.13
1147.208	2706.83
1150.48	2748.04
1153.75	2738.09
1157.021	2769
1160.291	2737.97
1163.561	2785.4
1166.831	2772.83
1170.101	2806.41
1173.37	2773.59
1176.639	2718.83
1179.907	2778.18
1183.176	2786.76
1186.444	2798.15
1189.711	2824.08
1192.979	2835.64
1196.246	2791.26
1199.513	2809.04
1202.78	2809.5
1206.046	2815.47
1209.312	2845.99
1212.578	2872.31
1215.843	2823.78
1219.108	2797.22
1222.373	2817.73
1225.638	2781.4
1228.902	2766.85
1232.166	2727.16
1235.43	2706.46
1238.693	2729.19
1241.956	2728.19
1245.219	2767.59
1248.482	2761.36
1251.744	2756.38
1255.006	2905.04
1258.268	2857.71
1261.529	2801.6
1264.79	2808.1
1268.051	2917.33
1271.312	2937.7
1274.572	2898.84
1277.832	2885.52
1281.092	2877.71
1284.351	2849.1
1287.61	2827.84
1290.869	2746.85
1294.128	2725.55
1297.386	2811.59
1300.644	2800.17
1303.902	2812.57
1307.159	2665
1310.416	2724.82
1313.673	2752.95
1316.93	2735.36
1320.186	2780.31
1323.442	2824
1326.697	2809.2
1329.953	2796.94
1333.208	2822.18
1336.463	2801.28
1339.717	2739.13
1342.972	2875.06
1346.226	2849.34
1349.479	2778.36
1352.733	2750.55
1355.986	2772.43
1359.238	2746.94
1362.491	2752.47
1365.743	2755.06
1368.995	2746.39
1372.247	2760.94
1375.498	2785.69
1378.749	2802.4
1382	2750.43
1385.251	2807.29
1388.501	2763.83
1391.751	2747.17
1395	2717.7
1398.25	2748.13
1401.499	2754.14
1404.748	2684.1
1407.996	2670.87
1411.244	2655.13
1414.492	2634.75
1417.74	2614.87
1420.987	2621.64
1424.234	2682.8
1427.481	2661.98
1430.728	2718.86
1433.974	2691.52
1437.22	2705.61
1440.465	2706.77
1443.711	2670.39
1446.956	2706.88
1450.201	2695.42
1453.445	2739.48
1456.689	2720.77
1459.933	2732.97
1463.177	2765.03
1466.42	2739.48
1469.663	2719.82
1472.906	2716.58
1476.148	2792.45
1479.391	2754.22
1482.633	2723.73
1485.874	2735.19
1489.115	2724.42
1492.356	2727.72
1495.597	2702.07
1498.838	2706.02
1502.078	2674.73
1505.318	2626.43
1508.557	2669.88
1511.797	2647.55
1515.036	2718.31
1518.274	2705.59
1521.513	2678.33
1524.751	2699.6
1527.989	2713.38
1531.227	2729.58
1534.464	2726.46
1537.701	2745.64
1540.938	2765.21
1544.174	2716.92
1547.41	2714.21
1550.646	2754.46
1553.882	2795.61
1557.117	2847.29
1560.352	2865.28
1563.587	2823.85
1566.821	2782.49
1570.055	2816.12
1573.289	2788.99
1576.523	2865.67
1579.756	2875.45
1582.989	2895.54
1586.222	2856.13
1589.454	2898.48
1592.686	2870.81
1595.918	2898.64
1599.15	2887.78
1602.381	2963.23
1605.612	2920.13
1608.843	3021.32
1612.073	2931.84
1615.303	2916.5
1618.533	2909.26
1621.762	2914.92
1624.992	2895.51
1628.221	2886.27
1631.449	2869.92
1634.678	2922.45
1637.906	2876.11
1641.134	2915.86
1644.361	2869.65
1647.588	2858.82
1650.815	2875.14
1654.042	2852.8
1657.269	2882.63
1660.495	2837.13
1663.72	2855.85
1666.946	2820.26
1670.171	2767.01
1673.396	2740.19
1676.621	2727.17
1679.845	2745.12
1683.069	2765.44
1686.293	2809.16
1689.517	2779.88
1692.74	2707.04
1695.963	2736.17
1699.185	2757.12
1702.408	2726.45
1705.63	2769.91
1708.852	2782.88
1712.073	2753.07
1715.294	2739.53
1718.515	2798.41
1721.736	2743.25
1724.956	2734.56
1728.176	2762.72
1731.396	2787.96
1734.616	2770.61
1737.835	2802.06
1741.054	2779.89
1744.272	2770.89
1747.491	2804.46
1750.709	2859.27
1753.927	2764.93
1757.144	2810.78
1760.361	2857.04
1763.578	2845.81
1766.795	2782.76
1770.011	2789.37
1773.227	2830.57
1776.443	2864.98
1779.658	2912.34
1782.874	2852.06
1786.089	2828.18
1789.303	2831.33
1792.518	2834.07
1795.732	2820.2
1798.945	2832.13
1802.159	2880.95
1805.372	2786.56
1808.585	2771.66
1811.797	2771.66
1815.01	2818.96
1818.222	2821.47
1821.434	2794.25
1824.645	2852.4
1827.856	2838.86
1831.067	2876.24
1834.278	2826.11
1837.488	2812.77
1840.698	2958.7
1843.908	2879.97
1847.117	2844.8
1850.326	2728.43
1853.535	2832.17
1856.744	2856.41
1859.952	2770.45
1863.16	2772.82
1866.368	2793.6
1869.575	2900.72
1872.782	2776.62
1875.989	2715.19
1879.196	2798.01
1882.402	2786.3
1885.608	2828.08
1888.814	2727.48
1892.019	2619.43
1895.224	2670.74
1898.429	2648.64
1901.634	2623.65
1904.838	2602.67
1908.042	2655.11
1911.246	2660.55
1914.449	2592.11
1917.652	2590.97
1920.855	2571.04
1924.058	2620.51
1927.26	2658.56
1930.462	2684.63
1933.664	2711.67
1936.865	2649.83
1940.066	2655.04
1943.267	2602.41
1946.467	2616.59
1949.668	2645.35
1952.868	2715.35
1956.067	2693.05
1959.267	2624.58
1962.466	2652.51
1965.665	2637.26
1968.863	2632.62
1972.061	2648.36
1975.259	2647.26
1978.457	2726.37
1981.654	2687.18
1984.852	2685.68
1988.048	2615.29
1991.245	2617.79
1994.441	2705.07
1997.637	2686.9
2000.833	2668.62
2004.028	2708.6
2007.223	2763.64
2010.418	2740.74
2013.613	2702.53
2016.807	2673.39
2020.001	2678.36
2023.194	2722.8
2026.388	2700.95
2029.581	2647.2
2032.774	2698.25
2035.966	2703.07
2039.158	2634.59
2042.35	2662.03
2045.542	2589.33
2048.733	2687.32
2051.924	2707.77
2055.115	2739.81
2058.306	2682.65
2061.496	2741.64
2064.686	2803.15
2067.875	2717.43
2071.065	2731.89
2074.254	2760.4
2077.442	2709.61
2080.631	2800.95
2083.819	2695.53
2087.007	2681.97
2090.195	2648.74
2093.382	2683.26
2096.569	2662.7
2099.756	2616.09
2102.942	2642.64
2106.128	2649.71
2109.314	2642.34
2112.5	2606.91
2115.685	2579.26
2118.87	2589.02
2122.055	2650.82
2125.239	2621.35
2128.424	2594.97
2131.608	2697.37
2134.791	2679.5
2137.974	2738.04
2141.157	2724.14
2144.34	2672.35
2147.523	2687.53
2150.705	2704.81
2153.887	2681.69
2157.068	2632.57
2160.25	2632.35
2163.431	2670.8
2166.611	2615.47
2169.792	2634.42
2172.972	2526.57
2176.152	2604.31
2179.331	2639.66
2182.511	2623.59
2185.69	2651.94
2188.868	2647.02
2192.047	2703.13
2195.225	2693.35
2198.403	2643.67
2201.58	2634.84
2204.758	2628.35
2207.935	2711.46
2211.111	2600.25
2214.288	2585.24
2217.464	2624.09
2220.64	2594.09
2223.815	2651.2
2226.991	2568.5
2230.166	2590.63
2233.34	2619.23
2236.515	2646.55
2239.689	2719.24
2242.863	2662.92
2246.036	2719.21
2249.209	2719.19
2252.382	2753.61
2255.555	2739.84
2258.727	2677.13
2261.9	2719.51
2265.071	2709.82
2268.243	2710.17
2271.414	2641.92
2274.585	2605.36
2277.756	2673.9
2280.926	2628.58
2284.096	2667.68
2287.266	2573.04
2290.436	2630.29
2293.605	2659.7
2296.774	2687.2
2299.942	2710.42
2303.111	2729.04
2306.279	2779.65
2309.447	2762.91
2312.614	2737.71
2315.781	2756.61
2318.948	2727.11
2322.115	2765.44
2325.281	2667.89
2328.447	2684.09
2331.613	2660.64
2334.779	2631.93
2337.944	2634.75
2341.109	2632.16
2344.274	2616.46
2347.438	2579.88
2350.602	2604.97
2353.766	2623.04
2356.929	2610.7
2360.092	2649.87
2363.255	2604.95
2366.418	2539.83
2369.58	2651.49
2372.742	2439.19
2375.904	2452.93
2379.066	2429.44
2382.227	2466.77
2385.388	2428.96
2388.548	2352.12
2391.709	2408.13
2394.869	2391.46
2398.029	2488.63
2401.188	2499.78
2404.347	2434.29
2407.506	2575.69
2410.665	2605.55
2413.823	2610.2
2416.981	2567.92
2420.139	2601.7
2423.296	2651.67
2426.453	2622.67
2429.61	2643.66
2432.767	2578.86
2435.923	2619.24
2439.079	2579.48
2442.235	2631.52
2445.391	2555.89
2448.546	2587.11
2451.701	2635.49
2454.855	2607.04
2458.009	2661.3
2461.163	2662.05
2464.317	2621.56
2467.471	2652.98
2470.624	2691.66
2473.777	2665.02
2476.929	2674.73
2480.082	2701.92
2483.234	2664.27
2486.385	2619.81
2489.537	2611.85
2492.688	2570.55
2495.839	2589.6
2498.989	2603.64
2502.14	2589.32
2505.29	2570.91
2508.439	2597.32
2511.589	2521.38
2514.738	2531.19
2517.887	2563.95
2521.035	2625.87
2524.183	2607.87
2527.331	2589.32
2530.479	2563.2
2533.627	2571.5
