Data from C_3_DEC_ON_6N_Splice17_13-36-09-976.txt Node
Date: Sat Mar 14 13:36:09 EDT 2020
User: sa697716
Spectrometer: FLMS03696
Trigger mode: 0
Integration Time (sec): 3.180400E-1
Scans to average: 20
Electric dark correction enabled: true
Nonlinearity correction enabled: true
Boxcar width: 5
XAxis mode: Wavelengths
Number of Pixels in Spectrum: 2048
>>>>>Begin Spectral Data<<<<<
187.83	-482177.78
188.298	3368.04
188.766	1756.18
189.233	1511.02
189.701	2176.58
190.169	3073.85
190.636	1177.66
191.104	898.06
191.571	131.14
192.039	-71.95
192.506	-114.15
192.974	518.17
193.441	-1057.63
193.908	-261.15
194.375	-138.71
194.842	-58.58
195.31	57.91
195.777	171.25
196.244	403.45
196.711	439.43
197.177	554.52
197.644	744.72
198.111	1290.48
198.578	1850.19
199.045	1454.28
199.511	2386.07
199.978	2767.09
200.445	2377.69
200.911	2613.23
201.378	2869.42
201.844	2584.54
202.31	4402.02
202.777	4578.16
203.243	2527.04
203.709	2386.93
204.176	2836.81
204.642	2339.34
205.108	2188.56
205.574	1743.37
206.04	1577.21
206.506	1476.87
206.972	1402.68
207.438	1355.55
207.903	1540
208.369	1368.91
208.835	1380.44
209.301	1455.37
209.766	1474.6
210.232	1461.45
210.697	1809.55
211.163	2214.7
211.628	3326.43
212.094	2791.84
212.559	3488.59
213.024	2192.85
213.49	2674.33
213.955	2582.6
214.42	2489.04
214.885	2304.27
215.35	2207.4
215.815	2180.98
216.28	2328.97
216.745	1885.85
217.21	2049.99
217.675	1851.14
218.14	2083.28
218.604	2295.83
219.069	2615.81
219.534	2769.4
219.998	3191.45
220.463	3853.49
220.927	4686.68
221.392	4400.36
221.856	4461.55
222.32	5592.95
222.785	6914.97
223.249	8641.08
223.713	9653.95
224.177	9667.82
224.642	12350.26
225.106	15211.99
225.57	16653.33
226.034	12416.18
226.497	18911.48
226.961	17132.82
227.425	19995.67
227.889	22161.18
228.353	22204.43
228.816	45858.52
229.28	43962.97
229.744	37152.19
230.207	22687.81
230.671	22312.22
231.134	36904.47
231.597	42673.27
232.061	42684.98
232.524	41631.74
232.987	28750.46
233.45	25974.13
233.914	23361.85
234.377	23937.42
234.84	21983.19
235.303	25922.59
235.766	28982.57
236.229	29936.44
236.691	18852.69
237.154	21207.29
237.617	15986.61
238.08	16382.91
238.542	19178.02
239.005	13724.07
239.468	13646.63
239.93	12854.54
240.393	11708.03
240.855	10295.62
241.317	10569.49
241.78	12871.19
242.242	13330.93
242.704	14451.3
243.166	12594.82
243.629	11482.86
244.091	13259.58
244.553	14518.26
245.015	15634.52
245.477	20216.33
245.939	29643.13
246.4	31487.12
246.862	30667.07
247.324	28946.09
247.786	32337.39
248.247	42428.34
248.709	43728.88
249.17	32709.59
249.632	30949.32
250.093	35923.14
250.555	31071.36
251.016	18976.08
251.477	18014.75
251.939	19443.55
252.4	20403.5
252.861	24235.75
253.322	22566.43
253.783	26842.79
254.244	34814.08
254.705	27402.86
255.166	24335.58
255.627	23981.16
256.088	33876.66
256.549	36002.77
257.009	30956.62
257.47	37520.64
257.931	30560.17
258.391	22864.55
258.852	23602.88
259.312	24722.22
259.773	30537.09
260.233	25838.71
260.694	21780.53
261.154	24661.58
261.614	19796.74
262.074	17694.42
262.534	18391.67
262.994	17323.67
263.455	23082.4
263.915	19405.67
264.374	18279
264.834	19951
265.294	22080.88
265.754	22864.08
266.214	21632.24
266.673	20254.72
267.133	25565.28
267.593	25329.24
268.052	31033.63
268.512	26984.09
268.971	32593.6
269.431	35710.76
269.89	31936.8
270.349	47862.75
270.809	53355.24
271.268	47943.58
271.727	107364.28
272.186	69519.32
272.645	52137.64
273.104	37502.39
273.563	54221.83
274.022	42559.09
274.481	36235.16
274.94	27913.42
275.399	20728.02
275.857	24097.35
276.316	32587.83
276.775	29019.79
277.233	28606.89
277.692	26791.31
278.15	30372.22
278.609	31290.6
279.067	28968.29
279.525	26914.81
279.984	34749.27
280.442	41768.18
280.9	41247.86
281.358	27135.81
281.816	25286
282.274	24726.37
282.732	25545.06
283.19	25634.93
283.648	22131.59
284.106	23566.37
284.564	23961.44
285.021	22236.73
285.479	16556.49
285.937	15036.21
286.394	13202.79
286.852	13574.33
287.309	14287.69
287.767	13837.17
288.224	13182.45
288.682	14470.22
289.139	15897.05
289.596	14565.07
290.053	15131.19
290.511	19118.03
290.968	23224.33
291.425	31511.87
291.882	26344.7
292.339	22937.53
292.796	22729.83
293.252	21424.66
293.709	17046.74
294.166	15299.78
294.623	16904.87
295.079	16224.35
295.536	16330.63
295.992	14834.89
296.449	14682.6
296.905	15231.34
297.362	14634.56
297.818	15410.71
298.274	16000.11
298.731	16285.65
299.187	16105.61
299.643	17309.24
300.099	20955.88
300.555	22969.43
301.011	19195.67
301.467	18540.18
301.923	21683.87
302.379	21158.61
302.835	20766.93
303.291	20820.11
303.746	23693.46
304.202	29957.4
304.658	30071.48
305.113	20239.86
305.569	19856.5
306.024	21175.78
306.479	20139.02
306.935	17025.25
307.39	18589.5
307.845	17195.59
308.301	17302.2
308.756	16890.39
309.211	16284.04
309.666	16681.83
310.121	20748.89
310.576	21049.8
311.031	20917.22
311.486	23962.44
311.94	23958.67
312.395	32100.12
312.85	60390.04
313.305	296906.2
313.759	1539230.57
314.214	111705.49
314.668	88867.8
315.123	74878.04
315.577	26914.32
316.032	23967.52
316.486	30130.4
316.94	23808.72
317.394	16603.58
317.849	12907.8
318.303	12228.17
318.757	11553.47
319.211	12789.95
319.665	11188.73
320.119	11340.19
320.572	16272.87
321.026	15221.23
321.48	12660.19
321.934	13791.45
322.387	13808.82
322.841	14936.69
323.295	13475.53
323.748	15495.73
324.202	15708.29
324.655	18856.49
325.108	26422.38
325.562	18675.2
326.015	22192.94
326.468	16790.59
326.921	18818.96
327.374	17577.43
327.827	18338.03
328.28	20746.31
328.733	13952.42
329.186	12289.12
329.639	11735.41
330.092	9863.77
330.545	9399.17
330.997	9472.32
331.45	10359.87
331.903	12152.39
332.355	20911.29
332.808	20300.76
333.26	16750.87
333.713	18200.42
334.165	18345.99
334.617	24473.95
335.069	19785.52
335.522	35806.31
335.974	39741.35
336.426	36302.25
336.878	25159.78
337.33	12781.02
337.782	12490.69
338.234	15647.25
338.686	18657.81
339.137	22092.07
339.589	20810.42
340.041	16288.83
340.493	14037.73
340.944	14378.86
341.396	15538.61
341.847	13076.84
342.299	15440.38
342.75	18854.26
343.201	16464.7
343.653	18966.78
344.104	23330.99
344.555	18361.1
345.006	28640.07
345.457	21966.07
345.908	17470.98
346.359	16423.84
346.81	13355.85
347.261	14064.02
347.712	13836.82
348.163	14851.52
348.613	15091.42
349.064	14110.48
349.515	12392.59
349.965	12718.69
350.416	15323.84
350.866	16843.28
351.317	19070.23
351.767	31642.05
352.217	40002.15
352.668	33241.85
353.118	30519.15
353.568	29370.65
354.018	23256.45
354.468	24555.29
354.918	17634.68
355.368	15397.93
355.818	21726.1
356.268	62520.34
356.718	261940.42
357.168	65435.7
357.617	32940.93
358.067	36598.81
358.517	34398.71
358.966	40361.02
359.416	45338.71
359.865	48977.48
360.315	58327.47
360.764	27303.14
361.213	15275.64
361.663	14480.35
362.112	17822.83
362.561	28781.62
363.01	21746.06
363.459	18307.97
363.908	19854.96
364.357	16902.15
364.806	28561.33
365.255	19685.4
365.703	18061.69
366.152	18178.84
366.601	14760.93
367.05	12029.52
367.498	10948.98
367.947	11449
368.395	11903.95
368.844	10524.37
369.292	12650.29
369.74	8762.88
370.189	13417.09
370.637	15731.37
371.085	13543.89
371.533	16505.34
371.981	15874.46
372.429	15142.44
372.877	15767.27
373.325	13186.99
373.773	13448.88
374.221	11947.4
374.669	14806.13
375.116	12807.46
375.564	12917.39
376.012	14454.44
376.459	11902.42
376.907	14221.95
377.354	17175.05
377.801	16045.02
378.249	18463.05
378.696	23569.75
379.143	28565.9
379.591	30419.65
380.038	51296.52
380.485	37068.8
380.932	39946.32
381.379	36641.03
381.826	26969.54
382.273	19159.92
382.72	16734.49
383.166	16305.64
383.613	10567.64
384.06	9556.35
384.506	11087
384.953	8145.07
385.4	8177.57
385.846	7167.27
386.292	6956.8
386.739	6811.91
387.185	6731.51
387.631	6732.1
388.078	6540.15
388.524	7001.74
388.97	6458.31
389.416	5387.5
389.862	5743.09
390.308	5446.71
390.754	5532.2
391.2	5990.73
391.645	6121.75
392.091	5869.12
392.537	5667.27
392.983	5670.44
393.428	5600.02
393.874	5998.57
394.319	6028.59
394.765	5728.36
395.21	5888.5
395.655	5523.75
396.101	5191.92
396.546	4698.61
396.991	4735.13
397.436	4406.95
397.881	4268.31
398.326	4036.53
398.771	3829.58
399.216	3340.11
399.661	3005.07
400.106	3009.28
400.551	3094.08
400.995	2780.72
401.44	2756.63
401.885	2601.98
402.329	2633.95
402.774	2529.1
403.218	2456.89
403.663	2369.35
404.107	2449.72
404.551	2472.52
404.995	2262.47
405.44	2181.02
405.884	2216.76
406.328	2145.82
406.772	2136.96
407.216	1948.55
407.66	1888.25
408.104	1790.63
408.547	1683.16
408.991	1626.69
409.435	1569.7
409.879	1553.9
410.322	1535.14
410.766	1489.78
411.209	1420.31
411.653	1365.72
412.096	1342.32
412.54	1343.43
412.983	1339.77
413.426	1346.27
413.869	1346.87
414.312	1328.21
414.756	1281.24
415.199	1223.8
415.642	1187.1
416.085	1191.08
416.527	1184.53
416.97	1202.1
417.413	1139.75
417.856	1130.76
418.298	1116.08
418.741	1108.71
419.184	1102.8
419.626	1148.26
420.069	1151.71
420.511	1163.69
420.953	1142.19
421.396	1134.45
421.838	1107.07
422.28	1134.84
422.722	1141.85
423.164	1160.09
423.606	1143.45
424.048	1141.06
424.49	1085.95
424.932	1077.49
425.374	1059.56
425.816	1076.26
426.258	1098.34
426.699	1113.67
427.141	1100.11
427.582	1113.02
428.024	1109.28
428.465	1102.35
428.907	1077.28
429.348	1067.44
429.789	1069.64
430.231	1050.03
430.672	1063.91
431.113	1039.95
431.554	1023.94
431.995	995.29
432.436	962.74
432.877	942.29
433.318	928.37
433.759	924.96
434.2	921.86
434.64	912.65
435.081	914.52
435.522	868.02
435.962	834.18
436.403	817.06
436.843	830.15
437.284	812.27
437.724	787.83
438.164	789.1
438.604	771.84
439.045	744.98
439.485	717.14
439.925	700.41
440.365	682.87
440.805	673.89
441.245	665.35
441.685	640.71
442.125	636.02
442.564	641.45
443.004	627.12
443.444	625.22
443.883	627.54
444.323	621.2
444.762	622
445.202	631.54
445.641	644.48
446.081	641.72
446.52	648.59
446.959	643.03
447.398	629.1
447.837	621.78
448.276	610.98
448.716	617.49
449.154	623.5
449.593	612.02
450.032	610.64
450.471	598.51
450.91	599.24
451.349	599.53
451.787	596.07
452.226	604.9
452.664	605.73
453.103	608.85
453.541	605.8
453.98	605.38
454.418	607.24
454.856	598.27
455.295	598.22
455.733	603.28
456.171	605.89
456.609	607.79
457.047	606.47
457.485	615.99
457.923	615.56
458.361	606.95
458.798	608.34
459.236	606.63
459.674	610.28
460.111	614.02
460.549	608.26
460.987	604.73
461.424	602.14
461.862	599.34
462.299	589.06
462.736	589.59
463.173	592.43
463.611	587.95
464.048	586.99
464.485	590.67
464.922	583.04
465.359	578.11
465.796	575.67
466.233	570.97
466.67	566.81
467.106	566.24
467.543	559.31
467.98	551.08
468.416	535.65
468.853	530.14
469.29	514.2
469.726	508.61
470.162	495.65
470.599	485.82
471.035	480.83
471.471	468.8
471.907	465.67
472.344	462.8
472.78	465.45
473.216	470.43
473.652	467.13
474.088	466.35
474.523	466.77
474.959	471.98
475.395	467.85
475.831	466.45
476.266	469.95
476.702	468.98
477.138	464.35
477.573	462.3
478.008	461.72
478.444	464.88
478.879	469.98
479.314	471.84
479.75	471.4
480.185	473.35
480.62	476.98
481.055	479.32
481.49	483.32
481.925	491.25
482.36	502.31
482.795	515.99
483.229	528.29
483.664	539.46
484.099	540.52
484.534	549.19
484.968	554.89
485.403	557.5
485.837	556.34
486.271	555.64
486.706	556.77
487.14	548.23
487.574	539.66
488.009	535.11
488.443	529.93
488.877	536.68
489.311	538.08
489.745	544.92
490.179	550.18
490.613	561.82
491.046	565.88
491.48	570.41
491.914	572.56
492.348	577.38
492.781	581.69
493.215	584.03
493.648	585.71
494.082	591.23
494.515	591.6
494.948	599.46
495.382	603.43
495.815	608.94
496.248	613.73
496.681	624.8
497.114	635.62
497.547	645.73
497.98	659.17
498.413	665.9
498.846	675.21
499.279	684.15
499.711	688.36
500.144	691.87
500.577	702.64
501.009	714.12
501.442	725.75
501.874	728.71
502.306	731.93
502.739	741.17
503.171	755.92
503.603	761.8
504.036	772.62
504.468	780.72
504.9	793.07
505.332	801.21
505.764	807.11
506.196	814.45
506.627	829.46
507.059	843.51
507.491	853.29
507.923	853.52
508.354	869.25
508.786	881.68
509.217	899.21
509.649	915.44
510.08	935.05
510.512	953.1
510.943	969.73
511.374	983.09
511.805	1004.38
512.237	1022.92
512.668	1055.59
513.099	1083.6
513.53	1111.05
513.961	1133.18
514.391	1166.03
514.822	1200.24
515.253	1236.23
515.684	1263.16
516.114	1293.35
516.545	1317.61
516.975	1346.83
517.406	1367.23
517.836	1371.83
518.267	1381.19
518.697	1403.14
519.127	1408.83
519.558	1417.84
519.988	1425.08
520.418	1437.5
520.848	1456.44
521.278	1465.9
521.708	1500.66
522.138	1514.41
522.567	1546.99
522.997	1573.64
523.427	1589.26
523.857	1608.16
524.286	1620.38
524.716	1637.03
525.145	1657.44
525.575	1670.93
526.004	1687.44
526.433	1667.5
526.863	1669.2
527.292	1661.11
527.721	1668.49
528.15	1677.31
528.579	1679.77
529.008	1691.67
529.437	1713.94
529.866	1728.43
530.295	1745.8
530.724	1759.93
531.152	1787.78
531.581	1803.77
532.01	1823.06
532.438	1832.37
532.867	1847.09
533.295	1866.44
533.723	1873.58
534.152	1873.26
534.58	1874.17
535.008	1859.35
535.436	1862.29
535.865	1871.08
536.293	1886.2
536.721	1901.48
537.149	1927.65
537.576	1930.78
538.004	1943.63
538.432	1951.45
538.86	1949.89
539.287	1958.21
539.715	1973.48
540.143	1974.65
540.57	1970.06
540.998	1966.16
541.425	1943.38
541.852	1922.08
542.28	1919.8
542.707	1903.33
543.134	1890.97
543.561	1887.54
543.988	1879.04
544.415	1877.58
544.842	1873.11
545.269	1866.26
545.696	1868.89
546.123	1883.3
546.549	1873.76
546.976	1861.89
547.403	1863.16
547.829	1864.96
548.256	1868.1
548.682	1864.97
549.108	1860.12
549.535	1860.16
549.961	1864.26
550.387	1851.77
550.813	1846.81
551.24	1853.94
551.666	1856.26
552.092	1846.75
552.518	1839.92
552.943	1834.4
553.369	1843.9
553.795	1849.26
554.221	1851.65
554.646	1848.92
555.072	1861.21
555.498	1867.27
555.923	1878.04
556.349	1895.14
556.774	1905.35
557.199	1908.63
557.625	1915.73
558.05	1910.24
558.475	1923.31
558.9	1923.1
559.325	1917.19
559.75	1911.63
560.175	1904.83
560.6	1899.2
561.025	1896.82
561.449	1899.33
561.874	1906.59
562.299	1912.55
562.723	1921.27
563.148	1910.73
563.572	1915.8
563.997	1924.27
564.421	1930.44
564.846	1933.79
565.27	1938.11
565.694	1935.49
566.118	1947.88
566.542	1956.25
566.966	1948.94
567.39	1944.22
567.814	1932.7
568.238	1933.01
568.662	1940.18
569.086	1942.48
569.509	1949.13
569.933	1934.19
570.357	1926.73
570.78	1904.08
571.204	1890.5
571.627	1880.33
572.05	1878.75
572.474	1879.48
572.897	1866.26
573.32	1858.15
573.743	1848.24
574.166	1829.29
574.589	1828.79
575.012	1821.98
575.435	1821.74
575.858	1812.57
576.281	1801.38
576.704	1785.18
577.126	1772.25
577.549	1762.07
577.972	1752.83
578.394	1743.36
578.817	1738.38
579.239	1718.33
579.661	1704.83
580.084	1690.45
580.506	1677.21
580.928	1673.49
581.35	1662.7
581.772	1658.19
582.194	1645.02
582.616	1632.34
583.038	1616.85
583.46	1604.77
583.882	1601.88
584.303	1606.72
584.725	1600.29
585.147	1605.32
585.568	1616.67
585.99	1630.88
586.411	1639.15
586.833	1654.23
587.254	1654.68
587.675	1670.61
588.096	1683.65
588.518	1679.82
588.939	1661.82
589.36	1660.6
589.781	1646.1
590.202	1616.86
590.623	1607.42
591.043	1604.41
591.464	1590.69
591.885	1587.16
592.305	1580.57
592.726	1565.7
593.147	1566.38
593.567	1561.33
593.987	1553.63
594.408	1547.8
594.828	1544.78
595.248	1537.78
595.669	1518.39
596.089	1511.57
596.509	1505.21
596.929	1491.79
597.349	1494.06
597.769	1482.66
598.189	1476.19
598.608	1477.75
599.028	1480.64
599.448	1481.21
599.867	1467.41
600.287	1463.24
600.706	1459.17
601.126	1448.86
601.545	1447.06
601.965	1444.66
602.384	1440
602.803	1443.16
603.222	1438.25
603.641	1431.41
604.061	1427.18
604.48	1423.47
604.898	1432.21
605.317	1436.7
605.736	1438.53
606.155	1436.39
606.574	1426.82
606.992	1433.04
607.411	1427.01
607.829	1418.16
608.248	1414.46
608.666	1411.73
609.085	1411.56
609.503	1402.14
609.921	1396.55
610.339	1399.43
610.758	1398.48
611.176	1393.13
611.594	1382
612.012	1378.49
612.43	1382.14
612.847	1389.29
613.265	1390.91
613.683	1395.15
614.101	1396.53
614.518	1391.22
614.936	1380.96
615.353	1365.17
615.771	1361.97
616.188	1362.1
616.606	1359.18
617.023	1350.92
617.44	1335.9
617.857	1328.22
618.274	1318.28
618.691	1311.85
619.108	1302
619.525	1294.59
619.942	1301.63
620.359	1304.62
620.776	1299.17
621.192	1295.14
621.609	1291.73
622.026	1297.29
622.442	1303.1
622.859	1306.68
623.275	1298.22
623.691	1304.38
624.108	1316.66
624.524	1329.39
624.94	1329.3
625.356	1339.52
625.772	1351.78
626.188	1364.4
626.604	1366.62
627.02	1362.65
627.436	1360.76
627.852	1368.77
628.268	1381.56
628.683	1371.58
629.099	1364.05
629.514	1358.4
629.93	1362.08
630.345	1366.61
630.761	1362.71
631.176	1366.66
631.591	1360.05
632.007	1352.22
632.422	1348.11
632.837	1333.32
633.252	1330.44
633.667	1319.12
634.082	1308.7
634.497	1294.3
634.911	1274.48
635.326	1269.57
635.741	1250.08
636.155	1237.82
636.57	1238.91
636.984	1238.01
637.399	1240.51
637.813	1237.28
638.228	1234.44
638.642	1237.25
639.056	1225.27
639.47	1222.6
639.884	1212.03
640.298	1203.75
640.712	1201.13
641.126	1186.34
641.54	1174.59
641.954	1165.45
642.368	1151.31
642.781	1142.06
643.195	1122.51
643.609	1120.99
644.022	1112.74
644.436	1106.44
644.849	1091.41
645.262	1076.17
645.676	1074.83
646.089	1069.68
646.502	1054.8
646.915	1047.91
647.328	1028.5
647.741	1025.44
648.154	1010.78
648.567	1008.01
648.98	993.66
649.393	992.85
649.805	988.21
650.218	980.1
650.631	963.86
651.043	956.53
651.456	949.21
651.868	949.95
652.28	963.78
652.693	975.19
653.105	978.87
653.517	986.99
653.929	986.28
654.341	992.08
654.753	979.25
655.165	982.36
655.577	978.4
655.989	974.17
656.401	964.11
656.813	928.95
657.224	909.67
657.636	880.68
658.047	862.79
658.459	843.7
658.87	832.63
659.282	819.6
659.693	800.5
660.104	784.34
660.515	768.5
660.926	763.39
661.338	759.76
661.749	752.3
662.159	742.45
662.57	735.86
662.981	729.62
663.392	721.03
663.803	723.03
664.213	717.37
664.624	711.47
665.035	712.95
665.445	700.79
665.855	691.83
666.266	683.4
666.676	679.44
667.086	670.15
667.497	668.66
667.907	662.71
668.317	654
668.727	651.7
669.137	651.2
669.547	649.35
669.956	649.04
670.366	650.91
670.776	651.2
671.186	654.59
671.595	657.14
672.005	658.43
672.414	658.01
672.824	656.2
673.233	657.13
673.642	658.43
674.052	661.09
674.461	665.05
674.87	668.23
675.279	667.39
675.688	667.72
676.097	669.12
676.506	666.63
676.915	679.07
677.323	681.64
677.732	681.3
678.141	681.66
678.549	672.13
678.958	671.49
679.366	672.46
679.775	676.12
680.183	687.45
680.592	693.99
681	701.98
681.408	698.31
681.816	707.76
682.224	719.23
682.632	732.79
683.04	762.17
683.448	788.13
683.856	819.74
684.264	857.3
684.671	891.59
685.079	933.11
685.487	979.06
685.894	1042.47
686.302	1096.21
686.709	1142.05
687.116	1194.7
687.524	1242.45
687.931	1282.35
688.338	1319.78
688.745	1349.44
689.152	1384.36
689.559	1432.61
689.966	1479.87
690.373	1504.63
690.78	1549.21
691.187	1615.68
691.593	1665.36
692	1708.51
692.407	1772.35
692.813	1850
693.22	1913.41
693.626	1977.01
694.032	2026.54
694.439	2103.64
694.845	2163.01
695.251	2238.96
695.657	2305.19
696.063	2409.04
696.469	2484.57
696.875	2555.43
697.281	2594.37
697.687	2641.06
698.093	2681.43
698.498	2759.14
698.904	2816.69
699.31	2906.16
699.715	2970.73
700.12	3064.37
700.526	3079.27
700.931	3149.29
701.337	3200.02
701.742	3231.15
702.147	3317.52
702.552	3346.81
702.957	3405.79
703.362	3424.93
703.767	3454.67
704.172	3491.49
704.577	3439.05
704.981	3487.22
705.386	3502.05
705.791	3491.79
706.195	3566.55
706.6	3573.41
707.004	3653.36
707.408	3620.25
707.813	3646.13
708.217	3630.61
708.621	3631.29
709.025	3731.32
709.43	3728.78
709.834	3788.23
710.237	3858.84
710.641	3841.92
711.045	3862.89
711.449	3855.2
711.853	3882.51
712.256	3922.67
712.66	3958.96
713.064	4035.33
713.467	4076.52
713.87	4190.72
714.274	4232.82
714.677	4343.72
715.08	4505.72
715.484	4675
715.887	4878.3
716.29	5076.79
716.693	5285.56
717.096	5525.33
717.499	5654.09
717.901	5672.91
718.304	5695.1
718.707	5719.22
719.109	5609.82
719.512	5574.3
719.915	5434.23
720.317	5374.91
720.719	5418.82
721.122	5387.18
721.524	5333.2
721.926	5288.08
722.328	5388.53
722.731	5377.82
723.133	5402.24
723.535	5593.58
723.937	5609.04
724.338	5660.33
724.74	5700.48
725.142	5655.85
725.544	5652.28
725.945	5682.22
726.347	5674.96
726.748	5665.01
727.15	5673.6
727.551	5634.76
727.952	5603.71
728.354	5575.15
728.755	5573.86
729.156	5527.52
729.557	5490.42
729.958	5365.51
730.359	5303.26
730.76	5284.77
731.161	5224.91
731.562	5200.55
731.962	5201.43
732.363	5137.95
732.763	5070.56
733.164	5100.46
733.564	5033.7
733.965	4939.21
734.365	4906.3
734.766	4935.14
735.166	4894.74
735.566	4838.89
735.966	4813.1
736.366	4806.6
736.766	4742.65
737.166	4774.66
737.566	4737.72
737.966	4711.98
738.365	4751.38
738.765	4744.42
739.165	4668.91
739.564	4642.81
739.964	4686.96
740.363	4642.03
740.763	4640.22
741.162	4631.44
741.561	4601.13
741.96	4554.2
742.36	4573.75
742.759	4575.64
743.158	4613.89
743.557	4628.64
743.955	4667.92
744.354	4622.15
744.753	4677.08
745.152	4635.07
745.55	4686.37
745.949	4677.5
746.348	4677.23
746.746	4692.1
747.144	4653.95
747.543	4629.29
747.941	4677.27
748.339	4607.34
748.737	4599.04
749.136	4590.14
749.534	4656.2
749.932	4630.39
750.33	4656.71
750.727	4711.76
751.125	4688.64
751.523	4673.2
751.921	4718.81
752.318	4683.02
752.716	4741.36
753.113	4754.14
753.511	4779.25
753.908	4778.99
754.305	4764.42
754.703	4823.59
755.1	4884.58
755.497	4942.61
755.894	5129.88
756.291	5305.2
756.688	5634.03
757.085	6066.41
757.482	6677.64
757.878	7345.17
758.275	7950.55
758.672	8775.43
759.068	9449.04
759.465	10408.99
759.861	11652.48
760.258	13090.95
760.654	13835.27
761.05	13722.8
761.447	13096.83
761.843	12193.45
762.239	11260.12
762.635	10832.51
763.031	10422.75
763.427	9839.96
763.822	9227.05
764.218	8622.4
764.614	7838.05
765.01	7309.5
765.405	6965.35
765.801	6705.65
766.196	6376.51
766.592	6190.03
766.987	5879.25
767.382	5673.64
767.778	5585.06
768.173	5458.24
768.568	5386.32
768.963	5264.13
769.358	5281.64
769.753	5237.19
770.148	5154.38
770.542	5154.86
770.937	5123.2
771.332	5213.21
771.726	5230.55
772.121	5171.33
772.515	5223.99
772.91	5208.34
773.304	5276.34
773.699	5213.49
774.093	5267.4
774.487	5324.11
774.881	5366.06
775.275	5363.11
775.669	5324.98
776.063	5367.76
776.457	5403.41
776.851	5330.05
777.245	5323.07
777.638	5357.27
778.032	5469.3
778.425	5432.1
778.819	5473.17
779.212	5431.21
779.606	5391.88
779.999	5409.62
780.392	5395.71
780.786	5471.97
781.179	5494.93
781.572	5536.69
781.965	5548.35
782.358	5490.46
782.751	5548.22
783.143	5500.38
783.536	5572.89
783.929	5613.96
784.322	5723.81
784.714	5752.33
785.107	5750.3
785.499	5819.59
785.891	5799.71
786.284	5780.24
786.676	5922.45
787.068	5903.02
787.46	5955.33
787.852	5974.64
788.245	6061.15
788.636	6092.67
789.028	6161.61
789.42	6204.46
789.812	6213.04
790.204	6302.63
790.595	6405.64
790.987	6214.14
791.378	6240.29
791.77	6368.85
792.161	6503.8
792.553	6562.43
792.944	6454.6
793.335	6387.94
793.726	6461.05
794.117	6552.69
794.508	6696.48
794.899	6665.99
795.29	6804.4
795.681	6862.05
796.072	6722.52
796.463	6548.51
796.853	6559.06
797.244	6716.6
797.634	6752.2
798.025	6749.16
798.415	6761.26
798.806	6853.49
799.196	6938.76
799.586	6992.02
799.976	6955.04
800.366	7187.66
800.756	7418.26
801.146	7374.64
801.536	7406.01
801.926	7481.03
802.316	7514.58
802.706	7589.65
803.095	7467.16
803.485	7573.22
803.874	7615.82
804.264	7875.51
804.653	7854.04
805.043	8001.23
805.432	8119.96
805.821	8123
806.21	8146.9
806.599	8262.73
806.988	8308.86
807.377	8422.36
807.766	8547.22
808.155	8830.03
808.544	8573.18
808.933	8589.5
809.321	8572.13
809.71	8863.04
810.098	9023.38
810.487	9478.38
810.875	9961.97
811.264	9987.81
811.652	10278.08
812.04	10427.31
812.428	10595.11
812.816	11355.98
813.204	11768.6
813.592	12323.97
813.98	12668.28
814.368	12578.27
814.756	13071.02
815.144	12991.23
815.531	13462.54
815.919	13389.42
816.306	13701.19
816.694	13396.07
817.081	13452.68
817.469	13800.38
817.856	13802.51
818.243	14075.56
818.63	14471.15
819.017	14050.34
819.404	14119.23
819.791	14499.04
820.178	15110.35
820.565	15364.74
820.952	16304.79
821.339	15816.04
821.725	16001.98
822.112	15255.06
822.498	15210.2
822.885	15340.18
823.271	15244.06
823.657	15654.8
824.044	15663.88
824.43	15748.58
824.816	15716.14
825.202	15279.25
825.588	16296.07
825.974	16319.25
826.36	16829.66
826.746	16862.62
827.132	17220.77
827.517	17198.22
827.903	16410.1
828.289	16451.45
828.674	15660.68
829.06	15552.66
829.445	15938.23
829.83	16287.5
830.216	16762.92
830.601	17133.79
830.986	16725.01
831.371	16583.23
831.756	17131.33
832.141	16695.5
832.526	16676.71
832.911	16956.58
833.295	16847.62
833.68	17316.13
834.065	16691.73
834.449	15774.83
834.834	15691.07
835.218	15682.91
835.603	16016
835.987	15803.86
836.371	16639.46
836.755	16536.79
837.139	16922.31
837.524	17155.43
837.908	16967.95
838.291	17029.41
838.675	17095.88
839.059	17297.81
839.443	17278.98
839.827	17040.56
840.21	17509.53
840.594	17356.21
840.977	17558.67
841.361	17550.14
841.744	17913.28
842.127	17767.15
842.511	18008.62
842.894	18596.62
843.277	18977.28
843.66	19517.06
844.043	19607.73
844.426	18811.44
844.809	18501.87
845.191	18531.36
845.574	18065.73
845.957	17699.51
846.339	17588.65
846.722	17062.8
847.104	17128.65
847.487	16950.84
847.869	16959.56
848.252	17233.55
848.634	17559.25
849.016	17819.39
849.398	17935.64
849.78	18774.2
850.162	18784.9
850.544	19187.78
850.926	19817.14
851.307	19728.91
851.689	20014.47
852.071	20466.21
852.452	20794.91
852.834	20776.32
853.215	21172.44
853.597	21329.63
853.978	21619.55
854.359	22071.08
854.741	21094.37
855.122	20990.97
855.503	20699.34
855.884	20825.39
856.265	20760.33
856.646	20867.41
857.026	20475.03
857.407	20417.91
857.788	20569.82
858.169	20860.68
858.549	20020.26
858.93	20637.87
859.31	20698.12
859.69	20913.41
860.071	20515.56
860.451	20305.05
860.831	19575.1
861.211	20730.16
861.591	21262.8
861.971	21232.8
862.351	21423.15
862.731	21806.76
863.111	22069.57
863.491	22387.9
863.87	23255.2
864.25	23603.64
864.629	23197.86
865.009	23704.08
865.388	24543.72
865.768	26310.47
866.147	26220.01
866.526	24761.83
866.905	25060.27
867.284	26456.83
867.663	25115.76
868.042	24062
868.421	23985.05
868.8	24395.09
869.179	24638.7
869.558	23203.97
869.936	21382.16
870.315	21760.19
870.693	22300.96
871.072	24049.3
871.45	22920.91
871.828	23213.59
872.207	24420.15
872.585	24051.14
872.963	24696.86
873.341	23837.88
873.719	23551.82
874.097	23268.99
874.475	23707.4
874.853	24244.87
875.23	23240.63
875.608	24208.69
875.986	26181.6
876.363	25026.5
876.741	25782.93
877.118	25147.41
877.495	26394.62
877.873	26830.22
878.25	28235.76
878.627	27086.87
879.004	27454.65
879.381	27309.84
879.758	26575.29
880.135	24730.34
880.512	26144.29
880.889	25456.69
881.265	25173.9
881.642	24951.39
882.019	25374.03
882.395	24850.26
882.772	25837.68
883.148	24715.16
883.524	24612.85
883.901	24483.09
884.277	24867.09
884.653	24702.75
885.029	25402.14
885.405	28150.33
885.781	27928.22
886.157	26774.93
886.532	27097.4
886.908	27066.16
887.284	30097.49
887.659	31081.6
888.035	32041.75
888.411	32849.77
888.786	33285.47
889.161	34434.34
889.537	33789.75
889.912	34857.58
890.287	34829.98
890.662	35724.46
891.037	35065.02
891.412	32682.84
891.787	32346.64
892.162	31207.48
892.536	31925.16
892.911	30718.87
893.286	30058.34
893.66	28834.6
894.035	29570.97
894.409	32185.67
894.784	30879.76
895.158	31405.69
895.532	33278.22
895.906	34174.1
896.281	34978.45
896.655	34429.66
897.029	39346.86
897.402	40977.33
897.776	45623.74
898.15	45456.41
898.524	44977.57
898.898	45582.03
899.271	51035.64
899.645	44206.93
900.018	42467.77
900.392	44030.11
900.765	44374.44
901.138	41055.62
901.511	40429.85
901.884	37118.84
902.258	34251.34
902.631	35372.34
903.003	40705.37
903.376	36716.96
903.749	41144.09
904.122	44041.23
904.495	48479.33
904.867	49097.42
905.24	42616.63
905.612	39676.93
905.985	40551.28
906.357	42367.91
906.729	40433.69
907.102	34534.98
907.474	33213.59
907.846	33425.23
908.218	32978.51
908.59	29158.95
908.962	28194.49
909.334	30374.4
909.705	31906.12
910.077	30977.23
910.449	32256.32
910.82	33165.4
911.192	36485.42
911.563	37909.56
911.935	40561.78
912.306	40605.81
912.677	41911.03
913.048	41506.7
913.419	45025.21
913.79	45280.94
914.161	48550.35
914.532	46407.01
914.903	42633.27
915.274	40505.96
915.645	39901.56
916.015	35130.73
916.386	33503.85
916.756	35663.12
917.127	36781
917.497	32861.58
917.868	35778.88
918.238	34004.17
918.608	34989.84
918.978	35738.83
919.348	37839.32
919.718	39102.41
920.088	37679.34
920.458	39170.38
920.828	41213.79
921.198	39065.27
921.567	41727.95
921.937	32317.44
922.306	32623.7
922.676	35181.06
923.045	29344.28
923.415	27885.92
923.784	25398.64
924.153	26112.35
924.522	26074.85
924.891	24503.08
925.26	26259.43
925.629	25629.97
925.998	29466.4
926.367	28767.9
926.736	27408.04
927.104	32633.12
927.473	35081.69
927.842	42369.35
928.21	41959.65
928.578	44104.88
928.947	41735.59
929.315	41988.6
929.683	49278.13
930.051	49667.84
930.42	57692.8
930.788	49276.69
931.156	48910.69
931.523	45868.93
931.891	42383.01
932.259	40700.57
932.627	47176
932.994	66739.3
933.362	55148.75
933.729	47893.95
934.097	45814.8
934.464	38751.33
934.831	44698.23
935.199	44076.78
935.566	42716.28
935.933	43262.91
936.3	52418.03
936.667	40804.55
937.034	36858.79
937.401	36454
937.767	31452.62
938.134	27987.75
938.501	39506.02
938.867	42129.38
939.234	71279.38
939.6	60789.2
939.967	67051.52
940.333	44890.86
940.699	38199.36
941.065	30597.4
941.431	40130.03
941.798	38731.23
942.163	50916.11
942.529	31790.32
942.895	29285.32
943.261	18935.44
943.627	24867.91
943.992	21765.1
944.358	21786.21
944.723	21885.34
945.089	21332.32
945.454	19706.02
945.82	21019.29
946.185	20218.44
946.55	23420.68
946.915	20980.01
947.28	24582.71
947.645	21634.14
948.01	19982.57
948.375	20843.18
948.74	24981.76
949.104	29144.87
949.469	42076.59
949.834	74371.76
950.198	70476.46
950.562	42212.68
950.927	35187.29
951.291	42330.29
951.655	36068.11
952.02	33840.73
952.384	25588.03
952.748	22254.47
953.112	21683.56
953.476	18870.51
953.839	17427.04
954.203	17263.87
954.567	21576.4
954.931	33956.8
955.294	29053.58
955.658	29209.06
956.021	49664.57
956.385	84130.53
956.748	124024.29
957.111	192389.24
957.474	215833.6
957.837	243226
958.2	183637.4
958.563	66107.49
958.926	44720.46
959.289	67942.15
959.652	75852.44
960.015	56954.65
960.377	81709.73
960.74	93313.93
961.102	160825.29
961.465	172696.11
961.827	92659
962.189	177812.84
962.552	123174.56
962.914	98683.11
963.276	64023.33
963.638	52927.63
964	52335.02
964.362	35363.85
964.724	34139.59
965.085	24373.17
965.447	19966.2
965.809	22702.83
966.17	22744.14
966.532	24615.46
966.893	22603.65
967.255	20541.28
967.616	24234.47
967.977	19405.82
968.338	21221.4
968.699	17454.88
969.061	17450.22
969.421	17587.57
969.782	19742.64
970.143	16665.34
970.504	17266.84
970.865	19606.31
971.225	20018.34
971.586	19582.6
971.946	27941.47
972.307	24215.97
972.667	31656.56
973.027	32609.03
973.388	39502.35
973.748	26857.17
974.108	29262.56
974.468	39600.87
974.828	30608.27
975.188	23606.75
975.548	21683.09
975.907	18182.25
976.267	20393.24
976.627	17149.11
976.986	17768.27
977.346	16925.5
977.705	16296.83
978.064	14824.02
978.424	12329.91
978.783	12723.5
979.142	14503.52
979.501	13873.71
979.86	14677.64
980.219	14163.31
980.578	18238.71
980.937	20430.69
981.296	18214.64
981.654	18703.14
982.013	29134.23
982.371	37788.57
982.73	35306.84
983.088	39965.39
983.447	42769.86
983.805	61133.44
984.163	127615.9
984.521	141587.55
984.879	207291.42
985.237	-337395.15
985.595	325728.77
985.953	80781.58
986.311	46674.68
986.669	27064.41
987.026	23367.12
987.384	31298.74
987.741	32341.89
988.099	23123.37
988.456	18431.39
988.814	17298.21
989.171	15011.71
989.528	14794.98
989.885	15643.79
990.242	12402.64
990.599	15452.99
990.956	12629.78
991.313	8853.67
991.67	7265.02
992.027	7715.09
992.383	6861.59
992.74	6004.85
993.096	6308.81
993.453	6534.34
993.809	6770.05
994.165	8992.54
994.522	8256.69
994.878	9106.83
995.234	11412.18
995.59	11257.13
995.946	10641.03
996.302	12136.77
996.658	14055.12
997.013	15471.51
997.369	18395.61
997.725	23576.47
998.08	15279.17
998.436	23442.7
998.791	32302.5
999.147	32255.45
999.502	35208.83
999.857	25519.61
1000.212	41594.2
1000.567	59049.17
1000.922	34040.29
1001.277	21606.51
1001.632	16039.11
1001.987	20708.01
1002.342	14876.54
1002.696	11887.76
1003.051	9489.34
1003.406	11476.95
1003.76	11451.12
1004.114	11261.57
1004.469	9509.69
1004.823	7882.99
1005.177	8506.58
1005.531	6720.03
1005.885	5940.41
1006.239	6719.35
1006.593	8459.26
1006.947	11355.76
1007.301	8543.74
1007.655	9292.55
1008.008	6825.88
1008.362	7638.54
1008.715	10902.34
1009.069	9894.75
1009.422	14945.15
1009.776	29969.96
1010.129	19836.02
1010.482	16548.13
1010.835	13957.09
1011.188	28997.1
1011.541	27291.48
1011.894	-167326.87
1012.247	492676.42
1012.6	33426.32
1012.952	21074.96
1013.305	10831.23
1013.657	7808.57
1014.01	7402.7
1014.362	6097.09
1014.715	5445.47
1015.067	4739.5
1015.419	4645.66
1015.771	4124.19
1016.123	3687.54
1016.475	3798.56
1016.827	4048.23
1017.179	4355.45
1017.531	4394.52
1017.883	4492.81
1018.234	4359.26
1018.586	5468.09
1018.938	5821.24
1019.289	8035.17
1019.64	9172.18
1019.992	8490.89
1020.343	7787.69
1020.694	6163.53
1021.045	5448.92
1021.396	6221.01
1021.747	6698.96
1022.098	8013.29
1022.449	5822.43
1022.8	5386.31
1023.151	3755.18
1023.501	3344.84
1023.852	3643.15
1024.202	3775.81
1024.553	4137.71
1024.903	4062.1
1025.253	3492.26
1025.604	3132.56
1025.954	3880
1026.304	4725.77
1026.654	5478.71
1027.004	7967.17
1027.354	12788.72
1027.703	12038.95
1028.053	15810.88
1028.403	23291.13
1028.753	33489.02
1029.102	45087.88
1029.452	230133.73
1029.801	9872.55
1030.15	6361.01
1030.499	5394.19
897.758	3316.61
901.051	3301.9
904.343	3338.81
907.636	3331.82
910.928	3402.03
914.22	3300.77
917.511	3314.46
920.803	3401.41
924.094	3452.29
927.384	3399.26
930.675	3361.36
933.965	3302.73
937.255	3294.06
940.544	3259.27
943.834	3106.31
947.123	3065.48
950.411	3172.48
953.7	3133.95
956.988	3080.24
960.276	3025.59
963.563	3149.79
966.851	3128.86
970.138	3209.14
973.424	3183.74
976.711	3134.38
979.997	3395.96
983.283	3408.98
986.568	3276.38
989.853	3326.35
993.138	3355.4
996.423	3439
999.708	3348.38
1002.992	3469.16
1006.275	3189.54
1009.559	3302.44
1012.842	3442
1016.125	3346.16
1019.408	3320.44
1022.69	3450.23
1025.972	3451.92
1029.254	3422.03
1032.536	3309.6
1035.817	3357.28
1039.098	3254.83
1042.379	3532.27
1045.659	3479.04
1048.939	3387.65
1052.219	3430.23
1055.498	3463.18
1058.778	3433.99
1062.057	3423.94
1065.335	3440.06
1068.614	3475.18
1071.892	3437.2
1075.17	3542.97
1078.447	3514.92
1081.724	3499.1
1085.001	3553.86
1088.278	3515.6
1091.554	3542.78
1094.83	3539.48
1098.106	3562.91
1101.382	3627.64
1104.657	3625.86
1107.932	3625.2
1111.206	3567.32
1114.481	3526.05
1117.755	3536.29
1121.029	3494.5
1124.302	3542.92
1127.575	3469.69
1130.848	3443.81
1134.121	3395.22
1137.393	3325.33
1140.665	3409.58
1143.937	3386.07
1147.208	3287.68
1150.48	3313.9
1153.75	3293.34
1157.021	3368.16
1160.291	3320.03
1163.561	3361.63
1166.831	3386.36
1170.101	3419.68
1173.37	3405.61
1176.639	3322.3
1179.907	3397.02
1183.176	3453.71
1186.444	3459.14
1189.711	3493.21
1192.979	3491.33
1196.246	3453.28
1199.513	3474.06
1202.78	3466.8
1206.046	3473.56
1209.312	3515.51
1212.578	3552.06
1215.843	3480.38
1219.108	3460.38
1222.373	3485.06
1225.638	3428.92
1228.902	3403.5
1232.166	3369.51
1235.43	3345.84
1238.693	3359.36
1241.956	3368
1245.219	3393.52
1248.482	3402.54
1251.744	3391.25
1255.006	3584.54
1258.268	3546.55
1261.529	3475.68
1264.79	3491.47
1268.051	3623.86
1271.312	3643.67
1274.572	3598.32
1277.832	3591.15
1281.092	3591.95
1284.351	3535.24
1287.61	3504.82
1290.869	3387.86
1294.128	3334
1297.386	3482.38
1300.644	3465.14
1303.902	3476.04
1307.159	3317.3
1310.416	3377.09
1313.673	3393.06
1316.93	3365.52
1320.186	3434.05
1323.442	3492.98
1326.697	3467.29
1329.953	3483.28
1333.208	3491.11
1336.463	3478.19
1339.717	3401.46
1342.972	3490.49
1346.226	3502.91
1349.479	3409.22
1352.733	3358.45
1355.986	3408.22
1359.238	3375.77
1362.491	3374.42
1365.743	3381.08
1368.995	3382.34
1372.247	3397.62
1375.498	3410.32
1378.749	3476.64
1382	3413.51
1385.251	3491.9
1388.501	3467.3
1391.751	3429.86
1395	3411.11
1398.25	3453
1401.499	3443.28
1404.748	3349.27
1407.996	3256.11
1411.244	3253.75
1414.492	3228.53
1417.74	3196.72
1420.987	3220.22
1424.234	3269.15
1427.481	3273.77
1430.728	3327.47
1433.974	3300.17
1437.22	3335.86
1440.465	3340.37
1443.711	3347.72
1446.956	3379.38
1450.201	3391.56
1453.445	3438.96
1456.689	3399.88
1459.933	3419.29
1463.177	3444.46
1466.42	3416.07
1469.663	3394.7
1472.906	3357.93
1476.148	3509.7
1479.391	3384.14
1482.633	3375.87
1485.874	3368.29
1489.115	3328.66
1492.356	3360.44
1495.597	3329.61
1498.838	3346.45
1502.078	3289.99
1505.318	3205.74
1508.557	3263.6
1511.797	3168.84
1515.036	3352.57
1518.274	3332.91
1521.513	3323.16
1524.751	3359.54
1527.989	3361.65
1531.227	3362.66
1534.464	3327.05
1537.701	3385.32
1540.938	3415.68
1544.174	3375.77
1547.41	3387.21
1550.646	3425.94
1553.882	3447
1557.117	3498.89
1560.352	3523.69
1563.587	3472.92
1566.821	3421.06
1570.055	3485.96
1573.289	3440.42
1576.523	3544.94
1579.756	3539.48
1582.989	3559.67
1586.222	3513.81
1589.454	3568.09
1592.686	3527.99
1595.918	3550.37
1599.15	3526.23
1602.381	3643.15
1605.612	3559.3
1608.843	3665.11
1612.073	3557.26
1615.303	3538.68
1618.533	3511.95
1621.762	3528.79
1624.992	3530.41
1628.221	3492.54
1631.449	3475.09
1634.678	3575.04
1637.906	3513.37
1641.134	3569.27
1644.361	3511.74
1647.588	3498.4
1650.815	3504.16
1654.042	3505
1657.269	3541.52
1660.495	3488.95
1663.72	3427.78
1666.946	3417.04
1670.171	3310.44
1673.396	3291.77
1676.621	3292.99
1679.845	3348.1
1683.069	3388.05
1686.293	3453.89
1689.517	3399.56
1692.74	3288.83
1695.963	3304.97
1699.185	3410.63
1702.408	3355.32
1705.63	3415.77
1708.852	3416.93
1712.073	3388.96
1715.294	3347
1718.515	3371.72
1721.736	3315.19
1724.956	3275.74
1728.176	3314.03
1731.396	3332.54
1734.616	3330.55
1737.835	3334.87
1741.054	3331.08
1744.272	3330.25
1747.491	3338.13
1750.709	3433.41
1753.927	3331.87
1757.144	3390.09
1760.361	3466.27
1763.578	3479.02
1766.795	3405.69
1770.011	3433.14
1773.227	3499.93
1776.443	3529.39
1779.658	3572.72
1782.874	3520.9
1786.089	3479.42
1789.303	3484.31
1792.518	3499.49
1795.732	3486.58
1798.945	3488.31
1802.159	3549.41
1805.372	3396.66
1808.585	3368.65
1811.797	3368.63
1815.01	3458.72
1818.222	3462.28
1821.434	3326.41
1824.645	3442.26
1827.856	3393.67
1831.067	3448.29
1834.278	3364.22
1837.488	3360.14
1840.698	3551.28
1843.908	3443.7
1847.117	3404.07
1850.326	3218.56
1853.535	3366.29
1856.744	3505.09
1859.952	3376.6
1863.16	3374.61
1866.368	3398.25
1869.575	3565.08
1872.782	3436.44
1875.989	3380.04
1879.196	3516.01
1882.402	3511.04
1885.608	3563.46
1888.814	3413.42
1892.019	3283.98
1895.224	3336.36
1898.429	3339.5
1901.634	3305.84
1904.838	3288.45
1908.042	3332.06
1911.246	3331.24
1914.449	3217.99
1917.652	3236.66
1920.855	3222.41
1924.058	3305.06
1927.26	3331.75
1930.462	3370.79
1933.664	3382.17
1936.865	3311.81
1940.066	3305.18
1943.267	3256.85
1946.467	3285.23
1949.668	3323.06
1952.868	3386.94
1956.067	3345.5
1959.267	3262.19
1962.466	3297.14
1965.665	3284.31
1968.863	3278.33
1972.061	3315.65
1975.259	3323.01
1978.457	3410.21
1981.654	3357.11
1984.852	3356.32
1988.048	3258.47
1991.245	3283.75
1994.441	3370.61
1997.637	3388.66
2000.833	3372.13
2004.028	3418.07
2007.223	3460.43
2010.418	3421.04
2013.613	3389.76
2016.807	3327.28
2020.001	3354.69
2023.194	3436.12
2026.388	3396.15
2029.581	3345.22
2032.774	3374.36
2035.966	3369.95
2039.158	3277.9
2042.35	3317.79
2045.542	3241.61
2048.733	3378.85
2051.924	3446.66
2055.115	3489.68
2058.306	3394.28
2061.496	3463.06
2064.686	3546.95
2067.875	3470.98
2071.065	3505.05
2074.254	3546.27
2077.442	3492.22
2080.631	3599.33
2083.819	3425.67
2087.007	3387.67
2090.195	3341.05
2093.382	3404.41
2096.569	3378.78
2099.756	3317.94
2102.942	3314.82
2106.128	3299.2
2109.314	3300.55
2112.5	3231.13
2115.685	3214.65
2118.87	3230.81
2122.055	3305.39
2125.239	3249.3
2128.424	3200.86
2131.608	3369.52
2134.791	3347.08
2137.974	3440.57
2141.157	3419.66
2144.34	3338.82
2147.523	3355.06
2150.705	3349.43
2153.887	3347.57
2157.068	3263.55
2160.25	3296.75
2163.431	3361.49
2166.611	3268.05
2169.792	3280.3
2172.972	3144.49
2176.152	3269.74
2179.331	3317.6
2182.511	3301.02
2185.69	3338.8
2188.868	3319.8
2192.047	3409.28
2195.225	3364.56
2198.403	3309.56
2201.58	3315.12
2204.758	3315.86
2207.935	3415.67
2211.111	3258.7
2214.288	3235.72
2217.464	3288.02
2220.64	3275.67
2223.815	3343.91
2226.991	3243.85
2230.166	3270.47
2233.34	3285.15
2236.515	3322.51
2239.689	3417.51
2242.863	3348.89
2246.036	3414.99
2249.209	3440.49
2252.382	3494.98
2255.555	3460.14
2258.727	3372.14
2261.9	3430.14
2265.071	3419.19
2268.243	3431.19
2271.414	3340.77
2274.585	3265.99
2277.756	3343.17
2280.926	3300.49
2284.096	3356.01
2287.266	3228.06
2290.436	3302.63
2293.605	3347.2
2296.774	3362.34
2299.942	3410.65
2303.111	3427.19
2306.279	3469.42
2309.447	3459.13
2312.614	3441.41
2315.781	3453.29
2318.948	3407.94
2322.115	3453.46
2325.281	3348
2328.447	3387.19
2331.613	3368.2
2334.779	3311.45
2337.944	3327.46
2341.109	3319.96
2344.274	3293.7
2347.438	3253.89
2350.602	3289.4
2353.766	3313.54
2356.929	3293.81
2360.092	3342.21
2363.255	3263.13
2366.418	3150.16
2369.58	3331.56
2372.742	2988.85
2375.904	3030.39
2379.066	2992.24
2382.227	3042.19
2385.388	2999.24
2388.548	2893.93
2391.709	2972.3
2394.869	2940.19
2398.029	3102.85
2401.188	3145.84
2404.347	3036.82
2407.506	3265.52
2410.665	3285.42
2413.823	3320.32
2416.981	3246.57
2420.139	3300.01
2423.296	3363.33
2426.453	3337.92
2429.61	3363.43
2432.767	3246.2
2435.923	3298.61
2439.079	3167.2
2442.235	3267.56
2445.391	3166.64
2448.546	3167.77
2451.701	3245.88
2454.855	3177.51
2458.009	3267.62
2461.163	3286.3
2464.317	3228.28
2467.471	3273.62
2470.624	3309.18
2473.777	3373.75
2476.929	3357.15
2480.082	3393.09
2483.234	3362.91
2486.385	3219.52
2489.537	3224.48
2492.688	3145.66
2495.839	3165.67
2498.989	3165.34
2502.14	3144.8
2505.29	3109.62
2508.439	3142.51
2511.589	3038.97
2514.738	3068.78
2517.887	3096.32
2521.035	3263.22
2524.183	3259.59
2527.331	3224.16
2530.479	3167.81
2533.627	3191.88
