Data from C_3_DIV_OH_2N_Splice17_12-47-45-917.txt Node
Date: Sat Mar 14 12:47:45 EDT 2020
User: sa697716
Spectrometer: FLMS03696
Trigger mode: 0
Integration Time (sec): 3.180400E-1
Scans to average: 20
Electric dark correction enabled: true
Nonlinearity correction enabled: true
Boxcar width: 5
XAxis mode: Wavelengths
Number of Pixels in Spectrum: 2048
>>>>>Begin Spectral Data<<<<<
187.83	-374872.4
188.298	2752.27
188.766	1527.04
189.233	1362.6
189.701	1860.08
190.169	2466.81
190.636	944.75
191.104	746.41
191.571	132.38
192.039	-74.14
192.506	-93.16
192.974	434.06
193.441	-611.66
193.908	-49.24
194.375	-34.28
194.842	34.54
195.31	80.61
195.777	195.93
196.244	332.63
196.711	226.6
197.177	210.14
197.644	225.38
198.111	348.68
198.578	446.88
199.045	350.66
199.511	529.01
199.978	512.18
200.445	448.7
200.911	424.73
201.378	371.38
201.844	358.99
202.31	592.45
202.777	604.12
203.243	325.95
203.709	308.17
204.176	379.94
204.642	330.47
205.108	299.99
205.574	232.59
206.04	178.9
206.506	178.85
206.972	141.19
207.438	131.25
207.903	138.64
208.369	135.41
208.835	153.79
209.301	155.73
209.766	122.03
210.232	148.89
210.697	171.26
211.163	205.09
211.628	303.61
212.094	319.53
212.559	497.17
213.024	347
213.49	478.44
213.955	449.32
214.42	402.82
214.885	406.23
215.35	411.78
215.815	527.48
216.28	596.37
216.745	479.26
217.21	540.18
217.675	455.64
218.14	526.56
218.604	571.44
219.069	681.99
219.534	771.02
219.998	899.83
220.463	1102.07
220.927	1259.79
221.392	1199.42
221.856	1279.76
222.32	1599.19
222.785	2032.14
223.249	2583.31
223.713	2939.75
224.177	2990.43
224.642	3826.74
225.106	4742.98
225.57	5205.42
226.034	3986
226.497	6168.7
226.961	5658.84
227.425	6693.21
227.889	7512.15
228.353	7539.46
228.816	15669.6
229.28	15120.04
229.744	12858.39
230.207	7978.28
230.671	7926.9
231.134	13004.12
231.597	15181.26
232.061	15121.66
232.524	14716.52
232.987	10143.51
233.45	9250.94
233.914	8315.72
234.377	8507.84
234.84	7832.54
235.303	9210.43
235.766	10309.93
236.229	10717.54
236.691	6727.27
237.154	7583.29
237.617	5759.25
238.08	5925.48
238.542	6919.88
239.005	4982.2
239.468	4959.18
239.93	4687.81
240.393	4281.6
240.855	3783.38
241.317	3875.22
241.78	4715.71
242.242	4920.53
242.704	5375.52
243.166	4704.99
243.629	4342.92
244.091	5025.1
244.553	5550.67
245.015	6004.11
245.477	7796.39
245.939	11422.91
246.4	12227.39
246.862	11944.74
247.324	11315.76
247.786	12697.3
248.247	16694.36
248.709	17117.91
249.17	12915.4
249.632	12305.52
250.093	14433.19
250.555	12534.1
251.016	7707.68
251.477	7339.83
251.939	7987.04
252.4	8405.38
252.861	9983.98
253.322	9337.9
253.783	11126
254.244	14396.64
254.705	11367.83
255.166	10067.81
255.627	9921.81
256.088	14073.65
256.549	15021.12
257.009	12930.66
257.47	15667.4
257.931	12757.16
258.391	9594.21
258.852	9917.74
259.312	10439.73
259.773	12871.47
260.233	10965.46
260.694	9301.2
261.154	10529.1
261.614	8524.99
262.074	7625.78
262.534	7979.72
262.994	7563.55
263.455	10091.65
263.915	8570.64
264.374	8093.06
264.834	8866.11
265.294	9831.48
265.754	10215.8
266.214	9702.59
266.673	9078.66
267.133	11511.2
267.593	11428.16
268.052	14040.55
268.512	12209.68
268.971	14818.24
269.431	16283.96
269.89	14585.92
270.349	21935.12
270.809	24520.95
271.268	22066.33
271.727	49489.77
272.186	32047.09
272.645	24039.02
273.104	17289.55
273.563	25166.32
274.022	19708
274.481	16838.51
274.94	13040.21
275.399	9677
275.857	11263.54
276.316	15286.56
276.775	13644.45
277.233	13498.17
277.692	12721.06
278.15	14483.96
278.609	14979.28
279.067	13906.78
279.525	12949.31
279.984	16739
280.442	20183.79
280.9	20039.07
281.358	13217.13
281.816	12357.81
282.274	12093.66
282.732	12464.88
283.19	12535.03
283.648	10782.19
284.106	11475.27
284.564	11676.29
285.021	10863.77
285.479	8096.68
285.937	7327.99
286.394	6457.18
286.852	6649.41
287.309	7025.33
287.767	6845.85
288.224	6541.14
288.682	7204.48
289.139	7975.01
289.596	7360.05
290.053	7681.63
290.511	9733.08
290.968	11913.8
291.425	16175.83
291.882	13597.05
292.339	11912.28
292.796	11835.24
293.252	11203.66
293.709	8981.13
294.166	8073.06
294.623	8943.6
295.079	8608.44
295.536	8700.64
295.992	7931.25
296.449	7888.72
296.905	8217.83
297.362	7924.73
297.818	8372.86
298.274	8706.22
298.731	8866.26
299.187	8781.63
299.643	9439.7
300.099	11453.31
300.555	12598.15
301.011	10536.66
301.467	10226.36
301.923	11934.72
302.379	11639.29
302.835	11415.14
303.291	11457.02
303.746	13044.43
304.202	16518.08
304.658	16545.97
305.113	11112.34
305.569	10889.5
306.024	11580.08
306.479	10979.64
306.935	9277.98
307.39	10099.43
307.845	9323.77
308.301	9398.16
308.756	9161.88
309.211	8832.05
309.666	9054.27
310.121	11247.75
310.576	11378.38
311.031	11254.92
311.486	12830.95
311.94	12774.78
312.395	17093.74
312.85	32133.05
313.305	156948.15
313.759	817132.78
314.214	59188.25
314.668	46958.23
315.123	39614.53
315.577	14257.09
316.032	12743.81
316.486	15987.26
316.94	12691.01
317.394	8864.09
317.849	6916.09
318.303	6549.13
318.757	6182.57
319.211	6825.51
319.665	5982.31
320.119	6053.43
320.572	8678.19
321.026	8127.65
321.48	6779.35
321.934	7362.94
322.387	7366.82
322.841	7964.12
323.295	7235.17
323.748	8297.24
324.202	8440.59
324.655	10155.67
325.108	14238.56
325.562	10056.31
326.015	11926.8
326.468	9035.52
326.921	10122.39
327.374	9454.78
327.827	9864.7
328.28	11109.41
328.733	7477.52
329.186	6580.48
329.639	6286.63
330.092	5302.03
330.545	5072.62
330.997	5140.64
331.45	5636.27
331.903	6636.22
332.355	11398.42
332.808	11051.29
333.26	9142.21
333.713	9905.01
334.165	9960.81
334.617	13259.55
335.069	10637.22
335.522	19134.18
335.974	21186.05
336.426	19268.25
336.878	13285.01
337.33	6773.01
337.782	6604.39
338.234	8295.46
338.686	9908.7
339.137	11800.15
339.589	11109.12
340.041	8741.22
340.493	7542.85
340.944	7749.62
341.396	8390.49
341.847	7090.8
342.299	8418.86
342.75	10376.72
343.201	9040.24
343.653	10441.73
344.104	12797.52
344.555	10118.95
345.006	15767.73
345.457	12193.87
345.908	9683.52
346.359	9148.45
346.81	7476.34
347.261	7875.14
347.712	7735.67
348.163	8280.1
348.613	8445.33
349.064	7934.14
349.515	6959.55
349.965	7165.2
350.416	8621.22
350.866	9465.21
351.317	10669.64
351.767	17728.01
352.217	22418.33
352.668	18632.69
353.118	17174.28
353.568	16511.83
354.018	13112.42
354.468	13874.32
354.918	9986.6
355.368	8717.05
355.818	12303.84
356.268	35519.01
356.718	148863.57
357.168	37080.81
357.617	18619.81
358.067	20678.53
358.517	19350.45
358.966	22649.99
359.416	25475.83
359.865	27455.19
360.315	32567.92
360.764	15269.98
361.213	8571.51
361.663	8078.42
362.112	9946.9
362.561	16110.69
363.01	12162.08
363.459	10268.24
363.908	11111.99
364.357	9423.25
364.806	15903.08
365.255	10990.08
365.703	10101.04
366.152	10122.88
366.601	8225.62
367.05	6712.34
367.498	6109.7
367.947	6398.91
368.395	6645.46
368.844	5906.26
369.292	7083.35
369.74	4901.72
370.189	7502.8
370.637	8792.01
371.085	7553.99
371.533	9199.74
371.981	8861.64
372.429	8466.79
372.877	8794.01
373.325	7372.33
373.773	7472.3
374.221	6675.49
374.669	8293.68
375.116	7177.69
375.564	7217.86
376.012	8068.05
376.459	6655.29
376.907	7951.1
377.354	9534.11
377.801	8912.52
378.249	10229.15
378.696	13055.84
379.143	15779.58
379.591	16777.48
380.038	28466.91
380.485	20628.53
380.932	22305.31
381.379	20510.17
381.826	15094.59
382.273	10760.85
382.72	9340.94
383.166	9115.35
383.613	5913.29
384.06	5336.67
384.506	6169.39
384.953	4512.28
385.4	4524.5
385.846	3947.14
386.292	3813.51
386.739	3705.55
387.185	3647.42
387.631	3651.22
388.078	3541.01
388.524	3775.22
388.97	3477.22
389.416	2900.69
389.862	3073.63
390.308	2901.92
390.754	2949
391.2	3183.07
391.645	3242.52
392.091	3124.7
392.537	3026.8
392.983	3001.49
393.428	2971.48
393.874	3164.21
394.319	3175.38
394.765	3004.97
395.21	3064.88
395.655	2856.57
396.101	2675.61
396.546	2409.53
396.991	2395.53
397.436	2210.39
397.881	2125.23
398.326	1986.78
398.771	1879.57
399.216	1626.3
399.661	1459.05
400.106	1455.13
400.551	1489.56
400.995	1325.79
401.44	1312.13
401.885	1230.26
402.329	1239.68
402.774	1189.3
403.218	1162.52
403.663	1115.26
404.107	1143.71
404.551	1149.47
404.995	1049.39
405.44	1002.33
405.884	1013.31
406.328	970.57
406.772	968.47
407.216	879.34
407.66	844.3
408.104	785.52
408.547	730.27
408.991	706.46
409.435	674.47
409.879	664.11
410.322	656.22
410.766	636.01
411.209	606.84
411.653	578.11
412.096	568.2
412.54	564.76
412.983	561.2
413.426	567.87
413.869	565
414.312	555.8
414.756	530.66
415.199	503.46
415.642	488.44
416.085	488.18
416.527	481.61
416.97	482.73
417.413	458.78
417.856	450.88
418.298	442.11
418.741	433.98
419.184	428.42
419.626	444.81
420.069	444.85
420.511	446.35
420.953	436.79
421.396	432.29
421.838	419.74
422.28	429.52
422.722	434.3
423.164	437.08
423.606	432.55
424.048	430.06
424.49	409.81
424.932	403.6
425.374	393.36
425.816	397.87
426.258	407.25
426.699	412.47
427.141	409.82
427.582	413.54
428.024	410.6
428.465	404.76
428.907	396.91
429.348	390.08
429.789	394.42
430.231	389.77
430.672	395.64
431.113	382.85
431.554	375.81
431.995	361.97
432.436	353.81
432.877	347.81
433.318	345.88
433.759	340.89
434.2	342.21
434.64	334.82
435.081	334.68
435.522	315.68
435.962	304.43
436.403	299.46
436.843	302.28
437.284	289.55
437.724	278.01
438.164	272.76
438.604	266.5
439.045	255.61
439.485	247.73
439.925	239.23
440.365	233.42
440.805	229.05
441.245	225.88
441.685	217.35
442.125	214.98
442.564	215.35
443.004	211.74
443.444	211.07
443.883	211.37
444.323	206.49
444.762	204.1
445.202	203.75
445.641	208.28
446.081	203.96
446.52	203.74
446.959	203.48
447.398	199.21
447.837	195.93
448.276	190.49
448.716	191.15
449.154	189.98
449.593	187.54
450.032	187.16
450.471	179.65
450.91	177.52
451.349	179.79
451.787	176.6
452.226	176.9
452.664	176.14
453.103	175.26
453.541	173.89
453.98	177.18
454.418	177.17
454.856	175.72
455.295	175.77
455.733	179.5
456.171	177.84
456.609	177.25
457.047	177.74
457.485	181.68
457.923	183.74
458.361	179.93
458.798	178.75
459.236	178.03
459.674	176.38
460.111	177.81
460.549	175.97
460.987	173.65
461.424	172.9
461.862	173.14
462.299	169.95
462.736	170.88
463.173	171.87
463.611	174.58
464.048	175.74
464.485	178.71
464.922	177.23
465.359	174.61
465.796	184.93
466.233	185.53
466.67	185.86
467.106	187
467.543	182.74
467.98	180.66
468.416	171.95
468.853	167.96
469.29	162.33
469.726	160.66
470.162	157.09
470.599	145.12
471.035	141.2
471.471	136.33
471.907	132.25
472.344	131.59
472.78	131.84
473.216	131.85
473.652	130.86
474.088	129.43
474.523	129.16
474.959	129.53
475.395	128.97
475.831	129.72
476.266	129.34
476.702	128.15
477.138	126.77
477.573	126.35
478.008	126.54
478.444	128.36
478.879	131.74
479.314	132.5
479.75	132.49
480.185	132.36
480.62	132.4
481.055	133.25
481.49	135.81
481.925	138.19
482.36	142.74
482.795	146.2
483.229	148.93
483.664	150.64
484.099	150.32
484.534	153.49
484.968	155.54
485.403	155.58
485.837	153.32
486.271	152.31
486.706	151.65
487.14	147.68
487.574	145.16
488.009	143.42
488.443	141.16
488.877	144.1
489.311	142.88
489.745	143.84
490.179	145.51
490.613	150.85
491.046	151.24
491.48	151.79
491.914	151.51
492.348	152.11
492.781	152.25
493.215	151.95
493.648	149.41
494.082	149.96
494.515	149.47
494.948	150.94
495.382	149.21
495.815	149.31
496.248	149.64
496.681	150.8
497.114	151.31
497.547	152.63
497.98	155.4
498.413	157.35
498.846	158.4
499.279	158.1
499.711	156.01
500.144	154.24
500.577	155.85
501.009	156.16
501.442	157.47
501.874	155.83
502.306	153.65
502.739	156.49
503.171	156.65
503.603	155.65
504.036	155.62
504.468	155.19
504.9	155.64
505.332	153.39
505.764	152.65
506.196	150.85
506.627	151.88
507.059	152.08
507.491	146.48
507.923	143.84
508.354	144.29
508.786	143.3
509.217	144.13
509.649	144.22
510.08	144.69
510.512	145.03
510.943	145.13
511.374	144.64
511.805	145.12
512.237	146.04
512.668	146.99
513.099	146.48
513.53	147.15
513.961	147.62
514.391	149.38
514.822	153.9
515.253	156.04
515.684	156.94
516.114	158.09
516.545	159.14
516.975	159.38
517.406	158.9
517.836	157.29
518.267	157.31
518.697	158.41
519.127	156.81
519.558	152.87
519.988	150.23
520.418	148.52
520.848	147.26
521.278	145.52
521.708	175.62
522.138	176.26
522.567	176.81
522.997	176.78
523.427	175.26
523.857	175.72
524.286	175.68
524.716	176.55
525.145	177.98
525.575	179.13
526.004	178.79
526.433	147.64
526.863	145.53
527.292	145.78
527.721	146.06
528.15	145.65
528.579	144.75
529.008	145.14
529.437	145.53
529.866	145.08
530.295	144.81
530.724	147.04
531.152	148.77
531.581	151.16
532.01	151.7
532.438	151
532.867	151.25
533.295	152.56
533.723	152.25
534.152	151.99
534.58	152.65
535.008	151.58
535.436	151.73
535.865	151.9
536.293	151.55
536.721	151.86
537.149	154.27
537.576	155.53
538.004	156.33
538.432	156.12
538.86	156.72
539.287	155.8
539.715	156.94
540.143	155.29
540.57	154.63
540.998	153.86
541.425	154.22
541.852	152.38
542.28	151.29
542.707	149
543.134	148.86
543.561	147.8
543.988	147.91
544.415	147.2
544.842	146.83
545.269	146.83
545.696	148.32
546.123	148.26
546.549	147.08
546.976	146.71
547.403	146.9
547.829	145.72
548.256	145.05
548.682	145.14
549.108	146.13
549.535	145.72
549.961	145.1
550.387	142.71
550.813	143.57
551.24	144.15
551.666	143.12
552.092	142.64
552.518	142.54
552.943	143.16
553.369	143.02
553.795	142.06
554.221	142.56
554.646	142.21
555.072	144.93
555.498	142.86
555.923	143.44
556.349	145.02
556.774	145.38
557.199	145.47
557.625	144.68
558.05	144.82
558.475	146.22
558.9	147.26
559.325	148.22
559.75	147.55
560.175	148.11
560.6	147.48
561.025	147.21
561.449	148.11
561.874	148.82
562.299	151.04
562.723	151.06
563.148	150.4
563.572	149.83
563.997	150.84
564.421	149.84
564.846	149.28
565.27	150.74
565.694	151.37
566.118	152.7
566.542	155.35
566.966	155.3
567.39	156.05
567.814	155.98
568.238	157.15
568.662	156.25
569.086	158.82
569.509	159.84
569.933	160.54
570.357	160.27
570.78	159.09
571.204	159.25
571.627	158.85
572.05	159.7
572.474	161.68
572.897	161.18
573.32	163.26
573.743	161.62
574.166	162.01
574.589	161.22
575.012	161.16
575.435	161.02
575.858	160.17
576.281	158.86
576.704	157.2
577.126	155.88
577.549	155.15
577.972	153.19
578.394	153.78
578.817	156.33
579.239	154.83
579.661	155.16
580.084	156.43
580.506	155.9
580.928	156.59
581.35	156.73
581.772	156.23
582.194	155.42
582.616	154.69
583.038	152.46
583.46	148.48
583.882	148.4
584.303	147.65
584.725	145.61
585.147	151.77
585.568	153.35
585.99	155.9
586.411	157.47
586.833	160.01
587.254	161.55
587.675	163.13
588.096	165.16
588.518	166.14
588.939	165.57
589.36	166.69
589.781	158.64
590.202	159.39
590.623	157.77
591.043	156.53
591.464	155.44
591.885	155.62
592.305	155.7
592.726	154.21
593.147	154.02
593.567	153.73
593.987	152.36
594.408	151.8
594.828	147.63
595.248	148.09
595.669	147.44
596.089	145.97
596.509	144.5
596.929	143.68
597.349	144.93
597.769	143.95
598.189	143.11
598.608	143.85
599.028	144.86
599.448	144.69
599.867	142.58
600.287	141.69
600.706	142.44
601.126	142.89
601.545	143.48
601.965	142.97
602.384	142.6
602.803	142.57
603.222	142.65
603.641	141.38
604.061	142.72
604.48	142.91
604.898	144.11
605.317	144.83
605.736	144.29
606.155	145.72
606.574	144.69
606.992	145.96
607.411	146.73
607.829	144.98
608.248	145.67
608.666	145.09
609.085	145.72
609.503	145.5
609.921	146.47
610.339	147.75
610.758	146.51
611.176	147.13
611.594	146.75
612.012	146.78
612.43	149.39
612.847	150.49
613.265	152.54
613.683	153.4
614.101	153.72
614.518	152.27
614.936	151.24
615.353	150.69
615.771	151.27
616.188	151.67
616.606	151.98
617.023	151.45
617.44	150.22
617.857	148.18
618.274	146.97
618.691	147.98
619.108	147.04
619.525	146.46
619.942	148
620.359	148.4
620.776	148.26
621.192	148.57
621.609	149.42
622.026	150.71
622.442	152.04
622.859	152.32
623.275	150.55
623.691	151.23
624.108	153.4
624.524	154.22
624.94	153.77
625.356	154.74
625.772	155.56
626.188	155.65
626.604	156.05
627.02	156.26
627.436	157
627.852	160.06
628.268	162.6
628.683	160.86
629.099	159.93
629.514	159.09
629.93	159.56
630.345	160.94
630.761	160.56
631.176	161.39
631.591	162.16
632.007	162.51
632.422	159.73
632.837	157.59
633.252	159.17
633.667	158.45
634.082	158.05
634.497	158.31
634.911	158.33
635.326	158.6
635.741	157.63
636.155	155.47
636.57	157.15
636.984	159.56
637.399	163.63
637.813	163.19
638.228	164.14
638.642	165.93
639.056	164.88
639.47	164.83
639.884	165.36
640.298	164.74
640.712	167.09
641.126	165.91
641.54	164.45
641.954	160.62
642.368	160.5
642.781	164.97
643.195	163.94
643.609	165.88
644.022	165.49
644.436	165.34
644.849	164.38
645.262	162.52
645.676	162.79
646.089	163.69
646.502	165.65
646.915	165.97
647.328	161.24
647.741	162.15
648.154	160.63
648.567	164.65
648.98	164.35
649.393	164.76
649.805	165.69
650.218	165.27
650.631	163.74
651.043	162.67
651.456	162.05
651.868	162.1
652.28	164.78
652.693	166.88
653.105	165.13
653.517	166.72
653.929	168.33
654.341	170.29
654.753	169.87
655.165	170.58
655.577	171.47
655.989	172.28
656.401	170.74
656.813	167.24
657.224	165.76
657.636	161.05
658.047	160.19
658.459	158.35
658.87	156.13
659.282	154.43
659.693	154.86
660.104	154.29
660.515	152.17
660.926	154.64
661.338	154.83
661.749	153.12
662.159	154.5
662.57	153.79
662.981	154.19
663.392	154.12
663.803	156.84
664.213	156.21
664.624	155.6
665.035	157.6
665.445	154.36
665.855	154.78
666.266	156.35
666.676	157.11
667.086	155.52
667.497	156.7
667.907	156.77
668.317	155.34
668.727	159.02
669.137	158.6
669.547	157.97
669.956	157.99
670.366	157.89
670.776	158.73
671.186	158.19
671.595	160.03
672.005	159.16
672.414	159.52
672.824	160.16
673.233	157.26
673.642	158.54
674.052	161.41
674.461	163.93
674.87	164.51
675.279	164.61
675.688	163.67
676.097	165.35
676.506	165.23
676.915	167.39
677.323	166.98
677.732	165.34
678.141	163.41
678.549	159.57
678.958	157.35
679.366	155.52
679.775	153.04
680.183	157.57
680.592	155.69
681	155.47
681.408	153.24
681.816	153.82
682.224	154.38
682.632	156.92
683.04	160.26
683.448	162.58
683.856	167.21
684.264	172.85
684.671	173.36
685.079	177.32
685.487	180.63
685.894	187.06
686.302	189.19
686.709	192.08
687.116	194.42
687.524	197.2
687.931	198.96
688.338	199.02
688.745	195.59
689.152	193.62
689.559	193.58
689.966	195.65
690.373	192.76
690.78	194.22
691.187	195.83
691.593	195.67
692	193.21
692.407	194.45
692.813	199.6
693.22	201.19
693.626	200.96
694.032	201.13
694.439	203.22
694.845	203.08
695.251	202.61
695.657	203.36
696.063	205.35
696.469	207.27
696.875	208.44
697.281	204.13
697.687	204.12
698.093	204.53
698.498	208.29
698.904	207.95
699.31	211.55
699.715	218.3
700.12	222.39
700.526	222.93
700.931	224.81
701.337	226.66
701.742	227.47
702.147	229.67
702.552	229.17
702.957	228.34
703.362	227.39
703.767	227.55
704.172	223.32
704.577	217.13
704.981	215.99
705.386	215.75
705.791	212.85
706.195	214.32
706.6	214.84
707.004	217.35
707.408	213.15
707.813	215.57
708.217	213.67
708.621	213.72
709.025	218.8
709.43	220.71
709.834	224.15
710.237	227.3
710.641	225.5
711.045	226.31
711.449	227.81
711.853	235.89
712.256	234.91
712.66	236.14
713.064	240.08
713.467	243.93
713.87	248.64
714.274	250.22
714.677	256.15
715.08	265.54
715.484	273.28
715.887	287.24
716.29	290.77
716.693	304.08
717.096	317.36
717.499	323.81
717.901	321.35
718.304	320.82
718.707	319.77
719.109	312.34
719.512	308.02
719.915	304.46
720.317	296.74
720.719	297.5
721.122	293.62
721.524	289.72
721.926	292.73
722.328	298.75
722.731	296.77
723.133	298.39
723.535	309
723.937	310.06
724.338	310.84
724.74	314.42
725.142	386.88
725.544	391.1
725.945	411.7
726.347	405.05
726.748	404.89
727.15	407.71
727.551	410.69
727.952	405.63
728.354	401.62
728.755	400.06
729.156	393.28
729.557	318.06
729.958	305.78
730.359	283.62
730.76	281.64
731.161	277.01
731.562	272.95
731.962	266.66
732.363	263.7
732.763	260.81
733.164	258.79
733.564	256.8
733.965	253.03
734.365	252.35
734.766	253.86
735.166	251.22
735.566	249.57
735.966	249.81
736.366	249.81
736.766	246.7
737.166	247.08
737.566	246.59
737.966	244.4
738.365	245.31
738.765	246.33
739.165	241.76
739.564	239.7
739.964	239.88
740.363	235.45
740.763	234.62
741.162	235.79
741.561	235.17
741.96	233.35
742.36	232.36
742.759	234.35
743.158	233.79
743.557	234.13
743.955	236.56
744.354	234.02
744.753	237
745.152	236.8
745.55	238.36
745.949	237.56
746.348	237.15
746.746	237.38
747.144	239.39
747.543	237.81
747.941	240.68
748.339	236.62
748.737	237.45
749.136	237.2
749.534	238.29
749.932	238.97
750.33	239.48
750.727	240.1
751.125	242.1
751.523	237.63
751.921	244.89
752.318	242.79
752.716	248.21
753.113	248.28
753.511	249.08
753.908	249.47
754.305	253.28
754.703	257.71
755.1	263.4
755.497	265.02
755.894	272.55
756.291	277.8
756.688	295.5
757.085	315.66
757.482	347.93
757.878	387.77
758.275	421.55
758.672	451.7
759.068	484.81
759.465	529.4
759.861	587.43
760.258	654.82
760.654	689.4
761.05	683.73
761.447	650.05
761.843	605.63
762.239	553.53
762.635	527.75
763.031	508.89
763.427	480.34
763.822	453.16
764.218	426.18
764.614	390.68
765.01	362.89
765.405	344.5
765.801	334.7
766.196	317.12
766.592	307.87
766.987	294.43
767.382	282.36
767.778	277.87
768.173	270.45
768.568	267.07
768.963	260.83
769.358	263.27
769.753	263.4
770.148	260.01
770.542	260.53
770.937	258.2
771.332	263.23
771.726	264.96
772.121	268.19
772.515	271.14
772.91	271.05
773.304	274.2
773.699	270.89
774.093	272.49
774.487	273.3
774.881	274.65
775.275	276.21
775.669	272.08
776.063	274.81
776.457	272.43
776.851	269.96
777.245	269.24
777.638	272.73
778.032	276.34
778.425	275.7
778.819	282.52
779.212	284.14
779.606	284.46
779.999	285.77
780.392	286.52
780.786	288.26
781.179	289.04
781.572	291.97
781.965	291.38
782.358	291.11
782.751	292.28
783.143	285.2
783.536	287.32
783.929	284.76
784.322	290.2
784.714	289.54
785.107	290.8
785.499	295.67
785.891	298.41
786.284	297.11
786.676	302.33
787.068	305.49
787.46	309.58
787.852	307.18
788.245	309.74
788.636	308.63
789.028	315.06
789.42	317.28
789.812	317.22
790.204	317.9
790.595	326.05
790.987	316.31
791.378	314.57
791.77	317.63
792.161	321.86
792.553	326.96
792.944	322.46
793.335	316.48
793.726	321.32
794.117	327.28
794.508	330.62
794.899	326.44
795.29	331.68
795.681	333.21
796.072	327.48
796.463	351.36
796.853	358.25
797.244	366.96
797.634	370.7
798.025	371.05
798.415	366.9
798.806	375.62
799.196	382.33
799.586	392.38
799.976	395.62
800.366	406.62
800.756	383.01
801.146	374.87
801.536	377.84
801.926	379.31
802.316	381.25
802.706	387.23
803.095	381.09
803.485	385.63
803.874	380.71
804.264	387.44
804.653	388.01
805.043	403.9
805.432	413.51
805.821	416.9
806.21	420.87
806.599	424.83
806.988	428.79
807.377	430.68
807.766	434.45
808.155	449.54
808.544	436.96
808.933	436.56
809.321	434.59
809.71	442.58
810.098	445.18
810.487	460.97
810.875	480.68
811.264	479.51
811.652	510.98
812.04	517.92
812.428	528.6
812.816	561.18
813.204	583.39
813.592	603.2
813.98	622.94
814.368	627.33
814.756	654.24
815.144	650.57
815.531	677.01
815.919	650.36
816.306	665.69
816.694	649.63
817.081	659
817.469	677.58
817.856	674.7
818.243	682.28
818.63	691.54
819.017	674.76
819.404	678.92
819.791	691.59
820.178	721
820.565	736.11
820.952	793.34
821.339	770.32
821.725	778.73
822.112	750.74
822.498	750.97
822.885	756.96
823.271	745.3
823.657	759.51
824.044	761.71
824.43	763.56
824.816	774.39
825.202	742.88
825.588	789.27
825.974	791.67
826.36	811.32
826.746	812.38
827.132	830.14
827.517	838.47
827.903	805.7
828.289	814.35
828.674	779.05
829.06	761.09
829.445	777.26
829.83	790.88
830.216	812.1
830.601	840.92
830.986	834.8
831.371	830.99
831.756	857.99
832.141	844.71
832.526	843.03
832.911	862.79
833.295	857.15
833.68	881.95
834.065	856.46
834.449	807.02
834.834	801.92
835.218	796.91
835.603	814.68
835.987	796.47
836.371	832.6
836.755	825.75
837.139	837.36
837.524	847.47
837.908	834.2
838.291	839.71
838.675	844.56
839.059	852.08
839.443	844.52
839.827	824.74
840.21	847.03
840.594	841.87
840.977	854.66
841.361	859.81
841.744	873.14
842.127	871.96
842.511	879.27
842.894	904.69
843.277	918.21
843.66	942.33
844.043	953.97
844.426	924.67
844.809	901.75
845.191	901.33
845.574	876.07
845.957	863.59
846.339	859.59
846.722	836.04
847.104	835.66
847.487	821.27
847.869	826.23
848.252	839.89
848.634	854.26
849.016	866.56
849.398	868.09
849.78	906.06
850.162	907.1
850.544	924.57
850.926	945.02
851.307	942.2
851.689	961.59
852.071	975.27
852.452	989.07
852.834	981.1
853.215	1006.1
853.597	1017.01
853.978	1039.23
854.359	1059.95
854.741	1016.54
855.122	1014.3
855.503	1000.72
855.884	1008.71
856.265	1008.19
856.646	1003.05
857.026	989.62
857.407	986.34
857.788	987.86
858.169	988.9
858.549	961.16
858.93	987.67
859.31	992.55
859.69	1013.45
860.071	988.08
860.451	984.15
860.831	955.07
861.211	1001.16
861.591	1020.61
861.971	1017.51
862.351	1030.99
862.731	1030.02
863.111	1042.55
863.491	1063.74
863.87	1096.35
864.25	1114.17
864.629	1099.66
865.009	1124.03
865.388	1173.7
865.768	1253.33
866.147	1257.49
866.526	1189.69
866.905	1215.14
867.284	1272.09
867.663	1200.96
868.042	1158.01
868.421	1154.23
868.8	1161.14
869.179	1179.46
869.558	1110.6
869.936	1029.97
870.315	1043.63
870.693	1075.16
871.072	1151.22
871.45	1095.84
871.828	1115.09
872.207	1170.09
872.585	1155.21
872.963	1185.52
873.341	1153.56
873.719	1154.33
874.097	1141.75
874.475	1159.14
874.853	1179.09
875.23	1138.23
875.608	1193.37
875.986	1290.75
876.363	1232.44
876.741	1286.19
877.118	1270.1
877.495	1332.26
877.873	1342.18
878.25	1408.83
878.627	1353.17
879.004	1374.34
879.381	1362.05
879.758	1335.72
880.135	1236.57
880.512	1305.59
880.889	1250.78
881.265	1227.78
881.642	1207.18
882.019	1224.69
882.395	1214.52
882.772	1275.15
883.148	1218.26
883.524	1219.45
883.901	1205.9
884.277	1219.44
884.653	1208.61
885.029	1257.16
885.405	1407.44
885.781	1396.77
886.157	1332.88
886.532	1339.59
886.908	1327.43
887.284	1468.69
887.659	1515.53
888.035	1562.77
888.411	1608.69
888.786	1635.07
889.161	1680.32
889.537	1629.96
889.912	1677.84
890.287	1686.09
890.662	1725.64
891.037	1688.64
891.412	1584.03
891.787	1557.16
892.162	1509.5
892.536	1545.22
892.911	1487.21
893.286	1451.11
893.66	1394.51
894.035	1436.34
894.409	1553.92
894.784	1492.93
895.158	1519.1
895.532	1610.38
895.906	1665.04
896.281	1693.59
896.655	1674.84
897.029	1911.97
897.402	1995.11
897.776	2212.26
898.15	2202.99
898.524	2187.17
898.898	2218.24
899.271	2507.48
899.645	2172.92
900.018	2070.6
900.392	2153.34
900.765	2150.27
901.138	1987.3
901.511	1958.61
901.884	1824.5
902.258	1681.49
902.631	1748.54
903.003	2017.81
903.376	1807.31
903.749	2025.4
904.122	2172.8
904.495	2379.62
904.867	2411.77
905.24	2108.07
905.612	1953.75
905.985	1973.93
906.357	2069.39
906.729	1975.22
907.102	1676.2
907.474	1629.13
907.846	1650.56
908.218	1633.23
908.59	1467.26
908.962	1424.64
909.334	1528.21
909.705	1623.06
910.077	1575.53
910.449	1632
910.82	1676.32
911.192	1851.16
911.563	1921.48
911.935	2027.56
912.306	2017.98
912.677	2055.77
913.048	2053.45
913.419	2231.7
913.79	2217.84
914.161	2382.41
914.532	2299.39
914.903	2103.69
915.274	2005.67
915.645	1968.02
916.015	1728
916.386	1669.94
916.756	1785.19
917.127	1829.22
917.497	1645.7
917.868	1806.95
918.238	1723.36
918.608	1760.66
918.978	1798.51
919.348	1895.81
919.718	1962.46
920.088	1902.75
920.458	1985
920.828	2074.3
921.198	1966.63
921.567	2077.86
921.937	1607.89
922.306	1604.05
922.676	1722.29
923.045	1463.17
923.415	1405.65
923.784	1279.56
924.153	1329.87
924.522	1327.72
924.891	1251.41
925.26	1340.12
925.629	1304.78
925.998	1493.14
926.367	1468.54
926.736	1432.28
927.104	1680.51
927.473	1782.18
927.842	2148.44
928.21	2096.51
928.578	2172.69
928.947	2068.58
929.315	2104.97
929.683	2510.35
930.051	2541.93
930.42	2949.69
930.788	2502.78
931.156	2505.92
931.523	2402.97
931.891	2231.75
932.259	2172.68
932.627	2555.59
932.994	3592.59
933.362	2997.71
933.729	2595.69
934.097	2476.42
934.464	2112.45
934.831	2416.38
935.199	2356.12
935.566	2269.32
935.933	2267.66
936.3	2766.54
936.667	2134.12
937.034	2066.93
937.401	2007.55
937.767	1733.15
938.134	1552.56
938.501	2190.39
938.867	2367.31
939.234	3994.17
939.6	3342.88
939.967	3760.64
940.333	2522.84
940.699	2176.19
941.065	1602.59
941.431	2158.04
941.798	2161.02
942.163	2890.39
942.529	1783.97
942.895	1628
943.261	1071.77
943.627	1447.96
943.992	1285.49
944.358	1283.25
944.723	1297.91
945.089	1257.47
945.454	1166.28
945.82	1198.38
946.185	1126.82
946.55	1322.85
946.915	1175.51
947.28	1381.21
947.645	1216.4
948.01	1147.75
948.375	1216.39
948.74	1399.18
949.104	1643.93
949.469	2259.7
949.834	3993.08
950.198	3971.92
950.562	2398.63
950.927	2043.57
951.291	2426.45
951.655	2036.57
952.02	1815.31
952.384	1365.52
952.748	1265.93
953.112	1295.66
953.476	1139.52
953.839	1049
954.203	1031.88
954.567	1284.04
954.931	1949.03
955.294	1697.26
955.658	1706.56
956.021	2955.55
956.385	4895.15
956.748	7075.11
957.111	10477.55
957.474	11782.11
957.837	13260.87
958.2	9868.56
958.563	3507.43
958.926	2437.27
959.289	3662.86
959.652	4148.1
960.015	3117.86
960.377	4492.17
960.74	5080.63
961.102	8665.64
961.465	9555.57
961.827	5774.48
962.189	10986.48
962.552	7645.99
962.914	6117.95
963.276	3941.65
963.638	3235.32
964	3171.03
964.362	2166.54
964.724	2086.9
965.085	1520.65
965.447	1247.35
965.809	1276.08
966.17	1254.45
966.532	1367.4
966.893	1246.02
967.255	1142.74
967.616	1337.72
967.977	1081.23
968.338	1171.73
968.699	1002.82
969.061	999.59
969.421	1012.66
969.782	1138.65
970.143	1008.28
970.504	1098.34
970.865	1281.82
971.225	1365.22
971.586	1336.35
971.946	1874.83
972.307	1617.21
972.667	2019.69
973.027	2070.17
973.388	2444.74
973.748	1660.24
974.108	1792.93
974.468	2294.13
974.828	1837.95
975.188	1347.68
975.548	1244.52
975.907	1061.1
976.267	1184.51
976.627	1034.81
976.986	1063.95
977.346	1019.76
977.705	987.53
978.064	893.39
978.424	761.83
978.783	728.15
979.142	833.03
979.501	805.38
979.86	877.2
980.219	851.93
980.578	1053.17
980.937	1160.26
981.296	1026.67
981.654	1056.7
982.013	1590.47
982.371	2051.68
982.73	1962.31
983.088	2219.81
983.447	2359.79
983.805	3392.13
984.163	7039.03
984.521	8019.9
984.879	11947.13
985.237	-20097.05
985.595	19757.71
985.953	4923.78
986.311	2772.79
986.669	1603.48
987.026	1369.49
987.384	1805.96
987.741	1775.17
988.099	1365.71
988.456	1066.52
988.814	1027.54
989.171	885.79
989.528	822.76
989.885	868.94
990.242	725.29
990.599	868.09
990.956	712.94
991.313	509.9
991.67	426.52
992.027	505.78
992.383	462.41
992.74	415.81
993.096	454.99
993.453	474.47
993.809	496.88
994.165	647.27
994.522	697.07
994.878	771.23
995.234	969.16
995.59	941.19
995.946	784.69
996.302	917.12
996.658	1020.03
997.013	1067.86
997.369	1385.27
997.725	1814.86
998.08	1172.88
998.436	1507.86
998.791	2051.84
999.147	2073.75
999.502	2334.06
999.857	1657.03
1000.212	2642.44
1000.567	3799.36
1000.922	2189.63
1001.277	1297.1
1001.632	964.48
1001.987	1217.32
1002.342	885.59
1002.696	745.77
1003.051	608.72
1003.406	747.81
1003.76	744.84
1004.114	723.92
1004.469	636.27
1004.823	521.8
1005.177	545.93
1005.531	432.77
1005.885	410.94
1006.239	486.56
1006.593	616.99
1006.947	848.35
1007.301	619.58
1007.655	681.73
1008.008	511.51
1008.362	552.96
1008.715	819.39
1009.069	756.14
1009.422	1236.12
1009.776	2417.77
1010.129	1591.54
1010.482	1340.97
1010.835	1041.41
1011.188	2121.54
1011.541	1964.66
1011.894	-11820.31
1012.247	36570.47
1012.6	2477
1012.952	1563.57
1013.305	684.49
1013.657	504.58
1014.01	483.15
1014.362	360.32
1014.715	395.59
1015.067	378.25
1015.419	381.37
1015.771	357.86
1016.123	326.17
1016.475	340.71
1016.827	360.97
1017.179	423.91
1017.531	411.67
1017.883	406.68
1018.234	488.1
1018.586	594.16
1018.938	682.08
1019.289	965.41
1019.64	1010.32
1019.992	889.15
1020.343	802.72
1020.694	705.67
1021.045	604.82
1021.396	672.31
1021.747	752.72
1022.098	767.56
1022.449	537.59
1022.8	460.04
1023.151	315.32
1023.501	320.75
1023.852	336.07
1024.202	369.56
1024.553	355.02
1024.903	406.09
1025.253	403.52
1025.604	370.52
1025.954	450.89
1026.304	518.77
1026.654	588.2
1027.004	835.66
1027.354	1213.75
1027.703	1313.11
1028.053	1635.68
1028.403	2744.82
1028.753	3258.66
1029.102	3569.58
1029.452	14981.04
1029.801	577.3
1030.15	388.07
1030.499	282.42
897.758	2842.11
901.051	2808.26
904.343	2840.02
907.636	2836.02
910.928	2903.71
914.22	2809.3
917.511	2818.64
920.803	2887.14
924.094	2911.05
927.384	2880.54
930.675	2847.55
933.965	2796.22
937.255	2799.8
940.544	2770.15
943.834	2688.61
947.123	2634.57
950.411	2734.49
953.7	2703.19
956.988	2663.59
960.276	2603.76
963.563	2693.78
966.851	2685.47
970.138	2750.2
973.424	2737.62
976.711	2683.02
979.997	2846.42
983.283	2877.34
986.568	2773.62
989.853	2795.43
993.138	2824.11
996.423	2906.85
999.708	2834.87
1002.992	2913.38
1006.275	2719.91
1009.559	2779.7
1012.842	2901.66
1016.125	2824.38
1019.408	2802.39
1022.69	2898.51
1025.972	2910.09
1029.254	2883.18
1032.536	2807.21
1035.817	2841.86
1039.098	2771.99
1042.379	2944.99
1045.659	2931.11
1048.939	2860.06
1052.219	2882.38
1055.498	2896.9
1058.778	2875.45
1062.057	2865.96
1065.335	2885.89
1068.614	2904.95
1071.892	2881.41
1075.17	2963.03
1078.447	2949.75
1081.724	2937.41
1085.001	2974.52
1088.278	2948.34
1091.554	2962.84
1094.83	2959.11
1098.106	2981.97
1101.382	3032.3
1104.657	3032.27
1107.932	3028.8
1111.206	2990.47
1114.481	2945.8
1117.755	2950.69
1121.029	2928.29
1124.302	2979.86
1127.575	2925.21
1130.848	2910.65
1134.121	2866.74
1137.393	2811.37
1140.665	2883.01
1143.937	2856.36
1147.208	2818.21
1150.48	2853.16
1153.75	2839.21
1157.021	2876.83
1160.291	2845.71
1163.561	2888.34
1166.831	2885.47
1170.101	2922.6
1173.37	2898.11
1176.639	2838.59
1179.907	2900.79
1183.176	2898.43
1186.444	2911.38
1189.711	2939.51
1192.979	2947.56
1196.246	2904.05
1199.513	2922.44
1202.78	2916.85
1206.046	2923.75
1209.312	2952.12
1212.578	2979.4
1215.843	2925.33
1219.108	2905.17
1222.373	2925.62
1225.638	2886
1228.902	2867.92
1232.166	2836.76
1235.43	2818.63
1238.693	2842.53
1241.956	2841.74
1245.219	2878.68
1248.482	2877.12
1251.744	2869.62
1255.006	3029.99
1258.268	2986.8
1261.529	2926.63
1264.79	2935.38
1268.051	3040.04
1271.312	3061.2
1274.572	3018.89
1277.832	3008.9
1281.092	2999.62
1284.351	2963.93
1287.61	2943.63
1290.869	2847.18
1294.128	2815.93
1297.386	2919.91
1300.644	2906.85
1303.902	2918.84
1307.159	2772.38
1310.416	2830.37
1313.673	2853.23
1316.93	2837.6
1320.186	2886.49
1323.442	2934
1326.697	2922.86
1329.953	2919.47
1333.208	2939.15
1336.463	2923.93
1339.717	2857.66
1342.972	3000.83
1346.226	2980.41
1349.479	2908.4
1352.733	2875.92
1355.986	2908.7
1359.238	2882.1
1362.491	2883.25
1365.743	2887.94
1368.995	2887.48
1372.247	2896.31
1375.498	2923.8
1378.749	2933.21
1382	2890.49
1385.251	2952.82
1388.501	2914.41
1391.751	2892.48
1395	2867.94
1398.25	2906.22
1401.499	2912.24
1404.748	2830.83
1407.996	2830.82
1411.244	2815.18
1414.492	2796.15
1417.74	2770.42
1420.987	2785.8
1424.234	2847.71
1427.481	2832.33
1430.728	2893.35
1433.974	2864.34
1437.22	2884.54
1440.465	2886.65
1443.711	2839.55
1446.956	2878.57
1450.201	2868.66
1453.445	2916.2
1456.689	2885.44
1459.933	2900.04
1463.177	2929.58
1466.42	2900.78
1469.663	2880.17
1472.906	2866
1476.148	2957.97
1479.391	2899.61
1482.633	2872.71
1485.874	2880.96
1489.115	2863.47
1492.356	2872.46
1495.597	2844.04
1498.838	2847.35
1502.078	2809.56
1505.318	2751.28
1508.557	2798.45
1511.797	2757.49
1515.036	2848.66
1518.274	2833.97
1521.513	2809.03
1524.751	2833.53
1527.989	2841.19
1531.227	2852.86
1534.464	2839.78
1537.701	2866.79
1540.938	2888.26
1544.174	2839.93
1547.41	2839.77
1550.646	2881.1
1553.882	2916.74
1557.117	2967.08
1560.352	2980.37
1563.587	2937.53
1566.821	2893.05
1570.055	2934.29
1573.289	2899.19
1576.523	2978.02
1579.756	2980.86
1582.989	2998.25
1586.222	2956.46
1589.454	2996.07
1592.686	2966.33
1595.918	2992.57
1599.15	2978.52
1602.381	3061.41
1605.612	3005.47
1608.843	3107.14
1612.073	3019.95
1615.303	3001.06
1618.533	2989.81
1621.762	2995.69
1624.992	2982.76
1628.221	2964.22
1631.449	2946.19
1634.678	3013.68
1637.906	2961.77
1641.134	3007
1644.361	2958.08
1647.588	2943.91
1650.815	2961.4
1654.042	2944.92
1657.269	2975.12
1660.495	2919.55
1663.72	2929.21
1666.946	2896.56
1670.171	2826.44
1673.396	2806.7
1676.621	2795.42
1679.845	2822.5
1683.069	2848.49
1686.293	2894.06
1689.517	2860
1692.74	2781.3
1695.963	2815.4
1699.185	2846.67
1702.408	2819.2
1705.63	2865.34
1708.852	2874.52
1712.073	2847.94
1715.294	2827.48
1718.515	2891.13
1721.736	2836.99
1724.956	2834.5
1728.176	2862.8
1731.396	2885.46
1734.616	2873.27
1737.835	2899.31
1741.054	2880.21
1744.272	2878.23
1747.491	2905.6
1750.709	2967.99
1753.927	2862.01
1757.144	2910.93
1760.361	2950.07
1763.578	2947.98
1766.795	2888.98
1770.011	2899.87
1773.227	2945.85
1776.443	2980.95
1779.658	3022.6
1782.874	2970.65
1786.089	2941.6
1789.303	2946.69
1792.518	2956.16
1795.732	2941.85
1798.945	2952.31
1802.159	3005.5
1805.372	2896.34
1808.585	2879.89
1811.797	2882.13
1815.01	2939.98
1818.222	2935.38
1821.434	2891.94
1824.645	2958.35
1827.856	2935.71
1831.067	2975.97
1834.278	2936.38
1837.488	2917.96
1840.698	3081.13
1843.908	2996.77
1847.117	2961.81
1850.326	2831.13
1853.535	2949.71
1856.744	3000.21
1859.952	2910.45
1863.16	2914.28
1866.368	2940.71
1869.575	3047.82
1872.782	2931.96
1875.989	2866.73
1879.196	2970.13
1882.402	2962.76
1885.608	3009.84
1888.814	2903.58
1892.019	2795.1
1895.224	2848.79
1898.429	2831.67
1901.634	2806.57
1904.838	2785.76
1908.042	2839.87
1911.246	2849.44
1914.449	2766.48
1917.652	2767.85
1920.855	2748.89
1924.058	2803.21
1927.26	2836.69
1930.462	2869.59
1933.664	2894.02
1936.865	2829.28
1940.066	2836.07
1943.267	2778.75
1946.467	2797.95
1949.668	2828.39
1952.868	2898.54
1956.067	2872.24
1959.267	2801.57
1962.466	2831.32
1965.665	2812.4
1968.863	2810.11
1972.061	2829.19
1975.259	2828.31
1978.457	2912.53
1981.654	2865.43
1984.852	2864.4
1988.048	2789.07
1991.245	2798.86
1994.441	2888.38
1997.637	2877.14
2000.833	2855.56
2004.028	2900.17
2007.223	2951.27
2010.418	2926.19
2013.613	2888.38
2016.807	2853.46
2020.001	2867.16
2023.194	2916.14
2026.388	2885.6
2029.581	2830.93
2032.774	2877.73
2035.966	2882.97
2039.158	2805.98
2042.35	2838.7
2045.542	2764.76
2048.733	2872.41
2051.924	2902.81
2055.115	2932.21
2058.306	2868.71
2061.496	2934.19
2064.686	3002.19
2067.875	2915.62
2071.065	2933.97
2074.254	2963.6
2077.442	2910.67
2080.631	3006.03
2083.819	2883.19
2087.007	2862.76
2090.195	2829.63
2093.382	2870.36
2096.569	2845.89
2099.756	2795.57
2102.942	2815.85
2106.128	2821.09
2109.314	2812.73
2112.5	2770.02
2115.685	2745.35
2118.87	2757.46
2122.055	2825.27
2125.239	2786.27
2128.424	2755.49
2131.608	2871.3
2134.791	2851.84
2137.974	2918.87
2141.157	2903.72
2144.34	2849.71
2147.523	2870.82
2150.705	2881.41
2153.887	2861.94
2157.068	2804.62
2160.25	2812.15
2163.431	2856.4
2166.611	2794.79
2169.792	2808.13
2172.972	2693.97
2176.152	2781.92
2179.331	2821.77
2182.511	2798.3
2185.69	2827.4
2188.868	2819.55
2192.047	2882.39
2195.225	2865.63
2198.403	2815.82
2201.58	2811.51
2204.758	2808.39
2207.935	2899.34
2211.111	2775.5
2214.288	2756.49
2217.464	2799.66
2220.64	2779.05
2223.815	2837.79
2226.991	2752.74
2230.166	2775.32
2233.34	2802.11
2236.515	2828.88
2239.689	2909.97
2242.863	2846.16
2246.036	2906.46
2249.209	2911.95
2252.382	2951.72
2255.555	2931.56
2258.727	2864.83
2261.9	2910.37
2265.071	2900.6
2268.243	2903.24
2271.414	2831.01
2274.585	2784.76
2277.756	2858.1
2280.926	2811.05
2284.096	2857.57
2287.266	2753.82
2290.436	2814.7
2293.605	2843.99
2296.774	2876.26
2299.942	2902.11
2303.111	2921.6
2306.279	2966.65
2309.447	2953.63
2312.614	2929.39
2315.781	2952.18
2318.948	2916.83
2322.115	2959.42
2325.281	2855.14
2328.447	2884
2331.613	2854.8
2334.779	2822.26
2337.944	2826.84
2341.109	2829.08
2344.274	2808.92
2347.438	2770.65
2350.602	2797.26
2353.766	2814.37
2356.929	2798.96
2360.092	2845.37
2363.255	2789.6
2366.418	2713.13
2369.58	2844.01
2372.742	2595.76
2375.904	2616.79
2379.066	2589.17
2382.227	2628.65
2385.388	2592.75
2388.548	2508.85
2391.709	2569.57
2394.869	2545.47
2398.029	2657.51
2401.188	2674.56
2404.347	2597.98
2407.506	2767.33
2410.665	2793.37
2413.823	2805.04
2416.981	2755.69
2420.139	2790.86
2423.296	2846.49
2426.453	2817.31
2429.61	2840.84
2432.767	2765.56
2435.923	2804.6
2439.079	2749.96
2442.235	2804.91
2445.391	2723.78
2448.546	2750.25
2451.701	2806.25
2454.855	2767.25
2458.009	2828.63
2461.163	2834.81
2464.317	2791.61
2467.471	2829.38
2470.624	2874.24
2473.777	2858.99
2476.929	2869.62
2480.082	2897.52
2483.234	2858.13
2486.385	2805.8
2489.537	2799.99
2492.688	2752.54
2495.839	2772.2
2498.989	2783.27
2502.14	2763.82
2505.29	2743.66
2508.439	2772.69
2511.589	2688.79
2514.738	2702.77
2517.887	2735.06
2521.035	2809.56
2524.183	2793.99
2527.331	2770.9
2530.479	2738.99
2533.627	2750.39
