Data from C_3_DEC_ON_6N_Splice17_13-36-22-698.txt Node
Date: Sat Mar 14 13:36:22 EDT 2020
User: sa697716
Spectrometer: FLMS03696
Trigger mode: 0
Integration Time (sec): 3.180400E-1
Scans to average: 20
Electric dark correction enabled: true
Nonlinearity correction enabled: true
Boxcar width: 5
XAxis mode: Wavelengths
Number of Pixels in Spectrum: 2048
>>>>>Begin Spectral Data<<<<<
187.83	-491808.3
188.298	3520.69
188.766	1792.9
189.233	1605.37
189.701	2306.62
190.169	3155.88
190.636	1159.9
191.104	827.25
191.571	114.97
192.039	-127.86
192.506	-221.77
192.974	328.5
193.441	-501.78
193.908	-84.24
194.375	-54.34
194.842	-8.12
195.31	86.1
195.777	194.63
196.244	381.97
196.711	432.53
197.177	503.44
197.644	694.13
198.111	1197.01
198.578	1664.65
199.045	1348.43
199.511	2201.55
199.978	2545.52
200.445	2198.39
200.911	2381.13
201.378	2626.92
201.844	2379.66
202.31	4078.77
202.777	4218.25
203.243	2365.07
203.709	2261.09
204.176	2706.32
204.642	2245
205.108	2116.16
205.574	1709.3
206.04	1553.34
206.506	1465.78
206.972	1384.39
207.438	1340.31
207.903	1521.44
208.369	1333.08
208.835	1335.8
209.301	1393.14
209.766	1405.61
210.232	1407.98
210.697	1725.52
211.163	2102.78
211.628	3179.41
212.094	2674.23
212.559	3321.73
213.024	2093.82
213.49	2578.2
213.955	2506.69
214.42	2429.7
214.885	2277.09
215.35	2181.51
215.815	2156.04
216.28	2311.45
216.745	1882.08
217.21	2027.81
217.675	1827.6
218.14	2036.45
218.604	2243.96
219.069	2545.47
219.534	2676.3
219.998	3083.83
220.463	3709.51
220.927	4478.27
221.392	4212.1
221.856	4255.78
222.32	5335.07
222.785	6607.52
223.249	8302.95
223.713	9259.1
224.177	9251.31
224.642	11823.14
225.106	14530.61
225.57	15906.49
226.034	11881.97
226.497	18042.87
226.961	16342.05
227.425	19054.43
227.889	21172.91
228.353	21193.44
228.816	43856.55
229.28	42071.26
229.744	35597.65
230.207	21759.29
230.671	21402.63
231.134	35388.21
231.597	41031.71
232.061	41000.26
232.524	40089.42
232.987	27634.69
233.45	24931.03
233.914	22367.54
234.377	22959.13
234.84	21028.54
235.303	24778.77
235.766	27756.72
236.229	28705.64
236.691	18046.36
237.154	20311.33
237.617	15335.88
238.08	15715.73
238.542	18416.71
239.005	13207.18
239.468	13141.3
239.93	12406.25
240.393	11292.2
240.855	9929.08
241.317	10196.14
241.78	12437.97
242.242	12873.76
242.704	13935.93
243.166	12161.33
243.629	11089.52
244.091	12799.31
244.553	14017.73
245.015	15090.36
245.477	19555.76
245.939	28660.07
246.4	30440.23
246.862	29647.84
247.324	27987.45
247.786	31287.32
248.247	41045.03
248.709	42336.54
249.17	31681.52
249.632	29928.03
250.093	34742.61
250.555	29988.88
251.016	18305.49
251.477	17374.58
251.939	18738.3
252.4	19647.64
252.861	23326.21
253.322	21706.21
253.783	25819.58
254.244	33433.8
254.705	26327.12
255.166	23369.11
255.627	23032.79
256.088	32475.54
256.549	34457.81
257.009	29641.31
257.47	36007.65
257.931	29366.35
258.391	21998.82
258.852	22650.65
259.312	23762.88
259.773	29353.88
260.233	24817.17
260.694	20933.27
261.154	23722.81
261.614	19070.63
262.074	17041.31
262.534	17692.87
262.994	16663.94
263.455	22189.46
263.915	18691.9
264.374	17586.21
264.834	19170.16
265.294	21215.71
265.754	21960.95
266.214	20787.76
266.673	19455.27
267.133	24551.07
267.593	24308.25
268.052	29714.47
268.512	25768.64
268.971	31109.92
269.431	34080.87
269.89	30530.02
270.349	45793.63
270.809	51014.14
271.268	45776.11
271.727	102506.73
272.186	66359.62
272.645	49789.32
273.104	35863.05
273.563	51938.17
274.022	40731.75
274.481	34683.65
274.94	26691.66
275.399	19806.09
275.857	23013.93
276.316	31128.55
276.775	27667.41
277.233	27239.54
277.692	25503.27
278.15	28859.48
278.609	29724.47
279.067	27528.51
279.525	25568.46
279.984	33011.12
280.442	39669.6
280.9	39232.9
281.358	25848.29
281.816	24122.48
282.274	23589.13
282.732	24350.03
283.19	24466.47
283.648	21088.94
284.106	22474.08
284.564	22848.53
285.021	21210.74
285.479	15802.72
285.937	14352.41
286.394	12609.25
286.852	12977.97
287.309	13666.95
287.767	13240.4
288.224	12618.56
288.682	13865.88
289.139	15221.9
289.596	13936.68
290.053	14499.45
290.511	18297.99
290.968	22211.55
291.425	30063.25
291.882	25086.95
292.339	21840.35
292.796	21631.51
293.252	20368.1
293.709	16220.36
294.166	14534.57
294.623	16067.74
295.079	15397.04
295.536	15518.68
295.992	14096.93
296.449	13965.07
296.905	14509.92
297.362	13943.2
297.818	14690.68
298.274	15262.75
298.731	15528.36
299.187	15383.3
299.643	16514.31
300.099	20020.08
300.555	21928.47
301.011	18336.37
301.467	17734.81
301.923	20733.06
302.379	20262.37
302.835	19898.61
303.291	19948.22
303.746	22752.88
304.202	28801.21
304.658	28946.96
305.113	19463.79
305.569	19106.05
306.024	20359.28
306.479	19356.51
306.935	16349.26
307.39	17836.38
307.845	16495.44
308.301	16597.34
308.756	16159.66
309.211	15576.17
309.666	15968.9
310.121	19890.52
310.576	20205.68
311.031	20078.65
311.486	22956.13
311.94	22996.54
312.395	30764.49
312.85	57898.97
313.305	284595.11
313.759	1478024.75
314.214	107109.71
314.668	84941.83
315.123	71438.57
315.577	25657.87
316.032	22823.23
316.486	28608.16
316.94	22543.53
317.394	15730.46
317.849	12232.45
318.303	11582.01
318.757	10941.01
319.211	12118.19
319.665	10633.55
320.119	10765.99
320.572	15454.7
321.026	14478.69
321.48	12089.89
321.934	13189.6
322.387	13191.44
322.841	14251.31
323.295	12854.91
323.748	14764.66
324.202	14974.8
324.655	17984.44
325.108	25155.39
325.562	17754.08
326.015	21094.56
326.468	15970.64
326.921	17895.99
327.374	16745.56
327.827	17467.45
328.28	19769.84
328.733	13276.25
329.186	11689.38
329.639	11149.65
330.092	9410.27
330.545	8974.6
330.997	9065.95
331.45	9916.27
331.903	11641.81
332.355	20005.63
332.808	19404.95
333.26	16011.23
333.713	17432.67
334.165	17546.56
334.617	23442.92
335.069	18880.78
335.522	34077.04
335.974	37701.95
336.426	34410.82
336.878	23776.54
337.33	12106.27
337.782	11849.57
338.234	14856.24
338.686	17760.36
339.137	21112.28
339.589	19885.86
340.041	15635.08
340.493	13455.17
340.944	13793.31
341.396	14847.45
341.847	12517.31
342.299	14781.99
342.75	18065.68
343.201	15757.64
343.653	18120.92
344.104	22234.41
344.555	17506.63
345.006	27237.67
345.457	20969.67
345.908	16658.47
346.359	15733.78
346.81	12803.39
347.261	13484.77
347.712	13288.9
348.163	14285.45
348.613	14521.06
349.064	13578.7
349.515	11912.94
349.965	12242.62
350.416	14705.33
350.866	16174.16
351.317	18279.54
351.767	30329.38
352.217	38397.61
352.668	31854.1
353.118	29238.71
353.568	28168.77
354.018	22297.82
354.468	23539.44
354.918	16929.16
355.368	14827.78
355.818	20954.56
356.268	60327.93
356.718	253113.87
357.168	63023.48
357.617	31679.19
358.067	35189.68
358.517	32987.1
358.966	38707.85
359.416	43484.37
359.865	46946.31
360.315	55937.53
360.764	26159.17
361.213	14678.67
361.663	13903.6
362.112	17172.44
362.561	27781.03
363.01	21013.41
363.459	17669.66
363.908	19143.58
364.357	16318.62
364.806	27555.33
365.255	18964.45
365.703	17406.09
366.152	17461.56
366.601	14157.39
367.05	11517.07
367.498	10502.15
367.947	10972.02
368.395	11431.97
368.844	10138.72
369.292	12180.47
369.74	8443.28
370.189	12940.86
370.637	15174.56
371.085	13077.38
371.533	15944.78
371.981	15354.95
372.429	14620.06
372.877	15216.46
373.325	12716.24
373.773	12947.04
374.221	11516.07
374.669	14272.72
375.116	12319.23
375.564	12396.03
376.012	13849.88
376.459	11420.45
376.907	13647.08
377.354	16495.39
377.801	15401.08
378.249	17724.48
378.696	22617.98
379.143	27369.5
379.591	29148.07
380.038	49387.14
380.485	35821.37
380.932	38677.59
381.379	35464.95
381.826	26149.83
382.273	18567.87
382.72	16210.13
383.166	15816.06
383.613	10275.67
384.06	9268.22
384.506	10728.99
384.953	7870.91
385.4	7892.48
385.846	6902
386.292	6690.09
386.739	6518.71
387.185	6430.05
387.631	6425.89
388.078	6244.44
388.524	6669.45
388.97	6166.48
389.416	5142.82
389.862	5470.25
390.308	5189.49
390.754	5275.82
391.2	5738.35
391.645	5874.37
392.091	5644.43
392.537	5453.11
392.983	5441.81
393.428	5372.49
393.874	5749.31
394.319	5783.25
394.765	5500.45
395.21	5645.72
395.655	5294.72
396.101	4962.01
396.546	4493.11
396.991	4526.29
397.436	4211.2
397.881	4088.04
398.326	3861.56
398.771	3662.54
399.216	3198.43
399.661	2880.63
400.106	2879.22
400.551	2958.8
400.995	2657.51
401.44	2634.62
401.885	2473.95
402.329	2507.72
402.774	2404.94
403.218	2343.42
403.663	2261.98
404.107	2333.5
404.551	2354.63
404.995	2160.23
405.44	2081.87
405.884	2118.46
406.328	2047.56
406.772	2048.14
407.216	1872.08
407.66	1811.5
408.104	1715.17
408.547	1607.73
408.991	1553.21
409.435	1496.66
409.879	1479.25
410.322	1464.21
410.766	1417.82
411.209	1352.88
411.653	1304
412.096	1279.36
412.54	1282.36
412.983	1278.13
413.426	1288.74
413.869	1292.38
414.312	1274.29
414.756	1229.46
415.199	1174.18
415.642	1142.72
416.085	1147.15
416.527	1139.76
416.97	1158.84
417.413	1101.76
417.856	1092.54
418.298	1079.45
418.741	1072.01
419.184	1068.25
419.626	1114.8
420.069	1114.84
420.511	1122.54
420.953	1097.84
421.396	1087.36
421.838	1057.25
422.28	1083.65
422.722	1090.08
423.164	1107.55
423.606	1092.66
424.048	1089.41
424.49	1038.05
424.932	1032.78
425.374	1014.31
425.816	1032.79
426.258	1054.78
426.699	1068.84
427.141	1054.47
427.582	1070.06
428.024	1064.7
428.465	1056.15
428.907	1031.02
429.348	1017.93
429.789	1022.89
430.231	1005.42
430.672	1022.69
431.113	998.27
431.554	985.64
431.995	958.47
432.436	925.67
432.877	904.89
433.318	891.55
433.759	889.21
434.2	889.27
434.64	877.34
435.081	879.58
435.522	830.37
435.962	801.84
436.403	784.75
436.843	796.8
437.284	780.71
437.724	758.73
438.164	759.78
438.604	744.36
439.045	714.68
439.485	687.11
439.925	674.17
440.365	657.78
440.805	646.81
441.245	640.39
441.685	617.37
442.125	612.59
442.564	617.38
443.004	604.04
443.444	603.23
443.883	608.27
444.323	602.75
444.762	602.92
445.202	612.03
445.641	627.29
446.081	622.9
446.52	627.84
446.959	623.69
447.398	611.26
447.837	606.61
448.276	597.07
448.716	603.42
449.154	608.81
449.593	594.68
450.032	593.82
450.471	581.13
450.91	581.25
451.349	581.68
451.787	578.88
452.226	587.45
452.664	586.37
453.103	587.26
453.541	584.98
453.98	587.32
454.418	593.14
454.856	586.02
455.295	584.94
455.733	592.8
456.171	595.25
456.609	594.28
457.047	593.83
457.485	604.47
457.923	605.8
458.361	596.81
458.798	598.04
459.236	594.24
459.674	596.38
460.111	598.98
460.549	592
460.987	589.23
461.424	587.23
461.862	584.05
462.299	573.02
462.736	572.73
463.173	575.32
463.611	570.36
464.048	570.61
464.485	574.61
464.922	569.32
465.359	564.14
465.796	561.92
466.233	558.79
466.67	554.16
467.106	553.82
467.543	547.08
467.98	539.64
468.416	524.37
468.853	520.18
469.29	504.74
469.726	498.94
470.162	486.2
470.599	476.58
471.035	472.29
471.471	461.5
471.907	458.07
472.344	455.73
472.78	458.15
473.216	463.27
473.652	457.7
474.088	456.63
474.523	456.87
474.959	461.54
475.395	457.86
475.831	456.57
476.266	457.96
476.702	457.18
477.138	452.97
477.573	451.39
478.008	450.93
478.444	456.18
478.879	461.79
479.314	465.08
479.75	465.94
480.185	467.23
480.62	470.74
481.055	474.73
481.49	478.6
481.925	485.04
482.36	495.8
482.795	509.37
483.229	520.59
483.664	531.51
484.099	532.35
484.534	541.11
484.968	547.14
485.403	549.27
485.837	547.85
486.271	546.99
486.706	548.44
487.14	540.51
487.574	532.52
488.009	527.25
488.443	522.91
488.877	529.21
489.311	530.55
489.745	536.96
490.179	541.81
490.613	553.39
491.046	557.74
491.48	561.94
491.914	562.96
492.348	567.28
492.781	571.83
493.215	573.17
493.648	573.96
494.082	579.38
494.515	580.78
494.948	588.83
495.382	592.5
495.815	597.88
496.248	603.42
496.681	616.19
497.114	625.88
497.547	635.9
497.98	648.9
498.413	656.01
498.846	665.45
499.279	674.32
499.711	678.89
500.144	682.39
500.577	693.63
501.009	705.21
501.442	715.86
501.874	719.81
502.306	723.09
502.739	733.57
503.171	748.83
503.603	753.68
504.036	763.25
504.468	770.19
504.9	783.02
505.332	791.24
505.764	796.38
506.196	803.72
506.627	819.39
507.059	833.7
507.491	841.35
507.923	841.78
508.354	858.13
508.786	871.07
509.217	889.91
509.649	905.93
510.08	925.96
510.512	945.56
510.943	962.41
511.374	975.68
511.805	996.55
512.237	1017.8
512.668	1050.49
513.099	1078.57
513.53	1106.35
513.961	1129.34
514.391	1162.71
514.822	1196.68
515.253	1233.26
515.684	1261.12
516.114	1292.09
516.545	1317.17
516.975	1345.45
517.406	1365.83
517.836	1371.84
518.267	1382.34
518.697	1403.07
519.127	1409.41
519.558	1418.41
519.988	1424.03
520.418	1436.27
520.848	1455.36
521.278	1465.12
521.708	1501.57
522.138	1515.93
522.567	1547.78
522.997	1575.04
523.427	1592.18
523.857	1611.06
524.286	1623.85
524.716	1640.12
525.145	1661.63
525.575	1675.78
526.004	1692.7
526.433	1671.25
526.863	1673.39
527.292	1665.85
527.721	1672.11
528.15	1680.04
528.579	1682.03
529.008	1694.85
529.437	1719.6
529.866	1733.48
530.295	1751.54
530.724	1766.02
531.152	1794.67
531.581	1810.56
532.01	1830.05
532.438	1840.19
532.867	1855.31
533.295	1875.38
533.723	1882.59
534.152	1881.91
534.58	1882.86
535.008	1867.86
535.436	1870.2
535.865	1879.52
536.293	1895.27
536.721	1910.89
537.149	1936.94
537.576	1939.58
538.004	1953.08
538.432	1960.48
538.86	1958.35
539.287	1966.21
539.715	1980.37
540.143	1982.75
540.57	1977.77
540.998	1972.92
541.425	1950.09
541.852	1928.82
542.28	1927.64
542.707	1910.75
543.134	1897.3
543.561	1893.45
543.988	1885.57
544.415	1884.16
544.842	1878.96
545.269	1872.44
545.696	1875.42
546.123	1889.96
546.549	1880.22
546.976	1868.81
547.403	1869.09
547.829	1871.21
548.256	1874.84
548.682	1872.14
549.108	1866.02
549.535	1867.45
549.961	1871.52
550.387	1858.65
550.813	1853.17
551.24	1861.59
551.666	1862.36
552.092	1853.82
552.518	1847.9
552.943	1841.66
553.369	1850.94
553.795	1858.4
554.221	1860.09
554.646	1858.15
555.072	1871.11
555.498	1877.32
555.923	1887.66
556.349	1904.71
556.774	1915.29
557.199	1918.66
557.625	1926.32
558.05	1921.03
558.475	1932
558.9	1930.18
559.325	1922.01
559.75	1916.32
560.175	1909.83
560.6	1903.71
561.025	1902.58
561.449	1904.79
561.874	1910.03
562.299	1916.68
562.723	1925.31
563.148	1915.37
563.572	1920.85
563.997	1931.96
564.421	1937.31
564.846	1938.41
565.27	1942.58
565.694	1940.39
566.118	1951.09
566.542	1960.3
566.966	1952.69
567.39	1947.97
567.814	1936.21
568.238	1936.56
568.662	1941.89
569.086	1944.84
569.509	1952.23
569.933	1935.26
570.357	1927.61
570.78	1907.04
571.204	1894.11
571.627	1882.75
572.05	1879.92
572.474	1881.15
572.897	1867.94
573.32	1859.92
573.743	1850.01
574.166	1831.16
574.589	1831.2
575.012	1824.24
575.435	1822.55
575.858	1813.48
576.281	1802.63
576.704	1787.05
577.126	1774.99
577.549	1764.92
577.972	1755.54
578.394	1745.5
578.817	1740.11
579.239	1721.48
579.661	1706.69
580.084	1692.21
580.506	1677.94
580.928	1673.79
581.35	1662.49
581.772	1658.56
582.194	1643.96
582.616	1630.07
583.038	1614.58
583.46	1603.04
583.882	1600.43
584.303	1605.34
584.725	1599.86
585.147	1603.43
585.568	1616.27
585.99	1629.28
586.411	1635.45
586.833	1651.5
587.254	1654.16
587.675	1669.75
588.096	1683.73
588.518	1678.19
588.939	1660.72
589.36	1658.4
589.781	1645.7
590.202	1615.45
590.623	1606.28
591.043	1603.77
591.464	1590.26
591.885	1586.05
592.305	1580.29
592.726	1564.9
593.147	1567.04
593.567	1560.94
593.987	1552.95
594.408	1546.89
594.828	1544.69
595.248	1538.52
595.669	1518.75
596.089	1511.77
596.509	1504.3
596.929	1489.94
597.349	1490.99
597.769	1478.81
598.189	1472.6
598.608	1474.3
599.028	1477.09
599.448	1476.09
599.867	1462.62
600.287	1457.69
600.706	1453.06
601.126	1443.91
601.545	1442.53
601.965	1440.65
602.384	1435.06
602.803	1437.67
603.222	1432.07
603.641	1424.89
604.061	1421.69
604.48	1417.44
604.898	1425.4
605.317	1429.8
605.736	1431.66
606.155	1428.64
606.574	1419.52
606.992	1425.77
607.411	1421.55
607.829	1413.61
608.248	1410.64
608.666	1407.81
609.085	1406.39
609.503	1398.44
609.921	1392.55
610.339	1394.82
610.758	1393.51
611.176	1388.38
611.594	1378.75
612.012	1375
612.43	1378.34
612.847	1384.38
613.265	1384.95
613.683	1388.79
614.101	1389.35
614.518	1384.09
614.936	1372.62
615.353	1358.11
615.771	1354.83
616.188	1355.12
616.606	1351.29
617.023	1342.98
617.44	1328.46
617.857	1320.85
618.274	1312.54
618.691	1306.69
619.108	1298.17
619.525	1291.73
619.942	1297.79
620.359	1300.37
620.776	1293.83
621.192	1288.78
621.609	1287.12
622.026	1294.51
622.442	1300.7
622.859	1304.18
623.275	1296
623.691	1300.97
624.108	1313.58
624.524	1327.72
624.94	1328.22
625.356	1339.13
625.772	1351.48
626.188	1362.45
626.604	1362.31
627.02	1357.79
627.436	1355.27
627.852	1362.9
628.268	1375.4
628.683	1364.05
629.099	1355.34
629.514	1348.54
629.93	1351.18
630.345	1355.84
630.761	1350.84
631.176	1354.24
631.591	1349.32
632.007	1343.4
632.422	1339.18
632.837	1325.46
633.252	1323.42
633.667	1312.7
634.082	1303.36
634.497	1290.81
634.911	1270.16
635.326	1266.15
635.741	1247.83
636.155	1233.54
636.57	1232.28
636.984	1230.58
637.399	1232.05
637.813	1228.77
638.228	1225.3
638.642	1227.61
639.056	1214.25
639.47	1212.01
639.884	1201.4
640.298	1192.01
640.712	1188.91
641.126	1175.1
641.54	1164.66
641.954	1155.61
642.368	1141.87
642.781	1132.36
643.195	1111.46
643.609	1109.92
644.022	1102.04
644.436	1094.44
644.849	1081.13
645.262	1068.49
645.676	1067.11
646.089	1060.73
646.502	1045.77
646.915	1038.38
647.328	1020.07
647.741	1017
648.154	1001.89
648.567	998.55
648.98	985.83
649.393	984.52
649.805	978.69
650.218	970.76
650.631	953.68
651.043	945.86
651.456	939.31
651.868	938.03
652.28	952.21
652.693	964.85
653.105	968.67
653.517	976.63
653.929	975.34
654.341	980.06
654.753	967.77
655.165	973.68
655.577	970.56
655.989	964.86
656.401	956.16
656.813	923.08
657.224	902.09
657.636	873.2
658.047	854.92
658.459	836
658.87	826.14
659.282	813.19
659.693	793.03
660.104	778.14
660.515	763.91
660.926	759.59
661.338	753.49
661.749	745.19
662.159	735.88
662.57	729.21
662.981	723
663.392	714.69
663.803	716.6
664.213	711.75
664.624	704.87
665.035	705.03
665.445	691.46
665.855	684.6
666.266	676.81
666.676	673.01
667.086	663.33
667.497	660.78
667.907	653.96
668.317	644.57
668.727	642.05
669.137	642.44
669.547	639.77
669.956	640.77
670.366	641.25
670.776	642.45
671.186	645.45
671.595	648.77
672.005	651.06
672.414	650.59
672.824	649.12
673.233	650.95
673.642	652.1
674.052	654.98
674.461	659.06
674.87	662.77
675.279	661.12
675.688	661.18
676.097	662.98
676.506	659.72
676.915	671.71
677.323	674.38
677.732	673.44
678.141	673.16
678.549	664.57
678.958	661.81
679.366	662.14
679.775	666.35
680.183	679.56
680.592	685.62
681	693.18
681.408	690.1
681.816	698.63
682.224	708.2
682.632	720.59
683.04	750.81
683.448	778.28
683.856	809.48
684.264	847.91
684.671	880.71
685.079	921.9
685.487	967.7
685.894	1031.5
686.302	1085.9
686.709	1133.34
687.116	1189.28
687.524	1235.25
687.931	1274.8
688.338	1311.01
688.745	1341
689.152	1376.83
689.559	1424.36
689.966	1472.01
690.373	1496.87
690.78	1539.86
691.187	1603.38
691.593	1652.96
692	1697.7
692.407	1764.05
692.813	1842.92
693.22	1905.52
693.626	1970.6
694.032	2023.54
694.439	2101.24
694.845	2161.41
695.251	2238.58
695.657	2309.02
696.063	2411.56
696.469	2485.84
696.875	2554.58
697.281	2594.33
697.687	2643.41
698.093	2682.04
698.498	2758.76
698.904	2819.73
699.31	2910.33
699.715	2977.78
700.12	3072.08
700.526	3088.26
700.931	3159.76
701.337	3213.61
701.742	3246.52
702.147	3333.88
702.552	3364.32
702.957	3427.16
703.362	3445.78
703.767	3475.14
704.172	3514.77
704.577	3463.9
704.981	3510.97
705.386	3527.49
705.791	3517.74
706.195	3594.6
706.6	3602.32
707.004	3683.91
707.408	3647.24
707.813	3673.93
708.217	3656.81
708.621	3654.96
709.025	3754.66
709.43	3754.44
709.834	3814.1
710.237	3882.63
710.641	3865.15
711.045	3886.51
711.449	3880.78
711.853	3911.55
712.256	3952.9
712.66	3993.01
713.064	4069.73
713.467	4111.59
713.87	4228.86
714.274	4275.61
714.677	4388.83
715.08	4554.18
715.484	4724.54
715.887	4929.04
716.29	5127.43
716.693	5338.99
717.096	5581.83
717.499	5710.66
717.901	5731.73
718.304	5754.51
718.707	5775.99
719.109	5667.59
719.512	5633.7
719.915	5492.35
720.317	5432.44
720.719	5476.96
721.122	5443.23
721.524	5388.56
721.926	5347.57
722.328	5448.4
722.731	5434.53
723.133	5460.51
723.535	5654.94
723.937	5670.11
724.338	5720.2
724.74	5761.51
725.142	5714.8
725.544	5711.85
725.945	5744.26
726.347	5735.78
726.748	5725.09
727.15	5738.27
727.551	5700.81
727.952	5667.57
728.354	5637.63
728.755	5634.49
729.156	5589.98
729.557	5557.1
729.958	5431.7
730.359	5366.9
730.76	5349.01
731.161	5286.74
731.562	5260.9
731.962	5263.21
732.363	5201.24
732.763	5136.21
733.164	5174.85
733.564	5103.49
733.965	5006.07
734.365	4969.94
734.766	4997.82
735.166	4956.49
735.566	4900.92
735.966	4872.48
736.366	4863.25
736.766	4800.52
737.166	4831.98
737.566	4787.55
737.966	4761.29
738.365	4798.92
738.765	4794.76
739.165	4720.57
739.564	4694.23
739.964	4739.81
740.363	4695.19
740.763	4692.07
741.162	4680.62
741.561	4647.48
741.96	4601.61
742.36	4621.88
742.759	4627.67
743.158	4663.64
743.557	4677.57
743.955	4717.87
744.354	4670.77
744.753	4726.34
745.152	4684.36
745.55	4738.4
745.949	4730.78
746.348	4732.87
746.746	4750.47
747.144	4711.8
747.543	4688.46
747.941	4736.41
748.339	4666.34
748.737	4660.05
749.136	4650.87
749.534	4717.76
749.932	4689.49
750.33	4712.37
750.727	4767.3
751.125	4742.99
751.523	4725.1
751.921	4772.05
752.318	4737.87
752.716	4797.57
753.113	4811.2
753.511	4837.04
753.908	4837.16
754.305	4820.52
754.703	4882.96
755.1	4943.4
755.497	5002.91
755.894	5193.35
756.291	5369.74
756.688	5702.97
757.085	6138.12
757.482	6754.56
757.878	7431.06
758.275	8038.99
758.672	8872.5
759.068	9555.46
759.465	10530.32
759.861	11784.5
760.258	13239.15
760.654	13996.65
761.05	13875.9
761.447	13242.56
761.843	12332.1
762.239	11381.02
762.635	10950.95
763.031	10544.56
763.427	9953.1
763.822	9329.29
764.218	8717.02
764.614	7922.98
765.01	7387.47
765.405	7043.43
765.801	6783.92
766.196	6452.51
766.592	6267.01
766.987	5953.82
767.382	5742.23
767.778	5653.88
768.173	5526.23
768.568	5454.07
768.963	5328.68
769.358	5348.41
769.753	5303.22
770.148	5219.29
770.542	5215.38
770.937	5181.76
771.332	5273.66
771.726	5290.88
772.121	5229.98
772.515	5282.46
772.91	5268.07
773.304	5339.7
773.699	5273.27
774.093	5324.76
774.487	5380.37
774.881	5420.54
775.275	5417.69
775.669	5376.84
776.063	5422.93
776.457	5458.71
776.851	5384.89
777.245	5374.61
777.638	5410.47
778.032	5524.2
778.425	5491.33
778.819	5535.05
779.212	5493.85
779.606	5455.02
779.999	5475.69
780.392	5460.13
780.786	5540.81
781.179	5562.03
781.572	5607.88
781.965	5616.59
782.358	5558.47
782.751	5611.58
783.143	5563.03
783.536	5637.57
783.929	5680.09
784.322	5793.33
784.714	5825.43
785.107	5819.85
785.499	5889.84
785.891	5870.14
786.284	5851.27
786.676	5999.24
787.068	5982.77
787.46	6034.9
787.852	6054.37
788.245	6139.51
788.636	6171.07
789.028	6239.24
789.42	6278.25
789.812	6289.89
790.204	6381.59
790.595	6483.56
790.987	6285.34
791.378	6305.79
791.77	6434.63
792.161	6573.06
792.553	6634.41
792.944	6524.33
793.335	6453.76
793.726	6529.72
794.117	6626.93
794.508	6767.49
794.899	6738.72
795.29	6880.65
795.681	6941.05
796.072	6799.74
796.463	6623.08
796.853	6633.52
797.244	6788.79
797.634	6824.34
798.025	6827.31
798.415	6836.05
798.806	6927.47
799.196	7015.2
799.586	7066.8
799.976	7034.3
800.366	7267.23
800.756	7500.26
801.146	7462.15
801.536	7495.27
801.926	7573.14
802.316	7602.1
802.706	7677.31
803.095	7556.58
803.485	7660.27
803.874	7706.19
804.264	7968.3
804.653	7945.95
805.043	8100.43
805.432	8208.48
805.821	8215.48
806.21	8238.71
806.599	8357.44
806.988	8408.44
807.377	8521.58
807.766	8653.89
808.155	8941.43
808.544	8674.45
808.933	8688.43
809.321	8666.19
809.71	8968.66
810.098	9129.13
810.487	9599.86
810.875	10088.12
811.264	10108.74
811.652	10407.71
812.04	10556.89
812.428	10721.98
812.816	11495.25
813.204	11917.18
813.592	12480.25
813.98	12822.37
814.368	12731.74
814.756	13223.15
815.144	13142.25
815.531	13628.05
815.919	13547.6
816.306	13864.58
816.694	13552.52
817.081	13614.98
817.469	13981.72
817.856	13973.81
818.243	14253.68
818.63	14653.45
819.017	14218.29
819.404	14290.25
819.791	14667.5
820.178	15293.66
820.565	15546.47
820.952	16503.24
821.339	16003.44
821.725	16184.81
822.112	15430.56
822.498	15388.4
822.885	15517.79
823.271	15438.01
823.657	15854.29
824.044	15861.4
824.43	15938.01
824.816	15915.16
825.202	15465.87
825.588	16502.09
825.974	16525.37
826.36	17058.32
826.746	17088.34
827.132	17448.33
827.517	17409.93
827.903	16617.94
828.289	16662.76
828.674	15865.27
829.06	15753.02
829.445	16154.57
829.83	16510.9
830.216	16983.24
830.601	17348.8
830.986	16934.87
831.371	16802.78
831.756	17368.58
832.141	16922.44
832.526	16905.48
832.911	17191.25
833.295	17071.68
833.68	17544.56
834.065	16909.9
834.449	15983.25
834.834	15897.96
835.218	15896.27
835.603	16233.94
835.987	16015.84
836.371	16858.98
836.755	16751.25
837.139	17145.98
837.524	17378.74
837.908	17195.79
838.291	17259.7
838.675	17315.94
839.059	17524.91
839.443	17506.62
839.827	17265.49
840.21	17738.53
840.594	17594.08
840.977	17803.21
841.361	17790.19
841.744	18167.27
842.127	18003.91
842.511	18242.55
842.894	18855.04
843.277	19241.11
843.66	19779.13
844.043	19877.6
844.426	19078.21
844.809	18752.28
845.191	18782.78
845.574	18310.32
845.957	17944.35
846.339	17836.58
846.722	17306.02
847.104	17358.48
847.487	17188.3
847.869	17202.75
848.252	17469.42
848.634	17788.39
849.016	18057.72
849.398	18174.17
849.78	19030.25
850.162	19028.55
850.544	19437.19
850.926	20065.96
851.307	19987.98
851.689	20266.41
852.071	20723.69
852.452	21042.1
852.834	21024.2
853.215	21419.92
853.597	21576.26
853.978	21867.38
854.359	22320.63
854.741	21336.74
855.122	21236.69
855.503	20948.85
855.884	21078.11
856.265	21011.8
856.646	21128.63
857.026	20736.78
857.407	20673.48
857.788	20831.99
858.169	21120.38
858.549	20282.73
858.93	20901.35
859.31	20952.85
859.69	21166.8
860.071	20763.5
860.451	20552.29
860.831	19820.35
861.211	20984.63
861.591	21532.36
861.971	21501.09
862.351	21695.48
862.731	22092.23
863.111	22362.74
863.491	22693.94
863.87	23564.82
864.25	23919.66
864.629	23520.68
865.009	24026.85
865.388	24888.07
865.768	26666.08
866.147	26574.06
866.526	25110.47
866.905	25392.3
867.284	26809.19
867.663	25450.9
868.042	24395.62
868.421	24313.55
868.8	24711.11
869.179	24962.76
869.558	23503.57
869.936	21671.08
870.315	22048
870.693	22585.46
871.072	24354.27
871.45	23202.93
871.828	23507.33
872.207	24713.33
872.585	24327.79
872.963	24986.38
873.341	24111.88
873.719	23828.75
874.097	23534.31
874.475	23985.61
874.853	24526.26
875.23	23511.15
875.608	24491.77
875.986	26485.63
876.363	25324.82
876.741	26119.81
877.118	25468.11
877.495	26734.05
877.873	27168.84
878.25	28599.03
878.627	27426.02
879.004	27807.87
879.381	27661.82
879.758	26931.95
880.135	25073.27
880.512	26520.16
880.889	25789.53
881.265	25514.05
881.642	25280.14
882.019	25701.5
882.395	25175.83
882.772	26186.04
883.148	25050.38
883.524	24960.21
883.901	24813.66
884.277	25191.83
884.653	25026.93
885.029	25753.92
885.405	28527.71
885.781	28314.8
886.157	27150.46
886.532	27471.26
886.908	27449.13
887.284	30515.43
887.659	31499.31
888.035	32472.8
888.411	33295.32
888.786	33728.33
889.161	34892.56
889.537	34233.45
889.912	35325.3
890.287	35286.74
890.662	36189.04
891.037	35521.24
891.412	33114.68
891.787	32777.04
892.162	31630.64
892.536	32360.24
892.911	31144.38
893.286	30476.41
893.66	29233.85
894.035	29974.33
894.409	32622.81
894.784	31309.74
895.158	31831.61
895.532	33713.47
895.906	34632.15
896.281	35449.67
896.655	34879.54
897.029	39846.15
897.402	41500.96
897.776	46201.96
898.15	46028.35
898.524	45539.33
898.898	46130.1
899.271	51630.07
899.645	44724.3
900.018	42953.14
900.392	44520.28
900.765	44893.85
901.138	41535.49
901.511	40880.97
901.884	37541.96
902.258	34630.3
902.631	35797.87
903.003	41205.83
903.376	37194.66
903.749	41696
904.122	44618.42
904.495	49123.4
904.867	49735.85
905.24	43195.74
905.612	40231.91
905.985	41144.84
906.357	43005.01
906.729	41009.32
907.102	35034.09
907.474	33669.43
907.846	33885.16
908.218	33443.56
908.59	29565.46
908.962	28602.46
909.334	30799.51
909.705	32349.67
910.077	31400.83
910.449	32685.78
910.82	33626.39
911.192	36988.8
911.563	38439.4
911.935	41150.85
912.306	41198.58
912.677	42532.64
913.048	42094.42
913.419	45660.26
913.79	45923.37
914.161	49231.96
914.532	47078.65
914.903	43267.68
915.274	41105.71
915.645	40512.03
916.015	35643.71
916.386	33994.99
916.756	36187.17
917.127	37319.28
917.497	33340.16
917.868	36287.8
918.238	34499.55
918.608	35500.56
918.978	36227.67
919.348	38367.84
919.718	39640.92
920.088	38187.88
920.458	39664.8
920.828	41718.8
921.198	39568.04
921.567	42282.21
921.937	32745.07
922.306	33056.45
922.676	35655.35
923.045	29745.13
923.415	28257.32
923.784	25744.36
924.153	26490.39
924.522	26482.67
924.891	24899.92
925.26	26669.36
925.629	26035.04
925.998	29922.11
926.367	29211.99
926.736	27796.2
927.104	33097.74
927.473	35574.16
927.842	42952.11
928.21	42483.14
928.578	44666.62
928.947	42243
929.315	42520.2
929.683	49881.86
930.051	50295.16
930.42	58413.98
930.788	49936.39
931.156	49558.48
931.523	46466.96
931.891	42968
932.259	41287.16
932.627	47819.68
932.994	67695.58
933.362	55932.66
933.729	48583.94
934.097	46502.48
934.464	39329.58
934.831	45393.3
935.199	44759.99
935.566	43370.53
935.933	43839.96
936.3	53092.59
936.667	41317.63
937.034	37284.67
937.401	36846.94
937.767	31764.34
938.134	28263.24
938.501	39829.55
938.867	42447.12
939.234	71795.04
939.6	61304.38
939.967	67689.58
940.333	45327.86
940.699	38585.78
941.065	30929.81
941.431	40600.3
941.798	39150
942.163	51461.88
942.529	32182.92
942.895	29615.08
943.261	19143.92
943.627	25121.64
943.992	22001.98
944.358	22024.47
944.723	22118.2
945.089	21566.94
945.454	19923.73
945.82	21295.28
946.185	20443
946.55	23694.06
946.915	21254.72
947.28	24961.03
947.645	21980.93
948.01	20280.8
948.375	21148.68
948.74	25337.65
949.104	29534.41
949.469	42618.78
949.834	75268.47
950.198	71414.29
950.562	42792.85
950.927	35628.18
951.291	42827.73
951.655	36451.26
952.02	34230.85
952.384	25904.86
952.748	22551.23
953.112	22006.68
953.476	19121.42
953.839	17681.08
954.203	17498.39
954.567	21881.18
954.931	34437.82
955.294	29449.6
955.658	29624.35
956.021	50374.06
956.385	85404
956.748	126013.12
957.111	195296.37
957.474	219347.08
957.837	246902.3
958.2	186699.25
958.563	67195.19
958.926	45454.76
959.289	69013.57
959.652	77019.43
960.015	57755.91
960.377	82829.51
960.74	94527.68
961.102	163125.61
961.465	175232.05
961.827	94134.08
962.189	180720.57
962.552	125082.82
962.914	100345.34
963.276	65080.54
963.638	53838.18
964	53330.57
964.362	36021.73
964.724	34767.48
965.085	24817.43
965.447	20335.83
965.809	23098.52
966.17	23113.56
966.532	25045.46
966.893	22967.63
967.255	20893
967.616	24643.69
967.977	19709.48
968.338	21531.59
968.699	17724.16
969.061	17719.85
969.421	17832.23
969.782	20011.61
970.143	16905.24
970.504	17516.52
970.865	19927.9
971.225	20373.21
971.586	19925.21
971.946	28404.23
972.307	24646.23
972.667	32210.73
973.027	33142.65
973.388	40186.67
973.748	27334.88
974.108	29801.22
974.468	40255.21
974.828	31054.56
975.188	23902.24
975.548	21976.12
975.907	18462.45
976.267	20707.26
976.627	17401.46
976.986	18040.47
977.346	17181.15
977.705	16528.68
978.064	15026.89
978.424	12515.73
978.783	12922.09
979.142	14740.21
979.501	14095.7
979.86	14908.92
980.219	14376.75
980.578	18542.09
980.937	20763.92
981.296	18507.08
981.654	19043.04
982.013	29639.8
982.371	38468.11
982.73	35914.08
983.088	40681.38
983.447	43464.58
983.805	62037.95
984.163	129533.65
984.521	143687.95
984.879	210578.59
985.237	-342942.84
985.595	330821.63
985.953	82190.35
986.311	47409.8
986.669	27525.12
987.026	23731.46
987.384	31905.47
987.741	33024.93
988.099	23625.39
988.456	18803.46
988.814	17625.97
989.171	15307.43
989.528	15073.06
989.885	15912.5
990.242	12600.45
990.599	15686.74
990.956	12845.74
991.313	8988.41
991.67	7382.45
992.027	7837.96
992.383	6977.59
992.74	6118.85
993.096	6429.51
993.453	6661.85
993.809	6908.25
994.165	9209.13
994.522	8460.51
994.878	9334.4
995.234	11686.02
995.59	11497.65
995.946	10863.59
996.302	12361.82
996.658	14268.81
997.013	15717.84
997.369	18685.08
997.725	23986.05
998.08	15515.55
998.436	23845.12
998.791	32876.78
999.147	32878.7
999.502	35944.76
999.857	26108.06
1000.212	42700.76
1000.567	60882.87
1000.922	35075.15
1001.277	22272.2
1001.632	16450.22
1001.987	21145.91
1002.342	15168.77
1002.696	12109.56
1003.051	9660.03
1003.406	11695.67
1003.76	11628.69
1004.114	11449.09
1004.469	9610.78
1004.823	7968.33
1005.177	8604.24
1005.531	6831.73
1005.885	6076.08
1006.239	6864.64
1006.593	8631.02
1006.947	11535.91
1007.301	8645.35
1007.655	9443.53
1008.008	6929.95
1008.362	7787.99
1008.715	11120.49
1009.069	10070.28
1009.422	15178.45
1009.776	30441.52
1010.129	20198.09
1010.482	16800.99
1010.835	14233.46
1011.188	29579.11
1011.541	27844.81
1011.894	-169847.26
1012.247	500325.17
1012.6	33974.07
1012.952	21511.23
1013.305	11053.41
1013.657	7992.61
1014.01	7592.54
1014.362	6268.67
1014.715	5577.73
1015.067	4855.39
1015.419	4724.19
1015.771	4189.9
1016.123	3717.57
1016.475	3817.34
1016.827	4052.75
1017.179	4360.96
1017.531	4379.22
1017.883	4449.24
1018.234	4329.36
1018.586	5458.73
1018.938	5834.76
1019.289	8073.87
1019.64	9220.26
1019.992	8600.14
1020.343	7876.45
1020.694	6249.72
1021.045	5520.37
1021.396	6304.15
1021.747	6790.62
1022.098	8093.8
1022.449	5886.93
1022.8	5427.27
1023.151	3786.15
1023.501	3385.04
1023.852	3689.99
1024.202	3833.9
1024.553	4200.98
1024.903	4112.41
1025.253	3544.9
1025.604	3186.67
1025.954	3947.58
1026.304	4797.51
1026.654	5596.92
1027.004	8233.78
1027.354	13219.26
1027.703	12426.1
1028.053	16246.22
1028.403	24009.13
1028.753	34794.33
1029.102	46795.22
1029.452	239320.44
1029.801	10325.83
1030.15	6667.12
1030.499	5639.74
897.758	3315.05
901.051	3305.24
904.343	3338.71
907.636	3331.01
910.928	3402.33
914.22	3301.01
917.511	3313.38
920.803	3403.58
924.094	3452.41
927.384	3397.84
930.675	3365.11
933.965	3305.07
937.255	3292.63
940.544	3260.24
943.834	3107.75
947.123	3065.46
950.411	3172.63
953.7	3136.59
956.988	3078.56
960.276	3024.33
963.563	3152.1
966.851	3126.02
970.138	3206.92
973.424	3182.33
976.711	3132.32
979.997	3395.89
983.283	3410.26
986.568	3278.66
989.853	3326.18
993.138	3358.28
996.423	3441.98
999.708	3348.89
1002.992	3473.05
1006.275	3192.65
1009.559	3305.12
1012.842	3444.59
1016.125	3347.55
1019.408	3323.18
1022.69	3452.08
1025.972	3454.87
1029.254	3422.27
1032.536	3311.48
1035.817	3358.8
1039.098	3256.08
1042.379	3531.94
1045.659	3479.24
1048.939	3388.7
1052.219	3430.28
1055.498	3461.69
1058.778	3431.8
1062.057	3423.25
1065.335	3440.8
1068.614	3474.12
1071.892	3436.6
1075.17	3544.2
1078.447	3516.05
1081.724	3501.08
1085.001	3555.44
1088.278	3516.53
1091.554	3541.99
1094.83	3538.87
1098.106	3562.48
1101.382	3626.59
1104.657	3627.65
1107.932	3623.56
1111.206	3566.81
1114.481	3527.67
1117.755	3536.81
1121.029	3495.63
1124.302	3544.97
1127.575	3471.79
1130.848	3446.81
1134.121	3396.94
1137.393	3328.89
1140.665	3409.27
1143.937	3389.55
1147.208	3287.79
1150.48	3312.55
1153.75	3292.87
1157.021	3367.42
1160.291	3321.65
1163.561	3361.27
1166.831	3384.47
1170.101	3419.22
1173.37	3404.09
1176.639	3324.35
1179.907	3397.41
1183.176	3454.67
1186.444	3460.06
1189.711	3493.59
1192.979	3492.56
1196.246	3453.26
1199.513	3476.9
1202.78	3470.46
1206.046	3475.99
1209.312	3516.98
1212.578	3552.8
1215.843	3479.98
1219.108	3462.23
1222.373	3486.35
1225.638	3430.4
1228.902	3404.7
1232.166	3369.37
1235.43	3346.61
1238.693	3361.92
1241.956	3370.07
1245.219	3395.17
1248.482	3403.75
1251.744	3394.47
1255.006	3585.76
1258.268	3551.37
1261.529	3479.42
1264.79	3494.71
1268.051	3627.87
1271.312	3647.32
1274.572	3597.96
1277.832	3593.56
1281.092	3594.25
1284.351	3537.96
1287.61	3507.81
1290.869	3390
1294.128	3335.95
1297.386	3482.73
1300.644	3465.52
1303.902	3476.07
1307.159	3315.45
1310.416	3379.18
1313.673	3390.54
1316.93	3362.92
1320.186	3434.09
1323.442	3492.02
1326.697	3466.91
1329.953	3478.75
1333.208	3488.93
1336.463	3475.35
1339.717	3398.5
1342.972	3489.15
1346.226	3496.37
1349.479	3404.6
1352.733	3355.98
1355.986	3403.02
1359.238	3370.89
1362.491	3370.15
1365.743	3380.88
1368.995	3379.17
1372.247	3395.25
1375.498	3408.79
1378.749	3476.43
1382	3414.17
1385.251	3493.4
1388.501	3466.59
1391.751	3428.54
1395	3409.87
1398.25	3449.25
1401.499	3438.68
1404.748	3348.01
1407.996	3254.95
1411.244	3253.24
1414.492	3224.76
1417.74	3195.85
1420.987	3219.47
1424.234	3270.36
1427.481	3276.41
1430.728	3331.09
1433.974	3303.24
1437.22	3338.66
1440.465	3341.95
1443.711	3348.81
1446.956	3378.6
1450.201	3391.2
1453.445	3440.14
1456.689	3400.67
1459.933	3419.78
1463.177	3443.34
1466.42	3412.02
1469.663	3392.33
1472.906	3355.44
1476.148	3506.8
1479.391	3382.19
1482.633	3374.23
1485.874	3370.11
1489.115	3329.05
1492.356	3359.89
1495.597	3325.67
1498.838	3344.49
1502.078	3290.01
1505.318	3206.02
1508.557	3261.69
1511.797	3168.23
1515.036	3351.82
1518.274	3333.28
1521.513	3323.29
1524.751	3358.66
1527.989	3359.69
1531.227	3365.26
1534.464	3327.88
1537.701	3387.71
1540.938	3417.23
1544.174	3376.43
1547.41	3391.54
1550.646	3428.46
1553.882	3449.86
1557.117	3501.38
1560.352	3526.59
1563.587	3477.9
1566.821	3425.72
1570.055	3488.36
1573.289	3444.11
1576.523	3548.51
1579.756	3543.43
1582.989	3559.46
1586.222	3517.02
1589.454	3569.34
1592.686	3528.56
1595.918	3549.87
1599.15	3525.98
1602.381	3643.41
1605.612	3562
1608.843	3664.08
1612.073	3557.77
1615.303	3542.27
1618.533	3516.23
1621.762	3534.2
1624.992	3534.45
1628.221	3497.02
1631.449	3482.3
1634.678	3576.51
1637.906	3514.18
1641.134	3571.79
1644.361	3514.93
1647.588	3499.83
1650.815	3505.86
1654.042	3504.66
1657.269	3539.29
1660.495	3488.87
1663.72	3427.04
1666.946	3416.44
1670.171	3314.33
1673.396	3294.69
1676.621	3296.67
1679.845	3349.32
1683.069	3394.02
1686.293	3457.24
1689.517	3405.02
1692.74	3294.5
1695.963	3308.79
1699.185	3415.93
1702.408	3359.7
1705.63	3419.84
1708.852	3420.25
1712.073	3391.29
1715.294	3351.56
1718.515	3371.98
1721.736	3316.91
1724.956	3276.11
1728.176	3314.35
1731.396	3334.41
1734.616	3331.86
1737.835	3335.55
1741.054	3330.81
1744.272	3332.89
1747.491	3339.92
1750.709	3435.77
1753.927	3334.22
1757.144	3392.36
1760.361	3467.58
1763.578	3480.59
1766.795	3407.87
1770.011	3433.45
1773.227	3502.73
1776.443	3530.66
1779.658	3572.93
1782.874	3518.95
1786.089	3479.68
1789.303	3484.29
1792.518	3499
1795.732	3490.1
1798.945	3490.14
1802.159	3553.02
1805.372	3401.23
1808.585	3369.57
1811.797	3373.29
1815.01	3460.21
1818.222	3465.37
1821.434	3326.71
1824.645	3444.95
1827.856	3397.58
1831.067	3447.94
1834.278	3364.97
1837.488	3358.82
1840.698	3550.09
1843.908	3444.03
1847.117	3404.49
1850.326	3221.5
1853.535	3366.88
1856.744	3507.77
1859.952	3376.94
1863.16	3374.9
1866.368	3399.06
1869.575	3565.4
1872.782	3436.22
1875.989	3380.25
1879.196	3516.94
1882.402	3510.58
1885.608	3563.55
1888.814	3415.86
1892.019	3285.82
1895.224	3338.42
1898.429	3338.76
1901.634	3307.96
1904.838	3289.87
1908.042	3333.37
1911.246	3331.69
1914.449	3216.43
1917.652	3235.78
1920.855	3219.8
1924.058	3302.29
1927.26	3327.03
1930.462	3365.4
1933.664	3378.77
1936.865	3304.57
1940.066	3298.65
1943.267	3250.06
1946.467	3280.31
1949.668	3318.7
1952.868	3382.76
1956.067	3341.22
1959.267	3260.5
1962.466	3296.18
1965.665	3284.19
1968.863	3280.02
1972.061	3318.39
1975.259	3325.87
1978.457	3413
1981.654	3360.69
1984.852	3360.37
1988.048	3262.64
1991.245	3287.79
1994.441	3370.37
1997.637	3389.95
2000.833	3374.1
2004.028	3419.13
2007.223	3462.61
2010.418	3422.05
2013.613	3391.75
2016.807	3327.12
2020.001	3353.94
2023.194	3432.85
2026.388	3394.25
2029.581	3346.51
2032.774	3374.88
2035.966	3368.57
2039.158	3277.74
2042.35	3316.59
2045.542	3241.13
2048.733	3377.84
2051.924	3443.5
2055.115	3488.08
2058.306	3394.13
2061.496	3460.69
2064.686	3548.05
2067.875	3470.49
2071.065	3504.72
2074.254	3544.85
2077.442	3493.01
2080.631	3597.6
2083.819	3424.61
2087.007	3388.15
2090.195	3342.07
2093.382	3405.83
2096.569	3381.32
2099.756	3315.91
2102.942	3312.54
2106.128	3299.5
2109.314	3297.05
2112.5	3225.8
2115.685	3214.57
2118.87	3229.06
2122.055	3305.3
2125.239	3247.77
2128.424	3198.35
2131.608	3367.63
2134.791	3346.48
2137.974	3436.48
2141.157	3416.14
2144.34	3339.39
2147.523	3355.31
2150.705	3346.89
2153.887	3346.85
2157.068	3261.56
2160.25	3295.66
2163.431	3359.74
2166.611	3266.23
2169.792	3278.65
2172.972	3146.15
2176.152	3270.2
2179.331	3317.49
2182.511	3300.42
2185.69	3337.93
2188.868	3321.95
2192.047	3409.3
2195.225	3363.38
2198.403	3309.16
2201.58	3312.13
2204.758	3315.02
2207.935	3412.64
2211.111	3256.95
2214.288	3233.15
2217.464	3286.29
2220.64	3274.95
2223.815	3341.3
2226.991	3244.38
2230.166	3269.13
2233.34	3285.06
2236.515	3326.47
2239.689	3418.51
2242.863	3350.69
2246.036	3416.1
2249.209	3442.12
2252.382	3496.75
2255.555	3460.72
2258.727	3371.55
2261.9	3428.38
2265.071	3420.37
2268.243	3428.9
2271.414	3338.05
2274.585	3264.48
2277.756	3343.47
2280.926	3298.87
2284.096	3355.49
2287.266	3228.41
2290.436	3300.7
2293.605	3344.68
2296.774	3361.94
2299.942	3409.04
2303.111	3427.15
2306.279	3469.93
2309.447	3460.59
2312.614	3439.23
2315.781	3454.77
2318.948	3406.51
2322.115	3452.46
2325.281	3350.27
2328.447	3389.78
2331.613	3368.13
2334.779	3312.5
2337.944	3330.32
2341.109	3321.9
2344.274	3297.01
2347.438	3259.34
2350.602	3291.24
2353.766	3317.65
2356.929	3296.01
2360.092	3342.23
2363.255	3265.45
2366.418	3152.8
2369.58	3332.18
2372.742	2988.85
2375.904	3029.6
2379.066	2988.17
2382.227	3041.48
2385.388	2997.84
2388.548	2896.24
2391.709	2973.12
2394.869	2942.53
2398.029	3103.17
2401.188	3142.96
2404.347	3037.7
2407.506	3266.65
2410.665	3286.98
2413.823	3320.57
2416.981	3244.26
2420.139	3299.95
2423.296	3359.83
2426.453	3335.46
2429.61	3361.33
2432.767	3244.11
2435.923	3301.57
2439.079	3167.15
2442.235	3267.16
2445.391	3168.37
2448.546	3171.2
2451.701	3247.26
2454.855	3178.9
2458.009	3267.29
2461.163	3286.11
2464.317	3228.97
2467.471	3273.87
2470.624	3307.28
2473.777	3372.72
2476.929	3357.72
2480.082	3390.39
2483.234	3360.06
2486.385	3219.04
2489.537	3223.65
2492.688	3146.33
2495.839	3165.82
2498.989	3166.14
2502.14	3144.83
2505.29	3113.05
2508.439	3143.3
2511.589	3038.94
2514.738	3068.62
2517.887	3096.52
2521.035	3264.35
2524.183	3261.55
2527.331	3225.88
2530.479	3170.91
2533.627	3194.34
