Data from C_3_DIV_PA_2N_Splice17_13-16-06-620.txt Node
Date: Sat Mar 14 13:16:06 EDT 2020
User: sa697716
Spectrometer: FLMS03696
Trigger mode: 0
Integration Time (sec): 3.180400E-1
Scans to average: 20
Electric dark correction enabled: true
Nonlinearity correction enabled: true
Boxcar width: 5
XAxis mode: Wavelengths
Number of Pixels in Spectrum: 2048
>>>>>Begin Spectral Data<<<<<
187.83	-294624.86
188.298	2184.86
188.766	1223.38
189.233	1182.01
189.701	1601.84
190.169	2221.53
190.636	813.48
191.104	668.07
191.571	83.53
192.039	-98.39
192.506	-43.76
192.974	540.38
193.441	-702.6
193.908	-32.3
194.375	94.13
194.842	89.04
195.31	198.94
195.777	204.09
196.244	362.5
196.711	280.4
197.177	304
197.644	411.26
198.111	721.84
198.578	974.3
199.045	764.8
199.511	1199.98
199.978	1380.99
200.445	1172.28
200.911	1268.64
201.378	1370.77
201.844	1298.19
202.31	2211.6
202.777	2286.61
203.243	1262.38
203.709	1194.3
204.176	1423.14
204.642	1173.8
205.108	1104.99
205.574	894.01
206.04	786.34
206.506	730.41
206.972	673.96
207.438	639.09
207.903	716.91
208.369	646.54
208.835	656.89
209.301	703.05
209.766	710.51
210.232	708.56
210.697	870.85
211.163	1075.46
211.628	1609.91
212.094	1339.31
212.559	1744.95
213.024	1121.05
213.49	1372.01
213.955	1328.07
214.42	1242.95
214.885	1186.13
215.35	1128.78
215.815	1159.51
216.28	1246.03
216.745	1023.64
217.21	1132.39
217.675	1015.51
218.14	1148.22
218.604	1277.24
219.069	1465.84
219.534	1601.01
219.998	1858.17
220.463	2284.53
220.927	2784.87
221.392	2647.43
221.856	2723.09
222.32	3438.93
222.785	4285.56
223.249	5432.32
223.713	6129
224.177	6210.87
224.642	7982.09
225.106	9891.26
225.57	10852.26
226.034	8160.17
226.497	12541.64
226.961	11463.47
227.425	13480.21
227.889	15096.06
228.353	15167.43
228.816	31430.2
229.28	30225.18
229.744	25675.57
230.207	15730.44
230.671	15592.29
231.134	25897.4
231.597	30046.49
232.061	30056.29
232.524	29442.85
232.987	20375.84
233.45	18513.54
233.914	16726.38
234.377	17232.11
234.84	15840.58
235.303	18796.42
235.766	21097.49
236.229	21906.96
236.691	13870.68
237.154	15699.07
237.617	11883.17
238.08	12245.67
238.542	14372.77
239.005	10323.31
239.468	10281
239.93	9716.95
240.393	8868.18
240.855	7816.88
241.317	8030.86
241.78	9797.55
242.242	10169.24
242.704	11024.35
243.166	9614.53
243.629	8795.28
244.091	10183.94
244.553	11216.38
245.015	12118.8
245.477	15710.64
245.939	23094.51
246.4	24607.92
246.862	23976.1
247.324	22666.34
247.786	25460.12
248.247	33484.26
248.709	34582.97
249.17	25952.35
249.632	24604.67
250.093	28675.34
250.555	24877.78
251.016	15281.32
251.477	14562.84
251.939	15800.19
252.4	16663.24
252.861	19869.84
253.322	18598.4
253.783	22243.2
254.244	28955.16
254.705	22913.04
255.166	20427.67
255.627	20199.54
256.088	28559.81
256.549	30439.1
257.009	26264.19
257.47	31901.76
257.931	26056.68
258.391	19573.29
258.852	20241.56
259.312	21292.1
259.773	26367.42
260.233	22407
260.694	18988.77
261.154	21616.88
261.614	17464.68
262.074	15722.44
262.534	16445.89
262.994	15606.04
263.455	20903.29
263.915	17738.67
264.374	16785.88
264.834	18428.35
265.294	20530.42
265.754	21378.5
266.214	20383.48
266.673	19203.77
267.133	24342.19
267.593	24291.86
268.052	29886.34
268.512	26112.16
268.971	31642.37
269.431	34882.2
269.89	31395.77
270.349	47318.78
270.809	53028.39
271.268	47828.83
271.727	107622.01
272.186	70071.58
272.645	52735.14
273.104	38195.4
273.563	55530.04
274.022	43816.33
274.481	37472.36
274.94	28959.83
275.399	21608.69
275.857	25280.42
276.316	34359.13
276.775	30733.77
277.233	30385.12
277.692	28576.7
278.15	32486.45
278.609	33591.57
279.067	31203.86
279.525	29101.34
279.984	37760.13
280.442	45541.79
280.9	45012.1
281.358	29697.68
281.816	27747.57
282.274	27215.84
282.732	28208.49
283.19	28403.64
283.648	24590.12
284.106	26276.36
284.564	26795.77
285.021	24913.75
285.479	18613.66
285.937	16971.36
286.394	14921.33
286.852	15402.86
287.309	16267.56
287.767	15792.84
288.224	15112.34
288.682	16665.09
289.139	18405.61
289.596	16951.08
290.053	17762.85
290.511	22567.23
290.968	27601.28
291.425	37793.01
291.882	31713.55
292.339	27810.67
292.796	27776.13
293.252	26281.18
293.709	20998.9
294.166	18896.61
294.623	20975.43
295.079	20193.72
295.536	20364.13
295.992	18536.26
296.449	18393.88
296.905	19180.22
297.362	18442.12
297.818	19438.07
298.274	20230.53
298.731	20675.87
299.187	20541.85
299.643	22109.42
300.099	26808.67
300.555	29499.28
301.011	24751.57
301.467	23894.77
301.923	28021.31
302.379	27466.99
302.835	27057.18
303.291	27149.35
303.746	30973.21
304.202	39188.98
304.658	39452.59
305.113	26606.3
305.569	26117.57
306.024	27872.47
306.479	26641.71
306.935	22513.99
307.39	24610.25
307.845	22761.69
308.301	22954.69
308.756	22386.56
309.211	21602.96
309.666	22151.53
310.121	27534.16
310.576	27975.99
311.031	27823.53
311.486	31882.61
311.94	31908.89
312.395	42766.74
312.85	80543.51
313.305	396560.82
313.759	2058802.48
314.214	149530.32
314.668	118795.42
315.123	100093.65
315.577	36013.51
316.032	32090.51
316.486	40354.56
316.94	31931.32
317.394	22295.08
317.849	17422.63
318.303	16581.56
318.757	15691.76
319.211	17445.03
319.665	15335.85
320.119	15606.44
320.572	22474.62
321.026	21085.21
321.48	17601.56
321.934	19271.31
322.387	19386.32
322.841	20975.56
323.295	18889.36
323.748	21851.63
324.202	22188.93
324.655	26719.68
325.108	37366.04
325.562	26416.35
326.015	31490.07
326.468	23856.81
326.921	26699.19
327.374	24913.33
327.827	25954.23
328.28	29407.91
328.733	19721.16
329.186	17391.5
329.639	16599.38
330.092	14019.22
330.545	13376.13
330.997	13498.62
331.45	14771.9
331.903	17362.39
332.355	29913.15
332.808	29110.26
333.26	24038.45
333.713	26116.83
334.165	26293.42
334.617	35117.97
335.069	28445.72
335.522	51425
335.974	56924.87
336.426	52046.05
336.878	36069.51
337.33	18313.52
337.782	17924.41
338.234	22501.93
338.686	26966.54
339.137	32012.93
339.589	30231.9
340.041	23713.5
340.493	20489.73
340.944	21064.22
341.396	22747.28
341.847	19187.36
342.299	22720.07
342.75	27828.17
343.201	24400.78
343.653	28189.26
344.104	34831.94
344.555	27530.88
345.006	43090.24
345.457	33089.87
345.908	26385.87
346.359	24888.47
346.81	20313.23
347.261	21510.47
347.712	21220.77
348.163	22821.06
348.613	23113.02
349.064	21603
349.515	18948.67
349.965	19421.23
350.416	23431.68
350.866	25763.01
351.317	29194.8
351.767	48397.78
352.217	61133.45
352.668	50842.02
353.118	46616.86
353.568	45036.78
354.018	35631.22
354.468	37574.05
354.918	27018.85
355.368	23668.19
355.818	33446.86
356.268	96458.39
356.718	404581.16
357.168	100656.15
357.617	50556.13
358.067	56325.47
358.517	52836.87
358.966	62038.43
359.416	69708.37
359.865	75478.5
360.315	89984.54
360.764	42102.52
361.213	23640.14
361.663	22447.09
362.112	27823.55
362.561	45043.06
363.01	34086.28
363.459	28777.29
363.908	31258.62
364.357	26612.07
364.806	44983.58
365.255	30986.46
365.703	28443.85
366.152	28520.26
366.601	23158.09
367.05	18807.94
367.498	17123.14
367.947	17900.12
368.395	18662.35
368.844	16529.94
369.292	19980.98
369.74	13846.92
370.189	21275.61
370.637	24981.39
371.085	21603.34
371.533	26396.84
371.981	25564.68
372.429	24434.28
372.877	25532.71
373.325	21417.03
373.773	21928.36
374.221	19586.06
374.669	24371.73
375.116	21127.87
375.564	21369.94
376.012	23961.55
376.459	19776.94
376.907	23654.17
377.354	28636.9
377.801	26750.67
378.249	30777.21
378.696	39377.2
379.143	47777.93
379.591	51036.63
380.038	86530.4
380.485	62617.75
380.932	67711.86
381.379	62050.51
381.826	45749.45
382.273	32585.03
382.72	28552.29
383.166	27920.05
383.613	18137.46
384.06	16392.43
384.506	19005.08
384.953	13966.54
385.4	14098.52
385.846	12372.47
386.292	12096.71
386.739	11832
387.185	11725.61
387.631	11731.47
388.078	11359.19
388.524	12148.25
388.97	11200.41
389.416	9333
389.862	9937.88
390.308	9398.48
390.754	9524.91
391.2	10311.16
391.645	10551.44
392.091	10052.89
392.537	9686.3
392.983	9701.6
393.428	9503.13
393.874	10168.54
394.319	10164.54
394.765	9591.72
395.21	9842.96
395.655	9211.7
396.101	8616.14
396.546	7768.58
396.991	7827.94
397.436	7262.8
397.881	6999.97
398.326	6628.54
398.771	6259.57
399.216	5466.92
399.661	4915.56
400.106	4885.66
400.551	4988.77
400.995	4465.5
401.44	4412.25
401.885	4148.3
402.329	4190.2
402.774	4008.06
403.218	3869.32
403.663	3717.33
404.107	3810.66
404.551	3828.57
404.995	3504.04
405.44	3375.07
405.884	3419.94
406.328	3301.82
406.772	3283.74
407.216	2981.74
407.66	2881.79
408.104	2733.62
408.547	2554.79
408.991	2470.65
409.435	2374.86
409.879	2338.72
410.322	2299.52
410.766	2212.65
411.209	2098.3
411.653	2008
412.096	1961.54
412.54	1956.43
412.983	1937.98
413.426	1939.07
413.869	1933.27
414.312	1890.77
414.756	1814.82
415.199	1728.83
415.642	1676.57
416.085	1677.5
416.527	1662.89
416.97	1689.42
417.413	1603.46
417.856	1591.57
418.298	1579.7
418.741	1571.61
419.184	1572.14
419.626	1642.43
420.069	1644.07
420.511	1654.04
420.953	1619.09
421.396	1609.17
421.838	1570.21
422.28	1605.58
422.722	1611.79
423.164	1632.79
423.606	1605.55
424.048	1603.22
424.49	1526.31
424.932	1521.82
425.374	1501.21
425.816	1530.62
426.258	1561.89
426.699	1583.42
427.141	1565.09
427.582	1590.36
428.024	1581.97
428.465	1572.53
428.907	1531.78
429.348	1508.14
429.789	1505.18
430.231	1472.79
430.672	1490.07
431.113	1449.43
431.554	1422.48
431.995	1379.24
432.436	1324.47
432.877	1290.68
433.318	1263.58
433.759	1256.16
434.2	1256.3
434.64	1238.14
435.081	1238.94
435.522	1168.95
435.962	1122.45
436.403	1092.31
436.843	1104.54
437.284	1077.3
437.724	1048.04
438.164	1050.28
438.604	1023.83
439.045	983.33
439.485	943.3
439.925	923.49
440.365	900
440.805	888.44
441.245	877.84
441.685	846.53
442.125	841.79
442.564	844.08
443.004	822.48
443.444	819.7
443.883	818.93
444.323	811.16
444.762	809
445.202	819
445.641	832.67
446.081	825.95
446.52	829.4
446.959	817.74
447.398	796.39
447.837	785.59
448.276	769.25
448.716	773.51
449.154	777.14
449.593	758.51
450.032	752.35
450.471	735.42
450.91	733.84
451.349	730.18
451.787	727.31
452.226	737.71
452.664	737.45
453.103	739.25
453.541	738.99
453.98	739.08
454.418	743.84
454.856	732.1
455.295	729.61
455.733	735.61
456.171	741.14
456.609	740.24
457.047	741.73
457.485	753.5
457.923	754.31
458.361	743.87
458.798	745.75
459.236	743.43
459.674	749.26
460.111	754.22
460.549	747.18
460.987	744.59
461.424	744.13
461.862	739.09
462.299	726.07
462.736	725.7
463.173	726.64
463.611	718.21
464.048	716.69
464.485	721.89
464.922	715.09
465.359	711.12
465.796	702.61
466.233	697.42
466.67	691.11
467.106	690.1
467.543	683.34
467.98	676.99
468.416	660.5
468.853	655.73
469.29	637.73
469.726	630.56
470.162	615.2
470.599	607.92
471.035	602.61
471.471	590.8
471.907	588.99
472.344	586.28
472.78	587.99
473.216	595.95
473.652	589.79
474.088	588.32
474.523	588.01
474.959	593.42
475.395	588.18
475.831	586.14
476.266	588.92
476.702	588.03
477.138	583.22
477.573	581.47
478.008	580.54
478.444	584.09
478.879	591.49
479.314	594.88
479.75	596.3
480.185	600.11
480.62	606.67
481.055	611.31
481.49	616.13
481.925	624.52
482.36	637.08
482.795	655.06
483.229	673.35
483.664	686.02
484.099	689.53
484.534	699.73
484.968	706.58
485.403	708.98
485.837	707.78
486.271	707.13
486.706	708.27
487.14	699.94
487.574	689.33
488.009	682.84
488.443	677.18
488.877	683.15
489.311	684.83
489.745	691.78
490.179	696.28
490.613	707.26
491.046	710.62
491.48	713.67
491.914	712.28
492.348	714.4
492.781	715.16
493.215	714.05
493.648	712.09
494.082	714.06
494.515	710.86
494.948	715.15
495.382	714.87
495.815	715.36
496.248	717.06
496.681	725.02
497.114	731.16
497.547	735.81
497.98	743.37
498.413	743.1
498.846	746.76
499.279	747.99
499.711	744.38
500.144	740.2
500.577	742.35
501.009	744.74
501.442	745.89
501.874	739.14
502.306	733.44
502.739	732.21
503.171	736.44
503.603	730.41
504.036	729.87
504.468	726.22
504.9	727.04
505.332	723.44
505.764	717.38
506.196	712.29
506.627	714.4
507.059	713.96
507.491	708.76
507.923	697.86
508.354	697.93
508.786	694.96
509.217	697.43
509.649	696.58
510.08	698.74
510.512	699.73
510.943	699.93
511.374	696.03
511.805	698.87
512.237	699.52
512.668	707.68
513.099	712.82
513.53	717.73
513.961	717.05
514.391	724.02
514.822	732.38
515.253	740.49
515.684	742.41
516.114	747.4
516.545	747.85
516.975	750.58
517.406	749.22
517.836	739.31
518.267	732.88
518.697	733.72
519.127	726.77
519.558	718.74
519.988	710.87
520.418	706.47
520.848	704.78
521.278	699.48
521.708	725
522.138	724.08
522.567	731.01
522.997	735.49
523.427	733.18
523.857	733.68
524.286	732.47
524.716	732.97
525.145	736.1
525.575	736.27
526.004	736.97
526.433	703.35
526.863	698.23
527.292	691.38
527.721	690.09
528.15	691.31
528.579	688.68
529.008	690.72
529.437	696.43
529.866	699.66
530.295	704.05
530.724	708.33
531.152	717.61
531.581	721.7
532.01	726.63
532.438	727.43
532.867	731.05
533.295	737.83
533.723	739.78
534.152	740.04
534.58	739.52
535.008	733.35
535.436	734.48
535.865	737.57
536.293	743
536.721	749.89
537.149	760.77
537.576	762.76
538.004	767.97
538.432	770.78
538.86	770.19
539.287	773.39
539.715	779.99
540.143	781.12
540.57	780.42
540.998	780.14
541.425	772.91
541.852	766.16
542.28	766.11
542.707	761.01
543.134	757.31
543.561	757.77
543.988	756.62
544.415	757.44
544.842	756.31
545.269	754.82
545.696	757.7
546.123	764.73
546.549	762.08
546.976	759.16
547.403	760.37
547.829	762.51
548.256	763.89
548.682	763.95
549.108	763.11
549.535	764.55
549.961	767.6
550.387	764.05
550.813	763.56
551.24	768.08
551.666	770.49
552.092	768.08
552.518	767.35
552.943	768.18
553.369	772.91
553.795	777.43
554.221	780.74
554.646	781.92
555.072	789.91
555.498	793.48
555.923	799.29
556.349	808.65
556.774	815.38
557.199	818.72
557.625	823.06
558.05	824.06
558.475	831.65
558.9	835.16
559.325	834.47
559.75	834.19
560.175	835.23
560.6	836.45
561.025	838.28
561.449	842.99
561.874	849.03
562.299	855.46
562.723	862.51
563.148	861.36
563.572	866.94
563.997	875.82
564.421	882.9
564.846	887.43
565.27	893.74
565.694	897.41
566.118	908.15
566.542	917.33
566.966	920.44
567.39	923.99
567.814	924.88
568.238	929.9
568.662	937.99
569.086	944.76
569.509	954.08
569.933	954.25
570.357	956.02
570.78	950.89
571.204	951.1
571.627	950.12
572.05	954.99
572.474	960.56
572.897	959.98
573.32	962.51
573.743	963.04
574.166	959.74
574.589	964.23
575.012	966.31
575.435	970.76
575.858	971.63
576.281	971.43
576.704	967.88
577.126	966.08
577.549	964.65
577.972	963.55
578.394	963.33
578.817	964.85
579.239	958.61
579.661	955.79
580.084	952.37
580.506	948.13
580.928	950.29
581.35	948.83
581.772	950.47
582.194	946.89
582.616	943.95
583.038	938.29
583.46	934.54
583.882	936.15
584.303	941.76
584.725	942.04
585.147	949.41
585.568	958.99
585.99	968.38
586.411	975.39
586.833	987.22
587.254	989.79
587.675	1001.3
588.096	1011.17
588.518	1009.74
588.939	1001.16
589.36	1002.2
589.781	994.36
590.202	979.61
590.623	976.82
591.043	977.71
591.464	971.28
591.885	971.04
592.305	969.25
592.726	961.91
593.147	965.04
593.567	964.08
593.987	959.84
594.408	958
594.828	956.87
595.248	954.93
595.669	944.76
596.089	941.72
596.509	937.27
596.929	928.87
597.349	930.67
597.769	924.57
598.189	921.33
598.608	922.78
599.028	925.89
599.448	927.11
599.867	919.06
600.287	916.83
600.706	914.92
601.126	911.87
601.545	913.25
601.965	914.2
602.384	912.1
602.803	914.93
603.222	915.01
603.641	911.08
604.061	910.78
604.48	909.16
604.898	915.95
605.317	921.33
605.736	923.27
606.155	924
606.574	919.57
606.992	925.29
607.411	924.43
607.829	919.92
608.248	920.55
608.666	920.97
609.085	924.63
609.503	922.18
609.921	921.07
610.339	926.41
610.758	928.53
611.176	928.86
611.594	926.61
612.012	927.85
612.43	934.51
612.847	942.92
613.265	948.58
613.683	955.16
614.101	960.77
614.518	961.96
614.936	958.73
615.353	952.42
615.771	953.72
616.188	957.69
616.606	959.53
617.023	958.05
617.44	950.99
617.857	947.86
618.274	944.87
618.691	943.92
619.108	940.07
619.525	938.62
619.942	946.82
620.359	951.86
620.776	950.39
621.192	949.93
621.609	949.98
622.026	957.32
622.442	964.35
622.859	967.83
623.275	962.75
623.691	967.92
624.108	977.2
624.524	988.79
624.94	989.52
625.356	998.05
625.772	1007.99
626.188	1017.75
626.604	1019.03
627.02	1016.38
627.436	1016.29
627.852	1022.88
628.268	1033.52
628.683	1027.09
629.099	1020.38
629.514	1017.5
629.93	1021.76
630.345	1027.27
630.761	1026.83
631.176	1032.87
631.591	1031.2
632.007	1029.62
632.422	1030.45
632.837	1024.42
633.252	1026.96
633.667	1024.54
634.082	1022.16
634.497	1016.84
634.911	1007.96
635.326	1009.5
635.741	1000.93
636.155	998.4
636.57	1005.75
636.984	1013.65
637.399	1024.09
637.813	1031.59
638.228	1038.97
638.642	1052.18
639.056	1053.86
639.47	1062.53
639.884	1067.21
640.298	1072.97
640.712	1083.12
641.126	1084.03
641.54	1087.44
641.954	1094.48
642.368	1096.37
642.781	1101.6
643.195	1096.68
643.609	1109.36
644.022	1116.02
644.436	1123.46
644.849	1124.04
645.262	1126.1
645.676	1140.71
646.089	1146.97
646.502	1142.8
646.915	1147.67
647.328	1140.67
647.741	1149.88
648.154	1145.71
648.567	1151.7
648.98	1145.67
649.393	1153.43
649.805	1156.65
650.218	1154.05
650.631	1142.86
651.043	1141.38
651.456	1140.76
651.868	1146.16
652.28	1169.68
652.693	1189.93
653.105	1202.6
653.517	1218.32
653.929	1222.86
654.341	1233.79
654.753	1224.47
655.165	1238.46
655.577	1241.92
655.989	1243.19
656.401	1240.91
656.813	1204.99
657.224	1188.08
657.636	1162.31
658.047	1150.24
658.459	1135.31
658.87	1132.92
659.282	1127.31
659.693	1110.76
660.104	1100.54
660.515	1091.76
660.926	1096.62
661.338	1101.6
661.749	1102.25
662.159	1097.62
662.57	1099.02
662.981	1100.71
663.392	1098.08
663.803	1111.76
664.213	1114.32
664.624	1115.23
665.035	1126.22
665.445	1114.93
665.855	1110.9
666.266	1104.75
666.676	1105.4
667.086	1096.61
667.497	1099.07
667.907	1094.05
668.317	1082.76
668.727	1078.95
669.137	1081.84
669.547	1078.58
669.956	1083.26
670.366	1086.51
670.776	1088.62
671.186	1096.19
671.595	1100.74
672.005	1105.89
672.414	1104.65
672.824	1100.51
673.233	1106.14
673.642	1107.78
674.052	1110.4
674.461	1111.04
674.87	1114.39
675.279	1107.86
675.688	1106.04
676.097	1103.92
676.506	1095.68
676.915	1110.84
677.323	1110.42
677.732	1103.68
678.141	1098.27
678.549	1078
678.958	1072.24
679.366	1066.72
679.775	1067.99
680.183	1076.06
680.592	1078.79
681	1079.24
681.408	1063.43
681.816	1067.55
682.224	1070.62
682.632	1075.09
683.04	1104.8
683.448	1125.06
683.856	1150.32
684.264	1179.54
684.671	1203.58
685.079	1232.83
685.487	1266.09
685.894	1315.88
686.302	1348.24
686.709	1367.69
687.116	1390.79
687.524	1400.63
687.931	1403.4
688.338	1397.96
688.745	1387.76
689.152	1377.98
689.559	1379.13
689.966	1377.36
690.373	1355.48
690.78	1349.87
691.187	1362.07
691.593	1359.06
692	1350.54
692.407	1356.43
692.813	1374.92
693.22	1378.19
693.626	1383.34
694.032	1379.03
694.439	1393.39
694.845	1395.15
695.251	1408.34
695.657	1415.95
696.063	1443.74
696.469	1456.02
696.875	1463.94
697.281	1453.71
697.687	1450.58
698.093	1443.87
698.498	1457.14
698.904	1459.37
699.31	1480.68
699.715	1490.04
700.12	1514.09
700.526	1500.68
700.931	1513.22
701.337	1519.74
701.742	1516.57
702.147	1538.91
702.552	1535.14
702.957	1545.42
703.362	1539.43
703.767	1536.54
704.172	1536.52
704.577	1498.81
704.981	1506.12
705.386	1500.13
705.791	1481.8
706.195	1499.35
706.6	1489.24
707.004	1509.54
707.408	1485.33
707.813	1486.44
708.217	1469.65
708.621	1461.23
709.025	1490.5
709.43	1480.28
709.834	1493.74
710.237	1512.47
710.641	1497.53
711.045	1498.32
711.449	1490.28
711.853	1495.94
712.256	1502.64
712.66	1508.74
713.064	1527.83
713.467	1535.41
713.87	1569.06
714.274	1578.04
714.677	1609.95
715.08	1661.5
715.484	1713.56
715.887	1776.81
716.29	1833.86
716.693	1896.07
717.096	1970.2
717.499	2008.19
717.901	2007.79
718.304	2008.94
718.707	2009.85
719.109	1966.58
719.512	1949.87
719.915	1898.63
720.317	1874.67
720.719	1885.99
721.122	1873.44
721.524	1853.46
721.926	1837.9
722.328	1868.02
722.731	1858.03
723.133	1864.25
723.535	1925.21
723.937	1924.55
724.338	1937.45
724.74	1947.3
725.142	1970.76
725.544	1968.5
725.945	1987.49
726.347	1978.09
726.748	1973.62
727.15	1977.07
727.551	1963.74
727.952	1948.39
728.354	1936.18
728.755	1934.13
729.156	1917.06
729.557	1863.19
729.958	1818.76
730.359	1787.86
730.76	1782.28
731.161	1762.4
731.562	1755.05
731.962	1753.2
732.363	1737.66
732.763	1717.49
733.164	1726.67
733.564	1703.51
733.965	1674.49
734.365	1662.53
734.766	1671.81
735.166	1657.47
735.566	1638.72
735.966	1628.04
736.366	1626.34
736.766	1602.13
737.166	1610.76
737.566	1598.5
737.966	1589.9
738.365	1602.22
738.765	1602.21
739.165	1577.01
739.564	1567.6
739.964	1580.74
740.363	1566.66
740.763	1564.42
741.162	1562.89
741.561	1552.56
741.96	1537.32
742.36	1542.57
742.759	1543.98
743.158	1553.89
743.557	1557.1
743.955	1571.57
744.354	1557.33
744.753	1574.2
745.152	1562.43
745.55	1579.03
745.949	1577.45
746.348	1578.24
746.746	1583.99
747.144	1573.26
747.543	1567
747.941	1582.66
748.339	1558.42
748.737	1556.7
749.136	1556.35
749.534	1575.87
749.932	1569.09
750.33	1577.61
750.727	1596.11
751.125	1590.27
751.523	1582.65
751.921	1602.08
752.318	1593.27
752.716	1615.91
753.113	1620.26
753.511	1628.84
753.908	1631.5
754.305	1629.98
754.703	1652.88
755.1	1674.84
755.497	1694.21
755.894	1758.67
756.291	1812.1
756.688	1915.89
757.085	2048.24
757.482	2238.13
757.878	2442.37
758.275	2619.3
758.672	2861.15
759.068	3057.99
759.465	3345.1
759.861	3716.81
760.258	4144.72
760.654	4358.52
761.05	4313.39
761.447	4120.39
761.843	3844.34
762.239	3560.9
762.635	3441.8
763.031	3324.99
763.427	3155.08
763.822	2973.87
764.218	2796.21
764.614	2558.08
765.01	2402.4
765.405	2304.24
765.801	2233.78
766.196	2137.45
766.592	2087.17
766.987	1996.51
767.382	1937.01
767.778	1914.24
768.173	1878
768.568	1859.1
768.963	1823.09
769.358	1832.71
769.753	1824.32
770.148	1800.8
770.542	1805.1
770.937	1796.88
771.332	1828.72
771.726	1837
772.121	1820.35
772.515	1839.51
772.91	1837.78
773.304	1864.83
773.699	1843.41
774.093	1860.64
774.487	1879.04
774.881	1895.31
775.275	1896.07
775.669	1881.12
776.063	1894.69
776.457	1905.89
776.851	1881.33
777.245	1876.6
777.638	1887.46
778.032	1926.64
778.425	1916.13
778.819	1935.62
779.212	1922.45
779.606	1910.72
779.999	1918.18
780.392	1918.31
780.786	1944.37
781.179	1950.56
781.572	1968.62
781.965	1974.31
782.358	1955.98
782.751	1972.98
783.143	1951.66
783.536	1973.9
783.929	1986.59
784.322	2027.84
784.714	2035.73
785.107	2034.32
785.499	2059.24
785.891	2049.86
786.284	2039.77
786.676	2085.24
787.068	2079.01
787.46	2093.98
787.852	2098.17
788.245	2124.91
788.636	2131.02
789.028	2154.34
789.42	2167.01
789.812	2168.39
790.204	2199.82
790.595	2235.17
790.987	2169.45
791.378	2176.52
791.77	2222.56
792.161	2268.27
792.553	2289.57
792.944	2250.48
793.335	2221.81
793.726	2246.79
794.117	2281.07
794.508	2325.8
794.899	2313.03
795.29	2358.31
795.681	2377.94
796.072	2327.41
796.463	2285.5
796.853	2288.83
797.244	2343.65
797.634	2353.7
798.025	2350.23
798.415	2350.16
798.806	2382.31
799.196	2412.03
799.586	2433.96
799.976	2421.35
800.366	2499.43
800.756	2555.51
801.146	2540.11
801.536	2547.78
801.926	2573.23
802.316	2585.49
802.706	2610.38
803.095	2569.11
803.485	2601.13
803.874	2611.11
804.264	2696.08
804.653	2687.24
805.043	2741.23
805.432	2778.35
805.821	2782.4
806.21	2791.02
806.599	2825.94
806.988	2837.75
807.377	2866.66
807.766	2908.51
808.155	2999.09
808.544	2905.98
808.933	2906.27
809.321	2893.1
809.71	2982.61
810.098	3029.7
810.487	3173.17
810.875	3325.82
811.264	3325.89
811.652	3429.84
812.04	3471.45
812.428	3516.21
812.816	3759.01
813.204	3886.16
813.592	4051.49
813.98	4152.17
814.368	4110.28
814.756	4262.83
815.144	4228.31
815.531	4374.6
815.919	4326.44
816.306	4418.06
816.694	4317.16
817.081	4332.28
817.469	4443.35
817.856	4444.34
818.243	4530.83
818.63	4657.59
819.017	4522.26
819.404	4545.77
819.791	4661.75
820.178	4853.22
820.565	4924.22
820.952	5228.75
821.339	5071.57
821.725	5130.28
822.112	4896.33
822.498	4880.29
822.885	4919.3
823.271	4887.38
823.657	5019.92
824.044	5027
824.43	5050.41
824.816	5049.86
825.202	4907.24
825.588	5225.35
825.974	5224.85
826.36	5384.58
826.746	5390.65
827.132	5497.68
827.517	5487.45
827.903	5228.65
828.289	5241.64
828.674	4994.54
829.06	4953.98
829.445	5068.26
829.83	5179.16
830.216	5328.94
830.601	5444.64
830.986	5321.61
831.371	5274.6
831.756	5448.05
832.141	5319.77
832.526	5312.46
832.911	5400.78
833.295	5360.78
833.68	5508.45
834.065	5315.75
834.449	5022.12
834.834	4995.51
835.218	4993.57
835.603	5104.27
835.987	5031.12
836.371	5285.14
836.755	5248.52
837.139	5372.78
837.524	5440.15
837.908	5375.8
838.291	5392.43
838.675	5411.26
839.059	5473.79
839.443	5462.25
839.827	5378.92
840.21	5523.46
840.594	5477.14
840.977	5542.79
841.361	5532.09
841.744	5649.56
842.127	5602.97
842.511	5670.62
842.894	5850.06
843.277	5964.08
843.66	6125.65
844.043	6150.77
844.426	5898.21
844.809	5793.2
845.191	5798.81
845.574	5651.66
845.957	5534.71
846.339	5503.4
846.722	5337.67
847.104	5358.22
847.487	5298.39
847.869	5304.14
848.252	5388.81
848.634	5488.56
849.016	5566.08
849.398	5596.96
849.78	5857.8
850.162	5861.56
850.544	5981.44
850.926	6164.7
851.307	6127.53
851.689	6207.99
852.071	6332.81
852.452	6429.51
852.834	6424.95
853.215	6549.03
853.597	6594.51
853.978	6685.45
854.359	6816.44
854.741	6513.63
855.122	6487.98
855.503	6403.95
855.884	6451.51
856.265	6440.48
856.646	6468.82
857.026	6344.84
857.407	6323.57
857.788	6371.69
858.169	6447.41
858.549	6205.56
858.93	6398.05
859.31	6414.79
859.69	6481.75
860.071	6348.61
860.451	6282.4
860.831	6061.61
861.211	6413.67
861.591	6580.65
861.971	6563.81
862.351	6626.04
862.731	6731.64
863.111	6807.07
863.491	6905.97
863.87	7168.26
864.25	7273.53
864.629	7155.75
865.009	7304.43
865.388	7563.42
865.768	8096.88
866.147	8068.46
866.526	7621.25
866.905	7708.48
867.284	8137.77
867.663	7721.83
868.042	7395.52
868.421	7372.57
868.8	7484.71
869.179	7566.14
869.558	7125.16
869.936	6569.21
870.315	6687.33
870.693	6857.27
871.072	7390.07
871.45	7038.21
871.828	7136.61
872.207	7506.65
872.585	7396.94
872.963	7592.12
873.341	7332.97
873.719	7254.03
874.097	7167.8
874.475	7298.73
874.853	7457.46
875.23	7150.5
875.608	7454.83
875.986	8059.52
876.363	7705.06
876.741	7953.9
877.118	7767.29
877.495	8139.17
877.873	8269.87
878.25	8699.82
878.627	8346.86
879.004	8463.17
879.381	8415.79
879.758	8196.97
880.135	7624.78
880.512	8056.93
880.889	7827.95
881.265	7734.15
881.642	7671.02
882.019	7790.08
882.395	7636.95
882.772	7949.34
883.148	7601.26
883.524	7574.78
883.901	7525.54
884.277	7637.55
884.653	7588.52
885.029	7810.49
885.405	8658.75
885.781	8586.48
886.157	8232.52
886.532	8325.93
886.908	8311.59
887.284	9240
887.659	9533.45
888.035	9818.95
888.411	10071.44
888.786	10207.57
889.161	10551.86
889.537	10335.46
889.912	10670.84
890.287	10662.55
890.662	10931.54
891.037	10719.94
891.412	9990
891.787	9887.12
892.162	9544.22
892.536	9756.16
892.911	9391.97
893.286	9183.4
893.66	8814.11
894.035	9035.14
894.409	9826.82
894.784	9430.76
895.158	9588.85
895.532	10150.19
895.906	10426.2
896.281	10674.23
896.655	10511.99
897.029	11994.65
897.402	12488.86
897.776	13893.24
898.15	13831.88
898.524	13686.89
898.898	13862.44
899.271	15530.41
899.645	13453.08
900.018	12917.21
900.392	13382.98
900.765	13478.32
901.138	12481.3
901.511	12292.48
901.884	11306.6
902.258	10439.72
902.631	10800.39
903.003	12427.13
903.376	11198.07
903.749	12558.3
904.122	13434.19
904.495	14788.26
904.867	14975.02
905.24	12995.27
905.612	12093.33
905.985	12344.48
906.357	12897.19
906.729	12293.41
907.102	10508.26
907.474	10119.36
907.846	10191.41
908.218	10060.65
908.59	8899.39
908.962	8600.86
909.334	9266.77
909.705	9741.34
910.077	9462.73
910.449	9845.99
910.82	10121.7
911.192	11121.96
911.563	11549.08
911.935	12339.38
912.306	12345.63
912.677	12740.53
913.048	12625.83
913.419	13694.86
913.79	13746.06
914.161	14726.4
914.532	14101.41
914.903	12957.14
915.274	12320.73
915.645	12135.67
916.015	10683.84
916.386	10191.4
916.756	10848.9
917.127	11192.45
917.497	9998.38
917.868	10897.9
918.238	10376.85
918.608	10663.27
918.978	10893.12
919.348	11520.97
919.718	11893.48
920.088	11481.51
920.458	11950.36
920.828	12568.17
921.198	11921.31
921.567	12730.64
921.937	9875.83
922.306	9953.77
922.676	10713.64
923.045	8943.5
923.415	8503.34
923.784	7755.14
924.153	7964.19
924.522	7959.78
924.891	7477.55
925.26	8009.27
925.629	7818.57
925.998	8966.76
926.367	8754.26
926.736	8374
927.104	9948.23
927.473	10683.36
927.842	12891.32
928.21	12754.07
928.578	13362.99
928.947	12629.44
929.315	12696.2
929.683	14894.4
930.051	15001.01
930.42	17403.45
930.788	14828.37
931.156	14724.96
931.523	13811.38
931.891	12744.24
932.259	12246.85
932.627	14211.01
932.994	20090
933.362	16620.71
933.729	14429.63
934.097	13803.24
934.464	11667.72
934.831	13414.3
935.199	13198.92
935.566	12802.92
935.933	12939.4
936.3	15669.41
936.667	12179.04
937.034	11092.2
937.401	10938.99
937.767	9451.66
938.134	8426.61
938.501	11883.85
938.867	12766.5
939.234	21624.49
939.6	18403.17
939.967	20392.58
940.333	13653.6
940.699	11636.57
941.065	9248.61
941.431	12162.25
941.798	11744.35
942.163	15471.25
942.529	9681.54
942.895	8874.06
943.261	5755.06
943.627	7589.06
943.992	6660.91
944.358	6667.85
944.723	6715.4
945.089	6556.88
945.454	6063.11
945.82	6456.59
946.185	6201.15
946.55	7196.63
946.915	6442.4
947.28	7555.77
947.645	6646.65
948.01	6139.24
948.375	6420.66
948.74	7685.96
949.104	8945.19
949.469	12838.61
949.834	22672.67
950.198	21521.5
950.562	12934.47
950.927	10812.79
951.291	13008.72
951.655	11070.38
952.02	10346.07
952.384	7831.86
952.748	6843.92
953.112	6710.45
953.476	5855.83
953.839	5409.78
954.203	5355.47
954.567	6678.47
954.931	10462.5
955.294	8958.3
955.658	9000.43
956.021	15328.48
956.385	25856.74
956.748	38008.28
957.111	58562.55
957.474	65706.69
957.837	73775.62
958.2	55601.62
958.563	19994.69
958.926	13524.61
959.289	20516.78
959.652	22880.52
960.015	17181.64
960.377	24642.07
960.74	28109.07
961.102	48531.62
961.465	52122.41
961.827	28478.45
962.189	54783.98
962.552	38005.11
962.914	30468.13
963.276	19727.7
963.638	16334.04
964	16093.57
964.362	10917.87
964.724	10526.1
965.085	7491.68
965.447	6141.75
965.809	6883.48
966.17	6851.95
966.532	7402.97
966.893	6781.04
967.255	6180.95
967.616	7275.87
967.977	5851.68
968.338	6370.7
968.699	5266.7
969.061	5274.27
969.421	5323.1
969.782	5967.55
970.143	5082.3
970.504	5288.89
970.865	6022.16
971.225	6165.99
971.586	6045.41
971.946	8591
972.307	7446.94
972.667	9679.26
973.027	9987.12
973.388	12046.06
973.748	8220.63
974.108	8932.21
974.468	11970.59
974.828	9305.48
975.188	7116.26
975.548	6530
975.907	5486.64
976.267	6134.52
976.627	5180.2
976.986	5333.97
977.346	5081.13
977.705	4872.41
978.064	4428.56
978.424	3709.02
978.783	3791.84
979.142	4324.21
979.501	4149.7
979.86	4387.15
980.219	4232.61
980.578	5434.54
980.937	6085.07
981.296	5429.92
981.654	5600.81
982.013	8703.65
982.371	11329.54
982.73	10621.03
983.088	12047.91
983.447	12862.92
983.805	18521.89
984.163	38936.29
984.521	43124.52
984.879	63167.2
985.237	-103141.14
985.595	99408.9
985.953	24578.29
986.311	14036.23
986.669	8116.7
987.026	7012.18
987.384	9377.02
987.741	9616.54
988.099	6910.18
988.456	5516.82
988.814	5194.73
989.171	4498.63
989.528	4411.11
989.885	4670.02
990.242	3728.2
990.599	4640.63
990.956	3794.62
991.313	2651.4
991.67	2185.33
992.027	2349.47
992.383	2090.25
992.74	1838.3
993.096	1937.73
993.453	2012.84
993.809	2089.64
994.165	2775.89
994.522	2611.92
994.878	2879.61
995.234	3636.51
995.59	3577.21
995.946	3312.99
996.302	3798.13
996.658	4371.72
997.013	4797.57
997.369	5720.82
997.725	7352.97
998.08	4774.98
998.436	7170.1
998.791	9919.31
999.147	9891.42
999.502	10806.32
999.857	7858.11
1000.212	12740.89
1000.567	18182.67
1000.922	10519.34
1001.277	6641.42
1001.632	4898.61
1001.987	6310.81
1002.342	4506.8
1002.696	3593.04
1003.051	2877.58
1003.406	3478.8
1003.76	3443.04
1004.114	3384.17
1004.469	2857.89
1004.823	2357.25
1005.177	2548.18
1005.531	2034.66
1005.885	1817.02
1006.239	2085.34
1006.593	2627.37
1006.947	3526.96
1007.301	2652.03
1007.655	2905.13
1008.008	2160.07
1008.362	2437.47
1008.715	3510.1
1009.069	3200.96
1009.422	4838.23
1009.776	9658.86
1010.129	6344.48
1010.482	5265.3
1010.835	4396.8
1011.188	9089.14
1011.541	8551.82
1011.894	-51845.29
1012.247	152657.83
1012.6	10232.32
1012.952	6433.39
1013.305	3270.71
1013.657	2388.82
1014.01	2251.29
1014.362	1866.3
1014.715	1731.51
1015.067	1529.48
1015.419	1489.87
1015.771	1326.35
1016.123	1192.96
1016.475	1237.72
1016.827	1317.66
1017.179	1441.94
1017.531	1425.75
1017.883	1462.1
1018.234	1470.68
1018.586	1824.92
1018.938	1968.3
1019.289	2753.69
1019.64	3142.63
1019.992	2878.98
1020.343	2642.04
1020.694	2141.42
1021.045	1887
1021.396	2142.11
1021.747	2322.55
1022.098	2658.52
1022.449	1929.17
1022.8	1794.54
1023.151	1264.31
1023.501	1140.77
1023.852	1242.43
1024.202	1303.03
1024.553	1390.76
1024.903	1383.72
1025.253	1243.36
1025.604	1134.97
1025.954	1416.79
1026.304	1702.27
1026.654	1943.55
1027.004	2811.87
1027.354	4347.82
1027.703	4183.25
1028.053	5362.59
1028.403	7909.23
1028.753	11139.18
1029.102	14398.04
1029.452	71598.2
1029.801	3100.03
1030.15	1988.33
1030.499	1655.64
897.758	2776.09
901.051	2729.82
904.343	2767.48
907.636	2768
910.928	2832.11
914.22	2739.74
917.511	2747.25
920.803	2811.63
924.094	2833.63
927.384	2808.54
930.675	2770.58
933.965	2720.91
937.255	2727.47
940.544	2693.37
943.834	2619.56
947.123	2566.38
950.411	2662.77
953.7	2632.12
956.988	2598.93
960.276	2538.33
963.563	2624.28
966.851	2614.9
970.138	2676.03
973.424	2667.41
976.711	2618.32
979.997	2762.65
983.283	2793.15
986.568	2692.92
989.853	2715.95
993.138	2739.88
996.423	2822.4
999.708	2753.55
1002.992	2826.36
1006.275	2647.93
1009.559	2701.48
1012.842	2815.38
1016.125	2747.98
1019.408	2726.56
1022.69	2818.13
1025.972	2830.5
1029.254	2804.37
1032.536	2730.34
1035.817	2762.82
1039.098	2696.65
1042.379	2856.07
1045.659	2847
1048.939	2777.4
1052.219	2796.42
1055.498	2810.88
1058.778	2791.57
1062.057	2777.72
1065.335	2796.67
1068.614	2818.3
1071.892	2794.89
1075.17	2876.45
1078.447	2859
1081.724	2849.99
1085.001	2889.11
1088.278	2861.58
1091.554	2874.92
1094.83	2872.33
1098.106	2897.6
1101.382	2945
1104.657	2941.67
1107.932	2936.85
1111.206	2896.86
1114.481	2856.33
1117.755	2859.24
1121.029	2832.08
1124.302	2884.39
1127.575	2831.12
1130.848	2817.21
1134.121	2774.9
1137.393	2720.84
1140.665	2791.84
1143.937	2762.41
1147.208	2728.04
1150.48	2762.03
1153.75	2745.53
1157.021	2784.46
1160.291	2750.82
1163.561	2795.87
1166.831	2786.56
1170.101	2819.89
1173.37	2799.62
1176.639	2739.2
1179.907	2803.99
1183.176	2802.86
1186.444	2813.32
1189.711	2841.63
1192.979	2849.41
1196.246	2810.12
1199.513	2826.01
1202.78	2823.31
1206.046	2832.79
1209.312	2855.78
1212.578	2882.89
1215.843	2832.17
1219.108	2806.86
1222.373	2831.48
1225.638	2792.77
1228.902	2777.34
1232.166	2746.77
1235.43	2729.34
1238.693	2753.64
1241.956	2751.58
1245.219	2790.28
1248.482	2784.21
1251.744	2777.64
1255.006	2932.94
1258.268	2888.78
1261.529	2831.45
1264.79	2839.14
1268.051	2938.7
1271.312	2954.63
1274.572	2915.72
1277.832	2905.75
1281.092	2895.25
1284.351	2863.98
1287.61	2840.19
1290.869	2754.82
1294.128	2724.04
1297.386	2825.36
1300.644	2810.91
1303.902	2824.79
1307.159	2683.45
1310.416	2737.8
1313.673	2761.81
1316.93	2749.28
1320.186	2795.48
1323.442	2840.56
1326.697	2826.97
1329.953	2823.34
1333.208	2841.48
1336.463	2824.43
1339.717	2759.46
1342.972	2904.22
1346.226	2884.27
1349.479	2813.95
1352.733	2779.9
1355.986	2812.51
1359.238	2789.46
1362.491	2793.47
1365.743	2797.08
1368.995	2793.74
1372.247	2813.94
1375.498	2839.95
1378.749	2848.65
1382	2808.93
1385.251	2866.17
1388.501	2833.09
1391.751	2813.78
1395	2789.52
1398.25	2822.92
1401.499	2831.44
1404.748	2755.43
1407.996	2747.48
1411.244	2733.68
1414.492	2711.78
1417.74	2690.04
1420.987	2702.19
1424.234	2759.88
1427.481	2742.4
1430.728	2803.06
1433.974	2774.5
1437.22	2793.52
1440.465	2796.15
1443.711	2752
1446.956	2788.95
1450.201	2780.27
1453.445	2824.81
1456.689	2801.52
1459.933	2810.32
1463.177	2843.27
1466.42	2813.19
1469.663	2794.48
1472.906	2783.85
1476.148	2864.67
1479.391	2817.24
1482.633	2787.47
1485.874	2797.11
1489.115	2777.89
1492.356	2784.65
1495.597	2762.81
1498.838	2763.04
1502.078	2727.08
1505.318	2672.76
1508.557	2714.77
1511.797	2682.63
1515.036	2760.84
1518.274	2748.78
1521.513	2722.36
1524.751	2743.88
1527.989	2749.76
1531.227	2759.61
1534.464	2745.82
1537.701	2773.67
1540.938	2792.32
1544.174	2743.76
1547.41	2742.58
1550.646	2780.49
1553.882	2811.14
1557.117	2862.57
1560.352	2877.64
1563.587	2837.04
1566.821	2792.6
1570.055	2831.67
1573.289	2798.78
1576.523	2874.86
1579.756	2878.16
1582.989	2895.77
1586.222	2852.42
1589.454	2894.52
1592.686	2863.55
1595.918	2886.8
1599.15	2871.84
1602.381	2954.92
1605.612	2904.31
1608.843	2994.37
1612.073	2908.19
1615.303	2892.34
1618.533	2881.59
1621.762	2889.09
1624.992	2877.3
1628.221	2859.11
1631.449	2842.56
1634.678	2902.81
1637.906	2855.01
1641.134	2895.87
1644.361	2850.44
1647.588	2837.19
1650.815	2852.83
1654.042	2836.43
1657.269	2864.44
1660.495	2809.61
1663.72	2834.15
1666.946	2801
1670.171	2739.75
1673.396	2714.71
1676.621	2708.31
1679.845	2732.96
1683.069	2756.98
1686.293	2804.19
1689.517	2769.51
1692.74	2696.05
1695.963	2730.52
1699.185	2742.07
1702.408	2719.27
1705.63	2764.06
1708.852	2775.86
1712.073	2745.18
1715.294	2727.58
1718.515	2794.1
1721.736	2736.66
1724.956	2737.7
1728.176	2766.55
1731.396	2786.42
1734.616	2780.3
1737.835	2804.74
1741.054	2785.19
1744.272	2779
1747.491	2810.86
1750.709	2870.95
1753.927	2767.41
1757.144	2817.76
1760.361	2855.05
1763.578	2850.34
1766.795	2791.14
1770.011	2801.21
1773.227	2845.99
1776.443	2882.57
1779.658	2926.67
1782.874	2871.17
1786.089	2846.61
1789.303	2850.43
1792.518	2857.67
1795.732	2846.02
1798.945	2855.33
1802.159	2908.8
1805.372	2803.3
1808.585	2785.82
1811.797	2787.86
1815.01	2841.9
1818.222	2839.12
1821.434	2807.84
1824.645	2871.03
1827.856	2851.25
1831.067	2887.54
1834.278	2852.48
1837.488	2835.68
1840.698	2992.9
1843.908	2914.72
1847.117	2878.44
1850.326	2755.2
1853.535	2871.21
1856.744	2905.95
1859.952	2822.1
1863.16	2825.63
1866.368	2854.41
1869.575	2958.25
1872.782	2846.74
1875.989	2791.17
1879.196	2886.19
1882.402	2881.83
1885.608	2927.85
1888.814	2824.56
1892.019	2718.02
1895.224	2771.99
1898.429	2757.35
1901.634	2733.68
1904.838	2713.89
1908.042	2769.48
1911.246	2771.17
1914.449	2696.42
1917.652	2698.75
1920.855	2681.17
1924.058	2736.34
1927.26	2774.01
1930.462	2802.51
1933.664	2827.02
1936.865	2761.21
1940.066	2768.78
1943.267	2712.3
1946.467	2731.94
1949.668	2760.75
1952.868	2827.84
1956.067	2803.26
1959.267	2731.55
1962.466	2760.16
1965.665	2743.58
1968.863	2738.4
1972.061	2758.54
1975.259	2757.05
1978.457	2838.65
1981.654	2795.98
1984.852	2796.39
1988.048	2722.52
1991.245	2726.29
1994.441	2811.9
1997.637	2801.44
2000.833	2784.63
2004.028	2827.45
2007.223	2878.44
2010.418	2852.49
2013.613	2814.39
2016.807	2779.62
2020.001	2790.06
2023.194	2837.02
2026.388	2816.08
2029.581	2761.03
2032.774	2808.6
2035.966	2811.81
2039.158	2738.21
2042.35	2768.62
2045.542	2694.88
2048.733	2800.1
2051.924	2827.34
2055.115	2855.83
2058.306	2796.59
2061.496	2853.63
2064.686	2923.49
2067.875	2835.26
2071.065	2853.17
2074.254	2884.6
2077.442	2833.31
2080.631	2927.2
2083.819	2808.68
2087.007	2789.19
2090.195	2757.65
2093.382	2795.79
2096.569	2775.18
2099.756	2723.7
2102.942	2747.37
2106.128	2751.08
2109.314	2740.88
2112.5	2700.38
2115.685	2676.41
2118.87	2687.46
2122.055	2753.16
2125.239	2716.73
2128.424	2685.89
2131.608	2799.94
2134.791	2779.82
2137.974	2842.39
2141.157	2826.09
2144.34	2774.16
2147.523	2793.7
2150.705	2804.42
2153.887	2785.08
2157.068	2730.37
2160.25	2737.3
2163.431	2780
2166.611	2718
2169.792	2735.78
2172.972	2621.9
2176.152	2709.06
2179.331	2745.18
2182.511	2724.28
2185.69	2756.94
2188.868	2748.83
2192.047	2811.81
2195.225	2795.58
2198.403	2747.99
2201.58	2741.19
2204.758	2737.05
2207.935	2826.7
2211.111	2706.59
2214.288	2691.77
2217.464	2732.82
2220.64	2704.12
2223.815	2764.18
2226.991	2680.98
2230.166	2702.09
2233.34	2726.23
2236.515	2755.49
2239.689	2835.37
2242.863	2775.88
2246.036	2833.76
2249.209	2835.44
2252.382	2871.62
2255.555	2857.62
2258.727	2790.03
2261.9	2830.7
2265.071	2822.55
2268.243	2827.94
2271.414	2756.05
2274.585	2709.03
2277.756	2779.77
2280.926	2737.58
2284.096	2779.35
2287.266	2682.4
2290.436	2741.29
2293.605	2770.76
2296.774	2801.74
2299.942	2826.95
2303.111	2843.98
2306.279	2893.97
2309.447	2878.75
2312.614	2856.24
2315.781	2872.25
2318.948	2842.87
2322.115	2882.97
2325.281	2782.22
2328.447	2806.35
2331.613	2782.99
2334.779	2751.25
2337.944	2757.99
2341.109	2754.74
2344.274	2737.65
2347.438	2699.34
2350.602	2728.17
2353.766	2743.9
2356.929	2729.41
2360.092	2772.78
2363.255	2721.7
2366.418	2646.52
2369.58	2771.31
2372.742	2534.79
2375.904	2553.06
2379.066	2528.39
2382.227	2568.36
2385.388	2526.87
2388.548	2450.1
2391.709	2510.13
2394.869	2487.8
2398.029	2592.67
2401.188	2612.42
2404.347	2540.01
2407.506	2698.22
2410.665	2724.59
2413.823	2733.43
2416.981	2684.94
2420.139	2722.04
2423.296	2771.46
2426.453	2743.84
2429.61	2768.15
2432.767	2696.76
2435.923	2731.18
2439.079	2688.11
2442.235	2741.4
2445.391	2665.35
2448.546	2692.96
2451.701	2746.41
2454.855	2713.26
2458.009	2773.27
2461.163	2778.47
2464.317	2733.8
2467.471	2767.47
2470.624	2813.25
2473.777	2788.07
2476.929	2799.95
2480.082	2828.31
2483.234	2791.38
2486.385	2744.95
2489.537	2736.65
2492.688	2692.88
2495.839	2707.81
2498.989	2720.03
2502.14	2706.62
2505.29	2683.56
2508.439	2712.13
2511.589	2630.21
2514.738	2643.96
2517.887	2676.56
2521.035	2742.46
2524.183	2728.11
2527.331	2706.67
2530.479	2678.41
2533.627	2690.19
