Data from C_3_DEC_NC_4N_Splice17_13-05-44-500.txt Node
Date: Sat Mar 14 13:05:44 EDT 2020
User: sa697716
Spectrometer: FLMS03696
Trigger mode: 0
Integration Time (sec): 3.180400E-1
Scans to average: 20
Electric dark correction enabled: true
Nonlinearity correction enabled: true
Boxcar width: 5
XAxis mode: Wavelengths
Number of Pixels in Spectrum: 2048
>>>>>Begin Spectral Data<<<<<
187.83	-394679.7
188.298	2704.52
188.766	1453.62
189.233	1322.59
189.701	1843.39
190.169	2527.57
190.636	993.04
191.104	822.6
191.571	172.93
192.039	-34.52
192.506	-67.34
192.974	476.66
193.441	-799.93
193.908	-252.72
194.375	-76.75
194.842	0.99
195.31	63.62
195.777	162.16
196.244	357.31
196.711	429.94
197.177	545.64
197.644	770.3
198.111	1374.88
198.578	1938.23
199.045	1555.6
199.511	2527.66
199.978	2924.3
200.445	2489.92
200.911	2744.51
201.378	3084.95
201.844	2815.36
202.31	4807.19
202.777	5029.04
203.243	2761.34
203.709	2632.09
204.176	3160.14
204.642	2597.81
205.108	2432.46
205.574	1986.16
206.04	1818.21
206.506	1693.15
206.972	1580.96
207.438	1524.7
207.903	1727.96
208.369	1517.26
208.835	1508.78
209.301	1567.41
209.766	1616.85
210.232	1599.88
210.697	1976.59
211.163	2421.21
211.628	3635.29
212.094	3055.77
212.559	3783.87
213.024	2361.3
213.49	2883.39
213.955	2793.06
214.42	2731.57
214.885	2536.02
215.35	2434.78
215.815	2367.37
216.28	2523.68
216.745	2067.53
217.21	2247.19
217.675	2043.65
218.14	2293.58
218.604	2566.62
219.069	2935.16
219.534	3077.84
219.998	3571.25
220.463	4306.75
220.927	5252.66
221.392	4919.95
221.856	4973.1
222.32	6236.57
222.785	7707.37
223.249	9697.77
223.713	10791.38
224.177	10772.21
224.642	13789.22
225.106	16927.59
225.57	18490.12
226.034	13766.52
226.497	20952.06
226.961	18920.3
227.425	22035.8
227.889	24380.39
228.353	24356.2
228.816	50267.39
229.28	47997.23
229.744	40378.76
230.207	24577.13
230.671	24154.89
231.134	39867.55
231.597	45965.66
232.061	45868.76
232.524	44658.28
232.987	30789.17
233.45	27705.81
233.914	24842.62
234.377	25462.33
234.84	23347.39
235.303	27512.86
235.766	30704.47
236.229	31719.34
236.691	19953.01
237.154	22433.95
237.617	16906.99
238.08	17310.52
238.542	20245.99
239.005	14462.34
239.468	14356.38
239.93	13509.75
240.393	12269.15
240.855	10769.87
241.317	11025.58
241.78	13418.64
242.242	13866.87
242.704	14970.73
243.166	13035.68
243.629	11836.89
244.091	13646.38
244.553	14943.06
245.015	16063.41
245.477	20754.25
245.939	30410.29
246.4	32258.81
246.862	31357.85
247.324	29534.64
247.786	33031.02
248.247	43278.13
248.709	44661.13
249.17	33417.09
249.632	31530.67
250.093	36611.03
250.555	31655.04
251.016	19319.26
251.477	18342.47
251.939	19802.02
252.4	20789.15
252.861	24711.87
253.322	22996.25
253.783	27384.31
254.244	35500.02
254.705	28000.95
255.166	24912.14
255.627	24547.56
256.088	34649.76
256.549	36860.93
257.009	31782.62
257.47	38609.45
257.931	31454.91
258.391	23587.02
258.852	24297.7
259.312	25492.14
259.773	31478.65
260.233	26611.73
260.694	22434.52
261.154	25437.7
261.614	20404.79
262.074	18233.65
262.534	18947.79
262.994	17862.94
263.455	23804.62
263.915	20078.51
264.374	18905.32
264.834	20635.07
265.294	22862.53
265.754	23680.79
266.214	22388.64
266.673	20999.53
267.133	26493.79
267.593	26273.42
268.052	32178.3
268.512	27959.51
268.971	33714.37
269.431	36956.61
269.89	33086.37
270.349	49605.57
270.809	55333.69
271.268	49832.48
271.727	111594.33
272.186	72269.32
272.645	54212.84
273.104	39011.97
273.563	56503.56
274.022	44403
274.481	37792.4
274.94	29092.28
275.399	21602.77
275.857	25156.06
276.316	33977.74
276.775	30246.55
277.233	29795.65
277.692	27890.99
278.15	31598.41
278.609	32500.52
279.067	30087.93
279.525	27968.85
279.984	36142.52
280.442	43449.64
280.9	42814.61
281.358	28159.45
281.816	26220.07
282.274	25667.4
282.732	26502.81
283.19	26637.49
283.648	22965.93
284.106	24477.4
284.564	24885.26
285.021	23089.95
285.479	17204.26
285.937	15636.1
286.394	13745.91
286.852	14165.93
287.309	14877.54
287.767	14377.88
288.224	13671.2
288.682	15014.06
289.139	16454.05
289.596	15047.27
290.053	15633.19
290.511	19706.36
290.968	23906.16
291.425	32395.19
291.882	26934.97
292.339	23466.27
292.796	23257.18
293.252	21907.42
293.709	17378.73
294.166	15588.29
294.623	17204.32
295.079	16472.38
295.536	16549.11
295.992	15014.7
296.449	14853.82
296.905	15427.83
297.362	14785.88
297.818	15548.92
298.274	16107.26
298.731	16426.1
299.187	16245.74
299.643	17437.12
300.099	21113.35
300.555	23127.75
301.011	19321.98
301.467	18613.94
301.923	21783.38
302.379	21283.35
302.835	20918.66
303.291	20966.09
303.746	23876.59
304.202	30172.64
304.658	30323.52
305.113	20395.14
305.569	20001.21
306.024	21325.52
306.479	20306.74
306.935	17158.78
307.39	18719.09
307.845	17289.08
308.301	17424.42
308.756	16969.17
309.211	16358.22
309.666	16759.74
310.121	20809.41
310.576	21129.56
311.031	20969.92
311.486	24025.81
311.94	23996.31
312.395	32145.61
312.85	60384.72
313.305	296135.3
313.759	1535110.09
314.214	111126.05
314.668	88057.22
315.123	74090.51
315.577	26587.18
316.032	23661.37
316.486	29622.5
316.94	23359.93
317.394	16235.11
317.849	12615.77
318.303	11928.26
318.757	11235.55
319.211	12414.71
319.665	10865.1
320.119	10984.52
320.572	15736.31
321.026	14722.1
321.48	12258.71
321.934	13354.56
322.387	13386.43
322.841	14458.67
323.295	13046.03
323.748	15037.9
324.202	15282.43
324.655	18343.2
325.108	25717.89
325.562	18153.27
326.015	21529.63
326.468	16263.81
326.921	18192.35
327.374	16993.69
327.827	17719.56
328.28	20020.86
328.733	13418.08
329.186	11807.85
329.639	11254.39
330.092	9472.12
330.545	9036.72
330.997	9125.06
331.45	9992.99
331.903	11705.8
332.355	20075.98
332.808	19477.27
333.26	16057.88
333.713	17434.32
334.165	17539.15
334.617	23437.29
335.069	18930.68
335.522	34216.3
335.974	37924.16
336.426	34632.48
336.878	24042.6
337.33	12234.57
337.782	11978.82
338.234	14993.36
338.686	17895.13
339.137	21201.16
339.589	19975.87
340.041	15667.06
340.493	13482.92
340.944	13817.09
341.396	14888.34
341.847	12510.76
342.299	14764.34
342.75	18001.46
343.201	15755.17
343.653	18133.77
344.104	22304.44
344.555	17552.04
345.006	27277.13
345.457	20886.76
345.908	16568.15
346.359	15572.49
346.81	12684.38
347.261	13348.88
347.712	13133.43
348.163	14096.23
348.613	14305.17
349.064	13362.73
349.515	11725.62
349.965	12046.51
350.416	14508.96
350.866	15912.21
351.317	17978.86
351.767	29771.5
352.217	37604.95
352.668	31239.28
353.118	28570.76
353.568	27527.48
354.018	21750.99
354.468	22894.76
354.918	16412.83
355.368	14368.02
355.818	20304.88
356.268	58497.44
356.718	244849.3
357.168	61098.53
357.617	30711.98
358.067	34252.96
358.517	32078.04
358.966	37628.41
359.416	42295.77
359.865	45776.09
360.315	54436.52
360.764	25487.83
361.213	14281.89
361.663	13515.19
362.112	16684.5
362.561	26932.65
363.01	20306.49
363.459	17114.78
363.908	18528.17
364.357	15735.3
364.806	26464.98
365.255	18205.43
365.703	16661.34
366.152	16667.96
366.601	13539.58
367.05	10998.6
367.498	10016.44
367.947	10474.51
368.395	10918.8
368.844	9658.62
369.292	11618.02
369.74	8045.49
370.189	12321.52
370.637	14438.28
371.085	12470.64
371.533	15171.98
371.981	14583.27
372.429	13881.27
372.877	14439.97
373.325	12058.3
373.773	12278.71
374.221	10947.47
374.669	13586.88
375.116	11748.02
375.564	11827.79
376.012	13230.91
376.459	10917.27
376.907	13039.52
377.354	15774.8
377.801	14703.28
378.249	16889.94
378.696	21587.37
379.143	26111.66
379.591	27813.04
380.038	47034.05
380.485	34066.14
380.932	36781.31
381.379	33639.88
381.826	24816.97
382.273	17608.58
382.72	15386.95
383.166	14998.95
383.613	9730.55
384.06	8751.65
384.506	10142.76
384.953	7442.69
385.4	7475.3
385.846	6524.65
386.292	6339.86
386.739	6169.96
387.185	6100.59
387.631	6090.91
388.078	5916.65
388.524	6322.14
388.97	5842.18
389.416	4860.02
389.862	5166.38
390.308	4891.19
390.754	4960.01
391.2	5379.44
391.645	5514.09
392.091	5288.86
392.537	5123.63
392.983	5121.25
393.428	5049.58
393.874	5398.49
394.319	5432.9
394.765	5150.53
395.21	5288.7
395.655	4973.27
396.101	4661.14
396.546	4208.03
396.991	4224.7
397.436	3908.07
397.881	3773.72
398.326	3558.31
398.771	3373.21
399.216	2932.52
399.661	2637.67
400.106	2631.44
400.551	2691.82
400.995	2415.98
401.44	2385.54
401.885	2240.59
402.329	2268.72
402.774	2177.37
403.218	2115.43
403.663	2036.6
404.107	2098.32
404.551	2114.41
404.995	1932.78
405.44	1856.47
405.884	1880.36
406.328	1821.47
406.772	1814.05
407.216	1650.91
407.66	1590.54
408.104	1502.84
408.547	1406.8
408.991	1359.17
409.435	1307.13
409.879	1291.13
410.322	1274.35
410.766	1230.88
411.209	1170.23
411.653	1122.32
412.096	1098.9
412.54	1098.79
412.983	1091.6
413.426	1092.52
413.869	1092.87
414.312	1072.95
414.756	1034.94
415.199	987.07
415.642	960.05
416.085	959.94
416.527	953.38
416.97	968.02
417.413	920.02
417.856	909.04
418.298	901.66
418.741	891.1
419.184	885.42
419.626	916.43
420.069	917.21
420.511	921.34
420.953	902.27
421.396	894.25
421.838	869.94
422.28	891.79
422.722	898.91
423.164	909.91
423.606	898.79
424.048	899.16
424.49	857.24
424.932	852.35
425.374	839.24
425.816	851.64
426.258	869.57
426.699	880.75
427.141	865.18
427.582	876.88
428.024	870.98
428.465	862.02
428.907	841.29
429.348	831.05
429.789	832.45
430.231	816.56
430.672	829.4
431.113	807.57
431.554	792.45
431.995	772.98
432.436	746.32
432.877	731.44
433.318	721.98
433.759	717.29
434.2	718.32
434.64	712.09
435.081	715.88
435.522	678.69
435.962	656.95
436.403	646.79
436.843	656.48
437.284	642.56
437.724	624.36
438.164	623.94
438.604	610.39
439.045	588.39
439.485	564.79
439.925	551.54
440.365	536.18
440.805	526.7
441.245	520.19
441.685	500.32
442.125	496.54
442.564	499.07
443.004	487.28
443.444	486.59
443.883	486.55
444.323	482.08
444.762	481.32
445.202	488.71
445.641	499.63
446.081	496.54
446.52	500.29
446.959	496.31
447.398	486.56
447.837	482.78
448.276	474.44
448.716	478.98
449.154	482.11
449.593	472.99
450.032	472.1
450.471	461.87
450.91	460.09
451.349	460.38
451.787	457.31
452.226	462.27
452.664	462.06
453.103	463.52
453.541	461.89
453.98	461.69
454.418	462.68
454.856	456.23
455.295	455
455.733	459.1
456.171	459.38
456.609	459.52
457.047	459.36
457.485	466.84
457.923	467.48
458.361	460.39
458.798	461.03
459.236	459.47
459.674	461.45
460.111	462.89
460.549	459.01
460.987	457.85
461.424	456.69
461.862	454.8
462.299	447.55
462.736	447.5
463.173	451.05
463.611	447.68
464.048	448.52
464.485	452.58
464.922	450.03
465.359	447.59
465.796	446.63
466.233	444.96
466.67	442.49
467.106	442.72
467.543	437.95
467.98	432.29
468.416	420.2
468.853	416.54
469.29	403.64
469.726	398.3
470.162	388.21
470.599	379
471.035	375.05
471.471	365.83
471.907	362.18
472.344	360.29
472.78	360.83
473.216	365.1
473.652	361.27
474.088	361.11
474.523	360.63
474.959	364.64
475.395	362.09
475.831	360.63
476.266	363.06
476.702	361.72
477.138	357.96
477.573	357.07
478.008	355.95
478.444	358.4
478.879	362.15
479.314	364.18
479.75	363.63
480.185	364.96
480.62	366.93
481.055	368.29
481.49	371.36
481.925	376.66
482.36	384.15
482.795	394.75
483.229	403.96
483.664	411.91
484.099	413.7
484.534	419.65
484.968	422.77
485.403	424.5
485.837	423.63
486.271	423.13
486.706	423.58
487.14	418.15
487.574	411.99
488.009	408.34
488.443	405.09
488.877	409.66
489.311	410.98
489.745	417.42
490.179	422.11
490.613	431.83
491.046	435.48
491.48	439.2
491.914	440.37
492.348	444.44
492.781	448.06
493.215	449.79
493.648	450.9
494.082	455.37
494.515	457.16
494.948	463.57
495.382	466.91
495.815	471.51
496.248	476.3
496.681	486.22
497.114	495.79
497.547	504.29
497.98	515.66
498.413	523.3
498.846	532.43
499.279	540.45
499.711	545.05
500.144	549.37
500.577	559.65
501.009	570.32
501.442	580.57
501.874	584.93
502.306	589.84
502.739	599.35
503.171	612.1
503.603	618.11
504.036	627.88
504.468	635.94
504.9	647.85
505.332	657.02
505.764	664.29
506.196	673.39
506.627	687.88
507.059	702.32
507.491	711.91
507.923	715.57
508.354	731.22
508.786	744.17
509.217	762.44
509.649	778.69
510.08	797.29
510.512	815.45
510.943	831.21
511.374	844.99
511.805	864.94
512.237	885.06
512.668	914.94
513.099	941.96
513.53	968.46
513.961	991
514.391	1021.41
514.822	1054.07
515.253	1088.18
515.684	1115.17
516.114	1144.98
516.545	1168.33
516.975	1195.3
517.406	1215.93
517.836	1222.65
518.267	1234.19
518.697	1254.19
519.127	1261.7
519.558	1271.66
519.988	1279.06
520.418	1291.45
520.848	1310.12
521.278	1322.13
521.708	1351.7
522.138	1366.64
522.567	1397.45
522.997	1422.21
523.427	1438.59
523.857	1457.8
524.286	1470.61
524.716	1487.94
525.145	1507.72
525.575	1520.41
526.004	1536.2
526.433	1523.49
526.863	1525.44
527.292	1518.95
527.721	1526.62
528.15	1533.32
528.579	1535.51
529.008	1547.63
529.437	1569.39
529.866	1584
530.295	1601.06
530.724	1613.47
531.152	1639.83
531.581	1654
532.01	1670.74
532.438	1678.92
532.867	1693.52
533.295	1712.34
533.723	1718.16
534.152	1716.84
534.58	1716.8
535.008	1702.4
535.436	1704.85
535.865	1711.4
536.293	1725.94
536.721	1741.19
537.149	1766.16
537.576	1769.17
538.004	1780.67
538.432	1787.6
538.86	1786.26
539.287	1792.8
539.715	1806.67
540.143	1808.39
540.57	1805.87
540.998	1801.52
541.425	1779.61
541.852	1758.29
542.28	1756.39
542.707	1741.54
543.134	1728.86
543.561	1724.59
543.988	1718.06
544.415	1717.5
544.842	1712.64
545.269	1705.96
545.696	1707.93
546.123	1721.12
546.549	1712.27
546.976	1700.13
547.403	1700.05
547.829	1701.85
548.256	1704.43
548.682	1702.5
549.108	1695
549.535	1695.6
549.961	1697.55
550.387	1686.12
550.813	1680.09
551.24	1686.82
551.666	1688.9
552.092	1679.63
552.518	1675.28
552.943	1669.64
553.369	1675.58
553.795	1681.66
554.221	1682.27
554.646	1679.44
555.072	1690.01
555.498	1696.03
555.923	1704.23
556.349	1716.99
556.774	1724.38
557.199	1724.1
557.625	1729.43
558.05	1724.24
558.475	1733.21
558.9	1731.48
559.325	1723.47
559.75	1715.48
560.175	1707.93
560.6	1701.53
561.025	1699.79
561.449	1699.49
561.874	1704.2
562.299	1707.67
562.723	1711.66
563.148	1700.51
563.572	1702.8
563.997	1710.56
564.421	1714.43
564.846	1712.98
565.27	1714.26
565.694	1710.29
566.118	1720.28
566.542	1725.55
566.966	1716.48
567.39	1711.77
567.814	1700.2
568.238	1697.91
568.662	1700.62
569.086	1699.58
569.509	1704.11
569.933	1688.19
570.357	1678.97
570.78	1657.37
571.204	1642.37
571.627	1630.89
572.05	1626.22
572.474	1624.24
572.897	1610.45
573.32	1600.92
573.743	1591.18
574.166	1573.16
574.589	1570.58
575.012	1562.21
575.435	1558.12
575.858	1548.73
576.281	1536.55
576.704	1520.22
577.126	1507.14
577.549	1495.77
577.972	1485.62
578.394	1474.59
578.817	1467.03
579.239	1450.36
579.661	1436.76
580.084	1422.76
580.506	1409.59
580.928	1405.12
581.35	1394.8
581.772	1391.31
582.194	1380.1
582.616	1368.36
583.038	1355.6
583.46	1345.59
583.882	1340.38
584.303	1343.45
584.725	1338.36
585.147	1340.59
585.568	1349.49
585.99	1359.84
586.411	1363.2
586.833	1373.65
587.254	1372.89
587.675	1383.48
588.096	1391.94
588.518	1386.17
588.939	1369.67
589.36	1367.23
589.781	1355.36
590.202	1329.85
590.623	1321.25
591.043	1318.04
591.464	1306.09
591.885	1302.1
592.305	1296.17
592.726	1283.37
593.147	1283.3
593.567	1278.82
593.987	1271.15
594.408	1266.15
594.828	1263.06
595.248	1256.81
595.669	1241
596.089	1234.14
596.509	1228.27
596.929	1216.72
597.349	1217.43
597.769	1207.98
598.189	1201.83
598.608	1202.15
599.028	1202.65
599.448	1202.73
599.867	1190.4
600.287	1185.29
600.706	1181.53
601.126	1172.86
601.545	1170.78
601.965	1168.49
602.384	1164.1
602.803	1166.09
603.222	1161.82
603.641	1155.09
604.061	1151.28
604.48	1148.24
604.898	1154.3
605.317	1157.1
605.736	1157.27
606.155	1153.37
606.574	1144.93
606.992	1148.13
607.411	1142.06
607.829	1133.28
608.248	1129.62
608.666	1125.82
609.085	1124.06
609.503	1115.66
609.921	1109.58
610.339	1110.72
610.758	1109.94
611.176	1105.06
611.594	1097.01
612.012	1093.99
612.43	1096.97
612.847	1100.92
613.265	1101.1
613.683	1104.19
614.101	1104.42
614.518	1099.26
614.936	1089.32
615.353	1076.05
615.771	1072.68
616.188	1071.84
616.606	1068.11
617.023	1059.88
617.44	1047.22
617.857	1040.2
618.274	1031.28
618.691	1025.46
619.108	1017.78
619.525	1013.21
619.942	1017.82
620.359	1019.55
620.776	1014.23
621.192	1009.99
621.609	1007.94
622.026	1013.86
622.442	1017.55
622.859	1019.51
623.275	1013.26
623.691	1017.18
624.108	1025.47
624.524	1036.14
624.94	1034.97
625.356	1042.43
625.772	1052.58
626.188	1061.95
626.604	1061.9
627.02	1059.06
627.436	1057.15
627.852	1062.35
628.268	1072.57
628.683	1064.61
629.099	1056.89
629.514	1052.88
629.93	1056.03
630.345	1058.82
630.761	1054.15
631.176	1057
631.591	1052.19
632.007	1046.77
632.422	1043.73
632.837	1032.51
633.252	1028.78
633.667	1018.92
634.082	1009.49
634.497	997.07
634.911	980.27
635.326	975.62
635.741	959.05
636.155	947.39
636.57	945.13
636.984	941.64
637.399	940.2
637.813	935.45
638.228	930.72
638.642	929.63
639.056	917.79
639.47	913.47
639.884	902.92
640.298	894.76
640.712	890.32
641.126	877.01
641.54	867.25
641.954	858.14
642.368	846.07
642.781	837.55
643.195	820.98
643.609	817.43
644.022	809.43
644.436	802.62
644.849	789.8
645.262	777.03
645.676	774.37
646.089	767.79
646.502	756.19
646.915	749.81
647.328	735.06
647.741	732.1
648.154	721.49
648.567	717.28
648.98	707.77
649.393	706.69
649.805	704.18
650.218	698.32
650.631	686.56
651.043	680.17
651.456	675.45
651.868	675.37
652.28	686.26
652.693	694.78
653.105	698.69
653.517	703.47
653.929	703.54
654.341	706.06
654.753	697.21
655.165	701.07
655.577	699.64
655.989	696.08
656.401	688.39
656.813	664.88
657.224	649.84
657.636	629.46
658.047	616.83
658.459	603.42
658.87	595.82
659.282	586.79
659.693	572
660.104	561.19
660.515	550.33
660.926	550
661.338	546.3
661.749	540.64
662.159	534.65
662.57	530.23
662.981	524.95
663.392	519.98
663.803	521.68
664.213	518.93
664.624	514.6
665.035	516.56
665.445	506.25
665.855	500.55
666.266	496.7
666.676	494.74
667.086	489.62
667.497	489.79
667.907	484.65
668.317	478.01
668.727	477.08
669.137	477.1
669.547	475.22
669.956	476.41
670.366	477.77
670.776	479.19
671.186	481.48
671.595	483.86
672.005	485.99
672.414	487.5
672.824	488.65
673.233	490.77
673.642	493.87
674.052	498.17
674.461	501.7
674.87	505.76
675.279	504.86
675.688	506.18
676.097	509.13
676.506	508.57
676.915	519.24
677.323	522.79
677.732	524.1
678.141	526.29
678.549	519.76
678.958	520.74
679.366	522.11
679.775	527.13
680.183	538.63
680.592	544.84
681	551.8
681.408	550.15
681.816	557.46
682.224	565.31
682.632	575.53
683.04	600.2
683.448	620.8
683.856	647.01
684.264	675.75
684.671	701.5
685.079	735.02
685.487	770.52
685.894	820.06
686.302	862.42
686.709	900.54
687.116	941.72
687.524	979.31
687.931	1014.61
688.338	1045.69
688.745	1072.92
689.152	1104.86
689.559	1144.43
689.966	1188.88
690.373	1215.1
690.78	1257.47
691.187	1317.36
691.593	1366.99
692	1410.12
692.407	1468.6
692.813	1542.18
693.22	1604.18
693.626	1666.14
694.032	1718.59
694.439	1791.77
694.845	1850.93
695.251	1924.36
695.657	1989.39
696.063	2085.85
696.469	2160.31
696.875	2231.7
697.281	2273.76
697.687	2325.64
698.093	2370.51
698.498	2448.25
698.904	2509.85
699.31	2599.58
699.715	2666.06
700.12	2760.88
700.526	2784.43
700.931	2856.07
701.337	2912.52
701.742	2951.97
702.147	3037.59
702.552	3071.98
702.957	3134.76
703.362	3159.62
703.767	3193.52
704.172	3237.65
704.577	3198.29
704.981	3249.09
705.386	3270.35
705.791	3267.4
706.195	3344.65
706.6	3357.51
707.004	3439.94
707.408	3416.04
707.813	3446.79
708.217	3439.84
708.621	3446.34
709.025	3545.38
709.43	3551.63
709.834	3614.04
710.237	3685.46
710.641	3673.9
711.045	3698.78
711.449	3696.38
711.853	3727.14
712.256	3771.88
712.66	3811.29
713.064	3887.25
713.467	3931.64
713.87	4044.2
714.274	4092.86
714.677	4204.88
715.08	4366.64
715.484	4536.18
715.887	4741.41
716.29	4939.9
716.693	5151.17
717.096	5391.43
717.499	5525.77
717.901	5553.58
718.304	5584.36
718.707	5612.24
719.109	5511.56
719.512	5484.88
719.915	5353.41
720.317	5294.83
720.719	5342.5
721.122	5313.89
721.524	5266.08
721.926	5227.85
722.328	5327.88
722.731	5319.83
723.133	5352.24
723.535	5547.53
723.937	5567.68
724.338	5619.88
724.74	5665.57
725.142	5603.33
725.544	5603.81
725.945	5633.11
726.347	5631.37
726.748	5626.65
727.15	5640.11
727.551	5600.94
727.952	5571.98
728.354	5543.92
728.755	5544.91
729.156	5503.9
729.557	5491.79
729.958	5365.97
730.359	5309.32
730.76	5290.44
731.161	5229.87
731.562	5205.7
731.962	5209.84
732.363	5147.2
732.763	5082.41
733.164	5119.55
733.564	5053.5
733.965	4958.99
734.365	4927.98
734.766	4956.4
735.166	4917.61
735.566	4865.54
735.966	4840.23
736.366	4836.18
736.766	4775.11
737.166	4806.31
737.566	4766.14
737.966	4739.82
738.365	4778.64
738.765	4772.15
739.165	4699.75
739.564	4672.83
739.964	4716.26
740.363	4669.5
740.763	4664.55
741.162	4652.77
741.561	4623.42
741.96	4575.51
742.36	4594.61
742.759	4600.76
743.158	4640.06
743.557	4653.19
743.955	4692.37
744.354	4647.72
744.753	4706.65
745.152	4665.25
745.55	4720.74
745.949	4713.42
746.348	4714.54
746.746	4731.6
747.144	4690.93
747.543	4667.46
747.941	4716.76
748.339	4649.11
748.737	4641.63
749.136	4632.09
749.534	4696.23
749.932	4668.44
750.33	4691.61
750.727	4748.79
751.125	4725.36
751.523	4710.34
751.921	4753.98
752.318	4720.17
752.716	4778.11
753.113	4790.93
753.511	4814.94
753.908	4815.09
754.305	4799.21
754.703	4861.16
755.1	4920.1
755.497	4978.53
755.894	5167.09
756.291	5341.51
756.688	5666.42
757.085	6097.38
757.482	6707.86
757.878	7374.03
758.275	7981.45
758.672	8811.85
759.068	9483.81
759.465	10448.13
759.861	11691.91
760.258	13132.81
760.654	13880.01
761.05	13767.93
761.447	13145.03
761.843	12242.55
762.239	11307.44
762.635	10874.5
763.031	10463.44
763.427	9881.25
763.822	9266.38
764.218	8653.76
764.614	7861.52
765.01	7333.99
765.405	6992.22
765.801	6733.6
766.196	6398.88
766.592	6212.11
766.987	5902.96
767.382	5691.68
767.778	5600.48
768.173	5472.4
768.568	5401.84
768.963	5280.59
769.358	5300.15
769.753	5254.35
770.148	5168.58
770.542	5167.73
770.937	5138.34
771.332	5230.4
771.726	5249.98
772.121	5190.14
772.515	5242.98
772.91	5228.9
773.304	5298.22
773.699	5231.19
774.093	5281.04
774.487	5335.43
774.881	5378.47
775.275	5372.56
775.669	5327.71
776.063	5370.77
776.457	5406.46
776.851	5331.82
777.245	5325.41
777.638	5358.64
778.032	5471.81
778.425	5437.08
778.819	5477.98
779.212	5436.52
779.606	5398.28
779.999	5420
780.392	5403.38
780.786	5481.86
781.179	5504.18
781.572	5544.08
781.965	5554.94
782.358	5497.31
782.751	5555.1
783.143	5507.8
783.536	5579.9
783.929	5621.27
784.322	5733.63
784.714	5764.31
785.107	5759.02
785.499	5830.68
785.891	5811.51
786.284	5792.92
786.676	5933
787.068	5914.24
787.46	5967.45
787.852	5985.25
788.245	6071.25
788.636	6098.97
789.028	6164.97
789.42	6206.91
789.812	6214.44
790.204	6307.23
790.595	6404.5
790.987	6212.29
791.378	6234.77
791.77	6361.98
792.161	6494.37
792.553	6550.36
792.944	6442.96
793.335	6372.44
793.726	6446.27
794.117	6537.35
794.508	6675.21
794.899	6648.1
795.29	6786.1
795.681	6840.01
796.072	6698.89
796.463	6521.86
796.853	6529.8
797.244	6681.37
797.634	6720.24
798.025	6718.97
798.415	6728.84
798.806	6817.1
799.196	6900.36
799.586	6952.51
799.976	6921.18
800.366	7152.64
800.756	7389.81
801.146	7350.44
801.536	7382.86
801.926	7460.62
802.316	7485.64
802.706	7556.43
803.095	7433.41
803.485	7533.81
803.874	7578.43
804.264	7832.58
804.653	7805.47
805.043	7950.35
805.432	8063.17
805.821	8066.65
806.21	8085.88
806.599	8207.29
806.988	8253.28
807.377	8358.76
807.766	8487.88
808.155	8763.57
808.544	8503.13
808.933	8516.44
809.321	8499.97
809.71	8791.18
810.098	8946.19
810.487	9401.42
810.875	9877.1
811.264	9898.01
811.652	10191.05
812.04	10334.6
812.428	10498.33
812.816	11253.59
813.204	11668.98
813.592	12211.35
813.98	12541.36
814.368	12456.12
814.756	12928.7
815.144	12848.65
815.531	13316.67
815.919	13245.91
816.306	13559.08
816.694	13255.14
817.081	13310.84
817.469	13653.68
817.856	13650.02
818.243	13917.87
818.63	14309.02
819.017	13897.61
819.404	13961.64
819.791	14338.54
820.178	14947.35
820.565	15193.47
820.952	16114.43
821.339	15625.16
821.725	15814.4
822.112	15078.74
822.498	15045.49
822.885	15166.79
823.271	15074.47
823.657	15480.09
824.044	15495.71
824.43	15570.04
824.816	15542.06
825.202	15118.42
825.588	16126.4
825.974	16139.33
826.36	16653.4
826.746	16679.84
827.132	17034.84
827.517	17005.88
827.903	16232.88
828.289	16264.59
828.674	15491.56
829.06	15382.55
829.445	15771.97
829.83	16127.96
830.216	16599.58
830.601	16954.69
830.986	16550.37
831.371	16412.73
831.756	16964.6
832.141	16534.64
832.526	16522.98
832.911	16800.45
833.295	16682.66
833.68	17145.7
834.065	16529.15
834.449	15627.4
834.834	15558.31
835.218	15556.79
835.603	15891.17
835.987	15681.25
836.371	16503.7
836.755	16398.22
837.139	16782.79
837.524	17021.92
837.908	16838.24
838.291	16899.3
838.675	16959.91
839.059	17164.62
839.443	17151.7
839.827	16920.32
840.21	17396.06
840.594	17246.35
840.977	17450.39
841.361	17430.02
841.744	17797.06
842.127	17648.73
842.511	17886.41
842.894	18472.86
843.277	18840.54
843.66	19366.95
844.043	19448.78
844.426	18650.18
844.809	18344.7
845.191	18369.53
845.574	17913.33
845.957	17547.06
846.339	17433.99
846.722	16914.05
847.104	16978.78
847.487	16804.36
847.869	16816.6
848.252	17088.32
848.634	17400.41
849.016	17658.02
849.398	17780.53
849.78	18624.62
850.162	18633.85
850.544	19034.35
850.926	19649.08
851.307	19557.49
851.689	19830.2
852.071	20268.97
852.452	20584.67
852.834	20572.71
853.215	20959.78
853.597	21111.69
853.978	21390.12
854.359	21831.56
854.741	20859.97
855.122	20768.81
855.503	20492.38
855.884	20620.52
856.265	20566.68
856.646	20681.85
857.026	20286.09
857.407	20217.17
857.788	20369.49
858.169	20658.27
858.549	19823.48
858.93	20436.82
859.31	20477.96
859.69	20688.37
860.071	20302.81
860.451	20086.97
860.831	19358.48
861.211	20501.95
861.591	21047
861.971	21026.07
862.351	21207.96
862.731	21591.71
863.111	21852.45
863.491	22172.74
863.87	23033.47
864.25	23372.2
864.629	22978.36
865.009	23487.28
865.388	24326.75
865.768	26074.16
866.147	25972.5
866.526	24546.76
866.905	24852.52
867.284	26250.23
867.663	24929.93
868.042	23881.35
868.421	23802.12
868.8	24202.12
869.179	24436.69
869.558	23011.63
869.936	21205.48
870.315	21572.06
870.693	22097.72
871.072	23829.57
871.45	22697.41
871.828	22991.8
872.207	24170.56
872.585	23808.78
872.963	24444.1
873.341	23608.09
873.719	23325.76
874.097	23040.16
874.475	23477.71
874.853	24001.25
875.23	22998.04
875.608	23960.71
875.986	25928.62
876.363	24812.56
876.741	25557.91
877.118	24929.98
877.495	26154.11
877.873	26601.14
878.25	27998.19
878.627	26875.19
879.004	27259.78
879.381	27128.83
879.758	26402.56
880.135	24568.77
880.512	25965.99
880.889	25281.11
881.265	25012.18
881.642	24796.04
882.019	25214.96
882.395	24707.62
882.772	25682.28
883.148	24562.93
883.524	24453.65
883.901	24327.09
884.277	24697.21
884.653	24532.93
885.029	25245.28
885.405	27952.38
885.781	27739.18
886.157	26587.31
886.532	26894.22
886.908	26869.53
887.284	29882.81
887.659	30848.65
888.035	31793.78
888.411	32594.41
888.786	33019.81
889.161	34152.48
889.537	33523.78
889.912	34582.75
890.287	34539.87
890.662	35443.72
891.037	34795
891.412	32429.06
891.787	32105.26
892.162	30973.96
892.536	31691.45
892.911	30495.82
893.286	29845.84
893.66	28639.44
894.035	29365.12
894.409	31969.56
894.784	30660.52
895.158	31163.42
895.532	33009.71
895.906	33896.97
896.281	34695.64
896.655	34152.8
897.029	39017.44
897.402	40622.19
897.776	45218.88
898.15	45062.14
898.524	44573.21
898.898	45167
899.271	50570.9
899.645	43794.36
900.018	42083.42
900.392	43635.01
900.765	43971.42
901.138	40707.32
901.511	40108.09
901.884	36811.36
902.258	33958.62
902.631	35094.51
903.003	40413.75
903.376	36474.1
903.749	40901.5
904.122	43770.41
904.495	48182.17
904.867	48780.35
905.24	42335
905.612	39397.1
905.985	40287.66
906.357	42134.95
906.729	40219.88
907.102	34329.29
907.474	33000.81
907.846	33203.99
908.218	32769.75
908.59	28969.61
908.962	28021.97
909.334	30191.7
909.705	31726.19
910.077	30816.84
910.449	32076.7
910.82	32976.59
911.192	36300.44
911.563	37738.16
911.935	40402.04
912.306	40471.88
912.677	41809.54
913.048	41414.09
913.419	44943.78
913.79	45210.35
914.161	48480.23
914.532	46331.94
914.903	42571.19
915.274	40435.57
915.645	39816.35
916.015	35041.7
916.386	33419.25
916.756	35563.76
917.127	36670.05
917.497	32749.13
917.868	35641.79
918.238	33856.97
918.608	34844.75
918.978	35584.69
919.348	37704.93
919.718	38992.04
920.088	37575.58
920.458	39055.91
920.828	41108.04
921.198	38997.57
921.567	41670.05
921.937	32281.02
922.306	32614.13
922.676	35167.38
923.045	29339.55
923.415	27860.81
923.784	25372.26
924.153	26080.2
924.522	26045.28
924.891	24484.5
925.26	26220.77
925.629	25606.86
925.998	29427.48
926.367	28732.9
926.736	27354.36
927.104	32594.32
927.473	35037.88
927.842	42302.89
928.21	41921.14
928.578	44071.02
928.947	41684.55
929.315	41947.43
929.683	49190.62
930.051	49596.8
930.42	57627.57
930.788	49263.18
931.156	48866.78
931.523	45837.88
931.891	42375.75
932.259	40672.13
932.627	47104.18
932.994	66626.16
933.362	55059.36
933.729	47798.55
934.097	45729.57
934.464	38642.96
934.831	44569.75
935.199	43946.37
935.566	42594.04
935.933	43079.21
936.3	52186.81
936.667	40640.83
937.034	36671.6
937.401	36251.97
937.767	31301.67
938.134	27871.5
938.501	39333.86
938.867	41970.34
939.234	70926.5
939.6	60548.94
939.967	66836.12
940.333	44764.59
940.699	38093.45
941.065	30591.58
941.431	40138.84
941.798	38705.52
942.163	50866.19
942.529	31772.82
942.895	29220.52
943.261	18885.83
943.627	24771.78
943.992	21700.46
944.358	21741.16
944.723	21852.15
945.089	21285.31
945.454	19669.9
945.82	21012.55
946.185	20203.42
946.55	23406.84
946.915	21015.67
947.28	24687.88
947.645	21760.99
948.01	20120.57
948.375	20994.9
948.74	25162.37
949.104	29359.63
949.469	42386.82
949.834	74874.09
950.198	70887.05
950.562	42498.38
950.927	35377.36
951.291	42569.12
951.655	36256.87
952.02	34037.48
952.384	25729.21
952.748	22415.06
953.112	21868.25
953.476	19035.34
953.839	17598.05
954.203	17427.68
954.567	21801.56
954.931	34370.05
955.294	29418.38
955.658	29549.45
956.021	50235.48
956.385	85102.37
956.748	125436.54
957.111	194389.74
957.474	218021.87
957.837	245571.14
958.2	185740.78
958.563	66817.75
958.926	45125.71
959.289	68361.72
959.652	76354.1
960.015	57246.1
960.377	82146.19
960.74	93792.18
961.102	161839.41
961.465	173917.3
961.827	93198.63
962.189	178842.93
962.552	123900.73
962.914	99392.29
963.276	64526.33
963.638	53413.58
964	52893.28
964.362	35751.65
964.724	34546.13
965.085	24654.22
965.447	20201.35
965.809	23020.65
966.17	23043.77
966.532	24922.86
966.893	22874.68
967.255	20824.75
967.616	24549.96
967.977	19673.61
968.338	21502.77
968.699	17666.03
969.061	17664.06
969.421	17774.92
969.782	19939.68
970.143	16841.21
970.504	17443.28
970.865	19815.77
971.225	20261.59
971.586	19825.91
971.946	28234.9
972.307	24465.1
972.667	31960.45
973.027	32928.79
973.388	39961.11
973.748	27166.99
974.108	29585.88
974.468	40039.56
974.828	30877.79
975.188	23763.57
975.548	21826.42
975.907	18350.13
976.267	20599.38
976.627	17319.42
976.986	17931
977.346	17082.38
977.705	16448.87
978.064	14989.9
978.424	12471.23
978.783	12892.83
979.142	14703.94
979.501	14066.35
979.86	14843.21
980.219	14299.18
980.578	18452.55
980.937	20691.2
981.296	18431.94
981.654	18926.91
982.013	29467.39
982.371	38270.36
982.73	35738.31
983.088	40459.71
983.447	43233.58
983.805	61879.8
984.163	129373.25
984.521	143554.26
984.879	210108.49
985.237	-341749.41
985.595	329526.16
985.953	81758.87
986.311	47204.54
986.669	27426.63
987.026	23672.01
987.384	31848.18
987.741	32931.76
988.099	23547.14
988.456	18791.7
988.814	17599.41
989.171	15316.08
989.528	15152.85
989.885	15999.36
990.242	12653.48
990.599	15750.58
990.956	12877.48
991.313	8998.98
991.67	7376.69
992.027	7808.11
992.383	6925.13
992.74	6071.98
993.096	6364.8
993.453	6589.54
993.809	6834.81
994.165	9106.56
994.522	8333.9
994.878	9195.71
995.234	11535.79
995.59	11377.61
995.946	10783.72
996.302	12303.82
996.658	14230.08
997.013	15675.72
997.369	18589.22
997.725	23780.69
998.08	15421.39
998.436	23828.65
998.791	32848.08
999.147	32818.08
999.502	35830.23
999.857	26041.53
1000.212	42481.19
1000.567	60556.66
1000.922	34961.04
1001.277	22206.35
1001.632	16461.43
1001.987	21226.54
1002.342	15227.58
1002.696	12178.47
1003.051	9721.97
1003.406	11780.21
1003.76	11725.75
1004.114	11550.49
1004.469	9707.37
1004.823	8022.86
1005.177	8681.92
1005.531	6890.18
1005.885	6118.77
1006.239	6904.42
1006.593	8660.24
1006.947	11597.59
1007.301	8698.25
1007.655	9471.82
1008.008	6947.37
1008.362	7796.13
1008.715	11141.82
1009.069	10093.75
1009.422	15208.62
1009.776	30387.62
1010.129	20140.87
1010.482	16855.14
1010.835	14195.59
1011.188	29502.06
1011.541	27809.17
1011.894	-169802.89
1012.247	500662.33
1012.6	33998.99
1012.952	21467.27
1013.305	11058.89
1013.657	7986.36
1014.01	7579.14
1014.362	6241.78
1014.715	5569.41
1015.067	4848.53
1015.419	4746.91
1015.771	4214.01
1016.123	3754.92
1016.475	3865.03
1016.827	4103.9
1017.179	4412.91
1017.531	4453.59
1017.883	4541.01
1018.234	4391.56
1018.586	5521.58
1018.938	5868.13
1019.289	8110.41
1019.64	9302.47
1019.992	8643.65
1020.343	7933.82
1020.694	6272.52
1021.045	5517.32
1021.396	6283.19
1021.747	6753.12
1022.098	8076.37
1022.449	5865.32
1022.8	5435.4
1023.151	3766.85
1023.501	3341.62
1023.852	3628.68
1024.202	3753.64
1024.553	4146.3
1024.903	4077.67
1025.253	3501.54
1025.604	3147.03
1025.954	3902.53
1026.304	4760.69
1026.654	5551.59
1027.004	8159.84
1027.354	13137.86
1027.703	12399.71
1028.053	16299.82
1028.403	23536.48
1028.753	33925.82
1029.102	45884.14
1029.452	235590.72
1029.801	10192.27
1030.15	6585.31
1030.499	5565.27
897.758	2682.46
901.051	2635.87
904.343	2672.13
907.636	2674.08
910.928	2737.88
914.22	2647.94
917.511	2654.56
920.803	2717.55
924.094	2737.32
927.384	2719.97
930.675	2683.22
933.965	2632.78
937.255	2642.61
940.544	2609.21
943.834	2547.61
947.123	2493.2
950.411	2588.43
953.7	2564.24
956.988	2531.41
960.276	2471.17
963.563	2553.37
966.851	2549.97
970.138	2606.49
973.424	2602.42
976.711	2550.86
979.997	2685.41
983.283	2719.6
986.568	2626.07
989.853	2638.9
993.138	2668.31
996.423	2752.55
999.708	2685.79
1002.992	2751.95
1006.275	2587.5
1009.559	2633.2
1012.842	2751.29
1016.125	2682.78
1019.408	2660.44
1022.69	2747.26
1025.972	2768.2
1029.254	2743.23
1032.536	2673.95
1035.817	2703.29
1039.098	2644.24
1042.379	2794.09
1045.659	2788.02
1048.939	2721.38
1052.219	2743.48
1055.498	2754.91
1058.778	2740.25
1062.057	2725.81
1065.335	2744.22
1068.614	2766.09
1071.892	2748.18
1075.17	2822.91
1078.447	2812.42
1081.724	2806.26
1085.001	2842.93
1088.278	2812.34
1091.554	2827.47
1094.83	2824.12
1098.106	2852.41
1101.382	2898.42
1104.657	2897.39
1107.932	2893.19
1111.206	2859.78
1114.481	2814.14
1117.755	2814.9
1121.029	2794.42
1124.302	2850.31
1127.575	2801.91
1130.848	2788.5
1134.121	2746.99
1137.393	2697.14
1140.665	2764.75
1143.937	2740.76
1147.208	2699.48
1150.48	2739.01
1153.75	2727.42
1157.021	2758.98
1160.291	2729.26
1163.561	2772.93
1166.831	2763.35
1170.101	2798.26
1173.37	2769.76
1176.639	2713.17
1179.907	2772.85
1183.176	2780.98
1186.444	2787.13
1189.711	2815.47
1192.979	2825.97
1196.246	2783.35
1199.513	2801.41
1202.78	2797.28
1206.046	2806.45
1209.312	2835.79
1212.578	2863.03
1215.843	2813.66
1219.108	2786.57
1222.373	2810.94
1225.638	2773.81
1228.902	2759.77
1232.166	2721.05
1235.43	2705.5
1238.693	2729.13
1241.956	2725.76
1245.219	2764.2
1248.482	2753.71
1251.744	2748.54
1255.006	2899.65
1258.268	2854.91
1261.529	2798.2
1264.79	2803.79
1268.051	2908.62
1271.312	2925.2
1274.572	2889.56
1277.832	2877.25
1281.092	2866.22
1284.351	2840.03
1287.61	2817.49
1290.869	2732.32
1294.128	2708.08
1297.386	2799.05
1300.644	2787.61
1303.902	2801.94
1307.159	2655.86
1310.416	2712.62
1313.673	2740.36
1316.93	2726.54
1320.186	2772.45
1323.442	2817.41
1326.697	2805.04
1329.953	2793.24
1333.208	2820.8
1336.463	2800.37
1339.717	2739.38
1342.972	2877.69
1346.226	2851
1349.479	2781.92
1352.733	2752.8
1355.986	2774.82
1359.238	2750.29
1362.491	2755.94
1365.743	2760.28
1368.995	2751.37
1372.247	2760.8
1375.498	2785.76
1378.749	2801.03
1382	2756.66
1385.251	2808.47
1388.501	2768.48
1391.751	2751.91
1395	2725.86
1398.25	2755.93
1401.499	2763.62
1404.748	2689.23
1407.996	2682.43
1411.244	2667.35
1414.492	2647.84
1417.74	2625.92
1420.987	2635.28
1424.234	2694.96
1427.481	2674.1
1430.728	2732.77
1433.974	2706.81
1437.22	2720.59
1440.465	2722.79
1443.711	2686.49
1446.956	2723.45
1450.201	2708.51
1453.445	2754.65
1456.689	2735.5
1459.933	2746.99
1463.177	2781.1
1466.42	2750.99
1469.663	2731.77
1472.906	2728.34
1476.148	2802.02
1479.391	2762.07
1482.633	2730.11
1485.874	2743.32
1489.115	2728.19
1492.356	2732.54
1495.597	2707.06
1498.838	2711.39
1502.078	2679.57
1505.318	2628.48
1508.557	2671.79
1511.797	2650.8
1515.036	2720.68
1518.274	2711.48
1521.513	2683.7
1524.751	2704.43
1527.989	2718.14
1531.227	2732.92
1534.464	2725.46
1537.701	2747.38
1540.938	2766.99
1544.174	2717.57
1547.41	2715.9
1550.646	2758.04
1553.882	2791.72
1557.117	2846.48
1560.352	2864.65
1563.587	2821.44
1566.821	2780.34
1570.055	2816.78
1573.289	2785.25
1576.523	2863.16
1579.756	2869.89
1582.989	2891.03
1586.222	2846.6
1589.454	2891.05
1592.686	2862.25
1595.918	2887.75
1599.15	2876.77
1602.381	2953.15
1605.612	2907.11
1608.843	3006.54
1612.073	2916.19
1615.303	2901.14
1618.533	2890.22
1621.762	2894.56
1624.992	2877.47
1628.221	2863.62
1631.449	2849.83
1634.678	2906.12
1637.906	2858.36
1641.134	2896.43
1644.361	2852.28
1647.588	2842.39
1650.815	2859.03
1654.042	2836.11
1657.269	2870.69
1660.495	2821.54
1663.72	2844.09
1666.946	2807.06
1670.171	2751.06
1673.396	2724.54
1676.621	2715.22
1679.845	2733.84
1683.069	2754.89
1686.293	2798.84
1689.517	2766.98
1692.74	2694.33
1695.963	2728.1
1699.185	2744.1
1702.408	2715.48
1705.63	2759.67
1708.852	2771.29
1712.073	2741.36
1715.294	2727.12
1718.515	2786.17
1721.736	2734.06
1724.956	2731.48
1728.176	2757.24
1731.396	2777.5
1734.616	2763.32
1737.835	2793.15
1741.054	2772.25
1744.272	2764.79
1747.491	2798.04
1750.709	2852.28
1753.927	2756.38
1757.144	2801.43
1760.361	2844.42
1763.578	2836.6
1766.795	2774.69
1770.011	2784.16
1773.227	2824.65
1776.443	2859.35
1779.658	2906.7
1782.874	2847.79
1786.089	2825.01
1789.303	2827.83
1792.518	2831.8
1795.732	2818.54
1798.945	2829.03
1802.159	2880.51
1805.372	2780.24
1808.585	2767.09
1811.797	2766.54
1815.01	2816.25
1818.222	2817.48
1821.434	2791.24
1824.645	2852.78
1827.856	2835.74
1831.067	2873.23
1834.278	2826.96
1837.488	2811.19
1840.698	2964.56
1843.908	2886.67
1847.117	2847.66
1850.326	2729.91
1853.535	2837.69
1856.744	2861.73
1859.952	2772.78
1863.16	2775.71
1866.368	2797.78
1869.575	2906.25
1872.782	2787.8
1875.989	2721.41
1879.196	2806.67
1882.402	2801.33
1885.608	2843.83
1888.814	2740.45
1892.019	2633.67
1895.224	2685.86
1898.429	2669.01
1901.634	2645.29
1904.838	2622.5
1908.042	2672.26
1911.246	2682.1
1914.449	2612.39
1917.652	2607.63
1920.855	2589.49
1924.058	2642.84
1927.26	2681.65
1930.462	2709.81
1933.664	2733.65
1936.865	2671.24
1940.066	2679.94
1943.267	2626.78
1946.467	2642.69
1949.668	2671.6
1952.868	2738.84
1956.067	2715.14
1959.267	2644.85
1962.466	2674.03
1965.665	2658
1968.863	2654.52
1972.061	2669.35
1975.259	2667.14
1978.457	2749.35
1981.654	2708.47
1984.852	2705.54
1988.048	2639.19
1991.245	2642.08
1994.441	2727.2
1997.637	2711.62
2000.833	2695.09
2004.028	2734.34
2007.223	2785.68
2010.418	2762.91
2013.613	2724.11
2016.807	2692.15
2020.001	2704.53
2023.194	2747
2026.388	2724.01
2029.581	2669.66
2032.774	2719.73
2035.966	2724.4
2039.158	2653.42
2042.35	2685.88
2045.542	2611.9
2048.733	2709.56
2051.924	2732.23
2055.115	2758.75
2058.306	2703.23
2061.496	2761.39
2064.686	2829
2067.875	2741.21
2071.065	2755.08
2074.254	2785.16
2077.442	2734.45
2080.631	2822.75
2083.819	2716.15
2087.007	2700.66
2090.195	2670.19
2093.382	2705.62
2096.569	2685.77
2099.756	2636.7
2102.942	2661.83
2106.128	2668.74
2109.314	2660.02
2112.5	2623.15
2115.685	2599.62
2118.87	2609.48
2122.055	2673.81
2125.239	2640.15
2128.424	2615.54
2131.608	2718.38
2134.791	2698.39
2137.974	2757.69
2141.157	2742.64
2144.34	2693.4
2147.523	2707.74
2150.705	2723.17
2153.887	2702.7
2157.068	2650.62
2160.25	2654.87
2163.431	2691.09
2166.611	2637.77
2169.792	2654.91
2172.972	2548.11
2176.152	2628.37
2179.331	2660.52
2182.511	2645.39
2185.69	2676.75
2188.868	2669.59
2192.047	2726.33
2195.225	2714.05
2198.403	2665.82
2201.58	2655.65
2204.758	2651.65
2207.935	2733.18
2211.111	2621.89
2214.288	2607.95
2217.464	2647.1
2220.64	2616.61
2223.815	2673.73
2226.991	2593.41
2230.166	2612.72
2233.34	2640.59
2236.515	2667.71
2239.689	2742.16
2242.863	2686.4
2246.036	2740.96
2249.209	2743.49
2252.382	2777.64
2255.555	2761.13
2258.727	2697.69
2261.9	2739.83
2265.071	2731.53
2268.243	2734.54
2271.414	2666.46
2274.585	2626.59
2277.756	2696.49
2280.926	2653.39
2284.096	2692.49
2287.266	2597.45
2290.436	2658.63
2293.605	2687.08
2296.774	2716.75
2299.942	2741.78
2303.111	2756.23
2306.279	2806.03
2309.447	2790.69
2312.614	2763.8
2315.781	2782.48
2318.948	2752.31
2322.115	2792.53
2325.281	2691.36
2328.447	2710.49
2331.613	2684.91
2334.779	2654.06
2337.944	2657.76
2341.109	2654.5
2344.274	2638.39
2347.438	2603.6
2350.602	2626.25
2353.766	2644.86
2356.929	2630.24
2360.092	2672.22
2363.255	2625.08
2366.418	2556.65
2369.58	2673.31
2372.742	2458
2375.904	2473.4
2379.066	2448.87
2382.227	2487.04
2385.388	2448.82
2388.548	2374.45
2391.709	2431.39
2394.869	2409.68
2398.029	2511.92
2401.188	2526.72
2404.347	2457.09
2407.506	2601.57
2410.665	2630.21
2413.823	2637.31
2416.981	2592.4
2420.139	2627.92
2423.296	2675.97
2426.453	2647.33
2429.61	2672.91
2432.767	2603.56
2435.923	2643.58
2439.079	2605.36
2442.235	2655
2445.391	2581.66
2448.546	2612.42
2451.701	2659.81
2454.855	2628.51
2458.009	2684.35
2461.163	2686.91
2464.317	2644.23
2467.471	2678.08
2470.624	2717.84
2473.777	2687.99
2476.929	2702.38
2480.082	2728.04
2483.234	2688.79
2486.385	2648.2
2489.537	2640.92
2492.688	2597.97
2495.839	2619.74
2498.989	2629.85
2502.14	2614.9
2505.29	2594.06
2508.439	2622.04
2511.589	2542.72
2514.738	2556.23
2517.887	2588.78
2521.035	2651.18
2524.183	2633.58
2527.331	2617.3
2530.479	2586.43
2533.627	2599.14
