Data from C_3_DEC_OH_4N_Splice17_13-33-37-322.txt Node
Date: Sat Mar 14 13:33:37 EDT 2020
User: sa697716
Spectrometer: FLMS03696
Trigger mode: 0
Integration Time (sec): 3.180400E-1
Scans to average: 20
Electric dark correction enabled: true
Nonlinearity correction enabled: true
Boxcar width: 5
XAxis mode: Wavelengths
Number of Pixels in Spectrum: 2048
>>>>>Begin Spectral Data<<<<<
187.83	-430346.55
188.298	3130.83
188.766	1622.79
189.233	1452.11
189.701	1998.42
190.169	2767.68
190.636	1035.45
191.104	851.09
191.571	140.83
192.039	-83.08
192.506	-112.12
192.974	452.34
193.441	-714.29
193.908	-97.03
194.375	-24.98
194.842	-16.03
195.31	47.42
195.777	138.9
196.244	399.23
196.711	489.82
197.177	592.77
197.644	848.78
198.111	1459.44
198.578	2077.31
199.045	1670.06
199.511	2721.85
199.978	3175.25
200.445	2726.86
200.911	3033.43
201.378	3382.67
201.844	3049.35
202.31	5231.76
202.777	5460.43
203.243	3076.9
203.709	2928.51
204.176	3489.5
204.642	2921.76
205.108	2772.4
205.574	2273.61
206.04	2085.26
206.506	1968.67
206.972	1887.01
207.438	1852.73
207.903	2115.86
208.369	1865.9
208.835	1888.82
209.301	2017.25
209.766	2084.08
210.232	2101.2
210.697	2679.99
211.163	3400.72
211.628	5265.15
212.094	4501.31
212.559	5633.79
213.024	3598.37
213.49	4481.78
213.955	4479.44
214.42	4450.62
214.885	4214.78
215.35	4105.41
215.815	3976.72
216.28	4342.99
216.745	3672.8
217.21	4164.36
217.675	4108.31
218.14	4950.1
218.604	5954.32
219.069	7263.66
219.534	8052.98
219.998	9921.04
220.463	12627.3
220.927	16356.24
221.392	15918.18
221.856	16528.89
222.32	21418.22
222.785	26829.7
223.249	34259.31
223.713	38677.07
224.177	38997
224.642	50571
225.106	62677.92
225.57	68904.57
226.034	51361.22
226.497	78411.32
226.961	70992.4
227.425	82768.89
227.889	92291.87
228.353	92620.7
228.816	191923.6
229.28	183876.01
229.744	155506.66
230.207	94455.06
230.671	93031.55
231.134	154495.84
231.597	178227.56
232.061	178568.21
232.524	174725.66
232.987	120398.47
233.45	108318.52
233.914	97222.57
234.377	99928.05
234.84	91462.16
235.303	108039.9
235.766	120656.99
236.229	124667.5
236.691	78602.75
237.154	88354.97
237.617	66360.45
238.08	67994.84
238.542	79614.95
239.005	56854.21
239.468	56330.19
239.93	53011.37
240.393	48153.88
240.855	42236.58
241.317	43260.86
241.78	52698.13
242.242	54443.27
242.704	58678.78
243.166	51032.38
243.629	46260.75
244.091	53317.71
244.553	58467.3
245.015	62887.11
245.477	81389.8
245.939	119409.39
246.4	126701.37
246.862	123126.5
247.324	116123.82
247.786	130213.46
248.247	170940.41
248.709	176915.53
249.17	132358.19
249.632	124561.49
250.093	144411.55
250.555	124714.29
251.016	76014.13
251.477	72155.92
251.939	77904.85
252.4	81811.98
252.861	97325.46
253.322	90485.86
253.783	107797.97
254.244	139853.13
254.705	110441.61
255.166	98266.84
255.627	96826.3
256.088	136562.81
256.549	145171.55
257.009	125114.45
257.47	151929.53
257.931	124002.79
258.391	93113.82
258.852	96217.36
259.312	101141.75
259.773	125322.65
260.233	106046.58
260.694	89618.9
261.154	101998.9
261.614	81906.02
262.074	73466.59
262.534	76447.79
262.994	72161.49
263.455	96384.88
263.915	81283.84
264.374	76750.06
264.834	83947.33
265.294	93293.47
265.754	96762.03
266.214	91746.56
266.673	86151.73
267.133	108907.41
267.593	108318.66
268.052	132663.31
268.512	115496.98
268.971	139214.92
269.431	152728.4
269.89	136852.24
270.349	205278.8
270.809	229080.61
271.268	206064.81
271.727	462848.11
272.186	299794.71
272.645	224845.91
273.104	162476.78
273.563	235445.9
274.022	185621.6
274.481	157884.96
274.94	121629.91
275.399	90523.65
275.857	105555.66
276.316	142985.7
276.775	127283.33
277.233	125449.04
277.692	117427.99
278.15	132772.5
278.609	136468.66
279.067	126305.21
279.525	117280.67
279.984	151586.19
280.442	182062.9
280.9	179116.06
281.358	117698.98
281.816	109631.72
282.274	107303.39
282.732	110956.68
283.19	111534.44
283.648	96317.61
284.106	102559.12
284.564	104339.24
285.021	96616.92
285.479	71952.48
285.937	65530.13
286.394	57432.97
286.852	59137
287.309	62171.97
287.767	59950.04
288.224	57012.68
288.682	62625.34
289.139	68760.72
289.596	62954.62
290.053	65614.62
290.511	83044.77
290.968	100870.38
291.425	137310.48
291.882	114315.86
292.339	99598.93
292.796	99165.95
293.252	93630.5
293.709	74328.93
294.166	66718.26
294.623	73863.8
295.079	70922.22
295.536	71240.65
295.992	64713.28
296.449	64001.06
296.905	66498.8
297.362	63739.66
297.818	67098.53
298.274	69554.54
298.731	71006.34
299.187	70289.24
299.643	75485.77
300.099	91270.52
300.555	100117.4
301.011	83660.24
301.467	80463.05
301.923	94377.69
302.379	92182.77
302.835	90508.76
303.291	90649.96
303.746	103196.35
304.202	130340.17
304.658	130866.36
305.113	87961.65
305.569	86171.65
306.024	91892.66
306.479	87640.77
306.935	73753.73
307.39	80587.88
307.845	74361.88
308.301	74707.2
308.756	72719.64
309.211	69987.46
309.666	71674.96
310.121	88935.35
310.576	90357.08
311.031	89681.85
311.486	102818.02
311.94	102921.95
312.395	137645.91
312.85	258812.67
313.305	1274483.24
313.759	6580614.17
314.214	477154.52
314.668	378179.37
315.123	317698.03
315.577	113679.39
316.032	101005.09
316.486	126506.54
316.94	99651.61
317.394	69328.38
317.849	53887.04
318.303	51067.86
318.757	48296.13
319.211	53451.24
319.665	46847.95
320.119	47530.16
320.572	68376.44
321.026	63912.41
321.48	53243.69
321.934	58194.59
322.387	58412.19
322.841	63051.93
323.295	56497.6
323.748	65179.12
324.202	66030.35
324.655	79168.74
325.108	110313.02
325.562	77798.24
326.015	92532.55
326.468	69935.07
326.921	78151.24
327.374	72741.59
327.827	75704.86
328.28	85782.59
328.733	57426.98
329.186	50508.71
329.639	48132.52
330.092	40626.48
330.545	38663.18
330.997	38950.91
331.45	42477.41
331.903	49654.74
332.355	85608.23
332.808	83250.21
333.26	68753.67
333.713	74570.67
334.165	75199.58
334.617	100466.1
335.069	81312.23
335.522	147208.23
335.974	163079.65
336.426	149223.6
336.878	103619.24
337.33	52458.37
337.782	51246.96
338.234	64033.88
338.686	76716.73
339.137	90869.55
339.589	85643.16
340.041	67088.62
340.493	57717.99
340.944	59097.75
341.396	63653.69
341.847	53517
342.299	63126.07
342.75	76968.42
343.201	67537.82
343.653	77804.73
344.104	95857.12
344.555	75550.24
345.006	118030.43
345.457	90148.25
345.908	71796.3
346.359	67597.34
346.81	55163.03
347.261	58249.84
347.712	57532.8
348.163	61714.17
348.613	62307.5
349.064	58156.26
349.515	50916.98
349.965	52108.87
350.416	62908.83
350.866	69046.23
351.317	78189.2
351.767	129365.02
352.217	163641.97
352.668	135724.65
353.118	124358.2
353.568	120215.02
354.018	94896.73
354.468	100041.15
354.918	71744.15
355.368	62768.11
355.818	88655.74
356.268	255253.98
356.718	1066697.96
357.168	265072.21
357.617	133060.4
358.067	148101.97
358.517	138816.46
358.966	162801.71
359.416	182420.45
359.865	197406.7
360.315	235375.05
360.764	109917.9
361.213	61518.37
361.663	58473.09
362.112	72343.99
362.561	116904.21
363.01	88109.58
363.459	74187.23
363.908	80441.6
364.357	68241.53
364.806	115332.67
365.255	79288.64
365.703	72576.8
366.152	72664.56
366.601	58843.79
367.05	47657.94
367.498	43266.65
367.947	45289.28
368.395	47104.63
368.844	41644
369.292	50373.69
369.74	34767.1
370.189	53267.23
370.637	62466.94
371.085	53954.54
371.533	65756.31
371.981	63488.84
372.429	60496.96
372.877	62937.98
373.325	52665.09
373.773	53748.22
374.221	47871.3
374.669	59375.5
375.116	51363.9
375.564	51764.39
376.012	57853.39
376.459	47652.7
376.907	56905.99
377.354	68796.19
377.801	64023.23
378.249	73395.43
378.696	93691.16
379.143	113208.06
379.591	120709.56
380.038	203504.5
380.485	146681.65
380.932	158056.41
381.379	143976.26
381.826	105526.26
382.273	74919.58
382.72	65495.01
383.166	63748.75
383.613	41264.41
384.06	37139.41
384.506	42812.08
384.953	31419.45
385.4	31612.26
385.846	27650.09
386.292	26984.67
386.739	26396.34
387.185	26060.77
387.631	26000.46
388.078	25114.13
388.524	26802.47
388.97	24693.43
389.416	20547.96
389.862	21775.74
390.308	20559.66
390.754	20792.39
391.2	22482.47
391.645	22957.95
392.091	21793.3
392.537	20956.22
392.983	20989.72
393.428	20493.28
393.874	21892.76
394.319	21846.05
394.765	20607.71
395.21	21144.95
395.655	19776.45
396.101	18468.08
396.546	16615.54
396.991	16775.58
397.436	15564.76
397.881	14992.07
398.326	14208.24
398.771	13386.25
399.216	11692.66
399.661	10512.23
400.106	10427.2
400.551	10644.75
400.995	9525.18
401.44	9407.43
401.885	8825.03
402.329	8898.84
402.774	8510.42
403.218	8189.93
403.663	7875.41
404.107	8075.21
404.551	8105.95
404.995	7425.95
405.44	7146.86
405.884	7252.24
406.328	7016.02
406.772	6987.91
407.216	6343.34
407.66	6125.99
408.104	5832.08
408.547	5461.27
408.991	5282.77
409.435	5086.31
409.879	5006
410.322	4934.77
410.766	4751.16
411.209	4498.51
411.653	4308.78
412.096	4212.01
412.54	4211.77
412.983	4179.88
413.426	4174.64
413.869	4171.04
414.312	4081.5
414.756	3929.78
415.199	3740.76
415.642	3625.34
416.085	3626.75
416.527	3598.63
416.97	3657.85
417.413	3468.42
417.856	3435.82
418.298	3408.4
418.741	3387.57
419.184	3388.51
419.626	3540.02
420.069	3543.1
420.511	3558.96
420.953	3481.8
421.396	3448.95
421.838	3361.17
422.28	3434.25
422.722	3438.73
423.164	3486.14
423.606	3420.42
424.048	3412.23
424.49	3228.34
424.932	3209.35
425.374	3167.94
425.816	3222.99
426.258	3282.64
426.699	3321.3
427.141	3269.35
427.582	3325.53
428.024	3305.05
428.465	3285.41
428.907	3197.28
429.348	3158.63
429.789	3147.72
430.231	3073.93
430.672	3115.66
431.113	3039.22
431.554	2983.86
431.995	2904.05
432.436	2784.87
432.877	2714.06
433.318	2657.33
433.759	2642.6
434.2	2638.94
434.64	2609.97
435.081	2609.92
435.522	2459.11
435.962	2360.31
436.403	2301.1
436.843	2330.26
437.284	2279.3
437.724	2219.74
438.164	2229.26
438.604	2177.44
439.045	2088.4
439.485	1997.79
439.925	1953.72
440.365	1904.7
440.805	1878.65
441.245	1852.1
441.685	1779.43
442.125	1766.29
442.564	1772.34
443.004	1725.09
443.444	1716.41
443.883	1715.48
444.323	1702.76
444.762	1706.47
445.202	1727.53
445.641	1752.03
446.081	1742.72
446.52	1752.64
446.959	1729.01
447.398	1678.97
447.837	1655.29
448.276	1622.17
448.716	1634.51
449.154	1648.66
449.593	1606.25
450.032	1596.64
450.471	1568.93
450.91	1568
451.349	1560.4
451.787	1553.63
452.226	1579.4
452.664	1580.59
453.103	1583.27
453.541	1582.86
453.98	1572.38
454.418	1582.18
454.856	1554.03
455.295	1548.17
455.733	1557.64
456.171	1566.89
456.609	1564.81
457.047	1564.34
457.485	1583.29
457.923	1585.04
458.361	1561.67
458.798	1568.92
459.236	1562.54
459.674	1574.37
460.111	1580.36
460.549	1563.7
460.987	1557.16
461.424	1551.61
461.862	1541.26
462.299	1513.95
462.736	1508.16
463.173	1511.76
463.611	1489.31
464.048	1482.74
464.485	1492.35
464.922	1477.81
465.359	1467.93
465.796	1437.41
466.233	1424.9
466.67	1407.47
467.106	1401.49
467.543	1387.67
467.98	1369.67
468.416	1335.43
468.853	1325.92
469.29	1287.22
469.726	1273.13
470.162	1241.03
470.599	1233.37
471.035	1224.23
471.471	1196.24
471.907	1192.8
472.344	1187.64
472.78	1190.69
473.216	1208.89
473.652	1196.22
474.088	1194.74
474.523	1193.66
474.959	1206.74
475.395	1196.59
475.831	1190.39
476.266	1198.7
476.702	1197.6
477.138	1184.96
477.573	1182.19
478.008	1177.73
478.444	1183.17
478.879	1193.37
479.314	1198.53
479.75	1198.48
480.185	1205.99
480.62	1218.39
481.055	1226.05
481.49	1235.21
481.925	1253.75
482.36	1273.78
482.795	1310.89
483.229	1347.38
483.664	1375.63
484.099	1382.03
484.534	1402.75
484.968	1415.56
485.403	1418.26
485.837	1416.24
486.271	1411.67
486.706	1411.15
487.14	1395.05
487.574	1369.53
488.009	1355.08
488.443	1342.06
488.877	1350.13
489.311	1351.5
489.745	1362.18
490.179	1370.41
490.613	1389.12
491.046	1397.21
491.48	1403.51
491.914	1400.5
492.348	1405.54
492.781	1408.03
493.215	1405.14
493.648	1403.33
494.082	1408.66
494.515	1404.09
494.948	1412.79
495.382	1417.45
495.815	1420.02
496.248	1423.99
496.681	1441.93
497.114	1457.93
497.547	1469.07
497.98	1484.88
498.413	1486.55
498.846	1494.58
499.279	1503.03
499.711	1501.99
500.144	1496.85
500.577	1504.2
501.009	1513.95
501.442	1519.82
501.874	1509.75
502.306	1501.91
502.739	1502.16
503.171	1516.71
503.603	1509.2
504.036	1511.11
504.468	1508.53
504.9	1514.09
505.332	1513.33
505.764	1505.42
506.196	1503.8
506.627	1512.45
507.059	1520.11
507.491	1521.33
507.923	1503.47
508.354	1512.97
508.786	1515.3
509.217	1527.73
509.649	1535.82
510.08	1548.79
510.512	1558.62
510.943	1564.64
511.374	1566.36
511.805	1580.03
512.237	1591.21
512.668	1621.24
513.099	1644.39
513.53	1665.84
513.961	1676.56
514.391	1702.83
514.822	1730.62
515.253	1762.27
515.684	1778.97
516.114	1802.16
516.545	1814.62
516.975	1834.06
517.406	1842.92
517.836	1830.65
518.267	1826.14
518.697	1836.4
519.127	1828.36
519.558	1823.1
519.988	1815.03
520.418	1817.22
520.848	1826.25
521.278	1824.23
521.708	1837.83
522.138	1841.12
522.567	1867.43
522.997	1886.44
523.427	1893.87
523.857	1903.88
524.286	1907.67
524.716	1915.52
525.145	1927.68
525.575	1931.48
526.004	1940.38
526.433	1917.75
526.863	1910.77
527.292	1892.36
527.721	1890.88
528.15	1891.97
528.579	1885.6
529.008	1890.5
529.437	1910.88
529.866	1920.35
530.295	1934.82
530.724	1943.81
531.152	1969.54
531.581	1980.67
532.01	1995.57
532.438	2001.73
532.867	2013.93
533.295	2031.41
533.723	2035.53
534.152	2029.34
534.58	2026.84
535.008	2006.67
535.436	2005.58
535.865	2011.17
536.293	2024.29
536.721	2039.71
537.149	2064.94
537.576	2064.57
538.004	2075.08
538.432	2082.05
538.86	2078.25
539.287	2083.8
539.715	2096.75
540.143	2097.37
540.57	2090.96
540.998	2085.17
541.425	2057.21
541.852	2032.93
542.28	2029.37
542.707	2010.72
543.134	1994.09
543.561	1988.31
543.988	1978.81
544.415	1976.83
544.842	1970.58
545.269	1962.85
545.696	1964.61
546.123	1980.02
546.549	1968.92
546.976	1955.22
547.403	1955.68
547.829	1957.95
548.256	1960.97
548.682	1957.88
549.108	1950.99
549.535	1951
549.961	1953.55
550.387	1940.41
550.813	1934.62
551.24	1941.98
551.666	1943.81
552.092	1934.86
552.518	1929.04
552.943	1923.45
553.369	1932.8
553.795	1939.22
554.221	1941.17
554.646	1939.04
555.072	1951.62
555.498	1958.59
555.923	1969.44
556.349	1988.42
556.774	1999.27
557.199	2003.15
557.625	2012.4
558.05	2009.1
558.475	2023.7
558.9	2026.53
559.325	2021.95
559.75	2019.16
560.175	2015.81
560.6	2012.49
561.025	2013.49
561.449	2018.49
561.874	2027.31
562.299	2035.53
562.723	2047.38
563.148	2040.12
563.572	2048.44
563.997	2062.8
564.421	2073.35
564.846	2077.56
565.27	2087.47
565.694	2089.64
566.118	2107.35
566.542	2121.05
566.966	2118.92
567.39	2117.73
567.814	2111.05
568.238	2115.58
568.662	2127.18
569.086	2134.6
569.509	2147.7
569.933	2135.5
570.357	2132
570.78	2113.85
571.204	2105.65
571.627	2099.47
572.05	2104.18
572.474	2109.86
572.897	2101.4
573.32	2098.4
573.743	2092.99
574.166	2078.18
574.589	2083.95
575.012	2081.45
575.435	2086.42
575.858	2080.49
576.281	2073.4
576.704	2059.97
577.126	2051.57
577.549	2044.11
577.972	2037.64
578.394	2031.13
578.817	2028.31
579.239	2010.81
579.661	2000.23
580.084	1986.12
580.506	1975.48
580.928	1975.84
581.35	1967.91
581.772	1966.06
582.194	1952.55
582.616	1941.26
583.038	1927.77
583.46	1919.42
583.882	1919.23
584.303	1927.62
584.725	1926.47
585.147	1931.79
585.568	1948.41
585.99	1965.82
586.411	1977.79
586.833	2002.52
587.254	2008.12
587.675	2030.27
588.096	2049.56
588.518	2045.3
588.939	2027.09
589.36	2027.34
589.781	2017.33
590.202	1982.9
590.623	1975.28
591.043	1974.8
591.464	1960.18
591.885	1957.73
592.305	1951.49
592.726	1935.27
593.147	1940.77
593.567	1936.47
593.987	1927.94
594.408	1923.27
594.828	1925.02
595.248	1919.04
595.669	1896.68
596.089	1889.08
596.509	1882.41
596.929	1867.3
597.349	1870.99
597.769	1858.75
598.189	1852.62
598.608	1856.2
599.028	1861.03
599.448	1861.86
599.867	1846.26
600.287	1842.72
600.706	1839.65
601.126	1828.08
601.545	1828
601.965	1828.36
602.384	1823.45
602.803	1828.37
603.222	1825.05
603.641	1818.67
604.061	1816.54
604.48	1815.36
604.898	1830.45
605.317	1840.18
605.736	1845.54
606.155	1844.55
606.574	1835.7
606.992	1847
607.411	1844.92
607.829	1837.28
608.248	1837.3
608.666	1839.2
609.085	1842.59
609.503	1835.27
609.921	1832.25
610.339	1841.57
610.758	1846.99
611.176	1845.1
611.594	1837.2
612.012	1837.98
612.43	1848.21
612.847	1863.13
613.265	1868.21
613.683	1879.8
614.101	1886.73
614.518	1886.1
614.936	1877.15
615.353	1860.72
615.771	1860.65
616.188	1864.05
616.606	1863.16
617.023	1857.73
617.44	1840.95
617.857	1835.4
618.274	1826.44
618.691	1821.69
619.108	1811.49
619.525	1805.72
619.942	1819.46
620.359	1827.58
620.776	1825.85
621.192	1822.37
621.609	1820.55
622.026	1832.49
622.442	1843.76
622.859	1851.24
623.275	1841.57
623.691	1851.51
624.108	1870.09
624.524	1891.61
624.94	1892.69
625.356	1907.4
625.772	1928.37
626.188	1947.62
626.604	1950.98
627.02	1945.86
627.436	1944.3
627.852	1956.13
628.268	1973.06
628.683	1961.12
629.099	1949.02
629.514	1942.77
629.93	1949.67
630.345	1957.4
630.761	1952.35
631.176	1957.98
631.591	1950.58
632.007	1941.56
632.422	1939.04
632.837	1926.18
633.252	1923.25
633.667	1910.45
634.082	1899.87
634.497	1883.08
634.911	1857.05
635.326	1855.21
635.741	1833.74
636.155	1822.54
636.57	1829.51
636.984	1835.05
637.399	1843.16
637.813	1850.51
638.228	1856.86
638.642	1870.86
639.056	1864.06
639.47	1873.79
639.884	1869.94
640.298	1871.07
640.712	1878.74
641.126	1868.85
641.54	1865.44
641.954	1867.34
642.368	1858.64
642.781	1854.76
643.195	1837.31
643.609	1848.69
644.022	1849.07
644.436	1854.65
644.849	1844.38
645.262	1836.64
645.676	1852.01
646.089	1853.46
646.502	1836.92
646.915	1836.5
647.328	1818.07
647.741	1823.73
648.154	1810.27
648.567	1813.12
648.98	1795.14
649.393	1803.24
649.805	1804.12
650.218	1795.65
650.631	1774.19
651.043	1769.65
651.456	1764.51
651.868	1770.29
652.28	1805.96
652.693	1834.28
653.105	1850.96
653.517	1874.59
653.929	1881.45
654.341	1894.84
654.753	1877.93
655.165	1896.07
655.577	1898.27
655.989	1897.3
656.401	1892.97
656.813	1833.67
657.224	1806.19
657.636	1761.61
658.047	1735.42
658.459	1707.65
658.87	1700.98
659.282	1688.94
659.693	1659.56
660.104	1641.52
660.515	1626.11
660.926	1630.8
661.338	1635.57
661.749	1632.48
662.159	1624.95
662.57	1628.13
662.981	1627.13
663.392	1621.18
663.803	1637.69
664.213	1641.42
664.624	1641.43
665.035	1655.4
665.445	1636.81
665.855	1627.88
666.266	1618.62
666.676	1620.03
667.086	1607.82
667.497	1612.89
667.907	1606.04
668.317	1593.01
668.727	1586.25
669.137	1593.86
669.547	1591.66
669.956	1601.36
670.366	1607.21
670.776	1612.01
671.186	1622.67
671.595	1630.93
672.005	1638.56
672.414	1636.67
672.824	1631
673.233	1643
673.642	1644.75
674.052	1647.49
674.461	1646.91
674.87	1655.9
675.279	1645.64
675.688	1646.27
676.097	1644.07
676.506	1634.57
676.915	1662.53
677.323	1664.89
677.732	1657.92
678.141	1651.7
678.549	1626.81
678.958	1621.68
679.366	1614.85
679.775	1621.8
680.183	1634.2
680.592	1640.5
681	1644.72
681.408	1622.92
681.816	1632.77
682.224	1641.88
682.632	1651.4
683.04	1700.69
683.448	1736.22
683.856	1782.2
684.264	1834.63
684.671	1881.81
685.079	1939.62
685.487	2002.07
685.894	2093.69
686.302	2156.78
686.709	2200
687.116	2255.86
687.524	2288.52
687.931	2308.57
688.338	2317.7
688.745	2316.75
689.152	2319.37
689.559	2337.88
689.966	2352.67
690.373	2332.23
690.78	2342.68
691.187	2385.81
691.593	2401.57
692	2410.27
692.407	2444.51
692.813	2496.99
693.22	2529.46
693.626	2562.45
694.032	2577.74
694.439	2627.56
694.845	2653.96
695.251	2701.45
695.657	2737.7
696.063	2814.02
696.469	2858.6
696.875	2897.23
697.281	2900.95
697.687	2915.6
698.093	2923.91
698.498	2973.31
698.904	3002.74
699.31	3067.44
699.715	3102.64
700.12	3169.68
700.526	3157.75
700.931	3200.81
701.337	3228.02
701.742	3233.53
702.147	3293.48
702.552	3297.78
702.957	3332.11
703.362	3325.78
703.767	3330.72
704.172	3346.68
704.577	3277.81
704.981	3302.48
705.386	3298.92
705.791	3271.2
706.195	3325.93
706.6	3316.25
707.004	3374.45
707.408	3328.27
707.813	3338.42
708.217	3312.23
708.621	3298.24
709.025	3374.62
709.43	3362.85
709.834	3404.51
710.237	3456.71
710.641	3430.25
711.045	3439.5
711.449	3422.42
711.853	3438.32
712.256	3464.98
712.66	3486.53
713.064	3543.74
713.467	3570.81
713.87	3659.31
714.274	3689.56
714.677	3774.77
715.08	3905.58
715.484	4041
715.887	4210.13
716.29	4371.5
716.693	4540.77
717.096	4737.21
717.499	4838.78
717.901	4846.03
718.304	4854.72
718.707	4859.74
719.109	4761.86
719.512	4725.6
719.915	4601.95
720.317	4543.45
720.719	4573.39
721.122	4538.01
721.524	4487.64
721.926	4446.71
722.328	4523.08
722.731	4510.47
723.133	4530.07
723.535	4683.85
723.937	4691.86
724.338	4725.24
724.74	4753.51
725.142	4720.61
725.544	4717.39
725.945	4739.27
726.347	4730.01
726.748	4719.47
727.15	4724.64
727.551	4689.29
727.952	4659.86
728.354	4628.08
728.755	4623.31
729.156	4578.28
729.557	4535.38
729.958	4428.32
730.359	4372.48
730.76	4352.62
731.161	4299.58
731.562	4272.69
731.962	4270.64
732.363	4214.69
732.763	4160.55
733.164	4185.15
733.564	4129.59
733.965	4049.45
734.365	4017.6
734.766	4037.69
735.166	4000.94
735.566	3956.41
735.966	3933.6
736.366	3927.13
736.766	3876.77
737.166	3900.92
737.566	3867.06
737.966	3844.01
738.365	3872.99
738.765	3868.19
739.165	3805.27
739.564	3785.62
739.964	3817.88
740.363	3780.27
740.763	3775.38
741.162	3765.44
741.561	3738.83
741.96	3701.11
742.36	3716.1
742.759	3720.2
743.158	3749.25
743.557	3760.62
743.955	3789.57
744.354	3753.36
744.753	3799.58
745.152	3766.46
745.55	3809.76
745.949	3804.45
746.348	3804.91
746.746	3818.24
747.144	3785.96
747.543	3767.24
747.941	3808.95
748.339	3753.39
748.737	3748.69
749.136	3740.57
749.534	3794.59
749.932	3771.2
750.33	3791.49
750.727	3837.31
751.125	3817.95
751.523	3803.69
751.921	3841.28
752.318	3810.88
752.716	3859.83
753.113	3868.18
753.511	3888.37
753.908	3886.18
754.305	3875.14
754.703	3922.5
755.1	3969.06
755.497	4017.1
755.894	4170.56
756.291	4312.3
756.688	4576.91
757.085	4925.07
757.482	5418.66
757.878	5957.48
758.275	6440.43
758.672	7103.53
759.068	7647.29
759.465	8419.26
759.861	9418.68
760.258	10575.74
760.654	11170.11
761.05	11077.27
761.447	10571.33
761.843	9841.73
762.239	9087.81
762.635	8750.35
763.031	8422.49
763.427	7949.18
763.822	7461.38
764.218	6972.41
764.614	6337.52
765.01	5911.96
765.405	5639.82
765.801	5431.13
766.196	5165.29
766.592	5016.15
766.987	4766.21
767.382	4598.12
767.778	4527.44
768.173	4422.87
768.568	4364.72
768.963	4264.81
769.358	4281.22
769.753	4244.88
770.148	4179.27
770.542	4180.01
770.937	4155.98
771.332	4230.74
771.726	4247.21
772.121	4203.12
772.515	4247.16
772.91	4235.13
773.304	4292.66
773.699	4240.68
774.093	4281.58
774.487	4325.01
774.881	4359.65
775.275	4357.64
775.669	4323.46
776.063	4360.07
776.457	4386.23
776.851	4328.69
777.245	4324.79
777.638	4351.77
778.032	4442.85
778.425	4416.15
778.819	4454.25
779.212	4421.63
779.606	4389.6
779.999	4406.06
780.392	4393.69
780.786	4457.94
781.179	4474.75
781.572	4510.44
781.965	4524.94
782.358	4479.94
782.751	4525.41
783.143	4481.62
783.536	4541.35
783.929	4577.3
784.322	4669.75
784.714	4692.47
785.107	4689.25
785.499	4745.8
785.891	4727.8
786.284	4708.54
786.676	4822.34
787.068	4810.04
787.46	4855.22
787.852	4866.97
788.245	4934.68
788.636	4958.03
789.028	5013.44
789.42	5046.05
789.812	5056.49
790.204	5132.43
790.595	5214.54
790.987	5057.55
791.378	5075.06
791.77	5180.86
792.161	5290.85
792.553	5338.88
792.944	5249.05
793.335	5193.59
793.726	5254.1
794.117	5328.62
794.508	5440.3
794.899	5415.99
795.29	5529.72
795.681	5574.65
796.072	5457.56
796.463	5324.1
796.853	5334.78
797.244	5465.16
797.634	5492.4
798.025	5493.74
798.415	5500.51
798.806	5575.95
799.196	5648.28
799.586	5692.46
799.976	5661.7
800.366	5848.7
800.756	6031.08
801.146	5999.24
801.536	6022.24
801.926	6083.19
802.316	6104.93
802.706	6166.85
803.095	6069.9
803.485	6151.93
803.874	6188.66
804.264	6401.92
804.653	6385.21
805.043	6504.39
805.432	6591.3
805.821	6597.95
806.21	6624.25
806.599	6725.57
806.988	6758.13
807.377	6843.17
807.766	6951.22
808.155	7181.98
808.544	6969.18
808.933	6978.09
809.321	6962.18
809.71	7204.96
810.098	7334.38
810.487	7702.13
810.875	8084.81
811.264	8109.84
811.652	8351.25
812.04	8466.85
812.428	8598.67
812.816	9219.36
813.204	9565.61
813.592	10013.34
813.98	10282.4
814.368	10206.75
814.756	10597.53
815.144	10539.18
815.531	10921.18
815.919	10857.48
816.306	11111.25
816.694	10858.21
817.081	10899.99
817.469	11179.6
817.856	11181.68
818.243	11393.93
818.63	11707.06
819.017	11373.97
819.404	11425.11
819.791	11726.81
820.178	12225.2
820.565	12434.59
820.952	13197.37
821.339	12797.37
821.725	12946.76
822.112	12336.25
822.498	12309.2
822.885	12414.3
823.271	12331.61
823.657	12661.7
824.044	12671.95
824.43	12727.96
824.816	12696.16
825.202	12338.8
825.588	13159.37
825.974	13172.97
826.36	13593.14
826.746	13617.55
827.132	13900.53
827.517	13869.09
827.903	13239.2
828.289	13268.43
828.674	12636.83
829.06	12552.49
829.445	12865.61
829.83	13154.16
830.216	13528.9
830.601	13827.35
830.986	13500.66
831.371	13388.16
831.756	13843.38
832.141	13495.91
832.526	13481.29
832.911	13711.6
833.295	13615.73
833.68	14000.58
834.065	13496.07
834.449	12756.84
834.834	12693.31
835.218	12688.72
835.603	12965.76
835.987	12790.28
836.371	13458.17
836.755	13377.2
837.139	13693.25
837.524	13876.36
837.908	13729.35
838.291	13778.5
838.675	13841.16
839.059	14000.49
839.443	13985.49
839.827	13798.69
840.21	14181.88
840.594	14060.89
840.977	14227.41
841.361	14216.58
841.744	14521.29
842.127	14389.37
842.511	14576.82
842.894	15039.32
843.277	15344.44
843.66	15771.46
844.043	15833.89
844.426	15184.31
844.809	14929.23
845.191	14950.46
845.574	14570.39
845.957	14278
846.339	14191.1
846.722	13773.93
847.104	13832.62
847.487	13692.06
847.869	13708.34
848.252	13926.42
848.634	14190.93
849.016	14408.76
849.398	14506.51
849.78	15189.93
850.162	15193.27
850.544	15523.51
850.926	16030.5
851.307	15960.64
851.689	16189.15
852.071	16551.06
852.452	16814.71
852.834	16800.84
853.215	17114.45
853.597	17243.4
853.978	17481.6
854.359	17840
854.741	17044.46
855.122	16958.84
855.503	16725.32
855.884	16833.33
856.265	16782.6
856.646	16874.74
857.026	16562.68
857.407	16515.82
857.788	16636.36
858.169	16855.12
858.549	16184.72
858.93	16684.35
859.31	16722.56
859.69	16890.42
860.071	16560.01
860.451	16391.25
860.831	15793.51
861.211	16715.34
861.591	17142.39
861.971	17121.13
862.351	17276.23
862.731	17578.05
863.111	17788.74
863.491	18052.08
863.87	18750.59
864.25	19021.84
864.629	18695.44
865.009	19097.53
865.388	19788.41
865.768	21204.89
866.147	21129.7
866.526	19968.18
866.905	20204.9
867.284	21338.03
867.663	20270.31
868.042	19426.58
868.421	19367.93
868.8	19685.82
869.179	19890.12
869.558	18726.3
869.936	17262.77
870.315	17561.76
870.693	17998.74
871.072	19416.23
871.45	18484.92
871.828	18724.41
872.207	19691.72
872.585	19398.29
872.963	19916.58
873.341	19246.36
873.719	19013.72
874.097	18795.61
874.475	19150.39
874.853	19574.02
875.23	18755.24
875.608	19550.31
875.986	21132.35
876.363	20205.47
876.741	20827.71
877.118	20322.68
877.495	21310.82
877.873	21665.75
878.25	22783.95
878.627	21854.56
879.004	22162.18
879.381	22051.93
879.758	21474.37
880.135	19996.88
880.512	21148.94
880.889	20581.68
881.265	20354.84
881.642	20182.39
882.019	20516.17
882.395	20107.29
882.772	20909.53
883.148	20003.73
883.524	19933.16
883.901	19807.93
884.277	20098.67
884.653	19959.78
885.029	20538.78
885.405	22761.63
885.781	22576.38
886.157	21657.65
886.532	21909.47
886.908	21883.65
887.284	24314.84
887.659	25091.63
888.035	25872.89
888.411	26521.9
888.786	26873.34
889.161	27787.45
889.537	27259.24
889.912	28130.62
890.287	28099.49
890.662	28823.86
891.037	28304.7
891.412	26404.45
891.787	26145.28
892.162	25226.21
892.536	25821.82
892.911	24852.47
893.286	24327.19
893.66	23348.53
894.035	23941.13
894.409	26064
894.784	25011.56
895.158	25428.62
895.532	26931.7
895.906	27660.73
896.281	28315.56
896.655	27868.13
897.029	31833.04
897.402	33147.53
897.776	36882.74
898.15	36748.6
898.524	36339.61
898.898	36815.39
899.271	41203.83
899.645	35681.17
900.018	34263.1
900.392	35512.95
900.765	35778.32
901.138	33109.54
901.511	32599.03
901.884	29937.88
902.258	27623.14
902.631	28541.95
903.003	32841.26
903.376	29639.26
903.749	33249.95
904.122	35588.63
904.495	39187.23
904.867	39714.66
905.24	34479.8
905.612	32100.48
905.985	32809.54
906.357	34300.19
906.729	32740.28
907.102	27972.43
907.474	26884.97
907.846	27044.18
908.218	26700.1
908.59	23624.67
908.962	22844.34
909.334	24601.29
909.705	25853.33
910.077	25111.49
910.449	26137.15
910.82	26873.21
911.192	29575.7
911.563	30749.34
911.935	32912.72
912.306	32931.29
912.677	33983.97
913.048	33653.06
913.419	36539.16
913.79	36723.87
914.161	39366.61
914.532	37641.22
914.903	34585.72
915.274	32826.34
915.645	32343.49
916.015	28459.23
916.386	27142.89
916.756	28884.84
917.127	29782.45
917.497	26601.92
917.868	28970.44
918.238	27551.17
918.608	28329.03
918.978	28923.53
919.348	30652.96
919.718	31663.31
920.088	30505.92
920.458	31705.34
920.828	33363.01
921.198	31646.35
921.567	33801.19
921.937	26172.27
922.306	26415.55
922.676	28482.8
923.045	23773.15
923.415	22580.07
923.784	20575.13
924.153	21162.44
924.522	21150.71
924.891	19881.13
925.26	21288.88
925.629	20780.36
925.998	23884.25
926.367	23317.59
926.736	22233.34
927.104	26449.88
927.473	28435.75
927.842	34313.99
928.21	33967.24
928.578	35705.03
928.947	33757.62
929.315	33969.88
929.683	39853.44
930.051	40169.78
930.42	46638.88
930.788	39811.38
931.156	39500.53
931.523	37020.55
931.891	34184.51
932.259	32814.26
932.627	37993.14
932.994	53722.93
933.362	44351.4
933.729	38495.43
934.097	36820.19
934.464	31143.96
934.831	35898.07
935.199	35371.48
935.566	34291.14
935.933	34738.29
936.3	42040.61
936.667	32691.86
937.034	29521.34
937.401	29212.71
937.767	25183.1
938.134	22406.51
938.501	31565.32
938.867	33653.52
939.234	56911.49
939.6	48515.76
939.967	53480.36
940.333	35823.78
940.699	30497.02
941.065	24409.02
941.431	31967.98
941.798	30842
942.163	40540.39
942.529	25313.63
942.895	23310.53
943.261	15090.8
943.627	19809.2
943.992	17347.86
944.358	17349.89
944.723	17433.84
945.089	16999.44
945.454	15719.4
945.82	16792.38
946.185	16111.46
946.55	18649.45
946.915	16732.35
947.28	19610.24
947.645	17269.62
948.01	15958
948.375	16673.61
948.74	19968.19
949.104	23282.2
949.469	33542.86
949.834	59266.93
950.198	56308.76
950.562	33803.29
950.927	28157.76
951.291	33875.07
951.655	28841.4
952.02	27040.61
952.384	20432.53
952.748	17794.98
953.112	17384.66
953.476	15159.2
953.839	13997.48
954.203	13864.69
954.567	17337.42
954.931	27309.42
955.294	23373.26
955.658	23491.55
956.021	39999.67
956.385	67809.05
956.748	100045.76
957.111	155009.29
957.474	173749.4
957.837	195977.84
958.2	147958.79
958.563	53159.47
958.926	35921.5
959.289	54457.63
959.652	60890.35
960.015	45704.46
960.377	65621.4
960.74	74971.9
961.102	129394.01
961.465	139039.87
961.827	74719.74
962.189	143618.8
962.552	99714.34
962.914	79878.78
963.276	51861.52
963.638	42855.44
964	42384.47
964.362	28657.49
964.724	27657.7
965.085	19723.28
965.447	16168.3
965.809	18344.29
966.17	18331.73
966.532	19814.81
966.893	18209.68
967.255	16552.74
967.616	19535.65
967.977	15637.67
968.338	17072.29
968.699	14037.07
969.061	14036.55
969.421	14131.62
969.782	15881.75
970.143	13438.55
970.504	13934.07
970.865	15827.95
971.225	16222.63
971.586	15865.36
971.946	22633.66
972.307	19655.07
972.667	25691.42
973.027	26477.16
973.388	32061.46
973.748	21804.45
974.108	23744.19
974.468	32084.75
974.828	24757.98
975.188	19024.06
975.548	17454.41
975.907	14650.44
976.267	16417.47
976.627	13794.34
976.986	14274.92
977.346	13613.73
977.705	13076.61
978.064	11881.78
978.424	9896.02
978.783	10204.1
979.142	11650.07
979.501	11162.72
979.86	11809.36
980.219	11364.85
980.578	14639.25
980.937	16397.29
981.296	14607.93
981.654	15052.45
982.013	23447.93
982.371	30440.15
982.73	28523.78
983.088	32278.16
983.447	34502.17
983.805	49248.38
984.163	102992.71
984.521	114379.12
984.879	167795.17
985.237	-273285.9
985.595	262961.15
985.953	65307.87
986.311	37626.53
986.669	21818.97
987.026	18880.48
987.384	25319.35
987.741	26132.76
988.099	18715.61
988.456	14901.12
988.814	13929.5
989.171	12095.42
989.528	11940.61
989.885	12629.59
990.242	10025.21
990.599	12480.65
990.956	10193.11
991.313	7145
991.67	5881.3
992.027	6250.72
992.383	5562.86
992.74	4894.62
993.096	5141.42
993.453	5328.58
993.809	5525.09
994.165	7367.86
994.522	6778.2
994.878	7459.32
995.234	9348.3
995.59	9221.03
995.946	8694.08
996.302	9898.05
996.658	11429.23
997.013	12584.74
997.369	14933.01
997.725	19118
998.08	12350.19
998.436	18928.29
998.791	26168.34
999.147	26139.35
999.502	28499.22
999.857	20705.24
1000.212	33799.31
1000.567	48151.09
1000.922	27753.21
1001.277	17627
1001.632	13053.69
1001.987	16846.08
1002.342	12104.86
1002.696	9667.02
1003.051	7747.58
1003.406	9363.09
1003.76	9326.41
1004.114	9197.08
1004.469	7718.19
1004.823	6393.03
1005.177	6891.65
1005.531	5449.26
1005.885	4837.42
1006.239	5462.13
1006.593	6859.45
1006.947	9142.28
1007.301	6865.07
1007.655	7482.83
1008.008	5510.96
1008.362	6214.21
1008.715	8873.79
1009.069	8068.76
1009.422	12255.88
1009.776	24517.86
1010.129	16291.3
1010.482	13599.89
1010.835	11495.25
1011.188	23967.69
1011.541	22477.35
1011.894	-137144.11
1012.247	403054.72
1012.6	27484.71
1012.952	17347.87
1013.305	8874.56
1013.657	6409.22
1014.01	6069.47
1014.362	5010.6
1014.715	4492.33
1015.067	3924.9
1015.419	3852.09
1015.771	3410.91
1016.123	3037.01
1016.475	3122.18
1016.827	3325.24
1017.179	3597.81
1017.531	3619.27
1017.883	3687.9
1018.234	3575.24
1018.586	4483.94
1018.938	4762.04
1019.289	6567.89
1019.64	7534.84
1019.992	6990.31
1020.343	6382.72
1020.694	5075.64
1021.045	4473.84
1021.396	5109.46
1021.747	5502.6
1022.098	6561.42
1022.449	4777.78
1022.8	4446.81
1023.151	3114.79
1023.501	2763.64
1023.852	3008.51
1024.202	3124.36
1024.553	3398.38
1024.903	3344.44
1025.253	2876.12
1025.604	2580.43
1025.954	3209.81
1026.304	3890.95
1026.654	4498.42
1027.004	6555.7
1027.354	10581.64
1027.703	10022.33
1028.053	13132.99
1028.403	19473
1028.753	27932.15
1029.102	37699.27
1029.452	192818.19
1029.801	8267.64
1030.15	5337.18
1030.499	4508.14
897.758	3224.23
901.051	3213.97
904.343	3246.66
907.636	3239
910.928	3305.44
914.22	3208.69
917.511	3222.93
920.803	3308.12
924.094	3353.97
927.384	3304.35
930.675	3266.91
933.965	3209.92
937.255	3198.86
940.544	3167.58
943.834	3028.87
947.123	2988.37
950.411	3093.66
953.7	3055.38
956.988	3001.06
960.276	2947.12
963.563	3068.4
966.851	3049.95
970.138	3125.75
973.424	3101.26
976.711	3049.9
979.997	3294.39
983.283	3310.11
986.568	3180.43
989.853	3228.75
993.138	3257.83
996.423	3336.46
999.708	3250.15
1002.992	3362.36
1006.275	3100.97
1009.559	3205.5
1012.842	3342.08
1016.125	3243.86
1019.408	3221.81
1022.69	3345.62
1025.972	3349.72
1029.254	3314.72
1032.536	3210.28
1035.817	3255.86
1039.098	3159.02
1042.379	3417.88
1045.659	3371.8
1048.939	3282.78
1052.219	3328.44
1055.498	3357.06
1058.778	3326.99
1062.057	3317.63
1065.335	3337.8
1068.614	3368.73
1071.892	3329.5
1075.17	3432.67
1078.447	3406.02
1081.724	3387.35
1085.001	3439.19
1088.278	3406.51
1091.554	3427.76
1094.83	3425.42
1098.106	3447.44
1101.382	3510.08
1104.657	3510.54
1107.932	3504.79
1111.206	3453.84
1114.481	3413.06
1117.755	3426.56
1121.029	3387.47
1124.302	3428.66
1127.575	3362.42
1130.848	3339.58
1134.121	3286.94
1137.393	3218.55
1140.665	3300.98
1143.937	3276.87
1147.208	3192.31
1150.48	3213.9
1153.75	3191.41
1157.021	3262.37
1160.291	3217.41
1163.561	3256.96
1166.831	3278.69
1170.101	3314.32
1173.37	3312.52
1176.639	3232.61
1179.907	3309.23
1183.176	3349.67
1186.444	3357.63
1189.711	3391.04
1192.979	3388.09
1196.246	3351.42
1199.513	3371.14
1202.78	3363.22
1206.046	3369.61
1209.312	3393.53
1212.578	3430.18
1215.843	3358.54
1219.108	3343.27
1222.373	3367.75
1225.638	3315.93
1228.902	3291.69
1232.166	3269.47
1235.43	3245.17
1238.693	3260.86
1241.956	3268.87
1245.219	3296.94
1248.482	3301.38
1251.744	3293
1255.006	3474.93
1258.268	3441.73
1261.529	3371.7
1264.79	3387.11
1268.051	3500.35
1271.312	3523.18
1274.572	3478.79
1277.832	3466.44
1281.092	3472.02
1284.351	3420.35
1287.61	3390.5
1290.869	3280.66
1294.128	3225.78
1297.386	3365.78
1300.644	3349.67
1303.902	3362.17
1307.159	3207.82
1310.416	3266.14
1313.673	3285.71
1316.93	3254.83
1320.186	3320.58
1323.442	3377.82
1326.697	3349.55
1329.953	3365.82
1333.208	3374.37
1336.463	3363.05
1339.717	3285.23
1342.972	3386.02
1346.226	3386.83
1349.479	3299.53
1352.733	3250.74
1355.986	3299.65
1359.238	3270.47
1362.491	3269.34
1365.743	3276.21
1368.995	3277.57
1372.247	3292.09
1375.498	3311.02
1378.749	3362.53
1382	3309.21
1385.251	3383.21
1388.501	3360.82
1391.751	3322.94
1395	3305.1
1398.25	3344.69
1401.499	3338.18
1404.748	3248.47
1407.996	3174.13
1411.244	3167.44
1414.492	3139.91
1417.74	3115
1420.987	3137.29
1424.234	3186.12
1427.481	3191.1
1430.728	3245.18
1433.974	3220.75
1437.22	3255.74
1440.465	3258.09
1443.711	3252.55
1446.956	3288.93
1450.201	3300.5
1453.445	3345.39
1456.689	3309.18
1459.933	3325.73
1463.177	3351.41
1466.42	3321.42
1469.663	3301.98
1472.906	3263.73
1476.148	3410.8
1479.391	3298.55
1482.633	3284.65
1485.874	3277.81
1489.115	3240.58
1492.356	3268.71
1495.597	3239.9
1498.838	3253.1
1502.078	3200.52
1505.318	3120.2
1508.557	3174.12
1511.797	3085.54
1515.036	3252.71
1518.274	3235.95
1521.513	3224.68
1524.751	3257.68
1527.989	3259.02
1531.227	3262.52
1534.464	3226.6
1537.701	3281.11
1540.938	3309.13
1544.174	3266.8
1547.41	3281.11
1550.646	3314.76
1553.882	3334.82
1557.117	3384.09
1560.352	3410.43
1563.587	3359.46
1566.821	3309.03
1570.055	3372.52
1573.289	3325.94
1576.523	3423.9
1579.756	3421.55
1582.989	3433.05
1586.222	3391.86
1589.454	3444.45
1592.686	3408.91
1595.918	3426.1
1599.15	3402.3
1602.381	3515.6
1605.612	3434.47
1608.843	3535.89
1612.073	3434.93
1615.303	3414.84
1618.533	3391.61
1621.762	3408.06
1624.992	3406.23
1628.221	3366.25
1631.449	3354.96
1634.678	3449.31
1637.906	3387.88
1641.134	3444.81
1644.361	3388.5
1647.588	3374.05
1650.815	3383.45
1654.042	3384.94
1657.269	3418.14
1660.495	3365.06
1663.72	3321.75
1666.946	3306.46
1670.171	3208.18
1673.396	3187.78
1676.621	3185.67
1679.845	3237.62
1683.069	3279.92
1686.293	3338.3
1689.517	3287.04
1692.74	3181.28
1695.963	3202.32
1699.185	3287.58
1702.408	3235.64
1705.63	3294.88
1708.852	3297.58
1712.073	3270.48
1715.294	3229.12
1718.515	3267.04
1721.736	3206.44
1724.956	3183.01
1728.176	3216.6
1731.396	3234.61
1734.616	3236.7
1737.835	3244.71
1741.054	3240.04
1744.272	3237.94
1747.491	3247.97
1750.709	3343
1753.927	3230.1
1757.144	3295.83
1760.361	3353.01
1763.578	3370.99
1766.795	3298.98
1770.011	3323.13
1773.227	3383.53
1776.443	3410.12
1779.658	3454.86
1782.874	3406.18
1786.089	3364.5
1789.303	3369.64
1792.518	3384.61
1795.732	3374.13
1798.945	3372.71
1802.159	3434.8
1805.372	3287.72
1808.585	3261.08
1811.797	3265.53
1815.01	3348.06
1818.222	3349.23
1821.434	3232.6
1824.645	3338.97
1827.856	3295.67
1831.067	3341.56
1834.278	3277.88
1837.488	3267.34
1840.698	3452.55
1843.908	3354.51
1847.117	3310.39
1850.326	3135.29
1853.535	3280.52
1856.744	3401.21
1859.952	3278.48
1863.16	3276.51
1866.368	3306.21
1869.575	3451.91
1872.782	3335.97
1875.989	3283.15
1879.196	3416.41
1882.402	3413.39
1885.608	3468.26
1888.814	3324.44
1892.019	3202.55
1895.224	3260.44
1898.429	3259.76
1901.634	3229.81
1904.838	3212.99
1908.042	3257.18
1911.246	3254.97
1914.449	3144.52
1917.652	3163.73
1920.855	3149.28
1924.058	3225.64
1927.26	3251.4
1930.462	3290.7
1933.664	3300.36
1936.865	3233.15
1940.066	3227.77
1943.267	3177.17
1946.467	3205.74
1949.668	3241.29
1952.868	3302.81
1956.067	3261.04
1959.267	3184.8
1962.466	3218.4
1965.665	3206.51
1968.863	3205.66
1972.061	3235.66
1975.259	3242.64
1978.457	3327.04
1981.654	3277.3
1984.852	3277.82
1988.048	3185.74
1991.245	3207.79
1994.441	3290.12
1997.637	3305.31
2000.833	3283.72
2004.028	3328.98
2007.223	3371.76
2010.418	3332.98
2013.613	3304.6
2016.807	3243.41
2020.001	3266.4
2023.194	3341.39
2026.388	3304.62
2029.581	3250.45
2032.774	3284.39
2035.966	3278.98
2039.158	3188.95
2042.35	3225.22
2045.542	3154.37
2048.733	3280.88
2051.924	3345.1
2055.115	3387.67
2058.306	3298.81
2061.496	3363.14
2064.686	3452.84
2067.875	3370.93
2071.065	3404.19
2074.254	3442.85
2077.442	3392.47
2080.631	3494.21
2083.819	3331.72
2087.007	3295.92
2090.195	3250.6
2093.382	3310.38
2096.569	3286.9
2099.756	3223.01
2102.942	3223.67
2106.128	3211.3
2109.314	3209.22
2112.5	3142.16
2115.685	3129.01
2118.87	3141.88
2122.055	3216.46
2125.239	3160.74
2128.424	3115.93
2131.608	3276.68
2134.791	3257.5
2137.974	3343.15
2141.157	3325.9
2144.34	3252.1
2147.523	3280.71
2150.705	3272.91
2153.887	3268.92
2157.068	3187.14
2160.25	3220.65
2163.431	3282.47
2166.611	3192.45
2169.792	3204.21
2172.972	3074.42
2176.152	3191.45
2179.331	3235.48
2182.511	3208.2
2185.69	3243.66
2188.868	3230.37
2192.047	3313.35
2195.225	3269.93
2198.403	3214.28
2201.58	3220.73
2204.758	3219.24
2207.935	3313.64
2211.111	3166.43
2214.288	3145.5
2217.464	3194.16
2220.64	3186.63
2223.815	3248.64
2226.991	3158.71
2230.166	3183.53
2233.34	3197.88
2236.515	3234.84
2239.689	3329.83
2242.863	3263.1
2246.036	3322.97
2249.209	3345.3
2252.382	3399.19
2255.555	3364.82
2258.727	3282.72
2261.9	3332.43
2265.071	3323.28
2268.243	3336.43
2271.414	3247.56
2274.585	3175.65
2277.756	3254.3
2280.926	3212.24
2284.096	3267.04
2287.266	3142.01
2290.436	3211.25
2293.605	3250.62
2296.774	3273.03
2299.942	3314.75
2303.111	3329.42
2306.279	3369.77
2309.447	3361.4
2312.614	3343.24
2315.781	3356
2318.948	3314.58
2322.115	3359.79
2325.281	3256.43
2328.447	3295.26
2331.613	3275.92
2334.779	3224.65
2337.944	3241.32
2341.109	3234.33
2344.274	3207.88
2347.438	3170.44
2350.602	3204.33
2353.766	3225.96
2356.929	3205.87
2360.092	3256.27
2363.255	3181.78
2366.418	3069.38
2369.58	3244.76
2372.742	2918.16
2375.904	2957.65
2379.066	2920.09
2382.227	2968.55
2385.388	2924.88
2388.548	2824.65
2391.709	2899.08
2394.869	2864.87
2398.029	3025.01
2401.188	3060.33
2404.347	2958.69
2407.506	3175.04
2410.665	3198.45
2413.823	3228.53
2416.981	3155.49
2420.139	3210.36
2423.296	3271.92
2426.453	3246.17
2429.61	3274.54
2432.767	3158.68
2435.923	3212.72
2439.079	3092.3
2442.235	3183.01
2445.391	3085.37
2448.546	3091.88
2451.701	3164.36
2454.855	3099.57
2458.009	3184.71
2461.163	3206.51
2464.317	3147.91
2467.471	3190.23
2470.624	3232
2473.777	3277.22
2476.929	3267.39
2480.082	3299.11
2483.234	3267.42
2486.385	3143.89
2489.537	3145.15
2492.688	3066.74
2495.839	3082.98
2498.989	3085.87
2502.14	3065.93
2505.29	3029.52
2508.439	3064.4
2511.589	2963.97
2514.738	2995.29
2517.887	3025.11
2521.035	3175.1
2524.183	3173.77
2527.331	3143.36
2530.479	3091.36
2533.627	3112.59
