Data from C_3_DIV_PA_2N_Splice17_13-15-57-716.txt Node
Date: Sat Mar 14 13:15:57 EDT 2020
User: sa697716
Spectrometer: FLMS03696
Trigger mode: 0
Integration Time (sec): 3.180400E-1
Scans to average: 20
Electric dark correction enabled: true
Nonlinearity correction enabled: true
Boxcar width: 5
XAxis mode: Wavelengths
Number of Pixels in Spectrum: 2048
>>>>>Begin Spectral Data<<<<<
187.83	-319306.23
188.298	2418.79
188.766	1329.05
189.233	1169.2
189.701	1685.18
190.169	2323.19
190.636	837.66
191.104	697.94
191.571	126.13
192.039	-27.85
192.506	0.39
192.974	689.27
193.441	-879.78
193.908	-62.85
194.375	-24.18
194.842	61.95
195.31	122.55
195.777	170.12
196.244	329.68
196.711	271.13
197.177	307.57
197.644	356.72
198.111	605.79
198.578	807.03
199.045	615.08
199.511	972.61
199.978	1078.68
200.445	940.24
200.911	1001.65
201.378	1058.25
201.844	988.74
202.31	1696.2
202.777	1799.82
203.243	1002.08
203.709	937.93
204.176	1156.5
204.642	968.6
205.108	933.67
205.574	756.31
206.04	665.48
206.506	646.63
206.972	589.69
207.438	564.62
207.903	626.76
208.369	572.42
208.835	589.92
209.301	619.02
209.766	620.42
210.232	607.44
210.697	746.9
211.163	906.21
211.628	1329.86
212.094	1178.03
212.559	1519.12
213.024	978.88
213.49	1212.04
213.955	1176.39
214.42	1091.7
214.885	1027.06
215.35	1014.63
215.815	1055.65
216.28	1156.19
216.745	953.59
217.21	1048.44
217.675	951
218.14	1084.13
218.604	1201.64
219.069	1414.68
219.534	1536.49
219.998	1795.6
220.463	2195.44
220.927	2669.5
221.392	2545.86
221.856	2623.78
222.32	3293.1
222.785	4124.32
223.249	5225.1
223.713	5906.32
224.177	5931.16
224.642	7634.66
225.106	9494.62
225.57	10413.44
226.034	7869.89
226.497	12092.15
226.961	11049.37
227.425	13037.7
227.889	14541.11
228.353	14666.4
228.816	30399.29
229.28	29364.86
229.744	24908.65
230.207	15269.74
230.671	15169.63
231.134	25070.25
231.597	29061.89
232.061	29159.56
232.524	28593.07
232.987	19816.06
233.45	17956.84
233.914	16231.65
234.377	16704.3
234.84	15368.73
235.303	18188.47
235.766	20374.27
236.229	21196.57
236.691	13406.5
237.154	15144.09
237.617	11432.98
238.08	11752.34
238.542	13820.81
239.005	9923.76
239.468	9883.55
239.93	9343.69
240.393	8516.2
240.855	7522.93
241.317	7731.07
241.78	9438.21
242.242	9787.82
242.704	10633.29
243.166	9304.96
243.629	8493.85
244.091	9836.46
244.553	10819.06
245.015	11712.78
245.477	15193.88
245.939	22327.32
246.4	23826.34
246.862	23240.58
247.324	21983.79
247.786	24695.39
248.247	32491.2
248.709	33543.12
249.17	25166.63
249.632	23901.96
250.093	27836.27
250.555	24210.18
251.016	14845.19
251.477	14125.28
251.939	15312.69
252.4	16152.33
252.861	19253.65
253.322	17996.91
253.783	21522.58
254.244	28019.49
254.705	22119.68
255.166	19740.93
255.627	19516.56
256.088	27587.54
256.549	29401.99
257.009	25382
257.47	30816.67
257.931	25193.44
258.391	18909.31
258.852	19568.51
259.312	20582.56
259.773	25508.89
260.233	21640.72
260.694	18327.8
261.154	20884.25
261.614	16895.82
262.074	15213.53
262.534	15930.18
262.994	15113.55
263.455	20268.66
263.915	17200
264.374	16297.68
264.834	17906.75
265.294	19949.95
265.754	20782.38
266.214	19809.87
266.673	18638.03
267.133	23633.78
267.593	23564.7
268.052	28958.6
268.512	25324.07
268.971	30692
269.431	33834.38
269.89	30450.03
270.349	45898.71
270.809	51429.92
271.268	46454.21
271.727	104600.63
272.186	68075.59
272.645	51229.02
273.104	37105.72
273.563	53907.16
274.022	42538.08
274.481	36379.47
274.94	28189.27
275.399	21026.24
275.857	24558.51
276.316	33321.38
276.775	29758.93
277.233	29432.35
277.692	27688.47
278.15	31442.57
278.609	32498.3
279.067	30195.27
279.525	28140.65
279.984	36383.2
280.442	43879.79
280.9	43421.17
281.358	28643.56
281.816	26768.82
282.274	26272.76
282.732	27202.48
283.19	27404.93
283.648	23715.91
284.106	25307.73
284.564	25775.63
285.021	23964.56
285.479	17892.85
285.937	16316.12
286.394	14363.96
286.852	14842.27
287.309	15638.59
287.767	15189.53
288.224	14526.75
288.682	15990.34
289.139	17654.45
289.596	16248.45
290.053	17014.43
290.511	21637.29
290.968	26402.24
291.425	36069.1
291.882	30244.7
292.339	26484.26
292.796	26393.38
293.252	24987.5
293.709	19970.51
294.166	17981.11
294.623	19933.37
295.079	19171.7
295.536	19304.53
295.992	17599.75
296.449	17448.14
296.905	18167.38
297.362	17499
297.818	18465.15
298.274	19222.07
298.731	19623.6
299.187	19469.27
299.643	20963.26
300.099	25421.55
300.555	27940.06
301.011	23387.67
301.467	22605.08
301.923	26535.11
302.379	25949.34
302.835	25548.63
303.291	25593.51
303.746	29221.19
304.202	37000.41
304.658	37313.2
305.113	25161.35
305.569	24738.01
306.024	26415.63
306.479	25172.52
306.935	21250.64
307.39	23228.46
307.845	21467.49
308.301	21658.4
308.756	21121.84
309.211	20373.81
309.666	20867.95
310.121	25903.56
310.576	26302.08
311.031	26129.07
311.486	29986.64
311.94	29986.5
312.395	40207.89
312.85	75728.96
313.305	372517.14
313.759	1929389.63
314.214	139907.67
314.668	111036.59
315.123	93776.1
315.577	33751.22
316.032	30142.29
316.486	37853.21
316.94	29972.41
317.394	20918.41
317.849	16318.72
318.303	15515.81
318.757	14713.76
319.211	16349.55
319.665	14364.82
320.119	14584.38
320.572	20982.73
321.026	19653.8
321.48	16427.37
321.934	17978.39
322.387	18073.28
322.841	19585.28
323.295	17647.15
323.748	20396.55
324.202	20746.22
324.655	24974.18
325.108	34985.06
325.562	24776.94
326.015	29492.22
326.468	22352.37
326.921	25063.93
327.374	23449.4
327.827	24443.65
328.28	27723.82
328.733	18589.45
329.186	16366.52
329.639	15642.39
330.092	13200.01
330.545	12573.91
330.997	12711.82
331.45	13893.34
331.903	16286.62
332.355	28050.45
332.808	27268.45
333.26	22539.77
333.713	24477.74
334.165	24657.97
334.617	32872.99
335.069	26564.28
335.522	48072.06
335.974	53245.59
336.426	48713.88
336.878	33770.77
337.33	17127.33
337.782	16740.24
338.234	20979.05
338.686	25162.98
339.137	29873.9
339.589	28204.51
340.041	22160.21
340.493	19114.7
340.944	19624.44
341.396	21174.23
341.847	17868.81
342.299	21144.63
342.75	25945.48
343.201	22765.18
343.653	26266.49
344.104	32422.19
344.555	25638.68
345.006	40107.15
345.457	30773.64
345.908	24555.94
346.359	23222.25
346.81	18956.56
347.261	20031.31
347.712	19734.7
348.163	21187.62
348.613	21482.93
349.064	20088.2
349.515	17618.39
349.965	18090.24
350.416	21843
350.866	24007.39
351.317	27164.77
351.767	45035.87
352.217	56949.96
352.668	47335.05
353.118	43421.32
353.568	41921.06
354.018	33151.88
354.468	34970.63
354.918	25079.47
355.368	21932.31
355.818	31039.15
356.268	89482.64
356.718	375016.68
357.168	93440.42
357.617	47007.37
358.067	52350.97
358.517	49172.45
358.966	57813.47
359.416	64960.77
359.865	70414.37
360.315	84175.8
360.764	39425.14
361.213	22093.26
361.663	20981.31
362.112	25969.04
362.561	42060.43
363.01	31846.36
363.459	26877.55
363.908	29204.89
364.357	24857.45
364.806	42100.31
365.255	28999.7
365.703	26574.37
366.152	26661.84
366.601	21661.12
367.05	17634.02
367.498	16040.37
367.947	16787.25
368.395	17495.31
368.844	15486.28
369.292	18703.53
369.74	12950.33
370.189	19894.11
370.637	23309.69
371.085	20201.66
371.533	24702.65
371.981	23888.31
372.429	22829.66
372.877	23810.66
373.325	19981.89
373.773	20447.22
374.221	18262.49
374.669	22685.81
375.116	19637.17
375.564	19885.1
376.012	22265.38
376.459	18399.32
376.907	22046.02
377.354	26727.71
377.801	25009.67
378.249	28738.31
378.696	36798.85
379.143	44676.87
379.591	47763.59
380.038	80991.99
380.485	58670.83
380.932	63543.65
381.379	58138.5
381.826	42809.34
382.273	30531.78
382.72	26743.54
383.166	26146.11
383.613	17005.35
384.06	15385.78
384.506	17833.17
384.953	13114.59
385.4	13240.52
385.846	11606.13
386.292	11326.43
386.739	11096.82
387.185	10981.89
387.631	10988.4
388.078	10664.78
388.524	11397.2
388.97	10507.62
389.416	8773.16
389.862	9320.79
390.308	8802.48
390.754	8929.47
391.2	9670.82
391.645	9882.07
392.091	9415.41
392.537	9085.07
392.983	9078.94
393.428	8902.08
393.874	9524.2
394.319	9511.53
394.765	9001.59
395.21	9251.36
395.655	8658.51
396.101	8113.12
396.546	7314.73
396.991	7371.32
397.436	6831.75
397.881	6596.43
398.326	6236.67
398.771	5885.89
399.216	5137.18
399.661	4615.58
400.106	4581.61
400.551	4676.15
400.995	4188.53
401.44	4137.21
401.885	3884.15
402.329	3924.13
402.774	3759.16
403.218	3632.59
403.663	3492.99
404.107	3588.84
404.551	3608.67
404.995	3308.56
405.44	3187.97
405.884	3231.15
406.328	3121.31
406.772	3105.57
407.216	2820.5
407.66	2715.29
408.104	2573.71
408.547	2403.63
408.991	2320.35
409.435	2231.77
409.879	2197.45
410.322	2163.3
410.766	2081.97
411.209	1974.24
411.653	1890.75
412.096	1846.43
412.54	1847.34
412.983	1833.18
413.426	1836.34
413.869	1831.8
414.312	1790.74
414.756	1721.75
415.199	1639.07
415.642	1586.83
416.085	1587.24
416.527	1574.93
416.97	1599.14
417.413	1519.74
417.856	1507.23
418.298	1495.91
418.741	1490.94
419.184	1491.7
419.626	1556.16
420.069	1558.98
420.511	1570.88
420.953	1537.77
421.396	1524.65
421.838	1490.86
422.28	1521.04
422.722	1524.35
423.164	1542.35
423.606	1513.39
424.048	1509.78
424.49	1434.63
424.932	1429.88
425.374	1412.22
425.816	1440.43
426.258	1470.56
426.699	1487.95
427.141	1469.65
427.582	1498.18
428.024	1492.19
428.465	1483.12
428.907	1446.03
429.348	1427.04
429.789	1424.71
430.231	1391.91
430.672	1407.17
431.113	1369.72
431.554	1343.4
431.995	1303.61
432.436	1250.16
432.877	1219.16
433.318	1196.83
433.759	1187.59
434.2	1183.43
434.64	1163.94
435.081	1163.35
435.522	1098.53
435.962	1058
436.403	1032.38
436.843	1046.2
437.284	1021.63
437.724	993.87
438.164	996.77
438.604	973.59
439.045	936.88
439.485	900.29
439.925	881.85
440.365	857.45
440.805	844.7
441.245	832.86
441.685	800.98
442.125	796
442.564	798.92
443.004	776.36
443.444	773.24
443.883	772.29
444.323	764.14
444.762	763.01
445.202	771.58
445.641	782.06
446.081	775.84
446.52	780.06
446.959	768.59
447.398	747.02
447.837	736.06
448.276	721.56
448.716	725.78
449.154	730.19
449.593	710.94
450.032	707.24
450.471	693.88
450.91	693.11
451.349	691.04
451.787	687.45
452.226	696.67
452.664	695.92
453.103	697.1
453.541	695.38
453.98	695.18
454.418	700.28
454.856	690.84
455.295	689.33
455.733	694.78
456.171	697.74
456.609	697.83
457.047	698.37
457.485	709.13
457.923	708.84
458.361	699.34
458.798	700.04
459.236	697.6
459.674	701.01
460.111	703.89
460.549	696.69
460.987	694.01
461.424	691.67
461.862	687.69
462.299	676.87
462.736	677.7
463.173	679.69
463.611	672.32
464.048	669.96
464.485	675.22
464.922	668.06
465.359	664.11
465.796	657.65
466.233	653.34
466.67	647.81
467.106	646.17
467.543	639.19
467.98	631.62
468.416	615.75
468.853	612.67
469.29	595.26
469.726	589.7
470.162	575.49
470.599	567.32
471.035	562.99
471.471	550.34
471.907	547.49
472.344	545.53
472.78	548.16
473.216	554.85
473.652	547.36
474.088	547.08
474.523	546.22
474.959	551.33
475.395	546.77
475.831	544.78
476.266	548.48
476.702	548.4
477.138	542.84
477.573	542.04
478.008	541.58
478.444	545.8
478.879	550.69
479.314	554.83
479.75	556.1
480.185	560.18
480.62	566.37
481.055	569.66
481.49	573.71
481.925	582.42
482.36	593.46
482.795	611.17
483.229	627.93
483.664	641.54
484.099	643.68
484.534	653.91
484.968	659.5
485.403	660.55
485.837	659.37
486.271	660.09
486.706	660.99
487.14	653.3
487.574	641.79
488.009	635.48
488.443	629.74
488.877	635.91
489.311	636.58
489.745	642.98
490.179	647.86
490.613	659.28
491.046	662.13
491.48	664.49
491.914	662.76
492.348	666.01
492.781	668.59
493.215	667.4
493.648	664.99
494.082	667.35
494.515	664.58
494.948	667.88
495.382	668.19
495.815	668.09
496.248	669.53
496.681	677.55
497.114	683.03
497.547	686.54
497.98	694.16
498.413	694.54
498.846	697.99
499.279	699.91
499.711	697.68
500.144	692.87
500.577	695.61
501.009	698.18
501.442	699.14
501.874	692.77
502.306	686.87
502.739	685.85
503.171	690.61
503.603	684.19
504.036	683.41
504.468	680.32
504.9	681.35
505.332	677.34
505.764	671.87
506.196	667.42
506.627	668.8
507.059	669.39
507.491	664.16
507.923	652.83
508.354	654.02
508.786	652.12
509.217	653.62
509.649	653.16
510.08	655.55
510.512	655.99
510.943	655.61
511.374	651.85
511.805	653.53
512.237	655.09
512.668	663.11
513.099	666.82
513.53	670.2
513.961	670.62
514.391	676.25
514.822	683.41
515.253	691.71
515.684	692.87
516.114	697.06
516.545	696.97
516.975	699.01
517.406	696.33
517.836	688.11
518.267	681.78
518.697	681.22
519.127	674.77
519.558	668.46
519.988	660.83
520.418	657.75
520.848	657.17
521.278	652.85
521.708	679.39
522.138	678.58
522.567	683.95
522.997	688.26
523.427	686.88
523.857	687.27
524.286	684.6
524.716	685.62
525.145	688.27
525.575	688.95
526.004	689.88
526.433	655.28
526.863	651.22
527.292	645.68
527.721	643.75
528.15	643.94
528.579	641.92
529.008	644.38
529.437	649.65
529.866	652.21
530.295	655.24
530.724	658.24
531.152	666.46
531.581	670.31
532.01	674.38
532.438	676.47
532.867	680.33
533.295	686.41
533.723	687.65
534.152	686.59
534.58	685.96
535.008	680.55
535.436	682.17
535.865	684.39
536.293	688.9
536.721	694.99
537.149	703.91
537.576	705.11
538.004	709.97
538.432	713.03
538.86	713.48
539.287	716.86
539.715	722.1
540.143	722.18
540.57	721.67
540.998	721.25
541.425	714.99
541.852	708.92
542.28	709.38
542.707	703.9
543.134	700.62
543.561	699.45
543.988	697.97
544.415	699.28
544.842	698.23
545.269	696.86
545.696	699.93
546.123	706
546.549	703.54
546.976	700.79
547.403	702.86
547.829	704.25
548.256	707.16
548.682	707.66
549.108	707.51
549.535	710.32
549.961	712.84
550.387	708.96
550.813	709.27
551.24	714.09
551.666	716.16
552.092	713.88
552.518	713.29
552.943	713.25
553.369	717.85
553.795	721.44
554.221	723.14
554.646	724.72
555.072	733.05
555.498	735.4
555.923	739.73
556.349	747.7
556.774	753.55
557.199	756.65
557.625	761.39
558.05	762
558.475	769.04
558.9	771.74
559.325	772.1
559.75	771.69
560.175	772.59
560.6	774.6
561.025	777.1
561.449	781.15
561.874	787.04
562.299	792.64
562.723	799.34
563.148	798.56
563.572	803.8
563.997	812.03
564.421	818.3
564.846	822.67
565.27	829.06
565.694	832.76
566.118	842.67
566.542	852.4
566.966	854.47
567.39	857.18
567.814	858.45
568.238	863.81
568.662	870.92
569.086	877.31
569.509	886.66
569.933	884.74
570.357	887.19
570.78	882.97
571.204	882.18
571.627	882.98
572.05	888.24
572.474	893.91
572.897	893.47
573.32	896.15
573.743	896.56
574.166	893.07
574.589	898.26
575.012	899.64
575.435	903.74
575.858	904.48
576.281	903.45
576.704	899.91
577.126	898.39
577.549	897.78
577.972	896.06
578.394	895.78
578.817	897.94
579.239	892.66
579.661	890.18
580.084	887.16
580.506	884.12
580.928	886.25
581.35	884.29
581.772	885.19
582.194	882.13
582.616	878.73
583.038	873.42
583.46	869.47
583.882	871.21
584.303	876.48
584.725	876.64
585.147	883.27
585.568	892.69
585.99	902.99
586.411	909.58
586.833	920.16
587.254	923.55
587.675	934.79
588.096	944.38
588.518	942.94
588.939	935.46
589.36	937.09
589.781	930.52
590.202	917.34
590.623	914.62
591.043	915.47
591.464	909.85
591.885	910.04
592.305	908.14
592.726	902.09
593.147	904.83
593.567	903.23
593.987	899.73
594.408	896.52
594.828	894
595.248	891.83
595.669	881.71
596.089	878.66
596.509	876.14
596.929	868.82
597.349	870.55
597.769	865.5
598.189	862.84
598.608	864.79
599.028	867.59
599.448	869.23
599.867	861.2
600.287	859.68
600.706	858.38
601.126	853.95
601.545	855.6
601.965	856.32
602.384	854.31
602.803	857.37
603.222	856
603.641	853.55
604.061	853
604.48	852.89
604.898	860.14
605.317	864.78
605.736	867.06
606.155	868.13
606.574	864.25
606.992	870.46
607.411	870.01
607.829	866.72
608.248	866.68
608.666	868.61
609.085	871.52
609.503	869.27
609.921	869.46
610.339	875.24
610.758	876.95
611.176	877.74
611.594	875.34
612.012	876.29
612.43	882.65
612.847	890.79
613.265	895.26
613.683	901.73
614.101	906.55
614.518	906.61
614.936	903.15
615.353	896.88
615.771	899.29
616.188	902.07
616.606	903.37
617.023	903.03
617.44	898.02
617.857	895.8
618.274	893.04
618.691	891.31
619.108	887.83
619.525	885.77
619.942	893.56
620.359	896.93
620.776	896.38
621.192	896.08
621.609	895.43
622.026	901.88
622.442	907.53
622.859	911.17
623.275	907.34
623.691	913.04
624.108	923.33
624.524	935.04
624.94	935.62
625.356	944.18
625.772	955.21
626.188	964.94
626.604	965.88
627.02	964.12
627.436	963.53
627.852	969.52
628.268	979.63
628.683	973.13
629.099	966.92
629.514	964.6
629.93	968.3
630.345	972.06
630.761	969.56
631.176	973.32
631.591	971.77
632.007	970.46
632.422	970.44
632.837	963.59
633.252	966.79
633.667	962.55
634.082	959.23
634.497	954.76
634.911	944.91
635.326	948.44
635.741	942.43
636.155	940.54
636.57	948.79
636.984	956.63
637.399	966.81
637.813	973.28
638.228	981.5
638.642	994.49
639.056	995.67
639.47	1007.39
639.884	1010.43
640.298	1015.35
640.712	1025.07
641.126	1024.7
641.54	1028.86
641.954	1035.3
642.368	1036.75
642.781	1041.6
643.195	1037.29
643.609	1047.5
644.022	1053.23
644.436	1061.81
644.849	1062.67
645.262	1062.75
645.676	1075.48
646.089	1081.14
646.502	1077.31
646.915	1081.97
647.328	1074.76
647.741	1081.2
648.154	1077.5
648.567	1081.49
648.98	1075.07
649.393	1082.1
649.805	1085.78
650.218	1083.76
650.631	1073.83
651.043	1072.63
651.456	1071.37
651.868	1077.34
652.28	1101.39
652.693	1121.27
653.105	1133.16
653.517	1146.47
653.929	1150.89
654.341	1161.24
654.753	1152.75
655.165	1164.24
655.577	1166.21
655.989	1166.53
656.401	1164.62
656.813	1130.51
657.224	1115.15
657.636	1090.64
658.047	1080.65
658.459	1067.42
658.87	1064.96
659.282	1059.95
659.693	1043.92
660.104	1035.89
660.515	1028.7
660.926	1032.65
661.338	1037.32
661.749	1037.93
662.159	1034.19
662.57	1035.72
662.981	1035.96
663.392	1033.92
663.803	1046.48
664.213	1050.53
664.624	1051.09
665.035	1061.59
665.445	1051.24
665.855	1047.99
666.266	1040.94
666.676	1041.81
667.086	1031.5
667.497	1034.31
667.907	1029.89
668.317	1018.79
668.727	1015.3
669.137	1017.51
669.547	1014.54
669.956	1019.49
670.366	1021.91
670.776	1025.33
671.186	1031.11
671.595	1036.99
672.005	1041.69
672.414	1038.81
672.824	1036.59
673.233	1040.78
673.642	1042.21
674.052	1044.19
674.461	1043.75
674.87	1046.87
675.279	1040.4
675.688	1039.48
676.097	1038.02
676.506	1029.74
676.915	1045.7
677.323	1045.26
677.732	1039.75
678.141	1035.19
678.549	1016.95
678.958	1011.37
679.366	1005.91
679.775	1007.24
680.183	1013.01
680.592	1014.92
681	1015.49
681.408	998.8
681.816	1001.24
682.224	1004.18
682.632	1007.61
683.04	1035.49
683.448	1055.02
683.856	1079.15
684.264	1106.94
684.671	1130.39
685.079	1157.66
685.487	1189.71
685.894	1238.22
686.302	1268.72
686.709	1287.27
687.116	1309.98
687.524	1318.94
687.931	1320.06
688.338	1313.71
688.745	1302.24
689.152	1292.47
689.559	1292.7
689.966	1289.9
690.373	1268.59
690.78	1262.35
691.187	1271.97
691.593	1267.09
692	1257.79
692.407	1263.79
692.813	1279.98
693.22	1281.62
693.626	1285.38
694.032	1282.39
694.439	1294.98
694.845	1294.66
695.251	1305.26
695.657	1311.62
696.063	1337.08
696.469	1347.37
696.875	1354.15
697.281	1343.3
697.687	1341.03
698.093	1335.24
698.498	1345.64
698.904	1347.89
699.31	1366.92
699.715	1375.93
700.12	1397.17
700.526	1384.66
700.931	1395.31
701.337	1400.88
701.742	1398.25
702.147	1417.11
702.552	1411.98
702.957	1421.42
703.362	1413.26
703.767	1410.64
704.172	1410.41
704.577	1375.06
704.981	1379.64
705.386	1375
705.791	1357.75
706.195	1374.19
706.6	1365.76
707.004	1384.57
707.408	1360.35
707.813	1361.25
708.217	1346.56
708.621	1336.85
709.025	1364.96
709.43	1357.53
709.834	1369.33
710.237	1385.77
710.641	1371.45
711.045	1372.31
711.449	1363.48
711.853	1370.06
712.256	1375.9
712.66	1381.36
713.064	1400.25
713.467	1408.06
713.87	1437.79
714.274	1445.1
714.677	1472.88
715.08	1518.45
715.484	1563.58
715.887	1622.95
716.29	1674.39
716.693	1731.27
717.096	1798.66
717.499	1830.49
717.901	1826.68
718.304	1828.23
718.707	1829.94
719.109	1793.76
719.512	1779.11
719.915	1735.85
720.317	1713.67
720.719	1724.2
721.122	1712.63
721.524	1694.47
721.926	1684
722.328	1711.17
722.731	1703.67
723.133	1705.74
723.535	1761.41
723.937	1762.42
724.338	1771.33
724.74	1780.19
725.142	1807.87
725.544	1805.95
725.945	1823.9
726.347	1813.8
726.748	1810.55
727.15	1814.2
727.551	1804.74
727.952	1792
728.354	1780.51
728.755	1780.09
729.156	1763.76
729.557	1709.39
729.958	1669.76
730.359	1640.64
730.76	1635.24
731.161	1617.36
731.562	1606.75
731.962	1604.33
732.363	1585.39
732.763	1566.51
733.164	1576.48
733.564	1557.28
733.965	1528.89
734.365	1518.25
734.766	1526.14
735.166	1514.8
735.566	1496.94
735.966	1489.85
736.366	1488.7
736.766	1468.99
737.166	1479.3
737.566	1466.44
737.966	1456.57
738.365	1467.17
738.765	1465.16
739.165	1442.9
739.564	1433.74
739.964	1445.69
740.363	1430.25
740.763	1427.77
741.162	1425.71
741.561	1415.48
741.96	1401.2
742.36	1407.59
742.759	1409.38
743.158	1418.8
743.557	1420.94
743.955	1434.53
744.354	1422.18
744.753	1439.65
745.152	1428.87
745.55	1443.28
745.949	1440.56
746.348	1441.15
746.746	1445.18
747.144	1437.41
747.543	1431.37
747.941	1446.55
748.339	1423.59
748.737	1421.51
749.136	1420.68
749.534	1439.47
749.932	1434.11
750.33	1442.5
750.727	1460.53
751.125	1457.74
751.523	1449.83
751.921	1468.11
752.318	1460.31
752.716	1482.1
753.113	1487.6
753.511	1494.61
753.908	1495.88
754.305	1494.88
754.703	1514.56
755.1	1535.59
755.497	1553.42
755.894	1610.02
756.291	1658.94
756.688	1752.82
757.085	1872.26
757.482	2044.79
757.878	2231.97
758.275	2395
758.672	2614.37
759.068	2796
759.465	3053.42
759.861	3386.91
760.258	3779.73
760.654	3974.79
761.05	3935.25
761.447	3757.26
761.843	3507.76
762.239	3252.35
762.635	3143.82
763.031	3039.85
763.427	2879.82
763.822	2714.62
764.218	2551.6
764.614	2336.78
765.01	2194.06
765.405	2105.33
765.801	2043.1
766.196	1956.1
766.592	1909.81
766.987	1826.89
767.382	1772.89
767.778	1753.81
768.173	1722.61
768.568	1706.48
768.963	1673.86
769.358	1683.93
769.753	1674.99
770.148	1652.74
770.542	1653.57
770.937	1646.06
771.332	1676.25
771.726	1683.14
772.121	1668.94
772.515	1685.55
772.91	1684.48
773.304	1708.79
773.699	1690.87
774.093	1707.23
774.487	1723.27
774.881	1736.91
775.275	1737.96
775.669	1725.13
776.063	1739.46
776.457	1749.52
776.851	1726.74
777.245	1723.35
777.638	1732.15
778.032	1768.04
778.425	1758.67
778.819	1777.58
779.212	1771.06
779.606	1760.42
779.999	1766.18
780.392	1763.18
780.786	1789.17
781.179	1796.29
781.572	1811.1
781.965	1815.77
782.358	1797.14
782.751	1813.05
783.143	1793.47
783.536	1812.86
783.929	1821.05
784.322	1856.76
784.714	1864.4
785.107	1860.55
785.499	1881.64
785.891	1874.36
786.284	1866.98
786.676	1910.72
787.068	1904.2
787.46	1918.83
787.852	1919.61
788.245	1946.24
788.636	1952.51
789.028	1973.44
789.42	1987.12
789.812	1989.36
790.204	2016.7
790.595	2049.94
790.987	1987.06
791.378	1994.16
791.77	2033.04
792.161	2074.32
792.553	2092.24
792.944	2058.47
793.335	2034.07
793.726	2056.47
794.117	2088.21
794.508	2128.7
794.899	2113.37
795.29	2157.9
795.681	2173.75
796.072	2128.48
796.463	2094.31
796.853	2099.06
797.244	2147.41
797.634	2160.34
798.025	2157.39
798.415	2155.09
798.806	2188.15
799.196	2218.66
799.586	2235.17
799.976	2221.8
800.366	2292.04
800.756	2339.59
801.146	2326.79
801.536	2336.27
801.926	2355.17
802.316	2362.85
802.706	2384.43
803.095	2344.08
803.485	2374.66
803.874	2386.31
804.264	2468.16
804.653	2464.07
805.043	2514.42
805.432	2546.87
805.821	2545.74
806.21	2552.33
806.599	2587.29
806.988	2603.99
807.377	2628.68
807.766	2666.78
808.155	2748.67
808.544	2660.24
808.933	2656.99
809.321	2644.51
809.71	2727.28
810.098	2769.86
810.487	2902.29
810.875	3041.22
811.264	3035.56
811.652	3127.23
812.04	3155.93
812.428	3200.39
812.816	3419.42
813.204	3535.55
813.592	3686.46
813.98	3776.91
814.368	3745.22
814.756	3880.22
815.144	3846.98
815.531	3981.41
815.919	3942.75
816.306	4027.89
816.694	3929.51
817.081	3947.6
817.469	4054.24
817.856	4056.07
818.243	4137.3
818.63	4251.49
819.017	4127.07
819.404	4149.35
819.791	4255.54
820.178	4431.42
820.565	4503.5
820.952	4780.1
821.339	4637.77
821.725	4688.94
822.112	4474.8
822.498	4458.62
822.885	4491.99
823.271	4465.13
823.657	4584.65
824.044	4593.62
824.43	4619.27
824.816	4625.07
825.202	4489.52
825.588	4780.83
825.974	4781.41
826.36	4923.48
826.746	4929.43
827.132	5024.03
827.517	5019.97
827.903	4785
828.289	4794.66
828.674	4562.84
829.06	4520.26
829.445	4632.15
829.83	4728.42
830.216	4861.27
830.601	4969.55
830.986	4854.79
831.371	4816.13
831.756	4974.03
832.141	4858.55
832.526	4851.74
832.911	4936.41
833.295	4901.96
833.68	5041.94
834.065	4868.84
834.449	4600.08
834.834	4579.17
835.218	4576.49
835.603	4675.25
835.987	4605.34
836.371	4835.58
836.755	4803.36
837.139	4909.17
837.524	4973.17
837.908	4913.94
838.291	4931.26
838.675	4946.73
839.059	4996.47
839.443	4982.13
839.827	4910.81
840.21	5042.38
840.594	5002.2
840.977	5058.7
841.361	5053.34
841.744	5156.81
842.127	5106.83
842.511	5165.1
842.894	5329.32
843.277	5435.14
843.66	5588.73
844.043	5615.34
844.426	5390.25
844.809	5295.77
845.191	5299.69
845.574	5165.69
845.957	5060.62
846.339	5032.71
846.722	4882.84
847.104	4899.88
847.487	4843.63
847.869	4849.15
848.252	4924.63
848.634	5017.82
849.016	5086.39
849.398	5115.25
849.78	5351.21
850.162	5353.03
850.544	5464.27
850.926	5634.59
851.307	5606.63
851.689	5686.35
852.071	5802.05
852.452	5888.83
852.834	5875.74
853.215	5992.34
853.597	6031.64
853.978	6119.44
854.359	6243.14
854.741	5967.32
855.122	5938.93
855.503	5859.3
855.884	5898.18
856.265	5887.41
856.646	5914.52
857.026	5804.92
857.407	5777.71
857.788	5828.04
858.169	5900.58
858.549	5668.95
858.93	5840.77
859.31	5859.87
859.69	5924.23
860.071	5809.34
860.451	5746.66
860.831	5535.47
861.211	5854.16
861.591	6009.57
861.971	6000.46
862.351	6055.95
862.731	6155.07
863.111	6224.26
863.491	6318.06
863.87	6554.31
864.25	6645.84
864.629	6534.94
865.009	6681.86
865.388	6924.1
865.768	7410.87
866.147	7379.87
866.526	6968.91
866.905	7056
867.284	7455.03
867.663	7068.9
868.042	6777.67
868.421	6758.48
868.8	6867.02
869.179	6936.38
869.558	6528.42
869.936	6018.34
870.315	6122.97
870.693	6278.07
871.072	6763.73
871.45	6433.48
871.828	6523.33
872.207	6859.92
872.585	6756.49
872.963	6934.81
873.341	6700.92
873.719	6631.11
874.097	6553.26
874.475	6679.12
874.853	6826.6
875.23	6547.56
875.608	6824.38
875.986	7376.84
876.363	7046.37
876.741	7273.86
877.118	7104.61
877.495	7455.79
877.873	7568
878.25	7969.11
878.627	7638.12
879.004	7740.95
879.381	7693.22
879.758	7500.16
880.135	6985.04
880.512	7394.46
880.889	7183.2
881.265	7095.71
881.642	7026.6
882.019	7146.76
882.395	7003.71
882.772	7293.17
883.148	6980.33
883.524	6959.38
883.901	6912.47
884.277	7005.51
884.653	6955.11
885.029	7160.94
885.405	7950.35
885.781	7887.25
886.157	7552.58
886.532	7629.97
886.908	7611.25
887.284	8452.47
887.659	8716.77
888.035	8989.34
888.411	9226.42
888.786	9345.43
889.161	9667.08
889.537	9465.82
889.912	9763.56
890.287	9757.22
890.662	10014.01
891.037	9834.95
891.412	9177.13
891.787	9089.06
892.162	8769.62
892.536	8969.61
892.911	8638.66
893.286	8442.44
893.66	8097.55
894.035	8303.67
894.409	9037.73
894.784	8669.64
895.158	8794.49
895.532	9310.82
895.906	9563.67
896.281	9776.59
896.655	9617.76
897.029	10969.82
897.402	11423.39
897.776	12709.41
898.15	12657.74
898.524	12510.23
898.898	12668.73
899.271	14213.23
899.645	12297.27
900.018	11799.35
900.392	12246.34
900.765	12335.07
901.138	11411.71
901.511	11240.15
901.884	10344.81
902.258	9550.11
902.631	9877.32
903.003	11369.46
903.376	10250.46
903.749	11498.93
904.122	12315.16
904.495	13542.47
904.867	13732.36
905.24	11935.05
905.612	11113.32
905.985	11336.17
906.357	11846.63
906.729	11312.8
907.102	9677.33
907.474	9308.63
907.846	9381.02
908.218	9255.7
908.59	8205.1
908.962	7918.52
909.334	8528.18
909.705	8953.32
910.077	8689.39
910.449	9045.16
910.82	9302
911.192	10221.33
911.563	10631.17
911.935	11360.14
912.306	11363.99
912.677	11695.8
913.048	11600.44
913.419	12585.15
913.79	12650.66
914.161	13559.61
914.532	12966.29
914.903	11895.75
915.274	11287.88
915.645	11117.93
916.015	9777.3
916.386	9328.7
916.756	9943.86
917.127	10255.49
917.497	9171.36
917.868	9993.06
918.238	9502.93
918.608	9768.99
918.978	9979.81
919.348	10576.91
919.718	10933.55
920.088	10541.58
920.458	10952.31
920.828	11518.83
921.198	10920.16
921.567	11649.9
921.937	9035.97
922.306	9130.7
922.676	9846.8
923.045	8236.61
923.415	7842.15
923.784	7132.68
924.153	7340.58
924.522	7347.9
924.891	6898.7
925.26	7385.45
925.629	7209.77
925.998	8258.05
926.367	8052.46
926.736	7684.37
927.104	9119.76
927.473	9779.02
927.842	11801.3
928.21	11655.61
928.578	12198.22
928.947	11554.4
929.315	11634.03
929.683	13644.2
930.051	13760.78
930.42	15962.01
930.788	13626.78
931.156	13530.78
931.523	12710.04
931.891	11734.4
932.259	11287.77
932.627	13105.51
932.994	18506.3
933.362	15305.55
933.729	13276.86
934.097	12708.85
934.464	10767.43
934.831	12386.82
935.199	12181.32
935.566	11803.86
935.933	11934.34
936.3	14440.53
936.667	11227.77
937.034	10235.78
937.401	10095.59
937.767	8723.7
938.134	7759.72
938.501	10938.86
938.867	11712.38
939.234	19830.4
939.6	16910.14
939.967	18760.06
940.333	12575.18
940.699	10728.06
941.065	8495.31
941.431	11174.5
941.798	10822.77
942.163	14288.49
942.529	8915.07
942.895	8177.95
943.261	5308.33
943.627	6965.39
943.992	6111.55
944.358	6129.03
944.723	6187.58
945.089	6027.52
945.454	5570.09
945.82	5941.07
946.185	5705.61
946.55	6620.62
946.915	5947.94
947.28	6964.43
947.645	6121.21
948.01	5659.5
948.375	5929.84
948.74	7049.99
949.104	8218.14
949.469	11759.65
949.834	20726.36
950.198	19694.36
950.562	11834.2
950.927	9864.85
951.291	11877.31
951.655	10122.72
952.02	9451.92
952.384	7129.85
952.748	6239.22
953.112	6136.99
953.476	5362.6
953.839	4955.52
954.203	4930.03
954.567	6143.61
954.931	9604.72
955.294	8244.03
955.658	8277.45
956.021	14099.78
956.385	23726.46
956.748	34964.79
957.111	53741.93
957.474	60151.41
957.837	67461.29
958.2	50470.17
958.563	18165.73
958.926	12325.4
959.289	18631.29
959.652	20799.24
960.015	15571.01
960.377	22374.75
960.74	25531.41
961.102	44139.31
961.465	47663.43
961.827	26038.71
962.189	50118.48
962.552	34761.34
962.914	27872.67
963.276	18085.92
963.638	14950.21
964	14770.57
964.362	10027.09
964.724	9659.7
965.085	6892.67
965.447	5637.35
965.809	6323.34
966.17	6300.32
966.532	6807.98
966.893	6250.76
967.255	5673.26
967.616	6697.86
967.977	5386.78
968.338	5874.92
968.699	4858.08
969.061	4850.91
969.421	4894.57
969.782	5502.65
970.143	4682.49
970.504	4874.14
970.865	5541.88
971.225	5706.11
971.586	5568.5
971.946	7882.26
972.307	6821.2
972.667	8854.61
973.027	9157.29
973.388	11075.46
973.748	7500.95
974.108	8167.42
974.468	10964.67
974.828	8524.31
975.188	6514.95
975.548	6024.4
975.907	5075.91
976.267	5685.54
976.627	4801.98
976.986	4946.08
977.346	4701.59
977.705	4539.33
978.064	4114.26
978.424	3435.3
978.783	3504.31
979.142	4004.62
979.501	3830.56
979.86	4076.57
980.219	3937.34
980.578	5064.49
980.937	5674.69
981.296	5072.33
981.654	5211.76
982.013	8103.99
982.371	10566.32
982.73	9932.54
983.088	11202.44
983.447	11943.7
983.805	17045.03
984.163	35647.44
984.521	39387.88
984.879	57658.51
985.237	-94091.53
985.595	91049.74
985.953	22521.45
986.311	12917.5
986.669	7469.11
987.026	6470.8
987.384	8631.48
987.741	8866.38
988.099	6380.38
988.456	5089.04
988.814	4775.68
989.171	4128.97
989.528	4052.4
989.885	4292.87
990.242	3421.28
990.599	4251.37
990.956	3455.28
991.313	2432.37
991.67	2012.34
992.027	2179.68
992.383	1947.32
992.74	1733.7
993.096	1841.39
993.453	1908.97
993.809	1971.72
994.165	2619.71
994.522	2454.74
994.878	2722.98
995.234	3410.91
995.59	3340.88
995.946	3071.12
996.302	3504.68
996.658	3984.17
997.013	4342.81
997.369	5160.39
997.725	6668.78
998.08	4342.48
998.436	6537.48
998.791	9036.04
999.147	9046.69
999.502	9838.53
999.857	7151.85
1000.212	11622.17
1000.567	16637.06
1000.922	9603.56
1001.277	6109.86
1001.632	4507.25
1001.987	5733.72
1002.342	4103.82
1002.696	3283.16
1003.051	2637.11
1003.406	3225.47
1003.76	3192.19
1004.114	3133.85
1004.469	2655.95
1004.823	2203.38
1005.177	2354.52
1005.531	1875.13
1005.885	1690.89
1006.239	1923.77
1006.593	2433.69
1006.947	3259.24
1007.301	2435.65
1007.655	2657.06
1008.008	1960.44
1008.362	2177.51
1008.715	3105.74
1009.069	2826.37
1009.422	4349.35
1009.776	8693.45
1010.129	5772.91
1010.482	4741.15
1010.835	3975.44
1011.188	8167.01
1011.541	7725.58
1011.894	-46585.14
1012.247	137350.07
1012.6	9206.72
1012.952	5900.56
1013.305	2931.54
1013.657	2103.54
1014.01	1998.88
1014.362	1643.9
1014.715	1508.13
1015.067	1347.43
1015.419	1322.57
1015.771	1209.4
1016.123	1085.96
1016.475	1138.27
1016.827	1194.98
1017.179	1312.77
1017.531	1314.69
1017.883	1312.76
1018.234	1328.29
1018.586	1656.55
1018.938	1812.06
1019.289	2501.02
1019.64	2803.32
1019.992	2588.39
1020.343	2336.71
1020.694	1899.62
1021.045	1686.56
1021.396	1900.45
1021.747	2104.06
1022.098	2442.47
1022.449	1785.62
1022.8	1631.72
1023.151	1163.56
1023.501	1059.91
1023.852	1149.92
1024.202	1223.05
1024.553	1316.21
1024.903	1301.69
1025.253	1160.28
1025.604	1033.08
1025.954	1263.79
1026.304	1481.78
1026.654	1700.88
1027.004	2452.28
1027.354	3850
1027.703	3762.27
1028.053	4820.9
1028.403	7136.82
1028.753	9971.36
1029.102	13010.72
1029.452	66194.19
1029.801	2900.32
1030.15	1911.87
1030.499	1580.54
897.758	2771.98
901.051	2726.78
904.343	2765.91
907.636	2762.7
910.928	2829.28
914.22	2736.55
917.511	2745.66
920.803	2810.68
924.094	2832.48
927.384	2806.09
930.675	2771.78
933.965	2721.37
937.255	2729.29
940.544	2694.19
943.834	2623.27
947.123	2567.39
950.411	2663.74
953.7	2634.75
956.988	2598.21
960.276	2538.55
963.563	2625.09
966.851	2614.59
970.138	2675.8
973.424	2665.3
976.711	2615.39
979.997	2761.01
983.283	2792.98
986.568	2693.47
989.853	2713.6
993.138	2739.15
996.423	2822.07
999.708	2752.28
1002.992	2825.81
1006.275	2647.44
1009.559	2699.55
1012.842	2814.33
1016.125	2742.99
1019.408	2722.08
1022.69	2813.03
1025.972	2827.72
1029.254	2801.93
1032.536	2726.94
1035.817	2757.17
1039.098	2692.36
1042.379	2853.51
1045.659	2845.22
1048.939	2775.46
1052.219	2798.7
1055.498	2811.85
1058.778	2793.1
1062.057	2778.52
1065.335	2796.85
1068.614	2817.93
1071.892	2796.09
1075.17	2875.37
1078.447	2855.04
1081.724	2848
1085.001	2887.97
1088.278	2858.86
1091.554	2870.82
1094.83	2870.26
1098.106	2894.73
1101.382	2942.41
1104.657	2940.17
1107.932	2936.68
1111.206	2897.88
1114.481	2857.71
1117.755	2860.78
1121.029	2832.27
1124.302	2884.36
1127.575	2833.45
1130.848	2817.12
1134.121	2775.18
1137.393	2722.17
1140.665	2791.46
1143.937	2763.38
1147.208	2726.57
1150.48	2760.37
1153.75	2742.46
1157.021	2783.79
1160.291	2749.84
1163.561	2792.85
1166.831	2787.34
1170.101	2818.81
1173.37	2797.23
1176.639	2737.76
1179.907	2799.9
1183.176	2800.01
1186.444	2812.32
1189.711	2840.8
1192.979	2847.29
1196.246	2807.08
1199.513	2823.62
1202.78	2820.83
1206.046	2831.46
1209.312	2854.4
1212.578	2880.68
1215.843	2831.42
1219.108	2807.56
1222.373	2829.83
1225.638	2792.74
1228.902	2777.76
1232.166	2747.36
1235.43	2730.1
1238.693	2752.18
1241.956	2750.47
1245.219	2789.34
1248.482	2784.49
1251.744	2778.96
1255.006	2931.93
1258.268	2889.89
1261.529	2830.7
1264.79	2837.93
1268.051	2938.99
1271.312	2955.98
1274.572	2914.77
1277.832	2905.36
1281.092	2894.77
1284.351	2862.56
1287.61	2836.66
1290.869	2753.7
1294.128	2720.87
1297.386	2822.98
1300.644	2808.43
1303.902	2823.23
1307.159	2680.45
1310.416	2735.54
1313.673	2760.43
1316.93	2748.35
1320.186	2797.2
1323.442	2840.9
1326.697	2825.48
1329.953	2823.97
1333.208	2841.22
1336.463	2824.47
1339.717	2757.93
1342.972	2904.42
1346.226	2885.18
1349.479	2814.09
1352.733	2780.05
1355.986	2809.42
1359.238	2789.97
1362.491	2794.84
1365.743	2797.15
1368.995	2794.73
1372.247	2814.55
1375.498	2840.78
1378.749	2848.57
1382	2808.13
1385.251	2864.65
1388.501	2832.37
1391.751	2814.37
1395	2787.68
1398.25	2822.47
1401.499	2831.67
1404.748	2755.9
1407.996	2748.26
1411.244	2733.69
1414.492	2714.25
1417.74	2692.96
1420.987	2705.14
1424.234	2762.71
1427.481	2743.52
1430.728	2805.56
1433.974	2778.11
1437.22	2795.63
1440.465	2795.49
1443.711	2751.36
1446.956	2789.47
1450.201	2779.13
1453.445	2823.62
1456.689	2799.17
1459.933	2810.34
1463.177	2843.24
1466.42	2812.36
1469.663	2791.24
1472.906	2780.41
1476.148	2864
1479.391	2816.56
1482.633	2786.64
1485.874	2795.56
1489.115	2776.07
1492.356	2784.24
1495.597	2760.33
1498.838	2761.8
1502.078	2727.54
1505.318	2673.05
1508.557	2715.36
1511.797	2682.86
1515.036	2760.6
1518.274	2749.05
1521.513	2722.6
1524.751	2743.45
1527.989	2751.88
1531.227	2759.49
1534.464	2745.66
1537.701	2770.5
1540.938	2789.51
1544.174	2742.88
1547.41	2740.9
1550.646	2778.88
1553.882	2808.63
1557.117	2859.75
1560.352	2874.81
1563.587	2833.95
1566.821	2790.94
1570.055	2830.88
1573.289	2798.88
1576.523	2874.53
1579.756	2875.8
1582.989	2895.95
1586.222	2853
1589.454	2896.78
1592.686	2864.37
1595.918	2889.11
1599.15	2871.12
1602.381	2955.58
1605.612	2904.51
1608.843	2996.48
1612.073	2909.41
1615.303	2893.78
1618.533	2880.64
1621.762	2888.9
1624.992	2874.25
1628.221	2856.7
1631.449	2841.91
1634.678	2903.66
1637.906	2852.31
1641.134	2892.96
1644.361	2847.38
1647.588	2836.4
1650.815	2851.47
1654.042	2836.51
1657.269	2863.31
1660.495	2810.41
1663.72	2835.82
1666.946	2802.34
1670.171	2740.77
1673.396	2718.5
1676.621	2709.1
1679.845	2733.67
1683.069	2759.94
1686.293	2806.66
1689.517	2770.14
1692.74	2697.31
1695.963	2730.19
1699.185	2743.77
1702.408	2718.98
1705.63	2763.41
1708.852	2774.67
1712.073	2746.93
1715.294	2729.2
1718.515	2792
1721.736	2735.71
1724.956	2736.81
1728.176	2765.05
1731.396	2787.17
1734.616	2778
1737.835	2803.29
1741.054	2784.62
1744.272	2777.87
1747.491	2808.52
1750.709	2867.63
1753.927	2764.71
1757.144	2815.97
1760.361	2853.73
1763.578	2849.63
1766.795	2790.17
1770.011	2801.27
1773.227	2845.76
1776.443	2880.94
1779.658	2925.93
1782.874	2871.35
1786.089	2848.66
1789.303	2851.57
1792.518	2858.93
1795.732	2847.82
1798.945	2856.99
1802.159	2907.95
1805.372	2803.16
1808.585	2785.22
1811.797	2786.29
1815.01	2840.79
1818.222	2838.92
1821.434	2806.96
1824.645	2869.33
1827.856	2849.51
1831.067	2885.13
1834.278	2850.48
1837.488	2836.57
1840.698	2992.07
1843.908	2915.88
1847.117	2879.87
1850.326	2755.38
1853.535	2872.21
1856.744	2906.09
1859.952	2821.82
1863.16	2824.42
1866.368	2854.45
1869.575	2959.12
1872.782	2846.14
1875.989	2790.64
1879.196	2884.44
1882.402	2880.19
1885.608	2927.85
1888.814	2822.96
1892.019	2718.04
1895.224	2773.21
1898.429	2758.91
1901.634	2735.17
1904.838	2715.09
1908.042	2769.68
1911.246	2772.75
1914.449	2698.31
1917.652	2702.46
1920.855	2683.14
1924.058	2738.64
1927.26	2775.82
1930.462	2802.88
1933.664	2827.06
1936.865	2761.52
1940.066	2769.82
1943.267	2714.03
1946.467	2732.76
1949.668	2762.26
1952.868	2830.42
1956.067	2805.99
1959.267	2732.47
1962.466	2760.94
1965.665	2746.05
1968.863	2742.02
1972.061	2760.72
1975.259	2756.02
1978.457	2839.23
1981.654	2796.77
1984.852	2795.54
1988.048	2721.08
1991.245	2726.98
1994.441	2814.18
1997.637	2803.23
2000.833	2786.01
2004.028	2827.8
2007.223	2878.52
2010.418	2857.19
2013.613	2816.1
2016.807	2782.34
2020.001	2793.28
2023.194	2839.43
2026.388	2814.89
2029.581	2760.91
2032.774	2807.04
2035.966	2811.86
2039.158	2737.59
2042.35	2767.8
2045.542	2692.69
2048.733	2799.01
2051.924	2826.33
2055.115	2853.57
2058.306	2793.32
2061.496	2853.85
2064.686	2921.66
2067.875	2834.72
2071.065	2850.85
2074.254	2882.19
2077.442	2833.03
2080.631	2923.47
2083.819	2805.71
2087.007	2785.61
2090.195	2756.64
2093.382	2794.41
2096.569	2772.28
2099.756	2720.25
2102.942	2744.27
2106.128	2749.65
2109.314	2738.08
2112.5	2695.73
2115.685	2674.63
2118.87	2684.22
2122.055	2750.45
2125.239	2712.44
2128.424	2682.4
2131.608	2796.69
2134.791	2778.52
2137.974	2842.11
2141.157	2822.67
2144.34	2773
2147.523	2791.3
2150.705	2802.88
2153.887	2784.79
2157.068	2729.74
2160.25	2735.76
2163.431	2778.97
2166.611	2717.81
2169.792	2734.2
2172.972	2620.01
2176.152	2708.35
2179.331	2744.44
2182.511	2725.73
2185.69	2757.81
2188.868	2750.84
2192.047	2813.24
2195.225	2798.89
2198.403	2747.89
2201.58	2742.06
2204.758	2739.31
2207.935	2827.66
2211.111	2709.83
2214.288	2694.37
2217.464	2734.88
2220.64	2705.49
2223.815	2764.42
2226.991	2679.85
2230.166	2700.58
2233.34	2728.12
2236.515	2756.09
2239.689	2835.22
2242.863	2777.51
2246.036	2833.2
2249.209	2835.04
2252.382	2872.51
2255.555	2857.55
2258.727	2789.58
2261.9	2831.82
2265.071	2823.86
2268.243	2828.82
2271.414	2755.3
2274.585	2708.15
2277.756	2777.43
2280.926	2737.34
2284.096	2778.56
2287.266	2681.98
2290.436	2739.78
2293.605	2771.72
2296.774	2802.58
2299.942	2829.33
2303.111	2845.68
2306.279	2896.7
2309.447	2881.14
2312.614	2859.4
2315.781	2873.66
2318.948	2844.57
2322.115	2884.32
2325.281	2785.81
2328.447	2807.33
2331.613	2781.67
2334.779	2748.09
2337.944	2755.67
2341.109	2752.21
2344.274	2736.61
2347.438	2697.87
2350.602	2726.58
2353.766	2742.16
2356.929	2726.68
2360.092	2771.15
2363.255	2719.37
2366.418	2647.13
2369.58	2771.24
2372.742	2534.24
2375.904	2552.88
2379.066	2527.28
2382.227	2567.27
2385.388	2527.59
2388.548	2450.91
2391.709	2509.25
2394.869	2487.33
2398.029	2593.58
2401.188	2612.89
2404.347	2539.66
2407.506	2697.94
2410.665	2725.06
2413.823	2734.4
2416.981	2685.99
2420.139	2720.14
2423.296	2770.88
2426.453	2744.92
2429.61	2768.76
2432.767	2696.27
2435.923	2731.77
2439.079	2689.95
2442.235	2742.98
2445.391	2666.34
2448.546	2692.52
2451.701	2746.08
2454.855	2715.17
2458.009	2772.26
2461.163	2777.66
2464.317	2730.56
2467.471	2768.61
2470.624	2811.38
2473.777	2785.58
2476.929	2798.69
2480.082	2826.72
2483.234	2789.93
2486.385	2744.07
2489.537	2734.66
2492.688	2693.93
2495.839	2709.33
2498.989	2722.49
2502.14	2704.7
2505.29	2683.76
2508.439	2711.49
2511.589	2628.55
2514.738	2641.79
2517.887	2675.93
2521.035	2738.47
2524.183	2724.78
2527.331	2701.86
2530.479	2671.95
2533.627	2683.73
