Data from C_3_DEC_CT_2N_Splice17_13-01-22-148.txt Node
Date: Sat Mar 14 13:01:22 EDT 2020
User: sa697716
Spectrometer: FLMS03696
Trigger mode: 0
Integration Time (sec): 3.180400E-1
Scans to average: 20
Electric dark correction enabled: true
Nonlinearity correction enabled: true
Boxcar width: 5
XAxis mode: Wavelengths
Number of Pixels in Spectrum: 2048
>>>>>Begin Spectral Data<<<<<
187.83	-415606.68
188.298	2924.8
188.766	1571.06
189.233	1424.46
189.701	2013.78
190.169	2823.86
190.636	1156.67
191.104	950.57
191.571	217.69
192.039	-23.86
192.506	-40.64
192.974	606.88
193.441	-972.91
193.908	-257.9
194.375	-8.79
194.842	87.77
195.31	209.39
195.777	224
196.244	441.09
196.711	567.83
197.177	730.34
197.644	1062.22
198.111	1869.66
198.578	2600.78
199.045	2099.22
199.511	3396.9
199.978	3990.77
200.445	3366.31
200.911	3734.72
201.378	4215.11
201.844	3817.99
202.31	6523.14
202.777	6768.82
203.243	3784.82
203.709	3615.53
204.176	4312.83
204.642	3583.69
205.108	3342.34
205.574	2747.31
206.04	2528.96
206.506	2372.63
206.972	2246.13
207.438	2184.85
207.903	2490.01
208.369	2172.13
208.835	2159.73
209.301	2252
209.766	2297.31
210.232	2290.88
210.697	2847.18
211.163	3530.56
211.628	5358.56
212.094	4525.61
212.559	5534.94
213.024	3462.13
213.49	4233.16
213.955	4163.14
214.42	4116.15
214.885	3861.27
215.35	3701.17
215.815	3553.14
216.28	3791.45
216.745	3131.68
217.21	3438.57
217.675	3219.46
218.14	3686.85
218.604	4229.33
219.069	4921.2
219.534	5240.79
219.998	6194.5
220.463	7618.72
220.927	9582.82
221.392	9134.27
221.856	9327.12
222.32	11861.5
222.785	14735.19
223.249	18680.48
223.713	20995.35
224.177	21093.01
224.642	27201.89
225.106	33621.19
225.57	36891.05
226.034	27435.86
226.497	41794.88
226.961	37760.55
227.425	44009.57
227.889	48918.58
228.353	48991.91
228.816	101093.23
229.28	96637.27
229.744	81505.93
230.207	49484.97
230.671	48735.56
231.134	80851.05
231.597	93226.3
232.061	93373.11
232.524	91276.79
232.987	62887.85
233.45	56561.21
233.914	50708.1
234.377	52062
234.84	47656.68
235.303	56246.82
235.766	62696.12
236.229	64781.4
236.691	40819.49
237.154	45843.3
237.617	34427.42
238.08	35284.35
238.542	41309.13
239.005	29520.35
239.468	29285.74
239.93	27602.26
240.393	25074.99
240.855	22027.87
241.317	22558.49
241.78	27479.65
242.242	28387.7
242.704	30620.4
243.166	26620.35
243.629	24141.61
244.091	27819.75
244.553	30479.16
245.015	32748.84
245.477	42401.55
245.939	62150.22
246.4	65924.52
246.862	64057.71
247.324	60372.33
247.786	67594.06
248.247	88692.14
248.709	91755.18
249.17	68677.99
249.632	64654.1
250.093	74949.74
250.555	64675.05
251.016	39441.21
251.477	37395.28
251.939	40345.17
252.4	42377.18
252.861	50417.21
253.322	46858.73
253.783	55782.1
254.244	72364.37
254.705	57116.31
255.166	50822.75
255.627	50126.96
256.088	70657.56
256.549	75044.43
257.009	64692.53
257.47	78494.25
257.931	63951.45
258.391	47961.98
258.852	49441.89
259.312	51860.86
259.773	64097.57
260.233	54139.2
260.694	45633.88
261.154	51831.16
261.614	41609.33
262.074	37215.53
262.534	38666.35
262.994	36467.35
263.455	48638.87
263.915	41000.82
264.374	38642.06
264.834	42185.41
265.294	46796.85
265.754	48491.97
266.214	45942.99
266.673	43093.69
267.133	54395.34
267.593	54032.89
268.052	66138.84
268.512	57557.7
268.971	69361.49
269.431	76049.28
269.89	68179.86
270.349	102297.22
270.809	114076.69
271.268	102603.12
271.727	230256.48
272.186	149240.72
272.645	112013.63
273.104	80913.76
273.563	117108.15
274.022	92227.43
274.481	78455.94
274.94	60437.68
275.399	44940.98
275.857	52372.79
276.316	70821.13
276.775	63024.09
277.233	62053.68
277.692	58024.44
278.15	65580.77
278.609	67487.31
279.067	62448.37
279.525	58005.18
279.984	74959.69
280.442	90055.36
280.9	88636.38
281.358	58329.13
281.816	54355.44
282.274	53243.19
282.732	55075.73
283.19	55359.48
283.648	47782.36
284.106	50913.28
284.564	51790.25
285.021	47950.36
285.479	35711.05
285.937	32543.43
286.394	28534.74
286.852	29395.45
287.309	30898.11
287.767	29797.69
288.224	28320.12
288.682	31078.34
289.139	34089.7
289.596	31179.8
290.053	32448.8
290.511	40973.12
290.968	49676.22
291.425	67457.45
291.882	56048.8
292.339	48759.75
292.796	48444.29
293.252	45670.04
293.709	36261.65
294.166	32503.83
294.623	35969.83
295.079	34553.96
295.536	34714.61
295.992	31479.17
296.449	31111.93
296.905	32322.24
297.362	30984.43
297.818	32586.1
298.274	33791.24
298.731	34434.93
299.187	34066.99
299.643	36527.61
300.099	44119.68
300.555	48381.27
301.011	40458.28
301.467	38900.87
301.923	45585.65
302.379	44491.44
302.835	43662.19
303.291	43687.61
303.746	49712.04
304.202	62772.18
304.658	63030.01
305.113	42376.67
305.569	41477.08
306.024	44224.1
306.479	42201.26
306.935	35531.19
307.39	38818.52
307.845	35845.47
308.301	36048.94
308.756	35127.02
309.211	33834.62
309.666	34646.17
310.121	42954.98
310.576	43604.94
311.031	43226.89
311.486	49436.77
311.94	49418.22
312.395	66119.15
312.85	124325.54
313.305	611393.52
313.759	3158261.09
314.214	229089.43
314.668	181661.7
315.123	152747.02
315.577	54779.87
316.032	48681.39
316.486	61095.88
316.94	48186.41
317.394	33517.36
317.849	26022.07
318.303	24630.33
318.757	23248.26
319.211	25677.16
319.665	22476.26
320.119	22748.71
320.572	32606.37
321.026	30484.1
321.48	25353.19
321.934	27659.54
322.387	27721.18
322.841	29961.41
323.295	26897.35
323.748	31024.62
324.202	31461.51
324.655	37729.07
325.108	52650.95
325.562	37178.79
326.015	44114.86
326.468	33318.64
326.921	37238.45
327.374	34677.73
327.827	36053.49
328.28	40811.65
328.733	27305.4
329.186	23975.68
329.639	22839.57
330.092	19226.36
330.545	18299.96
330.997	18468.4
331.45	20164.86
331.903	23580.74
332.355	40607.27
332.808	39470.25
333.26	32530.31
333.713	35278.43
334.165	35535.5
334.617	47485.96
335.069	38439.65
335.522	69601.69
335.974	76943.59
336.426	70325.58
336.878	48773.82
337.33	24683.79
337.782	24085.66
338.234	30144.36
338.686	36097.46
339.137	42796.68
339.589	40256.91
340.041	31542.01
340.493	27043.08
340.944	27715.28
341.396	29827.83
341.847	25047.26
342.299	29522.19
342.75	36014.66
343.201	31498.03
343.653	36192.99
344.104	44513.77
344.555	35040.04
345.006	54633.41
345.457	41811.67
345.908	33217.73
346.359	31238.39
346.81	25449.87
347.261	26837.44
347.712	26427.25
348.163	28336.01
348.613	28643.23
349.064	26708.44
349.515	23392.75
349.965	23940.51
350.416	28854.37
350.866	31695.8
351.317	35860.81
351.767	59362.95
352.217	75013.9
352.668	62248.56
353.118	56936.68
353.568	54996.27
354.018	43438.62
354.468	45723.29
354.918	32783.43
355.368	28668.17
355.818	40455.32
356.268	116471.65
356.718	487464.96
357.168	121193.32
357.617	60843.24
358.067	67769.69
358.517	63428.55
358.966	74295.87
359.416	83344.2
359.865	90143.32
360.315	107351.16
360.764	50136.89
361.213	28056.9
361.663	26588.2
362.112	32875.8
362.561	53081.33
363.01	40006.15
363.459	33739.71
363.908	36567.88
364.357	31032.11
364.806	52383.72
365.255	36081.47
365.703	33030.08
366.152	33040.74
366.601	26794.43
367.05	21702.23
367.498	19707.53
367.947	20596.75
368.395	21370.6
368.844	18901.98
369.292	22825.77
369.74	15761.38
370.189	24106.16
370.637	28270.52
371.085	24391.11
371.533	29686.35
371.981	28641.3
372.429	27293.03
372.877	28448.85
373.325	23822.87
373.773	24280.84
374.221	21598.29
374.669	26797.82
375.116	23126.29
375.564	23275.44
376.012	26004.18
376.459	21395.02
376.907	25573.76
377.354	30875.39
377.801	28735.39
378.249	32934.02
378.696	42096.83
379.143	50932.27
379.591	54245.52
380.038	91751.27
380.485	66227.19
380.932	71578.76
381.379	65456.69
381.826	48102.42
382.273	34185.25
382.72	29871.36
383.166	29111.84
383.613	18851.37
384.06	16970.85
384.506	19628.32
384.953	14393.26
385.4	14489.13
385.846	12658.4
386.292	12353.63
386.739	12083.24
387.185	11951.31
387.631	11952.06
388.078	11594.75
388.524	12388.39
388.97	11435.29
389.416	9512.17
389.862	10107.42
390.308	9547.23
390.754	9693.44
391.2	10487.5
391.645	10702.63
392.091	10203.04
392.537	9834.25
392.983	9832.25
393.428	9636.62
393.874	10313.7
394.319	10336.44
394.765	9777.08
395.21	10049.26
395.655	9387.56
396.101	8769.19
396.546	7907.03
396.991	7976.39
397.436	7401.92
397.881	7140.92
398.326	6762.51
398.771	6379.94
399.216	5567.24
399.661	5011.54
400.106	4982.49
400.551	5090.95
400.995	4564.42
401.44	4509.16
401.885	4227.62
402.329	4268.57
402.774	4088.37
403.218	3948.26
403.663	3803.85
404.107	3905.67
404.551	3921.46
404.995	3593.08
405.44	3466.56
405.884	3518.45
406.328	3404.18
406.772	3391.74
407.216	3083.41
407.66	2977.9
408.104	2830.86
408.547	2648.78
408.991	2563.01
409.435	2470.86
409.879	2436.21
410.322	2404.67
410.766	2318.25
411.209	2200.61
411.653	2112.48
412.096	2067.51
412.54	2067.38
412.983	2051.02
413.426	2053.22
413.869	2049.84
414.312	2010.28
414.756	1934.69
415.199	1840.37
415.642	1785.29
416.085	1789.91
416.527	1775.73
416.97	1805.76
417.413	1713.16
417.856	1696.96
418.298	1681.57
418.741	1670.29
419.184	1664.31
419.626	1734.55
420.069	1738.54
420.511	1749.32
420.953	1710.15
421.396	1695.34
421.838	1651.94
422.28	1687.37
422.722	1694.12
423.164	1716.62
423.606	1688.75
424.048	1686.91
424.49	1602.74
424.932	1594.85
425.374	1573.46
425.816	1602.5
426.258	1634.75
426.699	1652.67
427.141	1630.63
427.582	1654.1
428.024	1646.07
428.465	1636.28
428.907	1595.71
429.348	1579.79
429.789	1577.4
430.231	1544.6
430.672	1564.19
431.113	1523.86
431.554	1500.05
431.995	1461.89
432.436	1408.22
432.877	1376.58
433.318	1351.18
433.759	1345.22
434.2	1344.62
434.64	1329.2
435.081	1331.41
435.522	1258.69
435.962	1213.05
436.403	1187.88
436.843	1205.81
437.284	1182.4
437.724	1149.21
438.164	1154.01
438.604	1128.83
439.045	1082.14
439.485	1036.3
439.925	1013.07
440.365	988.25
440.805	973.98
441.245	958.35
441.685	921.37
442.125	915.8
442.564	921.57
443.004	899.16
443.444	896.12
443.883	897.62
444.323	890.86
444.762	891.97
445.202	905.17
445.641	919.91
446.081	914.7
446.52	921.3
446.959	908.07
447.398	883.28
447.837	871.13
448.276	855.62
448.716	861.18
449.154	867.21
449.593	847.12
450.032	842.23
450.471	826.8
450.91	824.47
451.349	818.81
451.787	815.03
452.226	828.05
452.664	827.49
453.103	826.61
453.541	826.58
453.98	824.51
454.418	827.43
454.856	811.55
455.295	809.36
455.733	817.09
456.171	821.57
456.609	819.66
457.047	818.23
457.485	827.98
457.923	827.82
458.361	813.53
458.798	814.85
459.236	812.97
459.674	818.12
460.111	820.31
460.549	810.6
460.987	807.92
461.424	804.15
461.862	798.6
462.299	786.66
462.736	785.33
463.173	788.49
463.611	779.73
464.048	777.1
464.485	784.14
464.922	777.6
465.359	773.06
465.796	760.97
466.233	756.94
466.67	750
467.106	747.47
467.543	738.99
467.98	729.23
468.416	710.76
468.853	703.93
469.29	681.19
469.726	673.36
470.162	656.86
470.599	648.5
471.035	642.49
471.471	626.62
471.907	622.57
472.344	618.37
472.78	618.76
473.216	625.51
473.652	617.64
474.088	615.47
474.523	613.32
474.959	617.92
475.395	612.28
475.831	607.83
476.266	610
476.702	607.08
477.138	601.13
477.573	598.99
478.008	596
478.444	598.02
478.879	602.87
479.314	603.87
479.75	601.9
480.185	603.44
480.62	607.85
481.055	610.56
481.49	615.31
481.925	623.01
482.36	633.56
482.795	650.03
483.229	667.02
483.664	680.88
484.099	682.43
484.534	692.1
484.968	698.73
485.403	699.35
485.837	697.11
486.271	694.61
486.706	693.08
487.14	683.67
487.574	671.59
488.009	663.8
488.443	656.01
488.877	660.69
489.311	661.41
489.745	666.46
490.179	670.73
490.613	681.14
491.046	683.8
491.48	686.99
491.914	685.06
492.348	687.55
492.781	689.32
493.215	688.36
493.648	687.77
494.082	689.42
494.515	686.83
494.948	691.5
495.382	693.22
495.815	694.95
496.248	697.32
496.681	706.75
497.114	714.92
497.547	721.37
497.98	730.47
498.413	732.79
498.846	738.91
499.279	744.17
499.711	744.91
500.144	743.88
500.577	750.43
501.009	756.4
501.442	761.65
501.874	758.97
502.306	756.69
502.739	760.66
503.171	769.47
503.603	769.15
504.036	773.65
504.468	774.8
504.9	781.51
505.332	783.12
505.764	784.33
506.196	787.07
506.627	795.93
507.059	804.38
507.491	808.08
507.923	805.11
508.354	814.53
508.786	821.25
509.217	834.73
509.649	844.9
510.08	859.21
510.512	871.75
510.943	883.09
511.374	892.41
511.805	908.21
512.237	923.9
512.668	948.87
513.099	971.76
513.53	993.78
513.961	1010.95
514.391	1038.27
514.822	1067.57
515.253	1097.48
515.684	1120.31
516.114	1145.94
516.545	1165.78
516.975	1189.34
517.406	1206.89
517.836	1210.14
518.267	1218.77
518.697	1236.56
519.127	1242.51
519.558	1251.82
519.988	1258.53
520.418	1268.88
520.848	1286.78
521.278	1296.91
521.708	1325.2
522.138	1340.28
522.567	1372.27
522.997	1398.01
523.427	1414.98
523.857	1434.28
524.286	1446.16
524.716	1463.08
525.145	1484.97
525.575	1499.48
526.004	1516.8
526.433	1506.28
526.863	1509.24
527.292	1504.44
527.721	1513.07
528.15	1522.08
528.579	1525.26
529.008	1539.61
529.437	1564.27
529.866	1580.21
530.295	1598.1
530.724	1612.78
531.152	1640.35
531.581	1656.96
532.01	1675.62
532.438	1685.49
532.867	1701.94
533.295	1721.83
533.723	1729.11
534.152	1728.66
534.58	1729.75
535.008	1717.48
535.436	1721.64
535.865	1731.06
536.293	1746.59
536.721	1763.16
537.149	1789.31
537.576	1793.29
538.004	1807.63
538.432	1816.19
538.86	1815.49
539.287	1823.63
539.715	1837.28
540.143	1840.58
540.57	1838.04
540.998	1835.49
541.425	1814.92
541.852	1795.87
542.28	1794.71
542.707	1779.52
543.134	1767.38
543.561	1764.92
543.988	1759.08
544.415	1759.67
544.842	1754.99
545.269	1749.29
545.696	1751.19
546.123	1763.79
546.549	1755.41
546.976	1744.21
547.403	1745.13
547.829	1747.42
548.256	1749.8
548.682	1746.91
549.108	1740.29
549.535	1741.97
549.961	1744.29
550.387	1733.59
550.813	1729.79
551.24	1736.89
551.666	1739.29
552.092	1729.97
552.518	1724.58
552.943	1719.64
553.369	1727.75
553.795	1733.81
554.221	1733.45
554.646	1730.18
555.072	1738.87
555.498	1741.58
555.923	1749.18
556.349	1761.61
556.774	1769.08
557.199	1768.27
557.625	1772.46
558.05	1764.68
558.475	1773.73
558.9	1771.76
559.325	1762.47
559.75	1755.14
560.175	1748.09
560.6	1739.13
561.025	1735.5
561.449	1734.12
561.874	1737.14
562.299	1740.07
562.723	1745.52
563.148	1733.44
563.572	1734.37
563.997	1741.17
564.421	1743.25
564.846	1740.98
565.27	1741.52
565.694	1735.54
566.118	1742.29
566.542	1746.62
566.966	1735.6
567.39	1726.82
567.814	1711.72
568.238	1706.79
568.662	1707.45
569.086	1706.43
569.509	1708.02
569.933	1690.87
570.357	1680.18
570.78	1657.6
571.204	1641.48
571.627	1628.37
572.05	1622.94
572.474	1619.75
572.897	1605.33
573.32	1594.75
573.743	1581.71
574.166	1563.01
574.589	1559.61
575.012	1551.11
575.435	1548.09
575.858	1538.94
576.281	1528.1
576.704	1511.63
577.126	1499.53
577.549	1488.44
577.972	1478.61
578.394	1468.61
578.817	1461.03
579.239	1442.62
579.661	1429.01
580.084	1413.63
580.506	1400.19
580.928	1394.94
581.35	1385
581.772	1379.03
582.194	1366.48
582.616	1353.81
583.038	1340.24
583.46	1329.3
583.882	1326.1
584.303	1328.67
584.725	1323.56
585.147	1324.88
585.568	1333.15
585.99	1343.72
586.411	1348.96
586.833	1361.14
587.254	1362.11
587.675	1373.42
588.096	1384.01
588.518	1379.28
588.939	1364.03
589.36	1361.66
589.781	1351.71
590.202	1327.88
590.623	1318.94
591.043	1317.05
591.464	1305.35
591.885	1301.15
592.305	1296.32
592.726	1285.17
593.147	1285.31
593.567	1280.87
593.987	1274.31
594.408	1268.62
594.828	1265.32
595.248	1260.41
595.669	1243.99
596.089	1237.38
596.509	1232.32
596.929	1220.13
597.349	1219.17
597.769	1210.84
598.189	1204.66
598.608	1206.18
599.028	1207.33
599.448	1206.03
599.867	1193.26
600.287	1188.54
600.706	1184.39
601.126	1174.45
601.545	1172.3
601.965	1170.07
602.384	1163.57
602.803	1164.57
603.222	1158.68
603.641	1151.6
604.061	1147.59
604.48	1143.21
604.898	1147.75
605.317	1150.64
605.736	1151.95
606.155	1148.7
606.574	1140.16
606.992	1143.52
607.411	1138.49
607.829	1136.18
608.248	1133.53
608.666	1130.92
609.085	1129.23
609.503	1121.87
609.921	1115.93
610.339	1115.67
610.758	1114.02
611.176	1109.28
611.594	1100.26
612.012	1097.42
612.43	1093.88
612.847	1097.4
613.265	1096.92
613.683	1099.93
614.101	1100.44
614.518	1096.6
614.936	1088.87
615.353	1076.91
615.771	1073.61
616.188	1074.48
616.606	1070.48
617.023	1063.72
617.44	1051.32
617.857	1045.34
618.274	1037.84
618.691	1032.93
619.108	1023.81
619.525	1017.95
619.942	1022.47
620.359	1023.96
620.776	1018.89
621.192	1016.39
621.609	1014.23
622.026	1019.5
622.442	1024.59
622.859	1026.73
623.275	1019.63
623.691	1024.23
624.108	1034.07
624.524	1045.54
624.94	1046.28
625.356	1055.56
625.772	1065.61
626.188	1075.19
626.604	1077.02
627.02	1072.9
627.436	1072.15
627.852	1078.97
628.268	1090.39
628.683	1083.23
629.099	1076.5
629.514	1072.9
629.93	1075.09
630.345	1077.98
630.761	1075.44
631.176	1079.22
631.591	1076.09
632.007	1070.66
632.422	1069.14
632.837	1059.18
633.252	1057.5
633.667	1048.65
634.082	1041.44
634.497	1031.94
634.911	1017.73
635.326	1014.5
635.741	999.68
636.155	991.08
636.57	993.82
636.984	993.46
637.399	995.24
637.813	995.28
638.228	995.8
638.642	998.98
639.056	990.65
639.47	990.28
639.884	984.06
640.298	979.78
640.712	979.56
641.126	969
641.54	962.75
641.954	957.76
642.368	947.11
642.781	941.53
643.195	928.1
643.609	929.04
644.022	924.57
644.436	921.19
644.849	911.42
645.262	901.8
645.676	903.7
646.089	900.77
646.502	891.26
646.915	888.1
647.328	874.47
647.741	873.05
648.154	863.24
648.567	862.4
648.98	852.8
649.393	853.67
649.805	851.4
650.218	845.53
650.631	832.57
651.043	826.59
651.456	822.77
651.868	823.95
652.28	839.58
652.693	851.5
653.105	857.34
653.517	866.55
653.929	868.78
654.341	874.72
654.753	866.03
655.165	872.54
655.577	873.33
655.989	871.13
656.401	866.14
656.813	837.06
657.224	820.19
657.636	798.5
658.047	786.25
658.459	771.86
658.87	766.99
659.282	759.48
659.693	745.69
660.104	735.62
660.515	726.57
660.926	728.2
661.338	728.41
661.749	726.98
662.159	720.99
662.57	719.56
662.981	718.69
663.392	714.78
663.803	721.89
664.213	723.01
664.624	722.07
665.035	727.86
665.445	718.05
665.855	716.32
666.266	712.66
666.676	714.38
667.086	709.45
667.497	711.38
667.907	708.22
668.317	701.64
668.727	701.36
669.137	704.2
669.547	703.29
669.956	707.79
670.366	710.66
670.776	713.6
671.186	719.14
671.595	723.66
672.005	728.07
672.414	728.65
672.824	728.86
673.233	731.94
673.642	735.93
674.052	740.59
674.461	743.05
674.87	747.86
675.279	746.5
675.688	746.75
676.097	748.16
676.506	745.51
676.915	759.22
677.323	761.52
677.732	760.63
678.141	758.73
678.549	747.43
678.958	745.09
679.366	743.99
679.775	747.11
680.183	757.18
680.592	761.03
681	765.61
681.408	757.77
681.816	762.64
682.224	767.86
682.632	774.77
683.04	798.32
683.448	817.39
683.856	839.57
684.264	866.18
684.671	889.26
685.079	918.83
685.487	950.35
685.894	997.02
686.302	1032.41
686.709	1060.02
687.116	1093.11
687.524	1118.69
687.931	1139.77
688.338	1155.84
688.745	1168.62
689.152	1183.42
689.559	1209.3
689.966	1235.97
690.373	1246.63
690.78	1273.67
691.187	1320.6
691.593	1357.08
692	1389.71
692.407	1438.88
692.813	1504.56
693.22	1557.12
693.626	1613.38
694.032	1660.79
694.439	1731.88
694.845	1788.45
695.251	1863.54
695.657	1930.78
696.063	2027.78
696.469	2105.03
696.875	2180.97
697.281	2230.34
697.687	2289.43
698.093	2343.15
698.498	2431.05
698.904	2504.1
699.31	2607.84
699.715	2687.32
700.12	2796.4
700.526	2834.92
700.931	2924.01
701.337	2996.43
701.742	3050.82
702.147	3158.48
702.552	3212.88
702.957	3293.91
703.362	3336.56
703.767	3389.02
704.172	3455.18
704.577	3428.21
704.981	3500.51
705.386	3542.05
705.791	3558.77
706.195	3662.52
706.6	3692.23
707.004	3797.68
707.408	3787.77
707.813	3838.77
708.217	3848.11
708.621	3870.13
709.025	4003.14
709.43	4025.97
709.834	4115.04
710.237	4212.8
710.641	4215.33
711.045	4262.39
711.449	4278.9
711.853	4331.64
712.256	4400.87
712.66	4463.72
713.064	4569.29
713.467	4632.45
713.87	4784.14
714.274	4857.11
714.677	5007.17
715.08	5218.08
715.484	5439.06
715.887	5700.65
716.29	5959.79
716.693	6228.33
717.096	6536.62
717.499	6718.41
717.901	6775.12
718.304	6827.78
718.707	6879.18
719.109	6775.7
719.512	6755.42
719.915	6608.48
720.317	6556.44
720.719	6631.5
721.122	6615.35
721.524	6572.54
721.926	6539.11
722.328	6678.26
722.731	6686.15
723.133	6735.63
723.535	6994.71
723.937	7037.54
724.338	7118.5
724.74	7186.23
725.142	7103.85
725.544	7114.45
725.945	7156.48
726.347	7165
726.748	7170.22
727.15	7199.26
727.551	7161.87
727.952	7137.75
728.354	7114.12
728.755	7126.73
729.156	7084.99
729.557	7099.44
729.958	6952.57
730.359	6896.33
730.76	6881.37
731.161	6814.55
731.562	6790.76
731.962	6805.69
732.363	6727.53
732.763	6652.34
733.164	6705.11
733.564	6622.69
733.965	6501.99
734.365	6463.62
734.766	6504.85
735.166	6458.62
735.566	6391.38
735.966	6360.18
736.366	6358.11
736.766	6283.24
737.166	6327.51
737.566	6278.19
737.966	6248.74
738.365	6303.75
738.765	6301.86
739.165	6209.02
739.564	6179.21
739.964	6243.34
740.363	6188.4
740.763	6189.18
741.162	6174.61
741.561	6135.51
741.96	6078.32
742.36	6110.25
742.759	6120.41
743.158	6173.61
743.557	6196.79
743.955	6249.88
744.354	6189.96
744.753	6268.69
745.152	6216.47
745.55	6293.51
745.949	6285.71
746.348	6289.98
746.746	6313
747.144	6261.98
747.543	6234.22
747.941	6299.33
748.339	6210.46
748.737	6202.43
749.136	6191.29
749.534	6279.63
749.932	6241.63
750.33	6278.05
750.727	6355.18
751.125	6325.04
751.523	6307.86
751.921	6366.78
752.318	6326.23
752.716	6407.03
753.113	6429.44
753.511	6463.72
753.908	6465.26
754.305	6445.74
754.703	6528.75
755.1	6611.21
755.497	6692
755.894	6947.59
756.291	7190.62
756.688	7629.71
757.085	8217.65
757.482	9042.84
757.878	9948.28
758.275	10761.86
758.672	11887.52
759.068	12807.56
759.465	14108.13
759.861	15793.51
760.258	17748.39
760.654	18749.27
761.05	18603.22
761.447	17752.45
761.843	16531.09
762.239	15266.08
762.635	14702.22
763.031	14152.29
763.427	13353.86
763.822	12526.04
764.218	11704.77
764.614	10633.64
765.01	9920.81
765.405	9458.3
765.801	9110.1
766.196	8662.6
766.592	8410.83
766.987	7985.62
767.382	7702.63
767.778	7584.86
768.173	7408.79
768.568	7310.12
768.963	7141.72
769.358	7165.85
769.753	7103.87
770.148	6987.94
770.542	6984.42
770.937	6945.62
771.332	7069.55
771.726	7097.07
772.121	7009.35
772.515	7083.7
772.91	7061.3
773.304	7158.94
773.699	7069.51
774.093	7140.32
774.487	7215.72
774.881	7275.41
775.275	7270.02
775.669	7209.81
776.063	7267.26
776.457	7319.28
776.851	7220.69
777.245	7213.04
777.638	7254.41
778.032	7410.43
778.425	7361.09
778.819	7418.76
779.212	7359.85
779.606	7302.97
779.999	7332.8
780.392	7310.15
780.786	7424.13
781.179	7450.41
781.572	7507.99
781.965	7526.87
782.358	7448.45
782.751	7525.8
783.143	7462.67
783.536	7561.57
783.929	7621.07
784.322	7775.61
784.714	7818.17
785.107	7806.43
785.499	7903.06
785.891	7872.66
786.284	7850.85
786.676	8045.39
787.068	8018.49
787.46	8089.43
787.852	8119.29
788.245	8236.81
788.636	8276.56
789.028	8364.04
789.42	8420.65
789.812	8429.79
790.204	8563.23
790.595	8695.33
790.987	8433.15
791.378	8464.04
791.77	8638.81
792.161	8819.84
792.553	8890.69
792.944	8743.07
793.335	8655.92
793.726	8750.51
794.117	8875.25
794.508	9059.06
794.899	9018.03
795.29	9204.19
795.681	9283.4
796.072	9092.37
796.463	8834.75
796.853	8848.75
797.244	9060.27
797.634	9106.22
798.025	9108.56
798.415	9127.19
798.806	9244.01
799.196	9357.32
799.586	9427.63
799.976	9376.92
800.366	9687
800.756	10023.6
801.146	9969.46
801.536	10014.81
801.926	10114.4
802.316	10152.26
802.706	10250.44
803.095	10093.91
803.485	10234.34
803.874	10289.69
804.264	10640.31
804.653	10606.22
805.043	10798
805.432	10947.13
805.821	10944.6
806.21	10975.15
806.599	11133.33
806.988	11188.82
807.377	11331.63
807.766	11505.56
808.155	11888.73
808.544	11534.43
808.933	11552.85
809.321	11528.58
809.71	11931.68
810.098	12147.32
810.487	12765.4
810.875	13413.21
811.264	13446.46
811.652	13833.3
812.04	14030.66
812.428	14253.49
812.816	15291.28
813.204	15849.74
813.592	16589.28
813.98	17039.92
814.368	16908.9
814.756	17547.07
815.144	17438.07
815.531	18067.56
815.919	17968.97
816.306	18378.18
816.694	17955.78
817.081	18016.23
817.469	18488.76
817.856	18490.29
818.243	18849.32
818.63	19387.22
819.017	18837.63
819.404	18929.18
819.791	19440.63
820.178	20270.4
820.565	20609.08
820.952	21868.85
821.339	21217.22
821.725	21470.27
822.112	20473.96
822.498	20421.8
822.885	20591.71
823.271	20464.87
823.657	21026.28
824.044	21045.14
824.43	21145.24
824.816	21100.95
825.202	20514.35
825.588	21877.08
825.974	21888.12
826.36	22582.16
826.746	22633.3
827.132	23115.33
827.517	23073.28
827.903	22007.51
828.289	22056.65
828.674	21009.69
829.06	20874.06
829.445	21410.05
829.83	21892.91
830.216	22535.63
830.601	23025.6
830.986	22468.87
831.371	22282.84
831.756	23035.2
832.141	22461.28
832.526	22445.25
832.911	22823.24
833.295	22664.02
833.68	23284.15
834.065	22443.11
834.449	21223.89
834.834	21116.96
835.218	21111.2
835.603	21569.76
835.987	21290.03
836.371	22400.22
836.755	22261.11
837.139	22804.21
837.524	23130.02
837.908	22883.15
838.291	22961.99
838.675	23040.97
839.059	23313.96
839.443	23297.37
839.827	22988.14
840.21	23613.34
840.594	23415.07
840.977	23680.61
841.361	23641.27
841.744	24134.55
842.127	23932.15
842.511	24253.25
842.894	25054.7
843.277	25566.26
843.66	26281.03
844.043	26376.27
844.426	25305.53
844.809	24885.93
845.191	24928.13
845.574	24311.42
845.957	23814.91
846.339	23666.22
846.722	22977.13
847.104	23064.51
847.487	22829.28
847.869	22842.96
848.252	23217.37
848.634	23653.92
849.016	24013.23
849.398	24182.39
849.78	25314.19
850.162	25333.5
850.544	25887.34
850.926	26719.36
851.307	26599.27
851.689	26972.83
852.071	27576.42
852.452	27998.25
852.834	27971.64
853.215	28497.26
853.597	28698.07
853.978	29083.7
854.359	29688.58
854.741	28367.39
855.122	28231.47
855.503	27851.8
855.884	28036.51
856.265	27966.55
856.646	28132.38
857.026	27610.19
857.407	27522.86
857.788	27736.97
858.169	28132.45
858.549	26995.77
858.93	27825.28
859.31	27899.56
859.69	28175.91
860.071	27636.51
860.451	27338.6
860.831	26352.1
861.211	27895.28
861.591	28628.05
861.971	28589.32
862.351	28844.02
862.731	29364.91
863.111	29723.69
863.491	30162.9
863.87	31334.28
864.25	31803.06
864.629	31273.45
865.009	31954.69
865.388	33099.67
865.768	35484.47
866.147	35352.26
866.526	33409.17
866.905	33815.25
867.284	35708.44
867.663	33907.16
868.042	32485.43
868.421	32369.86
868.8	32911.8
869.179	33248.99
869.558	31311.4
869.936	28862.29
870.315	29381.46
870.693	30093.02
871.072	32445.81
871.45	30908.59
871.828	31299.35
872.207	32903.89
872.585	32421.27
872.963	33301.51
873.341	32133.93
873.719	31749.66
874.097	31347.58
874.475	31954.18
874.853	32678.05
875.23	31325.11
875.608	32638.11
875.986	35308.86
876.363	33784.81
876.741	34806.55
877.118	33930.82
877.495	35613.59
877.873	36221.57
878.25	38127.58
878.627	36567.69
879.004	37082.6
879.381	36896.18
879.758	35918.7
880.135	33428.18
880.512	35349.24
880.889	34420.65
881.265	34077.5
881.642	33784.89
882.019	34353.11
882.395	33647.31
882.772	34961.42
883.148	33438.69
883.524	33299.71
883.901	33105.17
884.277	33608.33
884.653	33388.03
885.029	34334.94
885.405	38026.42
885.781	37739.97
886.157	36187.59
886.532	36632.15
886.908	36617.28
887.284	40716.41
887.659	42049.86
888.035	43339.92
888.411	44450.81
888.786	45047.25
889.161	46607.09
889.537	45731.09
889.912	47178.84
890.287	47115.94
890.662	48329.01
891.037	47453.19
891.412	44242.4
891.787	43783.6
892.162	42273.17
892.536	43254.14
892.911	41607.98
893.286	40723.28
893.66	39059.53
894.035	40045.55
894.409	43607.35
894.784	41832.83
895.158	42514.08
895.532	45028.79
895.906	46243.08
896.281	47303.02
896.655	46557.91
897.029	53186.66
897.402	55393.9
897.776	61671.65
898.15	61459.5
898.524	60777.58
898.898	61598.1
899.271	68956.02
899.645	59717.78
900.018	57388.06
900.392	59530.98
900.765	60004.07
901.138	55562.18
901.511	54707.06
901.884	50261.2
902.258	46381.7
902.631	47947.99
903.003	55183.84
903.376	49818.44
903.749	55884.27
904.122	59832.81
904.495	65896.73
904.867	66721.46
905.24	57917.01
905.612	53926.46
905.985	55140.24
906.357	57637.05
906.729	55003.27
907.102	46995.1
907.474	45194.13
907.846	45481.21
908.218	44889.93
908.59	39661.08
908.962	38377
909.334	41339.71
909.705	43440.86
910.077	42170.99
910.449	43916.09
910.82	45139.81
911.192	49669.35
911.563	51607.9
911.935	55251.28
912.306	55326.25
912.677	57161.75
913.048	56605.75
913.419	61413.82
913.79	61811.23
914.161	66304.79
914.532	63365.56
914.903	58228.9
915.274	55322.51
915.645	54527.5
916.015	47986.79
916.386	45768.92
916.756	48713.15
917.127	50246.49
917.497	44901.63
917.868	48831.71
918.238	46382.81
918.608	47728.56
918.978	48751.71
919.348	51643.8
919.718	53356.91
920.088	51397.03
920.458	53392.66
920.828	56200.92
921.198	53277.47
921.567	56913.76
921.937	44101.3
922.306	44520.59
922.676	48018.63
923.045	40064.59
923.415	38036.62
923.784	34647.41
924.153	35609.09
924.522	35578.31
924.891	33443.39
925.26	35811.16
925.629	34955.69
925.998	40182.56
926.367	39234.66
926.736	37345.53
927.104	44477.2
927.473	47826.38
927.842	57750.17
928.21	57213.85
928.578	60133.38
928.947	56880.19
929.315	57230.9
929.683	67093.12
930.051	67606.92
930.42	78509.89
930.788	67120.34
931.156	66594.89
931.523	62396.97
931.891	57671.41
932.259	55373.32
932.627	64105.49
932.994	90655.6
933.362	74865.83
933.729	65043.16
934.097	62248.93
934.464	52660.82
934.831	60776.08
935.199	59890.42
935.566	58064.62
935.933	58893.76
936.3	71330.01
936.667	55550.99
937.034	50043.31
937.401	49527.52
937.767	42755.88
938.134	38063.26
938.501	53705.68
938.867	57219.15
939.234	96823.8
939.6	82714.69
939.967	90999.2
940.333	60910.57
940.699	51871.72
941.065	41673.65
941.431	54638.62
941.798	52634.4
942.163	69176.98
942.529	43219.91
942.895	39788.68
943.261	25732.68
943.627	33737.64
943.992	29557.44
944.358	29629.74
944.723	29731.18
945.089	29003.54
945.454	26799.89
945.82	28665.77
946.185	27531.72
946.55	31904.01
946.915	28630.96
947.28	33596.47
947.645	29597.87
948.01	27292.23
948.375	28471.54
948.74	34150.77
949.104	39848.29
949.469	57635.19
949.834	101868.52
950.198	96521.28
950.562	57831.03
950.927	48171.29
951.291	57949.12
951.655	49367.96
952.02	46449.3
952.384	35106.87
952.748	30559.57
953.112	29798.3
953.476	25903.61
953.839	23933.28
954.203	23688.57
954.567	29656.24
954.931	46731.89
955.294	39958.9
955.658	40185.72
956.021	68229.97
956.385	115654.02
956.748	170669.75
957.111	264873.7
957.474	297159.51
957.837	335078.38
958.2	253572.05
958.563	91167.05
958.926	61567.78
959.289	93486.48
959.652	104387.89
960.015	78345.58
960.377	112546.15
960.74	128506.9
961.102	221767.55
961.465	238129.71
961.827	127122.34
962.189	243890.29
962.552	169093.06
962.914	135684.96
963.276	88001.17
963.638	72754.88
964	72035.52
964.362	48664.64
964.724	47015.81
965.085	33527.86
965.447	27491.02
965.809	31402.33
966.17	31458.92
966.532	34045.21
966.893	31234.32
967.255	28413.95
967.616	33539.14
967.977	26853.51
968.338	29358.19
968.699	24118.99
969.061	24125.27
969.421	24289.96
969.782	27265.74
970.143	23015.55
970.504	23822.53
970.865	27063.39
971.225	27681.93
971.586	27090.21
971.946	38639.36
972.307	33516.54
972.667	43820.87
973.027	45092.22
973.388	54691.11
973.748	37189.5
974.108	40493.16
974.468	54788.09
974.828	42217.59
975.188	32492.92
975.548	29854.63
975.907	25059.85
976.267	28116.02
976.627	23644.06
976.986	24523.35
977.346	23372.98
977.705	22482.43
978.064	20484.74
978.424	17064.63
978.783	17670.07
979.142	20147.32
979.501	19285.4
979.86	20386.47
980.219	19657.35
980.578	25352.93
980.937	28391.17
981.296	25302.92
981.654	26033.9
982.013	40531.73
982.371	52577.49
982.73	49089.87
983.088	55631.59
983.447	59399.08
983.805	84940.04
984.163	177460.3
984.521	196745.68
984.879	288601.1
985.237	-469488.61
985.595	452753.06
985.953	112646.66
986.311	65050.79
986.669	37777.46
987.026	32609.07
987.384	43819.32
987.741	45271.22
988.099	32288.87
988.456	25744.53
988.814	24067.95
989.171	20910.41
989.528	20618.8
989.885	21747.82
990.242	17209.88
990.599	21462.21
990.956	17556.28
991.313	12301.25
991.67	10095.4
992.027	10688.04
992.383	9506.69
992.74	8341.44
993.096	8756.05
993.453	9082.62
993.809	9419.68
994.165	12560.99
994.522	11473.86
994.878	12637.78
995.234	15832.51
995.59	15621.8
995.946	14824.37
996.302	16897.47
996.658	19551.78
997.013	21537.23
997.369	25526.96
997.725	32659.41
998.08	21137.13
998.436	32662.35
998.791	45119.55
999.147	45045.88
999.502	49141.63
999.857	35712.38
1000.212	58208.29
1000.567	82829.24
1000.922	47837.21
1001.277	30426.12
1001.632	22552.71
1001.987	29105.94
1002.342	20891.02
1002.696	16704.44
1003.051	13343.05
1003.406	16172.59
1003.76	16097.83
1004.114	15854.14
1004.469	13343.4
1004.823	11038.26
1005.177	11927.25
1005.531	9463.06
1005.885	8396.8
1006.239	9467.8
1006.593	11881.57
1006.947	15873.72
1007.301	11911.46
1007.655	12984.08
1008.008	9538.52
1008.362	10698.89
1008.715	15251.99
1009.069	13821.26
1009.422	20798.93
1009.776	41736.9
1010.129	27723.17
1010.482	23178.9
1010.835	19614.99
1011.188	40900.56
1011.541	38574.25
1011.894	-235725.26
1012.247	694783.03
1012.6	47365.96
1012.952	29913.08
1013.305	15407.3
1013.657	11093.88
1014.01	10516.66
1014.362	8663.4
1014.715	7676.09
1015.067	6675.89
1015.419	6506.41
1015.771	5776.15
1016.123	5115.33
1016.475	5248.59
1016.827	5584.91
1017.179	5994.93
1017.531	6028.59
1017.883	6163.67
1018.234	5918.48
1018.586	7481.44
1018.938	7895.93
1019.289	10926.47
1019.64	12493.32
1019.992	11661.58
1020.343	10674.36
1020.694	8424.85
1021.045	7459.26
1021.396	8546.33
1021.747	9145.65
1022.098	11032.73
1022.449	8015.82
1022.8	7450.78
1023.151	5182.77
1023.501	4590.65
1023.852	5007.37
1024.202	5187.28
1024.553	5720.18
1024.903	5580.21
1025.253	4746.07
1025.604	4265.25
1025.954	5302.45
1026.304	6484.6
1026.654	7563.41
1027.004	11122.84
1027.354	18037.88
1027.703	16915.53
1028.053	22322.46
1028.403	32229.41
1028.753	47020.72
1029.102	64082.22
1029.452	329482.63
1029.801	14195.46
1030.15	9130.64
1030.499	7741.84
897.758	2665.41
901.051	2625.54
904.343	2658.29
907.636	2659.67
910.928	2722.98
914.22	2634.12
917.511	2642.43
920.803	2703.11
924.094	2721.67
927.384	2703.53
930.675	2667.47
933.965	2621.32
937.255	2628.49
940.544	2597.17
943.834	2537.93
947.123	2484.32
950.411	2579.28
953.7	2550.37
956.988	2523.15
960.276	2464.07
963.563	2544.47
966.851	2541.42
970.138	2600.19
973.424	2595.34
976.711	2544.05
979.997	2677.93
983.283	2712.47
986.568	2619.09
989.853	2633.67
993.138	2661.01
996.423	2745.44
999.708	2683.69
1002.992	2748.78
1006.275	2582.63
1009.559	2626.98
1012.842	2743.4
1016.125	2675.13
1019.408	2653.43
1022.69	2741.34
1025.972	2763.74
1029.254	2738.77
1032.536	2672.45
1035.817	2697.18
1039.098	2643.34
1042.379	2788.29
1045.659	2787.74
1048.939	2724.23
1052.219	2742.84
1055.498	2752.99
1058.778	2740.4
1062.057	2724.01
1065.335	2744.16
1068.614	2763.66
1071.892	2749.3
1075.17	2821.66
1078.447	2813.92
1081.724	2804.98
1085.001	2842.07
1088.278	2815
1091.554	2830.58
1094.83	2825.43
1098.106	2855.73
1101.382	2902.78
1104.657	2901.91
1107.932	2898.02
1111.206	2864.77
1114.481	2818.53
1117.755	2823.97
1121.029	2801.54
1124.302	2859.5
1127.575	2811.17
1130.848	2797.59
1134.121	2758.23
1137.393	2707.53
1140.665	2775.37
1143.937	2750.05
1147.208	2708.99
1150.48	2753.39
1153.75	2736.15
1157.021	2768.77
1160.291	2739.15
1163.561	2785.56
1166.831	2774.4
1170.101	2809.16
1173.37	2779.48
1176.639	2724.19
1179.907	2784.45
1183.176	2789.85
1186.444	2799.59
1189.711	2830.33
1192.979	2841.74
1196.246	2798
1199.513	2815.68
1202.78	2812.94
1206.046	2820.97
1209.312	2849.48
1212.578	2875.84
1215.843	2827.91
1219.108	2800.45
1222.373	2822.66
1225.638	2785.77
1228.902	2769.69
1232.166	2730.53
1235.43	2713.16
1238.693	2736.77
1241.956	2733.41
1245.219	2774.84
1248.482	2765.51
1251.744	2759.65
1255.006	2910.57
1258.268	2864.44
1261.529	2806.81
1264.79	2814.42
1268.051	2921.18
1271.312	2938.45
1274.572	2904.22
1277.832	2892.41
1281.092	2879.14
1284.351	2853.49
1287.61	2831.82
1290.869	2750.6
1294.128	2725.99
1297.386	2814.56
1300.644	2803.29
1303.902	2817.78
1307.159	2669.73
1310.416	2726.48
1313.673	2753.1
1316.93	2740.29
1320.186	2785.62
1323.442	2827.81
1326.697	2812.54
1329.953	2801.73
1333.208	2827.83
1336.463	2804.68
1339.717	2741.29
1342.972	2879.84
1346.226	2854.95
1349.479	2783.86
1352.733	2753.4
1355.986	2776.5
1359.238	2750.78
1362.491	2758.51
1365.743	2760.41
1368.995	2750.07
1372.247	2764.83
1375.498	2790.1
1378.749	2806.54
1382	2752.94
1385.251	2809.91
1388.501	2766.63
1391.751	2748.93
1395	2720.51
1398.25	2750.14
1401.499	2754.8
1404.748	2683.77
1407.996	2670.78
1411.244	2655.39
1414.492	2633.11
1417.74	2614.98
1420.987	2621.89
1424.234	2683.56
1427.481	2660.96
1430.728	2719.6
1433.974	2691.47
1437.22	2709.04
1440.465	2708.86
1443.711	2673.49
1446.956	2709.25
1450.201	2698.36
1453.445	2743.05
1456.689	2723.55
1459.933	2733.04
1463.177	2768.52
1466.42	2740.75
1469.663	2721.73
1472.906	2716.38
1476.148	2795.46
1479.391	2756.67
1482.633	2725.33
1485.874	2738.19
1489.115	2725.96
1492.356	2729.38
1495.597	2706.14
1498.838	2707.52
1502.078	2677.34
1505.318	2628.55
1508.557	2671.42
1511.797	2647.01
1515.036	2718.82
1518.274	2707.33
1521.513	2680.37
1524.751	2701.28
1527.989	2715.64
1531.227	2731.83
1534.464	2729.26
1537.701	2750.84
1540.938	2769.6
1544.174	2721.48
1547.41	2719.68
1550.646	2760.06
1553.882	2799.38
1557.117	2852.03
1560.352	2869.65
1563.587	2827.38
1566.821	2785.39
1570.055	2820.08
1573.289	2791.68
1576.523	2869.09
1579.756	2879.44
1582.989	2900.46
1586.222	2860.93
1589.454	2902.94
1592.686	2873.93
1595.918	2901.62
1599.15	2891.43
1602.381	2968.67
1605.612	2923.66
1608.843	3024.05
1612.073	2935.11
1615.303	2917.7
1618.533	2909.69
1621.762	2913.02
1624.992	2897.15
1628.221	2887.78
1631.449	2871.34
1634.678	2926.91
1637.906	2879.14
1641.134	2919.65
1644.361	2873.32
1647.588	2863.1
1650.815	2880.24
1654.042	2859.04
1657.269	2888.3
1660.495	2841.05
1663.72	2859.72
1666.946	2824.62
1670.171	2768.87
1673.396	2742.45
1676.621	2729.79
1679.845	2747.81
1683.069	2767.47
1686.293	2812.6
1689.517	2780.84
1692.74	2710.7
1695.963	2740.37
1699.185	2760.12
1702.408	2730.25
1705.63	2772.92
1708.852	2785.59
1712.073	2758.33
1715.294	2744.49
1718.515	2802.73
1721.736	2746.84
1724.956	2740.31
1728.176	2767.59
1731.396	2789.98
1734.616	2774.76
1737.835	2805.52
1741.054	2782.9
1744.272	2775.78
1747.491	2806.07
1750.709	2860.93
1753.927	2766.7
1757.144	2811.43
1760.361	2857.87
1763.578	2845.7
1766.795	2786.78
1770.011	2789.58
1773.227	2830.65
1776.443	2866.69
1779.658	2912.4
1782.874	2853.52
1786.089	2829.52
1789.303	2831.96
1792.518	2837.02
1795.732	2823.04
1798.945	2837.14
1802.159	2884.44
1805.372	2791.12
1808.585	2776.83
1811.797	2775.54
1815.01	2823.64
1818.222	2826.17
1821.434	2798.78
1824.645	2855.27
1827.856	2843.68
1831.067	2879.56
1834.278	2829.32
1837.488	2814.64
1840.698	2964.01
1843.908	2885.57
1847.117	2849.86
1850.326	2732.3
1853.535	2836.96
1856.744	2860.1
1859.952	2774.49
1863.16	2773.89
1866.368	2794.73
1869.575	2898.86
1872.782	2777.76
1875.989	2715.79
1879.196	2800.05
1882.402	2790.94
1885.608	2831.21
1888.814	2728.82
1892.019	2623.02
1895.224	2675.83
1898.429	2654.49
1901.634	2629.09
1904.838	2608.44
1908.042	2660.45
1911.246	2666.11
1914.449	2595.95
1917.652	2592.18
1920.855	2573.3
1924.058	2623.79
1927.26	2660.95
1930.462	2686.97
1933.664	2711.38
1936.865	2650.5
1940.066	2656.39
1943.267	2603.08
1946.467	2615.58
1949.668	2645.81
1952.868	2712.87
1956.067	2691.33
1959.267	2623.47
1962.466	2651.18
1965.665	2637.74
1968.863	2634.23
1972.061	2650.64
1975.259	2649.85
1978.457	2728.69
1981.654	2690.74
1984.852	2687.44
1988.048	2620.71
1991.245	2623.5
1994.441	2709.86
1997.637	2692.11
2000.833	2673.36
2004.028	2714.38
2007.223	2765
2010.418	2744.34
2013.613	2706.24
2016.807	2675.46
2020.001	2680.88
2023.194	2726.73
2026.388	2705.13
2029.581	2647.59
2032.774	2700.27
2035.966	2704.15
2039.158	2634.79
2042.35	2663.45
2045.542	2590.82
2048.733	2689.46
2051.924	2712.82
2055.115	2745.26
2058.306	2686.55
2061.496	2742.67
2064.686	2811.62
2067.875	2722.71
2071.065	2738.31
2074.254	2766.53
2077.442	2718.76
2080.631	2808.46
2083.819	2701.58
2087.007	2685.49
2090.195	2653.78
2093.382	2689.28
2096.569	2669.92
2099.756	2621.4
2102.942	2648.9
2106.128	2654.07
2109.314	2645.74
2112.5	2608.41
2115.685	2582.36
2118.87	2593
2122.055	2656.68
2125.239	2623.94
2128.424	2596.69
2131.608	2699.86
2134.791	2680.25
2137.974	2739.58
2141.157	2726.41
2144.34	2675.49
2147.523	2692.12
2150.705	2707.2
2153.887	2686.67
2157.068	2636.32
2160.25	2637.72
2163.431	2675.86
2166.611	2620.71
2169.792	2639.64
2172.972	2532.32
2176.152	2609.79
2179.331	2645.03
2182.511	2628.17
2185.69	2656.5
2188.868	2650.94
2192.047	2707.52
2195.225	2697.33
2198.403	2650.26
2201.58	2641.91
2204.758	2635.05
2207.935	2717.13
2211.111	2607.84
2214.288	2592.25
2217.464	2630.4
2220.64	2601.53
2223.815	2657.98
2226.991	2576.6
2230.166	2598.23
2233.34	2623.33
2236.515	2653.27
2239.689	2726.55
2242.863	2668.74
2246.036	2723.94
2249.209	2723.35
2252.382	2759.96
2255.555	2747.33
2258.727	2682.89
2261.9	2722.29
2265.071	2715
2268.243	2716.37
2271.414	2643.84
2274.585	2606.34
2277.756	2676.83
2280.926	2633.22
2284.096	2674.54
2287.266	2578.67
2290.436	2632.97
2293.605	2663.01
2296.774	2694.14
2299.942	2712.4
2303.111	2732.91
2306.279	2783.34
2309.447	2768.46
2312.614	2743.02
2315.781	2761.45
2318.948	2728.25
2322.115	2766.32
2325.281	2672.09
2328.447	2688.76
2331.613	2663.83
2334.779	2637.63
2337.944	2640.55
2341.109	2637.44
2344.274	2622.82
2347.438	2586.19
2350.602	2609.91
2353.766	2631.96
2356.929	2617.99
2360.092	2656.21
2363.255	2610.81
2366.418	2544.38
2369.58	2657.76
2372.742	2443.25
2375.904	2457.99
2379.066	2432.54
2382.227	2471.71
2385.388	2433.3
2388.548	2355.5
2391.709	2411.43
2394.869	2395.19
2398.029	2491.53
2401.188	2504.65
2404.347	2439.43
2407.506	2581.39
2410.665	2611.16
2413.823	2616.03
2416.981	2571.72
2420.139	2607
2423.296	2657.74
2426.453	2630.9
2429.61	2650.33
2432.767	2587.86
2435.923	2627.9
2439.079	2585.86
2442.235	2637.74
2445.391	2563.21
2448.546	2593.48
2451.701	2642.28
2454.855	2612.11
2458.009	2663.54
2461.163	2666.33
2464.317	2625.5
2467.471	2655.92
2470.624	2694.7
2473.777	2667.63
2476.929	2678.28
2480.082	2703.98
2483.234	2669.3
2486.385	2622.18
2489.537	2615.53
2492.688	2576.43
2495.839	2595.45
2498.989	2608.37
2502.14	2594.43
2505.29	2574.23
2508.439	2601.93
2511.589	2524.51
2514.738	2535.74
2517.887	2566.26
2521.035	2631.8
2524.183	2611.05
2527.331	2593.3
2530.479	2563.87
2533.627	2574.3
