Data from C_3_DEC_NC_4N_Splice17_13-05-55-207.txt Node
Date: Sat Mar 14 13:05:55 EDT 2020
User: sa697716
Spectrometer: FLMS03696
Trigger mode: 0
Integration Time (sec): 3.180400E-1
Scans to average: 20
Electric dark correction enabled: true
Nonlinearity correction enabled: true
Boxcar width: 5
XAxis mode: Wavelengths
Number of Pixels in Spectrum: 2048
>>>>>Begin Spectral Data<<<<<
187.83	-382446.38
188.298	2718.13
188.766	1439.99
189.233	1344.51
189.701	1889.12
190.169	2389.32
190.636	908.5
191.104	690.98
191.571	144.23
192.039	-43.75
192.506	29.91
192.974	661.15
193.441	-1114.59
193.908	-297.67
194.375	-58.23
194.842	38.7
195.31	-15.64
195.777	145.24
196.244	355.83
196.711	472.72
197.177	599.77
197.644	856.46
198.111	1452.52
198.578	2002.09
199.045	1580.33
199.511	2589.62
199.978	2987.36
200.445	2547
200.911	2814.8
201.378	3145.13
201.844	2852.47
202.31	4825.11
202.777	4990.36
203.243	2799.8
203.709	2660.12
204.176	3170.31
204.642	2599.83
205.108	2443.61
205.574	1995.24
206.04	1804.21
206.506	1683.75
206.972	1577.71
207.438	1512.31
207.903	1735.78
208.369	1500.85
208.835	1501.44
209.301	1572.71
209.766	1612.28
210.232	1590.85
210.697	1969.5
211.163	2443.11
211.628	3699.25
212.094	3115.88
212.559	3868.39
213.024	2402.85
213.49	2947.09
213.955	2887.34
214.42	2821.12
214.885	2603.62
215.35	2498.52
215.815	2426.77
216.28	2571.38
216.745	2097.83
217.21	2260.12
217.675	2062.21
218.14	2315.76
218.604	2577.61
219.069	2923.05
219.534	3060.83
219.998	3564.93
220.463	4304.86
220.927	5265.71
221.392	4942.24
221.856	4991.73
222.32	6266.76
222.785	7728.38
223.249	9682.65
223.713	10770.7
224.177	10756.81
224.642	13752.36
225.106	16883.6
225.57	18397.11
226.034	13663.57
226.497	20800.85
226.961	18731.56
227.425	21862.12
227.889	24268.2
228.353	24270.65
228.816	50100.57
229.28	47822.74
229.744	40284.05
230.207	24484.64
230.671	24132.34
231.134	39864.64
231.597	45959.66
232.061	45998.14
232.524	44825.31
232.987	30848.2
233.45	27746.5
233.914	24884.72
234.377	25546.36
234.84	23392.96
235.303	27584.44
235.766	30756.19
236.229	31736.33
236.691	19958.45
237.154	22401.95
237.617	16833.88
238.08	17234.48
238.542	20170.36
239.005	14431.21
239.468	14305.26
239.93	13478.81
240.393	12237.67
240.855	10741.97
241.317	11015.12
241.78	13384.6
242.242	13836.81
242.704	14937.03
243.166	12991.6
243.629	11818.81
244.091	13611.29
244.553	14920.57
245.015	16014.27
245.477	20708.35
245.939	30340.39
246.4	32184.27
246.862	31302.24
247.324	29498.3
247.786	33008.38
248.247	43286.14
248.709	44607.17
249.17	33342.59
249.632	31437.48
250.093	36506.49
250.555	31558.84
251.016	19260.71
251.477	18267.01
251.939	19713.35
252.4	20674.01
252.861	24547.34
253.322	22844.7
253.783	27217.87
254.244	35369.5
254.705	27925.42
255.166	24848.85
255.627	24452.93
256.088	34511.11
256.549	36691.68
257.009	31616.57
257.47	38462.3
257.931	31395.18
258.391	23544.8
258.852	24279.64
259.312	25437.4
259.773	31421.36
260.233	26590.41
260.694	22452.77
261.154	25431.61
261.614	20450.87
262.074	18301.05
262.534	19007.91
262.994	17925.03
263.455	23874.79
263.915	20100.99
264.374	18933.4
264.834	20665.18
265.294	22879.63
265.754	23703.87
266.214	22484.12
266.673	21058.54
267.133	26547.63
267.593	26298.03
268.052	32161.92
268.512	27942.97
268.971	33688.56
269.431	36932.65
269.89	33070.38
270.349	49555.41
270.809	55236.22
271.268	49591.25
271.727	111046.35
272.186	71905.83
272.645	53957.43
273.104	38900.89
273.563	56389.31
274.022	44360.68
274.481	37739.34
274.94	29060.63
275.399	21599.8
275.857	25140.01
276.316	34017.77
276.775	30245.88
277.233	29833.9
277.692	27942.3
278.15	31612.06
278.609	32498.09
279.067	30091.97
279.525	27965.09
279.984	36115.43
280.442	43399.04
280.9	42786.38
281.358	28136.06
281.816	26222.81
282.274	25661.61
282.732	26504.99
283.19	26659.25
283.648	23015.37
284.106	24494.57
284.564	24868.43
285.021	23071.33
285.479	17198.45
285.937	15635.18
286.394	13719.5
286.852	14140.43
287.309	14846.08
287.767	14341.29
288.224	13625.86
288.682	14941.45
289.139	16415.51
289.596	15029.26
290.053	15607.4
290.511	19676.24
290.968	23876.28
291.425	32373.12
291.882	26948.23
292.339	23450.7
292.796	23258.38
293.252	21920.03
293.709	17422.34
294.166	15581.26
294.623	17212.57
295.079	16501.23
295.536	16580.06
295.992	15057.06
296.449	14885.15
296.905	15460.68
297.362	14823.87
297.818	15595.29
298.274	16178.34
298.731	16468.97
299.187	16292.02
299.643	17477.57
300.099	21143.2
300.555	23186.11
301.011	19356.16
301.467	18656.16
301.923	21835.51
302.379	21325.94
302.835	20931.46
303.291	20953.68
303.746	23877.12
304.202	30179.38
304.658	30336.53
305.113	20416.17
305.569	20002.96
306.024	21354.1
306.479	20338.09
306.935	17149.03
307.39	18752.09
307.845	17315.17
308.301	17444.44
308.756	16989.38
309.211	16364.55
309.666	16757.27
310.121	20806.76
310.576	21124.75
311.031	20948.67
311.486	23970.74
311.94	23919.92
312.395	31928.72
312.85	60024.01
313.305	294379.87
313.759	1523976.27
314.214	110631.23
314.668	87920.56
315.123	73926.74
315.577	26524
316.032	23580.47
316.486	29574.7
316.94	23356.37
317.394	16283.58
317.849	12645.42
318.303	11966.82
318.757	11305.51
319.211	12495.09
319.665	10911.95
320.119	11050.36
320.572	15838.2
321.026	14804.22
321.48	12309.88
321.934	13427.47
322.387	13440.1
322.841	14514.72
323.295	13066.84
323.748	15027.88
324.202	15236.67
324.655	18301.62
325.108	25520.34
325.562	18019.37
326.015	21368.44
326.468	16163.39
326.921	18083.04
327.374	16856.11
327.827	17588.83
328.28	19941.13
328.733	13377.53
329.186	11755.21
329.639	11210.56
330.092	9448.87
330.545	9012.56
330.997	9119.12
331.45	9983.91
331.903	11694.81
332.355	20153.74
332.808	19552.5
333.26	16109.61
333.713	17504.25
334.165	17659.28
334.617	23577.17
335.069	19060.84
335.522	34473.36
335.974	38114.85
336.426	34755.87
336.878	24065.1
337.33	12197.87
337.782	11919.36
338.234	14916.34
338.686	17822.91
339.137	21114.74
339.589	19893.55
340.041	15624.45
340.493	13408.12
340.944	13734.1
341.396	14795.15
341.847	12471.07
342.299	14734.49
342.75	18020.56
343.201	15741.82
343.653	18058.93
344.104	22160.78
344.555	17419.76
345.006	27097.61
345.457	20775.74
345.908	16517.47
346.359	15576.25
346.81	12660.84
347.261	13341.9
347.712	13124.45
348.163	14086.08
348.613	14287.31
349.064	13350.31
349.515	11717.68
349.965	12026.27
350.416	14474.44
350.866	15861.53
351.317	17929.55
351.767	29763.79
352.217	37708.29
352.668	31342.67
353.118	28721.49
353.568	27729.39
354.018	21973.09
354.468	23183.51
354.918	16634.43
355.368	14549.91
355.818	20564.49
356.268	59055.88
356.718	246866.81
357.168	61255.34
357.617	30737.43
358.067	34197.55
358.517	32055.36
358.966	37531.75
359.416	42100.47
359.865	45451.85
360.315	54166.61
360.764	25283.88
361.213	14177.09
361.663	13420.62
362.112	16557.23
362.561	26757.03
363.01	20217.36
363.459	17008.33
363.908	18446.28
364.357	15691.26
364.806	26534.79
365.255	18275.95
365.703	16791.37
366.152	16855.31
366.601	13706.01
367.05	11137.21
367.498	10134.33
367.947	10556.89
368.395	10980.41
368.844	9734.81
369.292	11709.63
369.74	8099.67
370.189	12392.79
370.637	14510.44
371.085	12507.06
371.533	15179.88
371.981	14644.08
372.429	13928.4
372.877	14496.19
373.325	12121.42
373.773	12335
374.221	10979.09
374.669	13578.68
375.116	11732.27
375.564	11804.6
376.012	13201.06
376.459	10921.97
376.907	13014.63
377.354	15706.83
377.801	14695.92
378.249	16893.33
378.696	21553.14
379.143	26049.39
379.591	27724.55
380.038	46959.03
380.485	33985.83
380.932	36705.48
381.379	33528.14
381.826	24725.67
382.273	17583.56
382.72	15347.16
383.166	14940.82
383.613	9687.47
384.06	8723.41
384.506	10113.65
384.953	7414.06
385.4	7444.23
385.846	6489.54
386.292	6297.4
386.739	6148.53
387.185	6077.04
387.631	6077.76
388.078	5900.65
388.524	6303.67
388.97	5823.83
389.416	4857.02
389.862	5151.17
390.308	4883.95
390.754	4973.36
391.2	5403.5
391.645	5522.57
392.091	5288.92
392.537	5108.61
392.983	5106.22
393.428	5021.69
393.874	5372.22
394.319	5381.05
394.765	5114.16
395.21	5248.16
395.655	4897.17
396.101	4582.57
396.546	4138.71
396.991	4163.95
397.436	3867.26
397.881	3730.63
398.326	3523.1
398.771	3335.13
399.216	2915.44
399.661	2615.38
400.106	2611.42
400.551	2685.2
400.995	2409.85
401.44	2385.86
401.885	2240.9
402.329	2257.09
402.774	2163.23
403.218	2100.42
403.663	2022.3
404.107	2075.56
404.551	2092.6
404.995	1917.04
405.44	1841.83
405.884	1864.54
406.328	1794.54
406.772	1784.99
407.216	1627.01
407.66	1572.4
408.104	1491.15
408.547	1397.44
408.991	1353.52
409.435	1301.93
409.879	1283.31
410.322	1266.87
410.766	1223.23
411.209	1170.23
411.653	1125.14
412.096	1103.36
412.54	1105.21
412.983	1097.27
413.426	1099.93
413.869	1099.77
414.312	1081.5
414.756	1041.77
415.199	993.56
415.642	968.94
416.085	969.2
416.527	963.82
416.97	976.59
417.413	927.83
417.856	917.01
418.298	907.57
418.741	897.6
419.184	890.76
419.626	925.09
420.069	925.4
420.511	930.52
420.953	910.73
421.396	899.26
421.838	874.91
422.28	892.9
422.722	899.74
423.164	908.65
423.606	895.24
424.048	896.22
424.49	851.49
424.932	847.49
425.374	833.76
425.816	847.3
426.258	863.22
426.699	875.86
427.141	865.15
427.582	875.59
428.024	871.8
428.465	865.56
428.907	842.97
429.348	834.67
429.789	833.05
430.231	815.88
430.672	826.83
431.113	809.18
431.554	795.96
431.995	773.06
432.436	748.31
432.877	733.91
433.318	723.68
433.759	722.52
434.2	723.48
434.64	718.47
435.081	721.03
435.522	684.47
435.962	658.99
436.403	647.41
436.843	658.44
437.284	643.94
437.724	623.99
438.164	623.92
438.604	610
439.045	587.69
439.485	564.37
439.925	551.64
440.365	536.27
440.805	529.44
441.245	523.36
441.685	504.85
442.125	500.14
442.564	505.1
443.004	494.63
443.444	493.22
443.883	493.8
444.323	487.95
444.762	486.71
445.202	494.01
445.641	504.75
446.081	498.29
446.52	501.96
446.959	497.79
447.398	485.53
447.837	480.12
448.276	470.65
448.716	474.75
449.154	478.6
449.593	469.33
450.032	467.86
450.471	456.18
450.91	457.54
451.349	455.65
451.787	452.83
452.226	459.89
452.664	459.4
453.103	461.32
453.541	460.26
453.98	461.1
454.418	464.17
454.856	456.79
455.295	456.57
455.733	460.66
456.171	462.74
456.609	462.51
457.047	461.97
457.485	469.12
457.923	469.8
458.361	462.73
458.798	463.08
459.236	461.53
459.674	464.55
460.111	467.41
460.549	463.55
460.987	461.64
461.424	460.85
461.862	458.78
462.299	451.23
462.736	451.71
463.173	452.97
463.611	449.41
464.048	448.77
464.485	452.36
464.922	447.84
465.359	444.55
465.796	443.52
466.233	440.28
466.67	438.37
467.106	439.57
467.543	434.53
467.98	429.25
468.416	418.15
468.853	415.12
469.29	403.85
469.726	400.09
470.162	389.82
470.599	381.71
471.035	378.77
471.471	368.99
471.907	365.59
472.344	364.03
472.78	365.19
473.216	369.03
473.652	365.73
474.088	363.38
474.523	362.96
474.959	366.59
475.395	363.69
475.831	361.68
476.266	363.45
476.702	361.97
477.138	357.11
477.573	356.08
478.008	354.93
478.444	355.58
478.879	360.15
479.314	361.79
479.75	360.74
480.185	362.51
480.62	365.71
481.055	367.57
481.49	370.62
481.925	376.34
482.36	384.44
482.795	395.02
483.229	405.57
483.664	413.5
484.099	414.69
484.534	421.03
484.968	424.9
485.403	425.81
485.837	424.91
486.271	423.45
486.706	423.65
487.14	417.5
487.574	411.31
488.009	407.58
488.443	404.6
488.877	409.7
489.311	412.22
489.745	417.37
490.179	421.74
490.613	431.15
491.046	434.8
491.48	438.99
491.914	440.64
492.348	444.73
492.781	448.62
493.215	450.37
493.648	451.61
494.082	455.8
494.515	457.73
494.948	464.41
495.382	467.85
495.815	472.52
496.248	477.47
496.681	487.53
497.114	496.46
497.547	505.29
497.98	516.15
498.413	522.92
498.846	531.75
499.279	539.88
499.711	544.93
500.144	548.49
500.577	559.67
501.009	570.46
501.442	581.03
501.874	585.43
502.306	589.12
502.739	599.11
503.171	612.88
503.603	618.78
504.036	628.2
504.468	636.61
504.9	649.59
505.332	658.18
505.764	665.69
506.196	674.62
506.627	689.96
507.059	704.8
507.491	714.4
507.923	717.28
508.354	733.32
508.786	746.2
509.217	764.35
509.649	780.55
510.08	800.48
510.512	817.84
510.943	834.65
511.374	847.84
511.805	868.33
512.237	888.42
512.668	919.25
513.099	945.82
513.53	973.31
513.961	995.75
514.391	1026.1
514.822	1058.22
515.253	1093.07
515.684	1119.13
516.114	1149.4
516.545	1173.58
516.975	1201.6
517.406	1220.93
517.836	1228.25
518.267	1239.42
518.697	1259.18
519.127	1267.85
519.558	1277.91
519.988	1285.13
520.418	1298.68
520.848	1317.99
521.278	1328.53
521.708	1356.71
522.138	1372.26
522.567	1402.92
522.997	1427.8
523.427	1444.86
523.857	1463.1
524.286	1475.42
524.716	1491.76
525.145	1511.21
525.575	1522.66
526.004	1538.64
526.433	1526.96
526.863	1528.93
527.292	1522.21
527.721	1529.54
528.15	1536.88
528.579	1539.51
529.008	1551.04
529.437	1573.07
529.866	1586.3
530.295	1603.32
530.724	1616.22
531.152	1642.66
531.581	1658.19
532.01	1674.68
532.438	1683.04
532.867	1696.92
533.295	1714.2
533.723	1721.42
534.152	1720.41
534.58	1720.46
535.008	1707.31
535.436	1709.53
535.865	1716.07
536.293	1728.63
536.721	1744.29
537.149	1768.93
537.576	1771.22
538.004	1783.21
538.432	1789.57
538.86	1788.38
539.287	1795.07
539.715	1807.84
540.143	1809.92
540.57	1805.46
540.998	1802.49
541.425	1780.97
541.852	1759.77
542.28	1759.39
542.707	1743.59
543.134	1730.25
543.561	1726.19
543.988	1718.58
544.415	1717.66
544.842	1711.97
545.269	1706.15
545.696	1706.79
546.123	1717.94
546.549	1709.33
546.976	1696.74
547.403	1696.91
547.829	1699.39
548.256	1702.72
548.682	1701.08
549.108	1694.78
549.535	1695.43
549.961	1697.31
550.387	1685.41
550.813	1681.88
551.24	1687.87
551.666	1688.94
552.092	1680.36
552.518	1674.58
552.943	1668.34
553.369	1675.45
553.795	1681.4
554.221	1683
554.646	1680.45
555.072	1691.29
555.498	1695.16
555.923	1704.75
556.349	1719.17
556.774	1727.11
557.199	1727.53
557.625	1732.33
558.05	1725.92
558.475	1734.81
558.9	1732.51
559.325	1723.87
559.75	1717.05
560.175	1710.55
560.6	1702.75
561.025	1699.67
561.449	1699.65
561.874	1704.49
562.299	1708.18
562.723	1714.07
563.148	1702.59
563.572	1704.67
563.997	1712.62
564.421	1715.24
564.846	1714.34
565.27	1715.3
565.694	1710.46
566.118	1719.42
566.542	1725.53
566.966	1717.47
567.39	1710.71
567.814	1698.29
568.238	1695.81
568.662	1698.73
569.086	1699.22
569.509	1702.35
569.933	1686.69
570.357	1678.13
570.78	1656.7
571.204	1640.58
571.627	1627.84
572.05	1623.28
572.474	1621.21
572.897	1607.71
573.32	1598.35
573.743	1587.08
574.166	1570.31
574.589	1568.57
575.012	1560.49
575.435	1557.59
575.858	1548.01
576.281	1536.66
576.704	1521.44
577.126	1510.45
577.549	1499.98
577.972	1489.56
578.394	1479.89
578.817	1471.9
579.239	1453.76
579.661	1440.65
580.084	1425.53
580.506	1412.77
580.928	1408.42
581.35	1397.6
581.772	1391.35
582.194	1377.85
582.616	1366.76
583.038	1352.7
583.46	1343.12
583.882	1339.04
584.303	1341.28
584.725	1337.15
585.147	1339.2
585.568	1346.95
585.99	1356.63
586.411	1361.54
586.833	1373.91
587.254	1373.03
587.675	1383.19
588.096	1392.39
588.518	1387.71
588.939	1371.86
589.36	1368.17
589.781	1355.12
590.202	1330.1
590.623	1321.46
591.043	1317.75
591.464	1305.35
591.885	1302.33
592.305	1298.48
592.726	1285.62
593.147	1286.26
593.567	1280.82
593.987	1273.87
594.408	1270.66
594.828	1268.5
595.248	1263.43
595.669	1247.8
596.089	1240.91
596.509	1232.8
596.929	1218.91
597.349	1218.45
597.769	1208.33
598.189	1202.89
598.608	1203.21
599.028	1204.17
599.448	1202.92
599.867	1191.26
600.287	1186.12
600.706	1183.26
601.126	1175.32
601.545	1174.49
601.965	1173.38
602.384	1168.11
602.803	1169.28
603.222	1164.14
603.641	1157.37
604.061	1153.2
604.48	1148.49
604.898	1154.69
605.317	1157.48
605.736	1158.2
606.155	1155.98
606.574	1147.02
606.992	1150.78
607.411	1146.27
607.829	1138.38
608.248	1134.2
608.666	1132.02
609.085	1130.8
609.503	1123.04
609.921	1116.68
610.339	1117.69
610.758	1114.56
611.176	1108.58
611.594	1100.35
612.012	1095.53
612.43	1097.98
612.847	1102.87
613.265	1102.65
613.683	1104.97
614.101	1105.16
614.518	1100.19
614.936	1090.22
615.353	1078.23
615.771	1076.42
616.188	1075.38
616.606	1071.41
617.023	1064.56
617.44	1052
617.857	1045.01
618.274	1036.74
618.691	1030.73
619.108	1022.34
619.525	1016.59
619.942	1021.02
620.359	1021.98
620.776	1016.55
621.192	1013.19
621.609	1010.16
622.026	1015.27
622.442	1019.13
622.859	1021.69
623.275	1015.65
623.691	1019.63
624.108	1028.66
624.524	1039.42
624.94	1038.92
625.356	1046.74
625.772	1056.83
626.188	1066.42
626.604	1067.06
627.02	1063.34
627.436	1061.34
627.852	1066.52
628.268	1074.93
628.683	1067.79
629.099	1060.17
629.514	1056.08
629.93	1058.4
630.345	1061.72
630.761	1057.89
631.176	1059.12
631.591	1054.07
632.007	1047.83
632.422	1043.88
632.837	1033.62
633.252	1029.55
633.667	1019.14
634.082	1008.53
634.497	996.12
634.911	978.34
635.326	972.27
635.741	956.29
636.155	945.3
636.57	943.65
636.984	940.59
637.399	940.33
637.813	935.78
638.228	932.54
638.642	932.83
639.056	921.36
639.47	917.66
639.884	907.73
640.298	899.33
640.712	894.72
641.126	881.9
641.54	870.95
641.954	861.35
642.368	849.41
642.781	840.2
643.195	823.67
643.609	821.83
644.022	814
644.436	806.85
644.849	794.05
645.262	781.61
645.676	779.25
646.089	773.52
646.502	761.05
646.915	754.48
647.328	739.55
647.741	735.73
648.154	722.75
648.567	718.96
648.98	708.34
649.393	707.01
649.805	704.7
650.218	698.67
650.631	687.87
651.043	682.36
651.456	676.81
651.868	675.64
652.28	686.63
652.693	695.59
653.105	699.47
653.517	705.23
653.929	705.49
654.341	707.44
654.753	697.79
655.165	699.73
655.577	697.55
655.989	694.05
656.401	688.27
656.813	662.75
657.224	648.48
657.636	627.5
658.047	616.27
658.459	603
658.87	595.34
659.282	586.89
659.693	573.04
660.104	563.17
660.515	553.18
660.926	550.33
661.338	547.54
661.749	541.54
662.159	535.19
662.57	529.68
662.981	525.07
663.392	519.05
663.803	520.64
664.213	517.03
664.624	511.48
665.035	512.75
665.445	502.79
665.855	498.2
666.266	493.95
666.676	491.88
667.086	486.49
667.497	485.78
667.907	481.77
668.317	475.37
668.727	475.72
669.137	476.31
669.547	475.08
669.956	478.32
670.366	479.17
670.776	480.13
671.186	482.53
671.595	485.24
672.005	487.72
672.414	488.19
672.824	488.53
673.233	489.57
673.642	492.59
674.052	495.36
674.461	498.45
674.87	503.48
675.279	504.27
675.688	507.13
676.097	509.79
676.506	509.72
676.915	520.98
677.323	524.98
677.732	526.72
678.141	528.19
678.549	523.4
678.958	523.39
679.366	524.64
679.775	528.76
680.183	539.55
680.592	545.21
681	551.38
681.408	549.74
681.816	556.52
682.224	565.01
682.632	576.18
683.04	600.1
683.448	620.64
683.856	644.87
684.264	676.17
684.671	701.25
685.079	734.45
685.487	771.31
685.894	820.71
686.302	862.65
686.709	899.42
687.116	941.98
687.524	980.06
687.931	1015.22
688.338	1047.82
688.745	1072.93
689.152	1105.59
689.559	1147.24
689.966	1189.67
690.373	1214.35
690.78	1257.31
691.187	1316.78
691.593	1363.55
692	1405.89
692.407	1465.4
692.813	1538
693.22	1597.76
693.626	1657.88
694.032	1709.08
694.439	1782.02
694.845	1842.87
695.251	1917.71
695.657	1985.5
696.063	2084.43
696.469	2159.64
696.875	2229.91
697.281	2273.13
697.687	2324.2
698.093	2370.31
698.498	2448.41
698.904	2510.17
699.31	2600.2
699.715	2666.21
700.12	2758.66
700.526	2781.09
700.931	2854.04
701.337	2910.44
701.742	2949.01
702.147	3036.96
702.552	3071.78
702.957	3134.73
703.362	3160.22
703.767	3194.08
704.172	3239.64
704.577	3200.96
704.981	3252.12
705.386	3272.57
705.791	3270.27
706.195	3347.95
706.6	3362.17
707.004	3441.96
707.408	3415.85
707.813	3446.88
708.217	3439.33
708.621	3443
709.025	3542.06
709.43	3546.12
709.834	3608.04
710.237	3679.1
710.641	3666.57
711.045	3690.51
711.449	3690.56
711.853	3724.01
712.256	3767.12
712.66	3807.55
713.064	3883.88
713.467	3926.63
713.87	4041.52
714.274	4091.05
714.677	4202.19
715.08	4364.5
715.484	4533.75
715.887	4740.52
716.29	4942.96
716.693	5153.74
717.096	5396.43
717.499	5533.9
717.901	5561.48
718.304	5591.44
718.707	5616.73
719.109	5516.95
719.512	5488.55
719.915	5357.42
720.317	5300.41
720.719	5344.01
721.122	5317.34
721.524	5266.75
721.926	5226.53
722.328	5328.32
722.731	5317.32
723.133	5344.67
723.535	5538.13
723.937	5557.61
724.338	5609.1
724.74	5651.91
725.142	5589.1
725.544	5588.68
725.945	5618.5
726.347	5613.07
726.748	5608.07
727.15	5626.05
727.551	5591.89
727.952	5568.21
728.354	5540
728.755	5539.5
729.156	5498.13
729.557	5485.79
729.958	5362.81
730.359	5307.88
730.76	5290.28
731.161	5232.53
731.562	5207.14
731.962	5209.83
732.363	5144.67
732.763	5083.76
733.164	5121.14
733.564	5053.2
733.965	4957.98
734.365	4924.28
734.766	4949.68
735.166	4910.85
735.566	4854.31
735.966	4827.07
736.366	4823.15
736.766	4761.64
737.166	4791.87
737.566	4752.69
737.966	4727.41
738.365	4765.19
738.765	4760.2
739.165	4686.81
739.564	4661.35
739.964	4708.01
740.363	4661.61
740.763	4660.4
741.162	4648.57
741.561	4618.31
741.96	4571.54
742.36	4589.94
742.759	4596.45
743.158	4633.44
743.557	4647.77
743.955	4687.23
744.354	4639.7
744.753	4697.88
745.152	4656.48
745.55	4710.35
745.949	4704.44
746.348	4705.74
746.746	4724.68
747.144	4685.63
747.543	4664.39
747.941	4712.67
748.339	4643.35
748.737	4637.4
749.136	4630.07
749.534	4693.04
749.932	4666.14
750.33	4690.55
750.727	4746.82
751.125	4720.61
751.523	4703.31
751.921	4746.18
752.318	4714.16
752.716	4771.45
753.113	4783.84
753.511	4808.08
753.908	4807.19
754.305	4790.13
754.703	4849.46
755.1	4905.66
755.497	4965.09
755.894	5153.9
756.291	5331.19
756.688	5654.54
757.085	6091.08
757.482	6701.93
757.878	7368.03
758.275	7972.94
758.672	8802.06
759.068	9477.46
759.465	10442.24
759.861	11687.06
760.258	13130.2
760.654	13869.86
761.05	13754.43
761.447	13119.92
761.843	12214.65
762.239	11280.94
762.635	10857.77
763.031	10447.3
763.427	9860.31
763.822	9246.17
764.218	8640.96
764.614	7852.79
765.01	7324.52
765.405	6987.13
765.801	6730.57
766.196	6401.84
766.592	6216.8
766.987	5903.39
767.382	5697.63
767.778	5608.26
768.173	5483.59
768.568	5411.15
768.963	5285.55
769.358	5303.29
769.753	5257.26
770.148	5169.89
770.542	5166.67
770.937	5134.15
771.332	5222.98
771.726	5239.09
772.121	5177.73
772.515	5227.88
772.91	5211.08
773.304	5278.94
773.699	5214.53
774.093	5265.73
774.487	5322.37
774.881	5361.57
775.275	5356.43
775.669	5315.58
776.063	5357.54
776.457	5391.3
776.851	5318.36
777.245	5312.4
777.638	5347.93
778.032	5462.39
778.425	5424.67
778.819	5464.91
779.212	5425.85
779.606	5386.29
779.999	5409.33
780.392	5393.98
780.786	5474.17
781.179	5497.16
781.572	5538.29
781.965	5550.58
782.358	5494.7
782.751	5551.26
783.143	5505.97
783.536	5573.91
783.929	5616.51
784.322	5725.23
784.714	5757.03
785.107	5752.48
785.499	5822.07
785.891	5798.4
786.284	5780
786.676	5918.4
787.068	5899.8
787.46	5950.07
787.852	5971.64
788.245	6059.46
788.636	6089.03
789.028	6153.72
789.42	6193.1
789.812	6200.63
790.204	6297.87
790.595	6399.46
790.987	6206.93
791.378	6230.68
791.77	6356.45
792.161	6490.57
792.553	6542.39
792.944	6432.24
793.335	6364.99
793.726	6437.77
794.117	6528.32
794.508	6666.02
794.899	6634.61
795.29	6772.24
795.681	6833.52
796.072	6697.53
796.463	6517.41
796.853	6528.11
797.244	6687.54
797.634	6723.67
798.025	6722.09
798.415	6730.36
798.806	6818.85
799.196	6900.57
799.586	6949.24
799.976	6909.41
800.366	7136.75
800.756	7377.23
801.146	7336.23
801.536	7362.09
801.926	7434.3
802.316	7461.43
802.706	7536.64
803.095	7416.91
803.485	7517.45
803.874	7564.95
804.264	7820.48
804.653	7795.61
805.043	7936.76
805.432	8052.81
805.821	8056.79
806.21	8077.56
806.599	8199.7
806.988	8248.21
807.377	8353.76
807.766	8484.76
808.155	8758.75
808.544	8495.86
808.933	8507.54
809.321	8487.25
809.71	8770.92
810.098	8929.03
810.487	9385.92
810.875	9856.37
811.264	9873.93
811.652	10158.09
812.04	10303.18
812.428	10470.84
812.816	11229.61
813.204	11645.61
813.592	12193.07
813.98	12531.18
814.368	12438.27
814.756	12913.5
815.144	12839.79
815.531	13308.33
815.919	13238.55
816.306	13539.83
816.694	13233.56
817.081	13291.5
817.469	13638.42
817.856	13639.2
818.243	13907.29
818.63	14301.58
819.017	13888.34
819.404	13952.79
819.791	14328.45
820.178	14938.96
820.565	15194.52
820.952	16127.06
821.339	15634.36
821.725	15819.46
822.112	15080.16
822.498	15043.75
822.885	15162.74
823.271	15066.81
823.657	15476.2
824.044	15476.87
824.43	15544.12
824.816	15508.62
825.202	15070.39
825.588	16081.95
825.974	16092.94
826.36	16603.45
826.746	16630.18
827.132	16990.95
827.517	16964.85
827.903	16188.92
828.289	16227.78
828.674	15464.18
829.06	15364.42
829.445	15761.22
829.83	16099.95
830.216	16566.26
830.601	16926.99
830.986	16530.02
831.371	16395.7
831.756	16944.21
832.141	16525.03
832.526	16519.53
832.911	16793.42
833.295	16676.98
833.68	17135.44
834.065	16527.11
834.449	15626.48
834.834	15552
835.218	15542.38
835.603	15871.91
835.987	15667.17
836.371	16479.67
836.755	16381.21
837.139	16769.33
837.524	16998.28
837.908	16824.22
838.291	16876.14
838.675	16936.72
839.059	17139.08
839.443	17129.68
839.827	16909.53
840.21	17370.14
840.594	17219.53
840.977	17404.33
841.361	17382.47
841.744	17751.52
842.127	17597.04
842.511	17841.1
842.894	18423.68
843.277	18796.08
843.66	19319.56
844.043	19384.4
844.426	18604.29
844.809	18297.36
845.191	18335.46
845.574	17881.09
845.957	17522.78
846.339	17403.87
846.722	16890.09
847.104	16962.12
847.487	16786.41
847.869	16803.69
848.252	17084.96
848.634	17400.02
849.016	17658.37
849.398	17773.12
849.78	18612.26
850.162	18623.03
850.544	19029.04
850.926	19638.95
851.307	19547.22
851.689	19820.14
852.071	20259.04
852.452	20571.26
852.834	20551.42
853.215	20935.58
853.597	21092.96
853.978	21372.88
854.359	21810.75
854.741	20842.4
855.122	20748.58
855.503	20473.3
855.884	20615.82
856.265	20553.84
856.646	20660.16
857.026	20272.6
857.407	20214.98
857.788	20372.39
858.169	20655.02
858.549	19821.9
858.93	20432.62
859.31	20473.39
859.69	20670.85
860.071	20267.56
860.451	20055.89
860.831	19337.52
861.211	20480.14
861.591	21019.51
861.971	20991.36
862.351	21185.16
862.731	21572.8
863.111	21830.82
863.491	22165.27
863.87	23031.88
864.25	23378.3
864.629	22992.85
865.009	23498.49
865.388	24335.36
865.768	26076.14
866.147	25976.99
866.526	24544.52
866.905	24829.78
867.284	26221.83
867.663	24893.86
868.042	23848.45
868.421	23776.98
868.8	24159.4
869.179	24404.05
869.558	22984.7
869.936	21188.46
870.315	21558.52
870.693	22080.75
871.072	23810.02
871.45	22684.51
871.828	22979.6
872.207	24169.17
872.585	23797.73
872.963	24457.31
873.341	23602.25
873.719	23314.48
874.097	23035.51
874.475	23482.07
874.853	24011.34
875.23	23014.86
875.608	23973.8
875.986	25923.13
876.363	24786.6
876.741	25543.77
877.118	24910.45
877.495	26134.91
877.873	26572.23
878.25	27969.34
878.627	26816.88
879.004	27197.97
879.381	27054.65
879.758	26343.09
880.135	24517.4
880.512	25924.74
880.889	25232.74
881.265	24956.88
881.642	24748.25
882.019	25165.03
882.395	24641.76
882.772	25624.46
883.148	24498.76
883.524	24402.47
883.901	24264.12
884.277	24640.39
884.653	24476.71
885.029	25179.61
885.405	27879.46
885.781	27658.93
886.157	26524.64
886.532	26849.44
886.908	26836.71
887.284	29841.36
887.659	30808.89
888.035	31770.59
888.411	32581.05
888.786	33017.69
889.161	34158.19
889.537	33528.52
889.912	34604.72
890.287	34552.59
890.662	35437.24
891.037	34791.34
891.412	32441.36
891.787	32114.35
892.162	30978.39
892.536	31692.77
892.911	30482.07
893.286	29829.01
893.66	28608.55
894.035	29331.54
894.409	31927.51
894.784	30636.45
895.158	31134.37
895.532	32969.2
895.906	33862.17
896.281	34647
896.655	34092.39
897.029	38971.8
897.402	40589.04
897.776	45200.7
898.15	45042.38
898.524	44561.22
898.898	45158.66
899.271	50556.72
899.645	43787.78
900.018	42057.85
900.392	43624.13
900.765	43969.91
901.138	40676.23
901.511	40056.23
901.884	36763.17
902.258	33902.85
902.631	35040.5
903.003	40312.91
903.376	36379.81
903.749	40824.41
904.122	43707.29
904.495	48115.85
904.867	48725.97
905.24	42299.47
905.612	39366.01
905.985	40286.69
906.357	42122.6
906.729	40210.02
907.102	34344.36
907.474	33013.76
907.846	33214.96
908.218	32783.18
908.59	28985.78
908.962	28045.33
909.334	30214.02
909.705	31754.81
910.077	30825.13
910.449	32090.73
910.82	32995.2
911.192	36313.7
911.563	37758.76
911.935	40409.87
912.306	40471.04
912.677	41785.08
913.048	41353.44
913.419	44859.08
913.79	45105.27
914.161	48362.64
914.532	46224.02
914.903	42478.77
915.274	40354.83
915.645	39755.46
916.015	34986.05
916.386	33342.39
916.756	35486.45
917.127	36635.02
917.497	32768.94
917.868	35687.73
918.238	33925.29
918.608	34910.68
918.978	35619.38
919.348	37705.19
919.718	38959.38
920.088	37536.43
920.458	39026.34
920.828	41068.93
921.198	38917.41
921.567	41542.62
921.937	32163.18
922.306	32461.67
922.676	35021.82
923.045	29222
923.415	27775.26
923.784	25292.21
924.153	26005.67
924.522	25970.85
924.891	24420.24
925.26	26151.54
925.629	25532.64
925.998	29361.54
926.367	28656.57
926.736	27282.16
927.104	32515.18
927.473	34959.47
927.842	42235.82
928.21	41856.32
928.578	43994.91
928.947	41626.36
929.315	41896.33
929.683	49152.82
930.051	49528.91
930.42	57527.51
930.788	49192.76
931.156	48781.79
931.523	45743.81
931.891	42260.24
932.259	40546.28
932.627	47022.52
932.994	66460.65
933.362	54885.15
933.729	47642
934.097	45571.93
934.464	38560.82
934.831	44459.21
935.199	43834.99
935.566	42472.07
935.933	42997.99
936.3	52103.29
936.667	40543.32
937.034	36598.28
937.401	36224.14
937.767	31264.53
938.134	27849.86
938.501	39291.94
938.867	41872.35
939.234	70870.33
939.6	60484.47
939.967	66722.95
940.333	44674.05
940.699	38033.62
941.065	30537.03
941.431	40118.07
941.798	38721.91
942.163	50853.94
942.529	31754.97
942.895	29285.66
943.261	18927.36
943.627	24841.55
943.992	21775.91
944.358	21830.43
944.723	21919.13
945.089	21369.67
945.454	19709.01
945.82	21027.28
946.185	20233.51
946.55	23478.91
946.915	21059.95
947.28	24716.88
947.645	21793.11
948.01	20118.96
948.375	20958.7
948.74	25156.34
949.104	29333.84
949.469	42412.11
949.834	74954.07
950.198	71074.66
950.562	42607.53
950.927	35451.46
951.291	42674.89
951.655	36272.17
952.02	34016.59
952.384	25724.66
952.748	22359.71
953.112	21793.61
953.476	18943.03
953.839	17518.67
954.203	17329.59
954.567	21649.24
954.931	34096.38
955.294	29140.87
955.658	29306.33
956.021	49901.15
956.385	84509.51
956.748	124695.28
957.111	193485.72
957.474	217054.12
957.837	244373.67
958.2	185062.85
958.563	66608.17
958.926	45052.65
959.289	68386.21
959.652	76446.59
960.015	57333.05
960.377	82391.92
960.74	94071.64
961.102	162273.41
961.465	174205.07
961.827	93337.78
962.189	178895.47
962.552	123906.17
962.914	99371
963.276	64545.68
963.638	53378.92
964	52857.8
964.362	35716.39
964.724	34507.78
965.085	24628.14
965.447	20221.23
965.809	23039.75
966.17	23065
966.532	24937.44
966.893	22883.11
967.255	20801.37
967.616	24558.94
967.977	19671.72
968.338	21497.64
968.699	17675.7
969.061	17660.64
969.421	17754.41
969.782	19919.05
970.143	16827.07
970.504	17441.23
970.865	19807.05
971.225	20258.17
971.586	19808.24
971.946	28225.87
972.307	24462.38
972.667	31928.78
973.027	32899.31
973.388	39903.95
973.748	27134.57
974.108	29555.42
974.468	39968.12
974.828	30789.85
975.188	23688.09
975.548	21752.8
975.907	18258.86
976.267	20501.64
976.627	17254.61
976.986	17890.86
977.346	17053.75
977.705	16400.03
978.064	14948.91
978.424	12456.32
978.783	12894.5
979.142	14712.53
979.501	14088.23
979.86	14894.8
980.219	14357.34
980.578	18514.43
980.937	20723.41
981.296	18470.24
981.654	19020.7
982.013	29527.31
982.371	38297.41
982.73	35755.46
983.088	40515.43
983.447	43240.56
983.805	61805.44
984.163	129118.16
984.521	143167.82
984.879	209958.28
985.237	-341711.99
985.595	329214.95
985.953	81971
986.311	47283.21
986.669	27464.29
987.026	23693.35
987.384	31833.14
987.741	32879.21
988.099	23499.61
988.456	18731.01
988.814	17517.08
989.171	15222.54
989.528	15007.71
989.885	15833.41
990.242	12551.68
990.599	15654.33
990.956	12806.53
991.313	8961.42
991.67	7359.18
992.027	7789.62
992.383	6921.8
992.74	6080.26
993.096	6372.57
993.453	6609.48
993.809	6855.63
994.165	9138.48
994.522	8358.01
994.878	9207.44
995.234	11565.13
995.59	11422.47
995.946	10838.54
996.302	12354.75
996.658	14250.2
997.013	15687.82
997.369	18601.54
997.725	23779.04
998.08	15380.08
998.436	23724.3
998.791	32747.29
999.147	32687.95
999.502	35578.07
999.857	25827.38
1000.212	42134.62
1000.567	60103.74
1000.922	34708.36
1001.277	22081.88
1001.632	16418.6
1001.987	21154.32
1002.342	15172.98
1002.696	12121.54
1003.051	9658.58
1003.406	11740.17
1003.76	11687.89
1004.114	11507.09
1004.469	9660.88
1004.823	8006.14
1005.177	8654.48
1005.531	6868.61
1005.885	6093.66
1006.239	6879.39
1006.593	8651.45
1006.947	11589.96
1007.301	8690.35
1007.655	9465.44
1008.008	6955.99
1008.362	7819.81
1008.715	11182.2
1009.069	10151.29
1009.422	15264.59
1009.776	30669.61
1010.129	20379.27
1010.482	16981.58
1010.835	14366
1011.188	29790.77
1011.541	28018.2
1011.894	-171652.72
1012.247	504953.8
1012.6	34302.8
1012.952	21568.29
1013.305	11055.43
1013.657	7970.2
1014.01	7526.89
1014.362	6210.81
1014.715	5506.84
1015.067	4814.84
1015.419	4722.26
1015.771	4177.62
1016.123	3717.1
1016.475	3819.75
1016.827	4073.55
1017.179	4394.32
1017.531	4427.1
1017.883	4531.77
1018.234	4378.97
1018.586	5536.18
1018.938	5859.08
1019.289	8081.42
1019.64	9259.6
1019.992	8630.43
1020.343	7874.61
1020.694	6235.68
1021.045	5519.2
1021.396	6284.31
1021.747	6745.95
1022.098	8074.08
1022.449	5873.53
1022.8	5443.62
1023.151	3804.65
1023.501	3386.33
1023.852	3672.98
1024.202	3822.32
1024.553	4183.64
1024.903	4075.68
1025.253	3499.25
1025.604	3157.61
1025.954	3944.66
1026.304	4798.18
1026.654	5584.31
1027.004	8137.73
1027.354	13144.87
1027.703	12386.11
1028.053	16257.35
1028.403	23735.8
1028.753	34341.85
1029.102	46712.04
1029.452	239010.64
1029.801	10269.43
1030.15	6632.68
1030.499	5632.24
897.758	2684.64
901.051	2639.42
904.343	2674.78
907.636	2674.21
910.928	2738.5
914.22	2649.51
917.511	2656.85
920.803	2719.71
924.094	2739.28
927.384	2721.62
930.675	2684.96
933.965	2635.85
937.255	2644.44
940.544	2612.25
943.834	2552.16
947.123	2496.2
950.411	2592.43
953.7	2567.53
956.988	2534.26
960.276	2472.5
963.563	2554.99
966.851	2549.85
970.138	2608.04
973.424	2604.48
976.711	2550.66
979.997	2686.26
983.283	2720.28
986.568	2625.35
989.853	2640.58
993.138	2669.07
996.423	2754.65
999.708	2687.28
1002.992	2754.46
1006.275	2587.74
1009.559	2634.01
1012.842	2754.04
1016.125	2682.46
1019.408	2662.75
1022.69	2748.44
1025.972	2768.17
1029.254	2742.9
1032.536	2673.56
1035.817	2703.21
1039.098	2644.18
1042.379	2792.46
1045.659	2788.65
1048.939	2720.52
1052.219	2744.38
1055.498	2756.54
1058.778	2743.39
1062.057	2727.03
1065.335	2746.62
1068.614	2768.89
1071.892	2750.19
1075.17	2828.44
1078.447	2818.6
1081.724	2808.77
1085.001	2845.65
1088.278	2816.89
1091.554	2829.25
1094.83	2825.09
1098.106	2854.04
1101.382	2901.49
1104.657	2899.44
1107.932	2897.07
1111.206	2861.15
1114.481	2815.28
1117.755	2818.56
1121.029	2798.1
1124.302	2854.83
1127.575	2805.99
1130.848	2792.21
1134.121	2752.6
1137.393	2701.28
1140.665	2770.64
1143.937	2744.29
1147.208	2703
1150.48	2744.33
1153.75	2730.52
1157.021	2762.77
1160.291	2730.94
1163.561	2776.72
1166.831	2767.72
1170.101	2800.22
1173.37	2773.11
1176.639	2714.88
1179.907	2777.69
1183.176	2782.34
1186.444	2788.61
1189.711	2817.68
1192.979	2827.42
1196.246	2784.88
1199.513	2803.76
1202.78	2800.06
1206.046	2809.9
1209.312	2839
1212.578	2864.36
1215.843	2814.2
1219.108	2789.7
1222.373	2813.61
1225.638	2776.29
1228.902	2761.73
1232.166	2723.77
1235.43	2706.64
1238.693	2731.42
1241.956	2727.68
1245.219	2765.97
1248.482	2757.38
1251.744	2751.48
1255.006	2901.39
1258.268	2858.68
1261.529	2801.46
1264.79	2809.76
1268.051	2912.78
1271.312	2928.93
1274.572	2890.65
1277.832	2878.94
1281.092	2867.96
1284.351	2841.51
1287.61	2820.06
1290.869	2735.25
1294.128	2709.25
1297.386	2800.51
1300.644	2787.01
1303.902	2804.39
1307.159	2658.29
1310.416	2715.28
1313.673	2743.39
1316.93	2727.91
1320.186	2773.29
1323.442	2817.18
1326.697	2805.2
1329.953	2795.25
1333.208	2821.07
1336.463	2799.7
1339.717	2737.14
1342.972	2875.42
1346.226	2849.26
1349.479	2779.53
1352.733	2750.51
1355.986	2773.95
1359.238	2749.86
1362.491	2754.08
1365.743	2757.57
1368.995	2750.68
1372.247	2762.43
1375.498	2787.57
1378.749	2802.18
1382	2756.6
1385.251	2808.45
1388.501	2772.07
1391.751	2755.04
1395	2726.24
1398.25	2759.55
1401.499	2767.81
1404.748	2693.12
1407.996	2687.38
1411.244	2670.53
1414.492	2651.75
1417.74	2630.96
1420.987	2641.26
1424.234	2699.14
1427.481	2680.63
1430.728	2740.99
1433.974	2712.59
1437.22	2726.78
1440.465	2727.93
1443.711	2689.74
1446.956	2728.16
1450.201	2714.13
1453.445	2760.83
1456.689	2739.8
1459.933	2752.44
1463.177	2785.25
1466.42	2753.73
1469.663	2735.37
1472.906	2730.13
1476.148	2806.17
1479.391	2766.17
1482.633	2733.59
1485.874	2746.74
1489.115	2732.2
1492.356	2736.52
1495.597	2710.54
1498.838	2713.48
1502.078	2683.75
1505.318	2633.16
1508.557	2675.28
1511.797	2653.41
1515.036	2722.49
1518.274	2713.64
1521.513	2685.92
1524.751	2707.19
1527.989	2722.2
1531.227	2736.22
1534.464	2729.62
1537.701	2751.69
1540.938	2770.39
1544.174	2723.04
1547.41	2719.9
1550.646	2763.71
1553.882	2798.61
1557.117	2852.29
1560.352	2869.71
1563.587	2827.39
1566.821	2784.53
1570.055	2821.58
1573.289	2790.24
1576.523	2867.65
1579.756	2874.08
1582.989	2894.09
1586.222	2851.59
1589.454	2895.56
1592.686	2867.1
1595.918	2892.09
1599.15	2879.22
1602.381	2956.11
1605.612	2908.69
1608.843	3007.68
1612.073	2918.25
1615.303	2903.3
1618.533	2894.27
1621.762	2897.49
1624.992	2879.71
1628.221	2867.03
1631.449	2853.06
1634.678	2909.05
1637.906	2863.28
1641.134	2901.88
1644.361	2857.96
1647.588	2847.8
1650.815	2864.48
1654.042	2843.21
1657.269	2874.56
1660.495	2825.74
1663.72	2846.58
1666.946	2808.5
1670.171	2753
1673.396	2727.55
1676.621	2717.69
1679.845	2736.39
1683.069	2758.36
1686.293	2801.06
1689.517	2769.34
1692.74	2697.82
1695.963	2731.99
1699.185	2747.78
1702.408	2720.84
1705.63	2763.8
1708.852	2774.56
1712.073	2745.21
1715.294	2730.97
1718.515	2788.58
1721.736	2737.1
1724.956	2731.39
1728.176	2758.47
1731.396	2778.36
1734.616	2765.2
1737.835	2794.92
1741.054	2776.08
1744.272	2768.78
1747.491	2801.93
1750.709	2855.18
1753.927	2760
1757.144	2806.16
1760.361	2850.31
1763.578	2840.2
1766.795	2778.76
1770.011	2786.51
1773.227	2828.62
1776.443	2862.58
1779.658	2908.5
1782.874	2850.71
1786.089	2827.61
1789.303	2831.07
1792.518	2836.07
1795.732	2821.38
1798.945	2833.78
1802.159	2885.47
1805.372	2786.1
1808.585	2771.67
1811.797	2770.88
1815.01	2821.75
1818.222	2821.86
1821.434	2796.11
1824.645	2855.77
1827.856	2836.14
1831.067	2877.63
1834.278	2831.29
1837.488	2814.58
1840.698	2966.86
1843.908	2888.14
1847.117	2849.95
1850.326	2730.04
1853.535	2837.62
1856.744	2862.5
1859.952	2774.9
1863.16	2778.26
1866.368	2797.94
1869.575	2907.26
1872.782	2789.19
1875.989	2726.89
1879.196	2811.25
1882.402	2805.17
1885.608	2848.72
1888.814	2746.97
1892.019	2640.23
1895.224	2692.23
1898.429	2674.8
1901.634	2652.13
1904.838	2626.84
1908.042	2677.71
1911.246	2685.4
1914.449	2616.58
1917.652	2611.08
1920.855	2592.07
1924.058	2644.17
1927.26	2682.43
1930.462	2710.72
1933.664	2735.25
1936.865	2671.76
1940.066	2680.02
1943.267	2626.87
1946.467	2641.31
1949.668	2670.98
1952.868	2739.81
1956.067	2717.1
1959.267	2646.47
1962.466	2674.84
1965.665	2658.12
1968.863	2655.66
1972.061	2670.29
1975.259	2670.91
1978.457	2751.04
1981.654	2712.79
1984.852	2709.18
1988.048	2642.81
1991.245	2645.41
1994.441	2731.37
1997.637	2716.11
2000.833	2700.21
2004.028	2738.41
2007.223	2792.52
2010.418	2766.36
2013.613	2728.68
2016.807	2695.55
2020.001	2706.88
2023.194	2750.7
2026.388	2726.29
2029.581	2672.25
2032.774	2722.42
2035.966	2726.7
2039.158	2656.18
2042.35	2687.29
2045.542	2614.63
2048.733	2714.3
2051.924	2735.15
2055.115	2762.77
2058.306	2705.15
2061.496	2766.14
2064.686	2830.89
2067.875	2744.53
2071.065	2757.45
2074.254	2787.2
2077.442	2737.53
2080.631	2826.32
2083.819	2717.86
2087.007	2702.65
2090.195	2673.64
2093.382	2709.03
2096.569	2687.87
2099.756	2643.07
2102.942	2666.87
2106.128	2674.87
2109.314	2666.13
2112.5	2628.66
2115.685	2603.56
2118.87	2614.34
2122.055	2681.33
2125.239	2644.92
2128.424	2620.77
2131.608	2723.01
2134.791	2703.9
2137.974	2761.78
2141.157	2746.9
2144.34	2696.68
2147.523	2711.52
2150.705	2728.7
2153.887	2707.01
2157.068	2654.19
2160.25	2657.24
2163.431	2697.06
2166.611	2642.16
2169.792	2658.01
2172.972	2552.01
2176.152	2632.72
2179.331	2666.3
2182.511	2650.52
2185.69	2680.65
2188.868	2674.35
2192.047	2730.67
2195.225	2721.57
2198.403	2668.89
2201.58	2660.15
2204.758	2654.95
2207.935	2736.9
2211.111	2624.53
2214.288	2610.17
2217.464	2647.44
2220.64	2617.48
2223.815	2675.07
2226.991	2595.39
2230.166	2613.97
2233.34	2642.9
2236.515	2672.6
2239.689	2746.2
2242.863	2691.52
2246.036	2745.58
2249.209	2747.99
2252.382	2784.29
2255.555	2769.33
2258.727	2704.37
2261.9	2745.52
2265.071	2738.29
2268.243	2737.97
2271.414	2669.06
2274.585	2629.43
2277.756	2699.77
2280.926	2657.22
2284.096	2695.71
2287.266	2600.2
2290.436	2660.24
2293.605	2687.17
2296.774	2717.87
2299.942	2741.96
2303.111	2758.79
2306.279	2807.84
2309.447	2792.6
2312.614	2765.65
2315.781	2785.36
2318.948	2754.68
2322.115	2794.72
2325.281	2694.54
2328.447	2714.94
2331.613	2690.13
2334.779	2659.84
2337.944	2663.71
2341.109	2659.4
2344.274	2644.83
2347.438	2608.75
2350.602	2632.35
2353.766	2649.91
2356.929	2636.12
2360.092	2676.42
2363.255	2628.89
2366.418	2559.38
2369.58	2675.49
2372.742	2459.61
2375.904	2475.94
2379.066	2450.14
2382.227	2486.49
2385.388	2448.71
2388.548	2376.04
2391.709	2430.22
2394.869	2411.9
2398.029	2512.09
2401.188	2526.81
2404.347	2457.11
2407.506	2601.46
2410.665	2629.95
2413.823	2637.71
2416.981	2593.63
2420.139	2627.97
2423.296	2673.8
2426.453	2648.51
2429.61	2672.06
2432.767	2604.92
2435.923	2643.44
2439.079	2606.59
2442.235	2658.16
2445.391	2584.64
2448.546	2613.94
2451.701	2664.99
2454.855	2633.63
2458.009	2692.19
2461.163	2693.29
2464.317	2650.64
2467.471	2685.23
2470.624	2723.21
2473.777	2694.37
2476.929	2706.87
2480.082	2732.31
2483.234	2694.34
2486.385	2648.67
2489.537	2642.13
2492.688	2599.49
2495.839	2620.42
2498.989	2630.88
2502.14	2616.11
2505.29	2597.07
2508.439	2625.73
2511.589	2547.02
2514.738	2561.18
2517.887	2592.17
2521.035	2658.37
2524.183	2639.57
2527.331	2621.03
2530.479	2591.66
2533.627	2603.77
