Data from C_3_DIV_PA_2N_Splice17_13-15-42-877.txt Node
Date: Sat Mar 14 13:15:42 EDT 2020
User: sa697716
Spectrometer: FLMS03696
Trigger mode: 0
Integration Time (sec): 3.180400E-1
Scans to average: 20
Electric dark correction enabled: true
Nonlinearity correction enabled: true
Boxcar width: 5
XAxis mode: Wavelengths
Number of Pixels in Spectrum: 2048
>>>>>Begin Spectral Data<<<<<
187.83	-326191.27
188.298	2389.23
188.766	1273.35
189.233	1132.1
189.701	1557.32
190.169	2071.35
190.636	808.88
191.104	666.67
191.571	101.65
192.039	-65.05
192.506	-82.83
192.974	279.94
193.441	-590.55
193.908	-119.74
194.375	-20.84
194.842	21.12
195.31	93.85
195.777	196.2
196.244	361.94
196.711	240.59
197.177	255.08
197.644	271.05
198.111	445.63
198.578	629.51
199.045	482.81
199.511	728.5
199.978	786.91
200.445	674.41
200.911	682.82
201.378	697.55
201.844	711.05
202.31	1137.64
202.777	1174.18
203.243	622.33
203.709	571.76
204.176	684.27
204.642	586.65
205.108	547.08
205.574	425.96
206.04	363.95
206.506	334.96
206.972	268.75
207.438	252.04
207.903	284.25
208.369	268.77
208.835	289.42
209.301	303.33
209.766	282.88
210.232	291.14
210.697	347.82
211.163	403.74
211.628	611.62
212.094	566.51
212.559	836.75
213.024	540.36
213.49	687.85
213.955	647.69
214.42	592.77
214.885	567.06
215.35	551.67
215.815	638.34
216.28	714.88
216.745	576.7
217.21	637.38
217.675	542.35
218.14	626.86
218.604	696.5
219.069	832
219.534	934.75
219.998	1076.61
220.463	1324.9
220.927	1549.62
221.392	1449.43
221.856	1490.91
222.32	1851.06
222.785	2345.25
223.249	2958.11
223.713	3328.09
224.177	3332.08
224.642	4191.69
225.106	5190.17
225.57	5657.1
226.034	4313.35
226.497	6649.29
226.961	6082.58
227.425	7238.21
227.889	8002.02
228.353	8033.39
228.816	16558.3
229.28	15990
229.744	13657.72
230.207	8428.77
230.671	8354.64
231.134	13714.94
231.597	16004.11
232.061	16047.29
232.524	15614.48
232.987	10869.96
233.45	9901.82
233.914	8949.28
234.377	9169.2
234.84	8429.87
235.303	9944.09
235.766	11164.7
236.229	11604.22
236.691	7313.12
237.154	8247.99
237.617	6269.69
238.08	6441.18
238.542	7553.53
239.005	5446.37
239.468	5439.38
239.93	5154.41
240.393	4703.9
240.855	4132.09
241.317	4240.91
241.78	5161.85
242.242	5372.91
242.704	5836.29
243.166	5106.79
243.629	4699.02
244.091	5426.73
244.553	5977.76
245.015	6449.15
245.477	8390.39
245.939	12370.01
246.4	13177.9
246.862	12860.38
247.324	12149.07
247.786	13604.31
248.247	17876.15
248.709	18371.25
249.17	13802.62
249.632	13125.06
250.093	15351.68
250.555	13293.87
251.016	8182.24
251.477	7820.71
251.939	8497.95
252.4	8962.95
252.861	10685.93
253.322	10021.96
253.783	11955.65
254.244	15550.8
254.705	12271.55
255.166	10926.1
255.627	10815.65
256.088	15311.93
256.549	16280.24
257.009	14061.21
257.47	17089
257.931	13966.46
258.391	10472.33
258.852	10855.26
259.312	11431.65
259.773	14146.63
260.233	12072
260.694	10252.02
261.154	11676.14
261.614	9484.16
262.074	8526.66
262.534	8937.08
262.994	8485.73
263.455	11370.31
263.915	9639.94
264.374	9135.8
264.834	10047.27
265.294	11169.1
265.754	11630.18
266.214	11061.17
266.673	10403.76
267.133	13192.8
267.593	13138.28
268.052	16174.28
268.512	14138.07
268.971	17211.52
269.431	18945.83
269.89	17031.63
270.349	25669.21
270.809	28785.45
271.268	26020.27
271.727	58385.52
272.186	38027.81
272.645	28613.78
273.104	20675.28
273.563	30004.75
274.022	23575.48
274.481	20189.73
274.94	15657.82
275.399	11647.64
275.857	13567.54
276.316	18387.01
276.775	16464.79
277.233	16261.26
277.692	15296.94
278.15	17390.13
278.609	18023.3
279.067	16751.63
279.525	15646.56
279.984	20224.44
280.442	24447.88
280.9	24261.47
281.358	16030.33
281.816	15006.8
282.274	14732.25
282.732	15237.15
283.19	15339.08
283.648	13236.68
284.106	14117.07
284.564	14351.24
285.021	13367.97
285.479	9968.02
285.937	9045.5
286.394	7969.9
286.852	8197.75
287.309	8630.61
287.767	8396.4
288.224	8029.32
288.682	8861.01
289.139	9798.13
289.596	9016.48
290.053	9403.23
290.511	11927.38
290.968	14611.2
291.425	19904.82
291.882	16759.96
292.339	14711.33
292.796	14666.72
293.252	13889.73
293.709	11108.72
294.166	9996.17
294.623	11086.53
295.079	10668.29
295.536	10768.7
295.992	9802.63
296.449	9731.8
296.905	10088.74
297.362	9713.04
297.818	10239.65
298.274	10662.57
298.731	10859.22
299.187	10757.23
299.643	11574.49
300.099	14044.68
300.555	15420.15
301.011	12927.08
301.467	12530.64
301.923	14718.39
302.379	14394.48
302.835	14173.79
303.291	14228.37
303.746	16248.52
304.202	20554.55
304.658	20630.95
305.113	13908.14
305.569	13661.05
306.024	14547.27
306.479	13832.38
306.935	11689.91
307.39	12758.61
307.845	11790.86
308.301	11884.62
308.756	11592.63
309.211	11181.29
309.666	11495.71
310.121	14273.89
310.576	14483.44
311.031	14380.22
311.486	16433.65
311.94	16433.04
312.395	21990.16
312.85	41292.59
313.305	202169.32
313.759	1051742.89
314.214	76429.78
314.668	60717.1
315.123	51295.02
315.577	18455.62
316.032	16487.86
316.486	20715.6
316.94	16449.45
317.394	11500.25
317.849	8989.48
318.303	8546.77
318.757	8084.74
319.211	8982.13
319.665	7888.45
320.119	8024.08
320.572	11558.83
321.026	10849.99
321.48	9075.91
321.934	9893.26
322.387	9951.69
322.841	10784.54
323.295	9766.2
323.748	11230.98
324.202	11416.27
324.655	13745.91
325.108	19261.8
325.562	13650.82
326.015	16256.68
326.468	12301.83
326.921	13805.53
327.374	12923.98
327.827	13488.06
328.28	15281.19
328.733	10287.59
329.186	9050.8
329.639	8636.41
330.092	7280.62
330.545	6935.6
330.997	7003.41
331.45	7692.52
331.903	9019.28
332.355	15484.9
332.808	15046.79
333.26	12391.27
333.713	13477.19
334.165	13591.71
334.617	18137.84
335.069	14617.88
335.522	26371.86
335.974	29156.94
336.426	26579.24
336.878	18373.09
337.33	9327.56
337.782	9122.14
338.234	11480.19
338.686	13722.26
339.137	16300.7
339.589	15394.51
340.041	12084.42
340.493	10438.3
340.944	10746.88
341.396	11622.28
341.847	9855.61
342.299	11702.5
342.75	14356.93
343.201	12566.67
343.653	14513.36
344.104	17890.06
344.555	14156.14
345.006	22100.58
345.457	17029.96
345.908	13552.01
346.359	12798.24
346.81	10440.02
347.261	11007.79
347.712	10845.63
348.163	11636.12
348.613	11852.5
349.064	11129.03
349.515	9767.1
349.965	10049.02
350.416	12092.33
350.866	13293.58
351.317	15040.45
351.767	24945.52
352.217	31635.87
352.668	26320.34
353.118	24162.02
353.568	23175.72
354.018	18324.1
354.468	19340.04
354.918	13882.37
355.368	12163.86
355.818	17230.59
356.268	49618.81
356.718	208052.72
357.168	51826.07
357.617	26021.28
358.067	28949.9
358.517	27229.37
358.966	31919.2
359.416	35863.8
359.865	38878.69
360.315	46373.86
360.764	21700.24
361.213	12187.92
361.663	11539
362.112	14265.82
362.561	23079.67
363.01	17456.44
363.459	14756.82
363.908	16052.49
364.357	13689.39
364.806	23234.46
365.255	15990.82
365.703	14713.63
366.152	14735.5
366.601	11991.41
367.05	9767.21
367.498	8913.54
367.947	9325.41
368.395	9683.82
368.844	8577.99
369.292	10350.57
369.74	7159.74
370.189	10986.05
370.637	12859.86
371.085	11140.49
371.533	13581.89
371.981	13127.45
372.429	12569.03
372.877	13141.35
373.325	11046.42
373.773	11275.31
374.221	10029.44
374.669	12436.28
375.116	10795.72
375.564	10938.21
376.012	12260.25
376.459	10171.35
376.907	12150.21
377.354	14686.29
377.801	13712.19
378.249	15792.6
378.696	20236.76
379.143	24578.16
379.591	26295.68
380.038	44664.22
380.485	32319.99
380.932	34953.33
381.379	32054.62
381.826	23651.54
382.273	16834.86
382.72	14717.3
383.166	14374.13
383.613	9315.78
384.06	8417.4
384.506	9761.65
384.953	7177.57
385.4	7232.64
385.846	6337.15
386.292	6158.56
386.739	6039.67
387.185	5977.69
387.631	6005.15
388.078	5835.68
388.524	6254.11
388.97	5774.81
389.416	4822.42
389.862	5125.01
390.308	4855.69
390.754	4928.91
391.2	5340.81
391.645	5442.58
392.091	5211.18
392.537	5021.58
392.983	5000.67
393.428	4922.47
393.874	5260.73
394.319	5276.95
394.765	4998.34
395.21	5120.38
395.655	4798.83
396.101	4485.35
396.546	4049.38
396.991	4064.3
397.436	3767.12
397.881	3645.73
398.326	3437.97
398.771	3248.41
399.216	2819.8
399.661	2529.49
400.106	2511.68
400.551	2564.6
400.995	2299.17
401.44	2275.53
401.885	2136.33
402.329	2158.1
402.774	2067.88
403.218	1999.7
403.663	1922.09
404.107	1975.67
404.551	1985.4
404.995	1817.52
405.44	1745.24
405.884	1765.88
406.328	1701.12
406.772	1690.07
407.216	1535.55
407.66	1477.46
408.104	1396.31
408.547	1306.73
408.991	1262.47
409.435	1213.56
409.879	1196.8
410.322	1181.89
410.766	1139.21
411.209	1078.48
411.653	1033.49
412.096	1008.55
412.54	1005.06
412.983	997.88
413.426	998.69
413.869	993.24
414.312	972.1
414.756	932.22
415.199	886.12
415.642	860.37
416.085	862.59
416.527	855.11
416.97	869.17
417.413	826.42
417.856	817.1
418.298	808.87
418.741	806.59
419.184	805.11
419.626	838.35
420.069	839.49
420.511	844.61
420.953	827.62
421.396	820.52
421.838	799.62
422.28	819.93
422.722	825.32
423.164	835.31
423.606	820.86
424.048	817.33
424.49	779.64
424.932	775.97
425.374	765.22
425.816	777.71
426.258	793.59
426.699	802.82
427.141	794.16
427.582	806.98
428.024	803.86
428.465	796.21
428.907	775.61
429.348	762.9
429.789	761.94
430.231	747.42
430.672	757.17
431.113	738.27
431.554	724.38
431.995	699.72
432.436	673.35
432.877	656.82
433.318	646.07
433.759	641.22
434.2	640.97
434.64	629.81
435.081	628.58
435.522	592.1
435.962	567.87
436.403	555.4
436.843	560.68
437.284	545.69
437.724	525.57
438.164	522.33
438.604	510.85
439.045	492
439.485	473.77
439.925	463.12
440.365	451.08
440.805	444.16
441.245	438.07
441.685	422.84
442.125	417.75
442.564	422.11
443.004	413.06
443.444	409.28
443.883	408.45
444.323	400.12
444.762	395.64
445.202	398.15
445.641	403.76
446.081	398.03
446.52	396.99
446.959	394
447.398	382.05
447.837	376.02
448.276	368.07
448.716	369.35
449.154	372.82
449.593	364.33
450.032	363.21
450.471	354.55
450.91	354.76
451.349	354.31
451.787	349.72
452.226	354.3
452.664	353.94
453.103	354.95
453.541	353.99
453.98	354.51
454.418	357.43
454.856	354.13
455.295	353.06
455.733	355.59
456.171	358.16
456.609	358.69
457.047	359.45
457.485	366.29
457.923	367.83
458.361	362.22
458.798	362.94
459.236	361.73
459.674	361.62
460.111	364.79
460.549	360.68
460.987	356.91
461.424	355.44
461.862	353.02
462.299	347.13
462.736	347.12
463.173	348.57
463.611	347.88
464.048	347.73
464.485	350.82
464.922	346.16
465.359	343.74
465.796	347.49
466.233	347.02
466.67	345.25
467.106	344.57
467.543	339.36
467.98	334.93
468.416	322.9
468.853	319.3
469.29	309.68
469.726	306.74
470.162	299.99
470.599	290.2
471.035	285.41
471.471	278.84
471.907	276.32
472.344	275.39
472.78	276.76
473.216	280.58
473.652	277.63
474.088	276.39
474.523	276.84
474.959	279.56
475.395	278.44
475.831	279.1
476.266	280.47
476.702	279.89
477.138	277.13
477.573	275.42
478.008	274.78
478.444	277.68
478.879	282.95
479.314	284.67
479.75	285.2
480.185	286.71
480.62	289.08
481.055	291.17
481.49	294.17
481.925	299.48
482.36	307.84
482.795	317.25
483.229	324.66
483.664	329.77
484.099	330.69
484.534	335.53
484.968	339.27
485.403	339.84
485.837	338.66
486.271	337.5
486.706	337.86
487.14	331.62
487.574	325.65
488.009	322.19
488.443	319.13
488.877	322.1
489.311	321.72
489.745	324.82
490.179	327.77
490.613	334.31
491.046	335.69
491.48	337.3
491.914	336.87
492.348	337.92
492.781	339.29
493.215	338.87
493.648	337.47
494.082	339.25
494.515	338.04
494.948	340.54
495.382	339.56
495.815	339.96
496.248	339.6
496.681	343.43
497.114	346.11
497.547	348.26
497.98	351.98
498.413	353.23
498.846	354.27
499.279	354.36
499.711	352.28
500.144	350.17
500.577	352.05
501.009	353.11
501.442	354.08
501.874	351.6
502.306	347.88
502.739	349.8
503.171	351.13
503.603	348.69
504.036	347.77
504.468	345.09
504.9	345.04
505.332	341.96
505.764	339.13
506.196	336.77
506.627	336.92
507.059	337.38
507.491	331.52
507.923	325.85
508.354	326.95
508.786	325.58
509.217	327.02
509.649	327.27
510.08	327.7
510.512	328.86
510.943	328.54
511.374	327.17
511.805	327.67
512.237	328.09
512.668	331.21
513.099	331.77
513.53	333.3
513.961	332.71
514.391	334.95
514.822	340.72
515.253	344.35
515.684	344.49
516.114	346.27
516.545	346.26
516.975	347.89
517.406	347.04
517.836	342.7
518.267	340.05
518.697	340.65
519.127	336.74
519.558	332.15
519.988	327.29
520.418	325.55
520.848	323.95
521.278	321.77
521.708	357.3
522.138	357.54
522.567	360.02
522.997	361.63
523.427	359.85
523.857	360.43
524.286	359.43
524.716	360.29
525.145	361.97
525.575	363.24
526.004	363.21
526.433	324.27
526.863	320.94
527.292	318.47
527.721	318.8
528.15	319.11
528.579	318.08
529.008	319.1
529.437	320.99
529.866	321.43
530.295	322.26
530.724	324.28
531.152	328.31
531.581	331.23
532.01	333.25
532.438	332.87
532.867	334.13
533.295	337
533.723	337.71
534.152	337.93
534.58	337.96
535.008	334.79
535.436	336.03
535.865	336.7
536.293	337.84
536.721	339.86
537.149	344.71
537.576	346.28
538.004	348.61
538.432	348.91
538.86	348.96
539.287	349.88
539.715	352.85
540.143	351.81
540.57	351.65
540.998	351.13
541.425	349.44
541.852	345.95
542.28	345.58
542.707	342.23
543.134	341.07
543.561	340.21
543.988	340.03
544.415	340.55
544.842	339.69
545.269	339.01
545.696	341.5
546.123	344.23
546.549	342.85
546.976	341.77
547.403	343.12
547.829	343.46
548.256	344.62
548.682	344.32
549.108	343.94
549.535	345.22
549.961	345.9
550.387	343.39
550.813	343.54
551.24	345.34
551.666	345.49
552.092	343.89
552.518	343.44
552.943	343.69
553.369	345.61
553.795	347.45
554.221	348.54
554.646	348.63
555.072	353.07
555.498	353.08
555.923	355.64
556.349	360.14
556.774	363.26
557.199	364.31
557.625	365.52
558.05	366.45
558.475	369.45
558.9	370.67
559.325	372.18
559.75	372.49
560.175	373.13
560.6	373.59
561.025	374.26
561.449	376.05
561.874	379.07
562.299	382.72
562.723	385.11
563.148	385.02
563.572	387.64
563.997	390.76
564.421	391.97
564.846	393.56
565.27	396.4
565.694	397.69
566.118	402.42
566.542	407.74
566.966	408.37
567.39	410.04
567.814	410.34
568.238	413.29
568.662	415.5
569.086	419.45
569.509	422.74
569.933	423.24
570.357	425.03
570.78	422.91
571.204	423.25
571.627	423.03
572.05	425.02
572.474	427.91
572.897	427.04
573.32	429.6
573.743	428.69
574.166	429.32
574.589	431.02
575.012	430.87
575.435	432.27
575.858	431.87
576.281	431.32
576.704	430.03
577.126	428.34
577.549	428.08
577.972	426.66
578.394	426.71
578.817	428.37
579.239	424.39
579.661	423.73
580.084	423.4
580.506	421.61
580.928	423.05
581.35	421.99
581.772	423.11
582.194	421.2
582.616	419.51
583.038	416.51
583.46	412.99
583.882	414.71
584.303	416.43
584.725	415.05
585.147	421.66
585.568	425.58
585.99	430.56
586.411	433.66
586.833	438.89
587.254	440.47
587.675	446.05
588.096	450.52
588.518	450.08
588.939	446.64
589.36	448.35
589.781	440.44
590.202	436.36
590.623	433.65
591.043	432.47
591.464	429.67
591.885	429.72
592.305	428.56
592.726	425.64
593.147	426.81
593.567	425.6
593.987	423.03
594.408	421.98
594.828	418.02
595.248	418.73
595.669	415.5
596.089	414.06
596.509	411.33
596.929	407.58
597.349	408.32
597.769	404.96
598.189	403.86
598.608	404.89
599.028	406.03
599.448	406.41
599.867	402.05
600.287	400.27
600.706	399.91
601.126	399.27
601.545	400.71
601.965	400.52
602.384	400.06
602.803	401.14
603.222	400.23
603.641	398.68
604.061	400.04
604.48	399.09
604.898	402.5
605.317	404.29
605.736	405.35
606.155	405.76
606.574	403.87
606.992	406.57
607.411	406.99
607.829	405.38
608.248	405.87
608.666	405.45
609.085	407.63
609.503	406.93
609.921	406.98
610.339	409.15
610.758	409.04
611.176	409.51
611.594	408.38
612.012	407.93
612.43	411.26
612.847	414.13
613.265	416.35
613.683	419.07
614.101	420.9
614.518	420.61
614.936	418.92
615.353	417.63
615.771	418.37
616.188	420.02
616.606	420.96
617.023	420.82
617.44	418.68
617.857	417.56
618.274	416.11
618.691	416.28
619.108	414.07
619.525	413.39
619.942	416.17
620.359	418.76
620.776	418.1
621.192	418.76
621.609	419.13
622.026	422.23
622.442	425.52
622.859	426.88
623.275	423.98
623.691	427.45
624.108	431.62
624.524	437.2
624.94	437.04
625.356	440.43
625.772	444.99
626.188	448.53
626.604	449.73
627.02	448.9
627.436	448.68
627.852	453.45
628.268	458.26
628.683	455.59
629.099	452.7
629.514	451.54
629.93	453.85
630.345	455.12
630.761	454.33
631.176	456.24
631.591	456.19
632.007	455.56
632.422	454.68
632.837	450.96
633.252	453.12
633.667	451.19
634.082	449.67
634.497	447.72
634.911	445.65
635.326	446.24
635.741	442.81
636.155	441.06
636.57	446.48
636.984	449.47
637.399	455.29
637.813	457.45
638.228	461.38
638.642	467.18
639.056	467.32
639.47	470.27
639.884	473.23
640.298	475.15
640.712	480.99
641.126	479.99
641.54	481.95
641.954	483.26
642.368	484.85
642.781	489.72
643.195	488.18
643.609	494.51
644.022	497.11
644.436	498.99
644.849	499.25
645.262	498.02
645.676	503.34
646.089	506.72
646.502	506.06
646.915	507.09
647.328	502.23
647.741	505.47
648.154	503.61
648.567	508.07
648.98	507.17
649.393	510.54
649.805	512.28
650.218	511.8
650.631	506.36
651.043	505.06
651.456	504.78
651.868	505.91
652.28	516.51
652.693	524.72
653.105	529.06
653.517	534.68
653.929	536.76
654.341	541.52
654.753	537.74
655.165	543.83
655.577	545.31
655.989	547.53
656.401	546.23
656.813	530.38
657.224	522.71
657.636	509.54
658.047	505.56
658.459	499.35
658.87	497.06
659.282	494.49
659.693	487.14
660.104	483.36
660.515	478.08
660.926	480.4
661.338	482.57
661.749	482.3
662.159	481.6
662.57	479.8
662.981	480.62
663.392	479.6
663.803	484.16
664.213	484.83
664.624	485.2
665.035	490.22
665.445	485.31
665.855	483.41
666.266	481.87
666.676	482.05
667.086	479.37
667.497	480.87
667.907	479.15
668.317	474.13
668.727	475.11
669.137	474.99
669.547	473.13
669.956	474.12
670.366	475.64
670.776	475.86
671.186	477.32
671.595	479.26
672.005	479.86
672.414	478.95
672.824	478.75
673.233	478.47
673.642	479.25
674.052	480.72
674.461	481.59
674.87	482.47
675.279	480.98
675.688	480.12
676.097	479.55
676.506	476.1
676.915	482.33
677.323	481.64
677.732	477.6
678.141	475.6
678.549	465.9
678.958	462.09
679.366	459.2
679.775	458.31
680.183	463.41
680.592	463.79
681	464.06
681.408	457.88
681.816	459.12
682.224	460.45
682.632	463.12
683.04	476.51
683.448	485.33
683.856	496.53
684.264	509.17
684.671	517.41
685.079	529.91
685.487	544.27
685.894	566.16
686.302	580.05
686.709	590.35
687.116	600.08
687.524	606.18
687.931	608.75
688.338	608.21
688.745	603.63
689.152	600.4
689.559	601.13
689.966	600.66
690.373	591.25
690.78	589.02
691.187	593.43
691.593	592.64
692	586.41
692.407	589.45
692.813	597.84
693.22	599.28
693.626	601
694.032	599.11
694.439	605.38
694.845	604.79
695.251	609.16
695.657	612.73
696.063	622.71
696.469	628.23
696.875	630.31
697.281	623.47
697.687	622.19
698.093	619.43
698.498	626.73
698.904	625.93
699.31	634.44
699.715	639.74
700.12	648.48
700.526	643.22
700.931	648.38
701.337	651.58
701.742	650.9
702.147	660.02
702.552	659.32
702.957	661.5
703.362	659.44
703.767	658.47
704.172	657.42
704.577	641.6
704.981	643.09
705.386	641.13
705.791	633.6
706.195	640.46
706.6	636.4
707.004	644.11
707.408	632.7
707.813	634.43
708.217	627.7
708.621	623.26
709.025	635.92
709.43	633.98
709.834	639.22
710.237	646.34
710.641	640.25
711.045	641.03
711.449	638.68
711.853	644.07
712.256	645.43
712.66	647.88
713.064	657.44
713.467	660.82
713.87	674.44
714.274	678.08
714.677	692.13
715.08	712.72
715.484	733.67
715.887	762.41
716.29	784.09
716.693	812.57
717.096	844.91
717.499	857.97
717.901	857
718.304	858.21
718.707	858.32
719.109	840.56
719.512	834.89
719.915	817.79
720.317	805.37
720.719	810.53
721.122	804.28
721.524	794.79
721.926	794.34
722.328	808.16
722.731	802.66
723.133	805.16
723.535	831.14
723.937	829.97
724.338	833.13
724.74	836.65
725.142	889.78
725.544	891.52
725.945	910.75
726.347	902.03
726.748	899.69
727.15	902.13
727.551	899.41
727.952	892.33
728.354	886.23
728.755	884.34
729.156	876.57
729.557	812.38
729.958	789.31
730.359	766.16
730.76	764.65
731.161	756.1
731.562	750.1
731.962	746.88
732.363	739.31
732.763	732.3
733.164	733.46
733.564	724.23
733.965	711.04
734.365	706.73
734.766	709.93
735.166	703.37
735.566	697.01
735.966	694.82
736.366	693.63
736.766	683.69
737.166	686.92
737.566	682.68
737.966	677.79
738.365	683.59
738.765	684.48
739.165	673.37
739.564	669.9
739.964	674.1
740.363	667.24
740.763	666.55
741.162	666.24
741.561	662.18
741.96	655.95
742.36	659.37
742.759	660.06
743.158	663.88
743.557	665.7
743.955	672.16
744.354	666.22
744.753	672.21
745.152	667.94
745.55	674.75
745.949	672.96
746.348	673.62
746.746	675.22
747.144	673.58
747.543	669.45
747.941	677.08
748.339	665.83
748.737	665.33
749.136	666.07
749.534	673.84
749.932	672.71
750.33	676.71
750.727	683.97
751.125	682.6
751.523	676.91
751.921	688.2
752.318	684.74
752.716	695.78
753.113	697.99
753.511	701.9
753.908	703.04
754.305	705.16
754.703	714.67
755.1	725.34
755.497	732.92
755.894	758.35
756.291	778.84
756.688	821.75
757.085	876.31
757.482	957.46
757.878	1046.44
758.275	1120.65
758.672	1215.92
759.068	1298.6
759.465	1416.54
759.861	1569.12
760.258	1750.93
760.654	1838.36
761.05	1822.58
761.447	1741.15
761.843	1623.95
762.239	1502.73
762.635	1452.02
763.031	1402.12
763.427	1329.5
763.822	1254.51
764.218	1180.73
764.614	1083.05
765.01	1016.8
765.405	974.59
765.801	946.27
766.196	906.61
766.592	885.37
766.987	847.35
767.382	823.48
767.778	814.84
768.173	798.79
768.568	792.36
768.963	775.75
769.358	782.42
769.753	779.06
770.148	768.6
770.542	767.64
770.937	763.35
771.332	779.41
771.726	781.44
772.121	777
772.515	785.5
772.91	783.86
773.304	797.31
773.699	787.16
774.093	793.92
774.487	803.21
774.881	810.61
775.275	811.51
775.669	803.36
776.063	811.04
776.457	814.85
776.851	806.55
777.245	805.96
777.638	808.79
778.032	825.34
778.425	822.45
778.819	832.59
779.212	830.99
779.606	828.53
779.999	830.38
780.392	830.13
780.786	838.74
781.179	840.72
781.572	847.45
781.965	849.88
782.358	842.39
782.751	848.51
783.143	835.6
783.536	843.56
783.929	844.69
784.322	863.51
784.714	865.6
785.107	867.24
785.499	877.44
785.891	874.08
786.284	869.68
786.676	889.58
787.068	890.6
787.46	898.66
787.852	898.45
788.245	911.15
788.636	912.59
789.028	923.1
789.42	928.57
789.812	929.74
790.204	941.54
790.595	958.96
790.987	928.85
791.378	928.89
791.77	944.89
792.161	963.66
792.553	972.91
792.944	957.32
793.335	945.87
793.726	957.38
794.117	973.04
794.508	991.66
794.899	984.05
795.29	1005.67
795.681	1011.31
796.072	993.02
796.463	993.44
796.853	997.32
797.244	1020.83
797.634	1025.48
798.025	1024.46
798.415	1021.17
798.806	1037.83
799.196	1050.81
799.586	1060.75
799.976	1058.21
800.366	1088.98
800.756	1091.77
801.146	1085.65
801.536	1088.55
801.926	1097.28
802.316	1100.51
802.706	1112.41
803.095	1092.94
803.485	1106.03
803.874	1107.2
804.264	1142.04
804.653	1141.24
805.043	1168.45
805.432	1182.93
805.821	1187.68
806.21	1194.53
806.599	1208.19
806.988	1216
807.377	1226.17
807.766	1244.46
808.155	1282.75
808.544	1242.48
808.933	1241.84
809.321	1237.84
809.71	1273
810.098	1289.32
810.487	1344.26
810.875	1409.14
811.264	1406.1
811.652	1460.73
812.04	1477.35
812.428	1500
812.816	1600.08
813.204	1652.08
813.592	1714.12
813.98	1755.02
814.368	1744.47
814.756	1809.12
815.144	1798.53
815.531	1862.21
815.919	1831.45
816.306	1868.66
816.694	1823
817.081	1836.37
817.469	1889.22
817.856	1889.64
818.243	1926.58
818.63	1974.63
819.017	1921.98
819.404	1931.74
819.791	1977.34
820.178	2056.56
820.565	2094.17
820.952	2230.53
821.339	2159
821.725	2180.46
822.112	2085.69
822.498	2085.35
822.885	2101.05
823.271	2085.19
823.657	2135.91
824.044	2141.51
824.43	2151.82
824.816	2158.42
825.202	2093.78
825.588	2228.32
825.974	2227.51
826.36	2293.86
826.746	2289.38
827.132	2330.03
827.517	2331.11
827.903	2225.79
828.289	2232.08
828.674	2123.61
829.06	2095.24
829.445	2141.04
829.83	2186.24
830.216	2247.06
830.601	2298.09
830.986	2257.38
831.371	2240.78
831.756	2312.3
832.141	2263.11
832.526	2258.09
832.911	2299.41
833.295	2284.83
833.68	2346.3
834.065	2265.31
834.449	2141.91
834.834	2131.24
835.218	2121.83
835.603	2169.52
835.987	2134.95
836.371	2237.01
836.755	2223.95
837.139	2275.31
837.524	2297.77
837.908	2272.07
838.291	2281.26
838.675	2285.56
839.059	2310.9
839.443	2307.11
839.827	2268.44
840.21	2326.82
840.594	2309.92
840.977	2338.24
841.361	2336.79
841.744	2390.52
842.127	2369.53
842.511	2396.95
842.894	2471.9
843.277	2515.54
843.66	2581.4
844.043	2595.24
844.426	2498.11
844.809	2447.31
845.191	2446.91
845.574	2380.08
845.957	2331.86
846.339	2317.58
846.722	2245.66
847.104	2254.25
847.487	2225.51
847.869	2231.11
848.252	2267.54
848.634	2303.8
849.016	2337.1
849.398	2352.51
849.78	2462.98
850.162	2466.36
850.544	2521.44
850.926	2599.22
851.307	2583.58
851.689	2623.55
852.071	2671.16
852.452	2708.43
852.834	2702.24
853.215	2757.7
853.597	2769.42
853.978	2810.96
854.359	2860.88
854.741	2729.66
855.122	2720.18
855.503	2687.15
855.884	2706.18
856.265	2700.65
856.646	2708.57
857.026	2663.08
857.407	2654.22
857.788	2671.79
858.169	2702.33
858.549	2602.91
858.93	2686.36
859.31	2696.53
859.69	2726.53
860.071	2671.7
860.451	2648.29
860.831	2557.05
861.211	2700.32
861.591	2761.68
861.971	2756.93
862.351	2779.98
862.731	2820.17
863.111	2846.81
863.491	2888.04
863.87	2997.73
864.25	3033.17
864.629	2984.28
865.009	3047.74
865.388	3157.82
865.768	3383.93
866.147	3378.1
866.526	3192.23
866.905	3229.62
867.284	3405.7
867.663	3223.49
868.042	3080.62
868.421	3073.56
868.8	3115.77
869.179	3153.51
869.558	2970.16
869.936	2745.49
870.315	2787.04
870.693	2859.68
871.072	3081.55
871.45	2933.39
871.828	2977.91
872.207	3138.79
872.585	3097.15
872.963	3183.24
873.341	3080.12
873.719	3052.36
874.097	3005.4
874.475	3058.87
874.853	3120.72
875.23	2993.75
875.608	3126.45
875.986	3380.09
876.363	3235.92
876.741	3341.81
877.118	3263.04
877.495	3423.72
877.873	3474.66
878.25	3660.61
878.627	3521.36
879.004	3569.01
879.381	3548.18
879.758	3463.76
880.135	3224.06
880.512	3399.73
880.889	3297.9
881.265	3257.32
881.642	3217.99
882.019	3260.43
882.395	3201.6
882.772	3331.64
883.148	3189.88
883.524	3178.08
883.901	3148.8
884.277	3187.14
884.653	3165.51
885.029	3264.99
885.405	3627.47
885.781	3600.39
886.157	3453.33
886.532	3481.49
886.908	3471.98
887.284	3852.91
887.659	3978.12
888.035	4099.67
888.411	4208.93
888.786	4262.93
889.161	4404.52
889.537	4306.94
889.912	4441.55
890.287	4445.54
890.662	4559.64
891.037	4467.47
891.412	4165.9
891.787	4118.78
892.162	3980.57
892.536	4073.52
892.911	3927.3
893.286	3838.86
893.66	3685.6
894.035	3783.13
894.409	4107.43
894.784	3952.48
895.158	4023.66
895.532	4268.12
895.906	4389.92
896.281	4485.2
896.655	4419.49
897.029	5035.18
897.402	5232.89
897.776	5814.22
898.15	5792.03
898.524	5732.37
898.898	5794
899.271	6503.11
899.645	5633.17
900.018	5402.22
900.392	5603.83
900.765	5633.47
901.138	5233.11
901.511	5156.2
901.884	4749.92
902.258	4379.39
902.631	4537.38
903.003	5223.47
903.376	4695.73
903.749	5265.77
904.122	5631.2
904.495	6193.51
904.867	6266.68
905.24	5433.72
905.612	5061.88
905.985	5153.62
906.357	5378.01
906.729	5125.83
907.102	4381.81
907.474	4227.7
907.846	4251.69
908.218	4198.71
908.59	3720.91
908.962	3602.3
909.334	3880.74
909.705	4082
910.077	3963.64
910.449	4124.27
910.82	4240.87
911.192	4658.97
911.563	4835.09
911.935	5153.27
912.306	5144.36
912.677	5293.35
913.048	5253.61
913.419	5693.53
913.79	5711.75
914.161	6119.89
914.532	5870.61
914.903	5388.53
915.274	5119.76
915.645	5034.92
916.015	4428.81
916.386	4230.62
916.756	4517.22
917.127	4649.65
917.497	4156.67
917.868	4538.39
918.238	4324.27
918.608	4426.91
918.978	4517.75
919.348	4773.97
919.718	4949.23
920.088	4782.45
920.458	4980.33
920.828	5211.64
921.198	4941.77
921.567	5258.85
921.937	4068.5
922.306	4079.67
922.676	4390.85
923.045	3681.99
923.415	3516.18
923.784	3198.89
924.153	3301.69
924.522	3306.64
924.891	3109.43
925.26	3319.49
925.629	3242.52
925.998	3722.35
926.367	3657.56
926.736	3525.77
927.104	4179.84
927.473	4465.88
927.842	5366.76
928.21	5279.49
928.578	5512.59
928.947	5229.48
929.315	5278.81
929.683	6186.5
930.051	6219.6
930.42	7202.68
930.788	6114.09
931.156	6048.76
931.523	5697.93
931.891	5271.43
932.259	5065.38
932.627	5887.84
932.994	8304.2
933.362	6893.6
933.729	5989.7
934.097	5733.85
934.464	4865.28
934.831	5583.05
935.199	5503.97
935.566	5324.89
935.933	5365.04
936.3	6531.36
936.667	5075.15
937.034	4695.08
937.401	4609.42
937.767	3988.82
938.134	3562.43
938.501	4995.48
938.867	5348.09
939.234	9006.68
939.6	7658.77
939.967	8553.83
940.333	5705.01
940.699	4834.51
941.065	3754.02
941.431	4962.19
941.798	4831.08
942.163	6346.52
942.529	3985.27
942.895	3664.25
943.261	2390.94
943.627	3139.8
943.992	2752.83
944.358	2783.32
944.723	2827.51
945.089	2760.05
945.454	2557.1
945.82	2705.83
946.185	2588.04
946.55	2997.89
946.915	2676.19
947.28	3140.09
947.645	2772.71
948.01	2560.14
948.375	2681.61
948.74	3180.03
949.104	3696.25
949.469	5222.06
949.834	9225.48
950.198	8901.03
950.562	5365.75
950.927	4521.37
951.291	5455.95
951.655	4637.32
952.02	4297.36
952.384	3231.42
952.748	2849.13
953.112	2829.5
953.476	2486.2
953.839	2290.37
954.203	2264.93
954.567	2816.81
954.931	4341.08
955.294	3713.03
955.658	3730.11
956.021	6413.34
956.385	10755.74
956.748	15754.64
957.111	23971.09
957.474	26731.02
957.837	29979.63
958.2	22435.22
958.563	8080.43
958.926	5533.26
959.289	8357.05
959.652	9353.38
960.015	7024.15
960.377	10063.31
960.74	11525.64
961.102	19876.73
961.465	21691.3
961.827	12174.51
962.189	23453.47
962.552	16329.69
962.914	13058.95
963.276	8450.86
963.638	6968.87
964	6825.45
964.362	4652.09
964.724	4475.06
965.085	3206.97
965.447	2606.57
965.809	2851.74
966.17	2811.58
966.532	3003.97
966.893	2754.71
967.255	2507.77
967.616	2953.53
967.977	2376.96
968.338	2597.22
968.699	2135.5
969.061	2129.81
969.421	2154.43
969.782	2413.53
970.143	2076.08
970.504	2207.71
970.865	2540.11
971.225	2633.9
971.586	2557.78
971.946	3617.93
972.307	3126.37
972.667	4072.52
973.027	4209.37
973.388	5060.11
973.748	3459.56
974.108	3763.17
974.468	4946.9
974.828	3847.97
975.188	2924.35
975.548	2708.04
975.907	2296.35
976.267	2564.7
976.627	2193.76
976.986	2259.55
977.346	2139.28
977.705	2053.66
978.064	1846.09
978.424	1550.21
978.783	1555.56
979.142	1768.06
979.501	1703.14
979.86	1795.41
980.219	1714.5
980.578	2172.31
980.937	2406.48
981.296	2160.87
981.654	2214.05
982.013	3417.58
982.371	4442.03
982.73	4186.88
983.088	4767.28
983.447	5100.57
983.805	7323.32
984.163	15419.86
984.521	17102.5
984.879	25434.13
985.237	-41835.1
985.595	40703.21
985.953	10102.07
986.311	5775.94
986.669	3365.86
987.026	2873.88
987.384	3807.4
987.741	3863.98
988.099	2839.21
988.456	2262.86
988.814	2133.19
989.171	1834.86
989.528	1784.56
989.885	1883.48
990.242	1518.92
990.599	1868.6
990.956	1530.32
991.313	1081.17
991.67	902.93
992.027	1012.92
992.383	912.95
992.74	800.56
993.096	850.09
993.453	874.9
993.809	913.29
994.165	1216.29
994.522	1187.58
994.878	1311.81
995.234	1637.16
995.59	1598.05
995.946	1409.91
996.302	1610.86
996.658	1827.18
997.013	1990.15
997.369	2405.26
997.725	3096.35
998.08	1988.42
998.436	2782.65
998.791	3883.65
999.147	3926.57
999.502	4347.21
999.857	3089.98
1000.212	5021.28
1000.567	7268.78
1000.922	4198.44
1001.277	2661.15
1001.632	2008.75
1001.987	2558.22
1002.342	1898.79
1002.696	1512.21
1003.051	1216.54
1003.406	1466.91
1003.76	1452.79
1004.114	1417.18
1004.469	1209.74
1004.823	1020.39
1005.177	1087.09
1005.531	846.01
1005.885	781.11
1006.239	900.89
1006.593	1161.3
1006.947	1552.03
1007.301	1161.34
1007.655	1269.22
1008.008	951.83
1008.362	1068.78
1008.715	1494.31
1009.069	1353.43
1009.422	2150.68
1009.776	4159.37
1010.129	2675.85
1010.482	2135.95
1010.835	1770.85
1011.188	3679.29
1011.541	3511.47
1011.894	-20721.16
1012.247	60302.6
1012.6	4022.99
1012.952	2573.96
1013.305	1223.82
1013.657	920.36
1014.01	880.23
1014.362	726.41
1014.715	712.25
1015.067	641.82
1015.419	634.24
1015.771	583.04
1016.123	535.51
1016.475	569.67
1016.827	603.6
1017.179	656.82
1017.531	634.33
1017.883	631.22
1018.234	674.16
1018.586	829.48
1018.938	917.87
1019.289	1257.89
1019.64	1384.26
1019.992	1219.24
1020.343	1088.69
1020.694	900.71
1021.045	815.63
1021.396	943.58
1021.747	1057.05
1022.098	1157.83
1022.449	824.92
1022.8	737.58
1023.151	537.1
1023.501	502.89
1023.852	541.1
1024.202	592.58
1024.553	643.46
1024.903	665.81
1025.253	606.94
1025.604	548.53
1025.954	673.41
1026.304	771.72
1026.654	880.17
1027.004	1241.98
1027.354	1856.86
1027.703	1944.81
1028.053	2385.54
1028.403	3540.44
1028.753	4570.8
1029.102	5355.21
1029.452	24598.35
1029.801	1020.81
1030.15	681.91
1030.499	531.76
897.758	2766.42
901.051	2722.85
904.343	2762.4
907.636	2759.86
910.928	2824.51
914.22	2732.45
917.511	2741.85
920.803	2805.63
924.094	2828.85
927.384	2802.53
930.675	2769.19
933.965	2719.59
937.255	2725.04
940.544	2689.75
943.834	2618.92
947.123	2565.57
950.411	2661.29
953.7	2631.2
956.988	2595.76
960.276	2533.42
963.563	2621.91
966.851	2609.46
970.138	2670.81
973.424	2662.36
976.711	2612.56
979.997	2755.69
983.283	2786.58
986.568	2687.49
989.853	2708.98
993.138	2733.05
996.423	2817.92
999.708	2743.53
1002.992	2817.44
1006.275	2639.75
1009.559	2692.91
1012.842	2807.12
1016.125	2736.74
1019.408	2714.8
1022.69	2805.96
1025.972	2819.17
1029.254	2794.08
1032.536	2716.61
1035.817	2749.8
1039.098	2686.55
1042.379	2844.42
1045.659	2836.43
1048.939	2765.64
1052.219	2787.31
1055.498	2802.53
1058.778	2782.74
1062.057	2769.92
1065.335	2787.31
1068.614	2808.8
1071.892	2785.65
1075.17	2863.88
1078.447	2843.92
1081.724	2835.39
1085.001	2875.26
1088.278	2846.27
1091.554	2857.52
1094.83	2857.29
1098.106	2877.36
1101.382	2925
1104.657	2921.87
1107.932	2917.7
1111.206	2879.34
1114.481	2840.69
1117.755	2841.46
1121.029	2813.65
1124.302	2866.5
1127.575	2813.17
1130.848	2796.6
1134.121	2758.18
1137.393	2703.88
1140.665	2772.35
1143.937	2744.82
1147.208	2707.82
1150.48	2740.94
1153.75	2721.46
1157.021	2764.02
1160.291	2730.08
1163.561	2772.66
1166.831	2766.66
1170.101	2797.15
1173.37	2777.29
1176.639	2718.29
1179.907	2781.89
1183.176	2782.27
1186.444	2792.69
1189.711	2822.18
1192.979	2828.93
1196.246	2790.09
1199.513	2804.73
1202.78	2800.95
1206.046	2810.14
1209.312	2835.01
1212.578	2861.71
1215.843	2810.35
1219.108	2787.58
1222.373	2808.96
1225.638	2773.71
1228.902	2754.61
1232.166	2727.07
1235.43	2711.32
1238.693	2735.22
1241.956	2733.99
1245.219	2770.77
1248.482	2764.63
1251.744	2758.45
1255.006	2910.56
1258.268	2870.42
1261.529	2811.35
1264.79	2818.95
1268.051	2915.08
1271.312	2933.38
1274.572	2892.31
1277.832	2882.1
1281.092	2873.79
1284.351	2841.39
1287.61	2817.07
1290.869	2731.46
1294.128	2699.45
1297.386	2802.43
1300.644	2788.63
1303.902	2803.16
1307.159	2664.35
1310.416	2718.54
1313.673	2742.53
1316.93	2727.22
1320.186	2776.06
1323.442	2821.95
1326.697	2809.85
1329.953	2808.81
1333.208	2824.83
1336.463	2810.64
1339.717	2745.71
1342.972	2886.2
1346.226	2867.78
1349.479	2798.79
1352.733	2766.54
1355.986	2798.09
1359.238	2776.81
1362.491	2779.8
1365.743	2783.55
1368.995	2781.17
1372.247	2800.26
1375.498	2825.16
1378.749	2835.82
1382	2796.87
1385.251	2852.68
1388.501	2821.1
1391.751	2803.2
1395	2777.1
1398.25	2811.79
1401.499	2819.4
1404.748	2745.28
1407.996	2737.08
1411.244	2724.05
1414.492	2705.46
1417.74	2683.55
1420.987	2696.76
1424.234	2752.2
1427.481	2733.97
1430.728	2794.5
1433.974	2766.6
1437.22	2785.16
1440.465	2786.29
1443.711	2742.4
1446.956	2780.5
1450.201	2768.14
1453.445	2812.61
1456.689	2787.67
1459.933	2800.75
1463.177	2831.7
1466.42	2799.83
1469.663	2781.89
1472.906	2769.74
1476.148	2850.82
1479.391	2805.44
1482.633	2774.59
1485.874	2782.59
1489.115	2762.12
1492.356	2770.07
1495.597	2745.18
1498.838	2746
1502.078	2712.92
1505.318	2656.17
1508.557	2696.92
1511.797	2664.11
1515.036	2739.04
1518.274	2728.02
1521.513	2702.63
1524.751	2723.93
1527.989	2731.84
1531.227	2739.57
1534.464	2726.6
1537.701	2751.12
1540.938	2769.69
1544.174	2724.83
1547.41	2722.89
1550.646	2758.81
1553.882	2789.94
1557.117	2840.26
1560.352	2853.56
1563.587	2811.65
1566.821	2769.03
1570.055	2807.66
1573.289	2773.64
1576.523	2850.28
1579.756	2851.04
1582.989	2868.49
1586.222	2827.29
1589.454	2867.02
1592.686	2834.78
1595.918	2860.76
1599.15	2842.96
1602.381	2928.26
1605.612	2876.5
1608.843	2970.69
1612.073	2881.42
1615.303	2866.81
1618.533	2853.68
1621.762	2862.01
1624.992	2848.62
1628.221	2831.2
1631.449	2813.64
1634.678	2874.69
1637.906	2821.9
1641.134	2863.21
1644.361	2817.88
1647.588	2810.36
1650.815	2823.61
1654.042	2808.83
1657.269	2836.79
1660.495	2784.37
1663.72	2813.39
1666.946	2780.4
1670.171	2720.58
1673.396	2695.14
1676.621	2687.77
1679.845	2711.11
1683.069	2734.24
1686.293	2780.97
1689.517	2746.87
1692.74	2672.51
1695.963	2705.57
1699.185	2713.29
1702.408	2692.18
1705.63	2735.72
1708.852	2747.71
1712.073	2721.24
1715.294	2703.26
1718.515	2766.61
1721.736	2710.53
1724.956	2712.85
1728.176	2741.74
1731.396	2762.99
1734.616	2754.89
1737.835	2778.23
1741.054	2760.46
1744.272	2757.62
1747.491	2785.25
1750.709	2844.79
1753.927	2742.67
1757.144	2795.27
1760.361	2831.23
1763.578	2827.59
1766.795	2768.49
1770.011	2782.28
1773.227	2824.62
1776.443	2860.08
1779.658	2903.09
1782.874	2849.75
1786.089	2826.97
1789.303	2829.72
1792.518	2838.95
1795.732	2826.89
1798.945	2835.39
1802.159	2886.85
1805.372	2781.03
1808.585	2764.38
1811.797	2766.59
1815.01	2821.1
1818.222	2819.04
1821.434	2791.14
1824.645	2853.4
1827.856	2830.5
1831.067	2869.57
1834.278	2835.83
1837.488	2821.17
1840.698	2977.54
1843.908	2902.05
1847.117	2865.25
1850.326	2741.7
1853.535	2856.55
1856.744	2890.06
1859.952	2806.36
1863.16	2809.4
1866.368	2837.81
1869.575	2941.78
1872.782	2832.32
1875.989	2776.48
1879.196	2871.42
1882.402	2868.57
1885.608	2916.24
1888.814	2814.42
1892.019	2708.82
1895.224	2764.41
1898.429	2750.23
1901.634	2727.96
1904.838	2709.11
1908.042	2762.17
1911.246	2766.24
1914.449	2691.41
1917.652	2697.59
1920.855	2679.48
1924.058	2734.18
1927.26	2771.45
1930.462	2798.97
1933.664	2824.01
1936.865	2757.07
1940.066	2760.6
1943.267	2709.41
1946.467	2726.58
1949.668	2755.84
1952.868	2820.52
1956.067	2795.33
1959.267	2723.83
1962.466	2752.18
1965.665	2737.3
1968.863	2734.36
1972.061	2753.75
1975.259	2753.22
1978.457	2830.89
1981.654	2790.45
1984.852	2790.57
1988.048	2715.32
1991.245	2721.76
1994.441	2805.02
1997.637	2795.79
2000.833	2777.19
2004.028	2816.25
2007.223	2867.02
2010.418	2843.41
2013.613	2807.25
2016.807	2771.77
2020.001	2782.15
2023.194	2828.81
2026.388	2804.77
2029.581	2752.19
2032.774	2796.79
2035.966	2801.58
2039.158	2728.8
2042.35	2760.2
2045.542	2684.96
2048.733	2790.59
2051.924	2817.71
2055.115	2845.61
2058.306	2786.68
2061.496	2846.32
2064.686	2912.39
2067.875	2824.75
2071.065	2844.82
2074.254	2874.41
2077.442	2824.17
2080.631	2918.51
2083.819	2799.02
2087.007	2779.51
2090.195	2749.91
2093.382	2787.24
2096.569	2764.6
2099.756	2716.47
2102.942	2740.88
2106.128	2742.38
2109.314	2733.98
2112.5	2692.24
2115.685	2666.89
2118.87	2678.37
2122.055	2744.1
2125.239	2705.95
2128.424	2675.9
2131.608	2789.96
2134.791	2771.47
2137.974	2833.6
2141.157	2818.63
2144.34	2766.68
2147.523	2785.55
2150.705	2799.11
2153.887	2779.23
2157.068	2725.46
2160.25	2729.55
2163.431	2774.56
2166.611	2714.25
2169.792	2729.81
2172.972	2618.12
2176.152	2702.41
2179.331	2739.65
2182.511	2718.91
2185.69	2750.62
2188.868	2743.75
2192.047	2807.3
2195.225	2794.82
2198.403	2742.63
2201.58	2735.53
2204.758	2730.87
2207.935	2819.05
2211.111	2702.71
2214.288	2687.14
2217.464	2728.72
2220.64	2699.49
2223.815	2756.58
2226.991	2673.39
2230.166	2692.82
2233.34	2719.38
2236.515	2746.51
2239.689	2825.54
2242.863	2767.86
2246.036	2824.27
2249.209	2827.43
2252.382	2862.6
2255.555	2850.78
2258.727	2784.59
2261.9	2824.23
2265.071	2816.94
2268.243	2823.29
2271.414	2751.74
2274.585	2705.61
2277.756	2774.84
2280.926	2730.47
2284.096	2771.21
2287.266	2676.66
2290.436	2732.63
2293.605	2766
2296.774	2797.75
2299.942	2823.07
2303.111	2839.22
2306.279	2888.96
2309.447	2875.41
2312.614	2852.92
2315.781	2870.83
2318.948	2841.06
2322.115	2881.11
2325.281	2781.56
2328.447	2801.12
2331.613	2776.31
2334.779	2746.05
2337.944	2751.88
2341.109	2749.85
2344.274	2732.52
2347.438	2697.06
2350.602	2722.67
2353.766	2740.08
2356.929	2724.22
2360.092	2767.61
2363.255	2717.91
2366.418	2643.6
2369.58	2768.36
2372.742	2532.9
2375.904	2551.29
2379.066	2526.31
2382.227	2564.92
2385.388	2526.75
2388.548	2447.92
2391.709	2508.35
2394.869	2486.13
2398.029	2592.94
2401.188	2612.03
2404.347	2538.4
2407.506	2696.8
2410.665	2723.65
2413.823	2733.74
2416.981	2684.22
2420.139	2719.44
2423.296	2772.67
2426.453	2745.3
2429.61	2769.58
2432.767	2697.46
2435.923	2733.02
2439.079	2690.58
2442.235	2743.76
2445.391	2667.25
2448.546	2693.71
2451.701	2748.52
2454.855	2717.36
2458.009	2773.36
2461.163	2779.33
2464.317	2732.58
2467.471	2767.34
2470.624	2810.71
2473.777	2786.33
2476.929	2797.93
2480.082	2827.2
2483.234	2788.75
2486.385	2740.66
2489.537	2733.47
2492.688	2691.1
2495.839	2706.06
2498.989	2719.56
2502.14	2703.32
2505.29	2682.54
2508.439	2708.85
2511.589	2627.01
2514.738	2640.62
2517.887	2676.15
2521.035	2737.92
2524.183	2725.73
2527.331	2703.16
2530.479	2673.06
2533.627	2685.78
