Data from C_3_DIV_OH_2N_Splice17_12-48-03-727.txt Node
Date: Sat Mar 14 12:48:03 EDT 2020
User: sa697716
Spectrometer: FLMS03696
Trigger mode: 0
Integration Time (sec): 3.180400E-1
Scans to average: 20
Electric dark correction enabled: true
Nonlinearity correction enabled: true
Boxcar width: 5
XAxis mode: Wavelengths
Number of Pixels in Spectrum: 2048
>>>>>Begin Spectral Data<<<<<
187.83	-371266.78
188.298	2926.36
188.766	1665.03
189.233	1491.27
189.701	2032.15
190.169	2654.76
190.636	1003.03
191.104	746.39
191.571	106.12
192.039	-86.35
192.506	-72.62
192.974	624.08
193.441	-815.84
193.908	88.83
194.375	65.98
194.842	104.1
195.31	155.36
195.777	219.77
196.244	328.13
196.711	202.22
197.177	180.86
197.644	164.93
198.111	271.34
198.578	352.07
199.045	255.04
199.511	353.16
199.978	342.14
200.445	337.8
200.911	328.39
201.378	276.6
201.844	301.1
202.31	487.85
202.777	494.74
203.243	270.73
203.709	256.05
204.176	302.31
204.642	256.78
205.108	240.17
205.574	147.97
206.04	75.65
206.506	88.28
206.972	54.96
207.438	57.64
207.903	68.33
208.369	86.3
208.835	108.08
209.301	122.21
209.766	125.72
210.232	146.85
210.697	166.95
211.163	214.25
211.628	305.18
212.094	306.74
212.559	463.1
213.024	307.33
213.49	403.51
213.955	374.64
214.42	320
214.885	284.3
215.35	273.47
215.815	393.33
216.28	470.83
216.745	385.06
217.21	464.7
217.675	403.72
218.14	475.27
218.604	529.06
219.069	641.33
219.534	750.51
219.998	889.12
220.463	1103.08
220.927	1294.99
221.392	1234.05
221.856	1312.22
222.32	1633.67
222.785	2088.91
223.249	2675.87
223.713	3050.2
224.177	3113.75
224.642	3978.83
225.106	4921.16
225.57	5450.73
226.034	4211.66
226.497	6495.94
226.961	5963.69
227.425	7074.49
227.889	7855.13
228.353	7881.66
228.816	16326.23
229.28	15866.31
229.744	13486.93
230.207	8404.44
230.671	8328.43
231.134	13592.51
231.597	15876.6
232.061	15908.01
232.524	15474.66
232.987	10738
233.45	9797.94
233.914	8844.41
234.377	9046.67
234.84	8312.61
235.303	9763.61
235.766	10914.81
236.229	11370.87
236.691	7158.76
237.154	8037.21
237.617	6105.11
238.08	6248.62
238.542	7315.08
239.005	5255.76
239.468	5236.51
239.93	4957.18
240.393	4528.78
240.855	3991.65
241.317	4090.06
241.78	4960.42
242.242	5178.22
242.704	5643.36
243.166	4958.92
243.629	4559.22
244.091	5277.53
244.553	5817.53
245.015	6291.11
245.477	8138.36
245.939	11972.95
246.4	12761.96
246.862	12448.25
247.324	11746.57
247.786	13103.7
248.247	17212.7
248.709	17661.19
249.17	13265.45
249.632	12593.01
250.093	14743.72
250.555	12807.19
251.016	7881.5
251.477	7525.81
251.939	8201.7
252.4	8662.46
252.861	10295.2
253.322	9641.7
253.783	11532.5
254.244	15006.56
254.705	11836.89
255.166	10472.68
255.627	10348.08
256.088	14680.9
256.549	15644.24
257.009	13443.45
257.47	16289.52
257.931	13341.35
258.391	9995.81
258.852	10329.84
259.312	10822.76
259.773	13390.11
260.233	11437.85
260.694	9701.32
261.154	10982.37
261.614	8874.44
262.074	7973.65
262.534	8333.66
262.994	7893.21
263.455	10554.02
263.915	8946.1
264.374	8465.26
264.834	9250.17
265.294	10233.93
265.754	10625.8
266.214	10087.91
266.673	9463.43
267.133	11973.58
267.593	11881.49
268.052	14606.07
268.512	12746.79
268.971	15459.98
269.431	16978.24
269.89	15283.35
270.349	22992.12
270.809	25711.81
271.268	23181.2
271.727	52007.31
272.186	33723.81
272.645	25355.92
273.104	18261.5
273.563	26438.82
274.022	20746.65
274.481	17779.34
274.94	13759.72
275.399	10248.54
275.857	11968.33
276.316	16236.3
276.775	14523.66
277.233	14378.08
277.692	13547.24
278.15	15402.19
278.609	15972.38
279.067	14824.92
279.525	13799.46
279.984	17815.81
280.442	21460.16
280.9	21258.39
281.358	14026.61
281.816	13088.93
282.274	12816.67
282.732	13178.13
283.19	13239.89
283.648	11408.65
284.106	12156.55
284.564	12333.09
285.021	11460.78
285.479	8552.06
285.937	7751.33
286.394	6813.91
286.852	7014.98
287.309	7400.78
287.767	7229.8
288.224	6911.77
288.682	7613.83
289.139	8408.64
289.596	7754.84
290.053	8115.11
290.511	10274.89
290.968	12562.45
291.425	17141.06
291.882	14447.05
292.339	12639.39
292.796	12567.13
293.252	11894.15
293.709	9522.95
294.166	8558.78
294.623	9493
295.079	9106.87
295.536	9209.67
295.992	8378.73
296.449	8311.7
296.905	8641.53
297.362	8347.72
297.818	8812.69
298.274	9178.83
298.731	9333.67
299.187	9260.26
299.643	9951.32
300.099	12068.56
300.555	13205.07
301.011	11046.31
301.467	10691.44
301.923	12461.17
302.379	12158.97
302.835	11944.53
303.291	11947.68
303.746	13617.9
304.202	17211.93
304.658	17294.03
305.113	11629.77
305.569	11427.38
306.024	12169.38
306.479	11517.84
306.935	9754.61
307.39	10615.97
307.845	9798.94
308.301	9884.17
308.756	9602.57
309.211	9267.18
309.666	9491.94
310.121	11807.11
310.576	11964.99
311.031	11847.35
311.486	13559.81
311.94	13489.52
312.395	18002.48
312.85	33791.56
313.305	164959.19
313.759	860185.26
314.214	62131.8
314.668	49183.43
315.123	41341
315.577	14889.73
316.032	13279.18
316.486	16653.12
316.94	13162.7
317.394	9195.47
317.849	7152.54
318.303	6803.6
318.757	6423.56
319.211	7131.03
319.665	6240.67
320.119	6330.99
320.572	9055.9
321.026	8515.62
321.48	7103.93
321.934	7746.57
322.387	7765.34
322.841	8408.7
323.295	7612.64
323.748	8723.14
324.202	8836.3
324.655	10659.79
325.108	14993.67
325.562	10595.31
326.015	12517.65
326.468	9460.59
326.921	10577.25
327.374	9868.34
327.827	10289.62
328.28	11570.51
328.733	7775.8
329.186	6839.77
329.639	6507.39
330.092	5444.02
330.545	5179.38
330.997	5234.89
331.45	5747.29
331.903	6747.07
332.355	11571.52
332.808	11217.46
333.26	9245.09
333.713	10036.65
334.165	10088.78
334.617	13418.35
335.069	10809.55
335.522	19502.53
335.974	21598.53
336.426	19628.08
336.878	13550.94
337.33	6899.64
337.782	6727.81
338.234	8485.14
338.686	10143.36
339.137	12034.59
339.589	11344.29
340.041	8921.77
340.493	7706.68
340.944	7901.81
341.396	8545.63
341.847	7232.03
342.299	8578.01
342.75	10530.09
343.201	9138.73
343.653	10512.02
344.104	12975.37
344.555	10271.34
345.006	15983.5
345.457	12337
345.908	9811.95
346.359	9266.44
346.81	7555.31
347.261	7944.65
347.712	7807.71
348.163	8397.35
348.613	8583.37
349.064	8032.88
349.515	7038.61
349.965	7223.13
350.416	8673.78
350.866	9518.55
351.317	10723
351.767	17797.29
352.217	22500.4
352.668	18733.32
353.118	17211.13
353.568	16482.26
354.018	13024.78
354.468	13742.74
354.918	9895.29
355.368	8672.43
355.818	12269.37
356.268	35310.49
356.718	148045.63
357.168	36964.68
357.617	18517.55
358.067	20572.68
358.517	19369.4
358.966	22785.13
359.416	25611.95
359.865	27689.8
360.315	32888.82
360.764	15382.75
361.213	8647.45
361.663	8179.58
362.112	10087.96
362.561	16360.06
363.01	12369.39
363.459	10401.62
363.908	11228.96
364.357	9586.66
364.806	16175.24
365.255	11135.96
365.703	10219.48
366.152	10249.37
366.601	8297.98
367.05	6739
367.498	6114.07
367.947	6363.26
368.395	6585.48
368.844	5827.49
369.292	6965.61
369.74	4840.01
370.189	7377.43
370.637	8637.51
371.085	7434.28
371.533	9031.94
371.981	8692.31
372.429	8296.35
372.877	8658.38
373.325	7255.5
373.773	7401.21
374.221	6581.93
374.669	8117.48
375.116	7026.67
375.564	7079.55
376.012	7911.21
376.459	6557.02
376.907	7825.46
377.354	9463.18
377.801	8830.31
378.249	10149.28
378.696	12942.55
379.143	15700.9
379.591	16669.39
380.038	28269.48
380.485	20378.57
380.932	21930.46
381.379	20116.51
381.826	14848.99
382.273	10495.45
382.72	9091.9
383.166	8849.06
383.613	5731.33
384.06	5151.24
384.506	6002.84
384.953	4383.32
385.4	4386.11
385.846	3830.87
386.292	3690.59
386.739	3586
387.185	3538.9
387.631	3540.12
388.078	3439.89
388.524	3661.71
388.97	3366
389.416	2795.76
389.862	2967.38
390.308	2824.37
390.754	2870.85
391.2	3094.79
391.645	3142.62
392.091	3029.11
392.537	2922.84
392.983	2906.6
393.428	2878.27
393.874	3074.04
394.319	3075.25
394.765	2922.19
395.21	2969.47
395.655	2762.75
396.101	2587.59
396.546	2332.41
396.991	2309.96
397.436	2137.57
397.881	2046.67
398.326	1909.85
398.771	1810.45
399.216	1562.45
399.661	1385.93
400.106	1380.61
400.551	1411.38
400.995	1255.32
401.44	1238.92
401.885	1158.94
402.329	1170.15
402.774	1128.55
403.218	1108.61
403.663	1058.19
404.107	1091.11
404.551	1103.76
404.995	1005.72
405.44	965.32
405.884	977.48
406.328	939.96
406.772	936.32
407.216	852.2
407.66	814.89
408.104	754.57
408.547	701.9
408.991	675.62
409.435	645.03
409.879	638.1
410.322	627.18
410.766	606.34
411.209	579.22
411.653	555.35
412.096	543.01
412.54	541.19
412.983	539.37
413.426	544.47
413.869	538.3
414.312	530.53
414.756	506.53
415.199	480.89
415.642	468.96
416.085	464.86
416.527	457.71
416.97	460.1
417.413	437.48
417.856	430.07
418.298	422.32
418.741	417.85
419.184	411.18
419.626	423.48
420.069	423.1
420.511	423.86
420.953	417.09
421.396	414.41
421.838	400.67
422.28	409.1
422.722	413.89
423.164	417.39
423.606	413.72
424.048	412.05
424.49	394.63
424.932	389.31
425.374	379.45
425.816	380.89
426.258	387.91
426.699	395.27
427.141	392.44
427.582	395
428.024	391.49
428.465	385.09
428.907	375.44
429.348	367.79
429.789	371.33
430.231	368.91
430.672	377.42
431.113	366.58
431.554	358
431.995	344.19
432.436	333.23
432.877	326.32
433.318	322.84
433.759	319.61
434.2	318.98
434.64	311.44
435.081	307.56
435.522	290.82
435.962	278.79
436.403	273.87
436.843	273.21
437.284	263.16
437.724	252.73
438.164	248.94
438.604	243.56
439.045	236.87
439.485	229.75
439.925	223.53
440.365	215.08
440.805	211.84
441.245	208.87
441.685	203.63
442.125	200.93
442.564	201.4
443.004	197.01
443.444	194.97
443.883	193.75
444.323	187.44
444.762	182.69
445.202	182.4
445.641	186.7
446.081	182.71
446.52	182.41
446.959	180.71
447.398	176.7
447.837	173.46
448.276	169.26
448.716	168.7
449.154	168.75
449.593	167.36
450.032	168.14
450.471	160.45
450.91	159.62
451.349	160.64
451.787	157.5
452.226	158
452.664	157.54
453.103	156.81
453.541	156.26
453.98	160.35
454.418	159.73
454.856	158.6
455.295	158.49
455.733	160.4
456.171	158.51
456.609	159.65
457.047	160.47
457.485	164.07
457.923	167.08
458.361	163.89
458.798	162.51
459.236	162.31
459.674	161.12
460.111	162.61
460.549	161.62
460.987	161.28
461.424	160.2
461.862	159.53
462.299	156.57
462.736	156.42
463.173	156.99
463.611	158.69
464.048	159.92
464.485	161.4
464.922	159.72
465.359	157.55
465.796	166.03
466.233	166.94
466.67	167.66
467.106	168.74
467.543	165.12
467.98	161.76
468.416	154.11
468.853	151.04
469.29	145.82
469.726	144.06
470.162	139.98
470.599	129.39
471.035	125.23
471.471	121.16
471.907	117.51
472.344	115.99
472.78	118.1
473.216	118
473.652	117.38
474.088	115.82
474.523	115.85
474.959	116.56
475.395	114.69
475.831	115.73
476.266	115.56
476.702	115.46
477.138	115.08
477.573	114.41
478.008	114.87
478.444	116.3
478.879	120.33
479.314	120.99
479.75	121.38
480.185	122.12
480.62	122.43
481.055	122.65
481.49	124.27
481.925	126.32
482.36	131.3
482.795	134.58
483.229	137.07
483.664	138.75
484.099	138.94
484.534	141.33
484.968	142.54
485.403	141.65
485.837	141.2
486.271	140.18
486.706	139.18
487.14	134.67
487.574	132.39
488.009	130.82
488.443	128.83
488.877	131.3
489.311	130.87
489.745	131.86
490.179	133.88
490.613	138.23
491.046	138.56
491.48	139.01
491.914	138.59
492.348	138.79
492.781	139.26
493.215	138.9
493.648	136.62
494.082	135.9
494.515	135.59
494.948	137.07
495.382	134.2
495.815	133.91
496.248	134.27
496.681	134.87
497.114	134.77
497.547	135.19
497.98	136.66
498.413	137.35
498.846	138.56
499.279	137.77
499.711	135.46
500.144	133.83
500.577	134.74
501.009	134.1
501.442	135.57
501.874	135.16
502.306	132.67
502.739	135.39
503.171	135.02
503.603	133.82
504.036	132.73
504.468	131.66
504.9	131.68
505.332	130.15
505.764	129.17
506.196	127.13
506.627	126.78
507.059	126.41
507.491	120.66
507.923	118.5
508.354	118.38
508.786	118.15
509.217	118.28
509.649	117.9
510.08	117.36
510.512	117.76
510.943	117.58
511.374	116.24
511.805	116.75
512.237	116.87
512.668	116.58
513.099	115.6
513.53	115.8
513.961	116.23
514.391	117.21
514.822	120.75
515.253	121.81
515.684	121.14
516.114	121.76
516.545	122.02
516.975	121.8
517.406	121.53
517.836	119.48
518.267	118.69
518.697	118.37
519.127	117.1
519.558	113.01
519.988	110.44
520.418	108.92
520.848	107.42
521.278	105.28
521.708	135.79
522.138	136.17
522.567	136.43
522.997	136.22
523.427	134.59
523.857	134.33
524.286	133.79
524.716	134.31
525.145	134.97
525.575	135.71
526.004	135.25
526.433	103.3
526.863	101.34
527.292	101.81
527.721	101.97
528.15	101.63
528.579	101.27
529.008	101.32
529.437	100.69
529.866	100.32
530.295	100.31
530.724	101.9
531.152	103.12
531.581	104.51
532.01	104.49
532.438	103.42
532.867	103.44
533.295	103.55
533.723	103.29
534.152	103.13
534.58	103.15
535.008	102.09
535.436	102.5
535.865	101.96
536.293	100.83
536.721	100.41
537.149	102.05
537.576	102.96
538.004	104.04
538.432	103.67
538.86	104.47
539.287	104.05
539.715	104
540.143	101.76
540.57	101.79
540.998	102.07
541.425	103.14
541.852	101.23
542.28	100.21
542.707	98.46
543.134	98.56
543.561	98.05
543.988	97.73
544.415	97.39
544.842	96.76
545.269	97.02
545.696	97.65
546.123	97.01
546.549	96.73
546.976	96.53
547.403	96.67
547.829	95.21
548.256	94.1
548.682	94.4
549.108	95.6
549.535	95.87
549.961	94.39
550.387	92.95
550.813	94.29
551.24	95.16
551.666	94.02
552.092	93.41
552.518	93.85
552.943	94.51
553.369	94.31
553.795	94.05
554.221	94.09
554.646	94.59
555.072	96.87
555.498	94.69
555.923	94.17
556.349	96.04
556.774	96.45
557.199	96.2
557.625	96.06
558.05	96.67
558.475	97.38
558.9	98.37
559.325	99.39
559.75	99.36
560.175	99.24
560.6	99.19
561.025	98.49
561.449	98.78
561.874	99.26
562.299	100.94
562.723	100.71
563.148	99.6
563.572	98.78
563.997	99.37
564.421	97.94
564.846	98.28
565.27	99.64
565.694	100.6
566.118	101.51
566.542	104.02
566.966	103.44
567.39	104.22
567.814	105.43
568.238	106.92
568.662	106.86
569.086	108.71
569.509	109.66
569.933	110.92
570.357	111.3
570.78	110.96
571.204	112.1
571.627	112.04
572.05	112.83
572.474	113.55
572.897	113.83
573.32	115.3
573.743	114.72
574.166	115.41
574.589	114.16
575.012	114.25
575.435	114.03
575.858	112.86
576.281	112.64
576.704	111.49
577.126	111.21
577.549	110.69
577.972	108.86
578.394	109.74
578.817	112.23
579.239	111.98
579.661	112.27
580.084	114.34
580.506	113.97
580.928	113.73
581.35	113.92
581.772	113.34
582.194	112.86
582.616	112.37
583.038	110.09
583.46	106.72
583.882	107.07
584.303	105.76
584.725	103.97
585.147	110.78
585.568	112.78
585.99	114.55
586.411	116.55
586.833	118.96
587.254	120.12
587.675	121.47
588.096	123.04
588.518	122.06
588.939	122.48
589.36	123.18
589.781	114.43
590.202	116.56
590.623	115.37
591.043	114.01
591.464	113.07
591.885	114.18
592.305	114.14
592.726	113.47
593.147	114.35
593.567	113.82
593.987	112.97
594.408	113.46
594.828	108.49
595.248	109.45
595.669	109.6
596.089	108.67
596.509	107.54
596.929	107.32
597.349	108.02
597.769	107.36
598.189	107.55
598.608	107.52
599.028	108.32
599.448	108.88
599.867	107.07
600.287	105.8
600.706	106.51
601.126	106.18
601.545	107.16
601.965	106.83
602.384	106.32
602.803	105.97
603.222	106.66
603.641	105.32
604.061	106.07
604.48	106.4
604.898	107.35
605.317	107.13
605.736	107.5
606.155	108.37
606.574	107.77
606.992	108.53
607.411	109.08
607.829	107.35
608.248	107.79
608.666	107.41
609.085	108.33
609.503	108.36
609.921	109.32
610.339	109.92
610.758	108.24
611.176	108.32
611.594	108.82
612.012	108.28
612.43	111.06
612.847	112.21
613.265	114.18
613.683	114.59
614.101	115.38
614.518	114.08
614.936	113.45
615.353	114.02
615.771	115
616.188	115.76
616.606	116.69
617.023	116.12
617.44	115.57
617.857	113.58
618.274	112.54
618.691	113.27
619.108	113.09
619.525	112.64
619.942	114.29
620.359	115.2
620.776	114.69
621.192	115.76
621.609	116.15
622.026	117.83
622.442	119.9
622.859	120.59
623.275	119.29
623.691	120.76
624.108	122.87
624.524	123.24
624.94	123.56
625.356	123.77
625.772	124
626.188	124.41
626.604	124.37
627.02	123.35
627.436	124.18
627.852	126.58
628.268	127.93
628.683	126.16
629.099	125.67
629.514	123.63
629.93	124.76
630.345	125.78
630.761	124.96
631.176	125.29
631.591	127.62
632.007	127.92
632.422	126.08
632.837	124.92
633.252	127.35
633.667	126.66
634.082	126.86
634.497	126.91
634.911	127.45
635.326	127.89
635.741	127.21
636.155	124.84
636.57	126.27
636.984	127.46
637.399	131.13
637.813	130.9
638.228	132.24
638.642	133.9
639.056	133.28
639.47	133.04
639.884	133.54
640.298	134
640.712	135.94
641.126	135.52
641.54	135.31
641.954	132.45
642.368	132.88
642.781	136.39
643.195	134.89
643.609	136.7
644.022	136.63
644.436	137.05
644.849	136.39
645.262	135.3
645.676	135.17
646.089	135.8
646.502	137.76
646.915	137.75
647.328	134.29
647.741	136.34
648.154	136.19
648.567	140.52
648.98	140.89
649.393	141.73
649.805	143.3
650.218	144
650.631	143.32
651.043	142.31
651.456	141.82
651.868	141.82
652.28	143.84
652.693	144.9
653.105	144.19
653.517	145.38
653.929	147.33
654.341	147.86
654.753	147.43
655.165	148.54
655.577	148.63
655.989	149.11
656.401	147.74
656.813	145.38
657.224	144.07
657.636	139.5
658.047	139.43
658.459	136.49
658.87	135.54
659.282	133.99
659.693	133.59
660.104	132.69
660.515	131.31
660.926	133.84
661.338	133.42
661.749	132.69
662.159	133.73
662.57	133.48
662.981	135.12
663.392	135.39
663.803	137.2
664.213	136.59
664.624	136.98
665.035	139.02
665.445	136.22
665.855	137.18
666.266	138.7
666.676	138.78
667.086	137.16
667.497	137.45
667.907	137.23
668.317	135.68
668.727	140.2
669.137	139.78
669.547	139.88
669.956	140.36
670.366	141.12
670.776	141.08
671.186	142.21
671.595	143.17
672.005	142.49
672.414	143.51
672.824	144.79
673.233	140.77
673.642	141.61
674.052	143.67
674.461	146.26
674.87	146.07
675.279	147.68
675.688	146.4
676.097	148.15
676.506	148.47
676.915	150.32
677.323	149.57
677.732	149.61
678.141	148.43
678.549	144.09
678.958	140.53
679.366	138.43
679.775	135.08
680.183	138.84
680.592	137.62
681	137.53
681.408	135.02
681.816	135.08
682.224	134.68
682.632	136.83
683.04	139.46
683.448	141.72
683.856	145.53
684.264	151.41
684.671	151.47
685.079	153.98
685.487	155.58
685.894	160.1
686.302	161.39
686.709	162.9
687.116	164.13
687.524	166.19
687.931	167.99
688.338	166.55
688.745	161.45
689.152	159.29
689.559	158.82
689.966	159.86
690.373	157.39
690.78	157.99
691.187	157.61
691.593	156.93
692	153.05
692.407	151.52
692.813	155.74
693.22	156.56
693.626	153.93
694.032	152.35
694.439	152.4
694.845	150.24
695.251	148.49
695.657	148.74
696.063	147.56
696.469	147.22
696.875	147.48
697.281	142.78
697.687	139.77
698.093	138.88
698.498	140.01
698.904	137
699.31	137.91
699.715	143.09
700.12	144.66
700.526	144.88
700.931	145.16
701.337	144.94
701.742	144.58
702.147	145.82
702.552	145.37
702.957	143.7
703.362	144
703.767	142.72
704.172	138.03
704.577	132.73
704.981	130.35
705.386	130.2
705.791	127.81
706.195	126.55
706.6	125.98
707.004	124.97
707.408	123.19
707.813	124.59
708.217	123.58
708.621	122.71
709.025	125.18
709.43	126.96
709.834	128.61
710.237	129.49
710.641	128.36
711.045	128.38
711.449	129.95
711.853	134.91
712.256	133.01
712.66	134.04
713.064	135.19
713.467	136.62
713.87	138.23
714.274	138.47
714.677	141.44
715.08	146.65
715.484	150.9
715.887	159.76
716.29	159.44
716.693	167.08
717.096	173.15
717.499	177.17
717.901	175.59
718.304	173.94
718.707	172.1
719.109	168.1
719.512	163.64
719.915	162.98
720.317	156.75
720.719	156.42
721.122	152.74
721.524	150.94
721.926	155.17
722.328	157.66
722.731	157
723.133	158
723.535	164.18
723.937	165.28
724.338	166.28
724.74	171.08
725.142	246.43
725.544	252.4
725.945	270.82
726.347	263.3
726.748	263.71
727.15	264.49
727.551	268.81
727.952	264.61
728.354	262.04
728.755	259.3
729.156	252.3
729.557	176.15
729.958	166.14
730.359	146.93
730.76	147.53
731.161	144.94
731.562	142.04
731.962	136.34
732.363	134.93
732.763	134.15
733.164	131.4
733.564	130.66
733.965	128.6
734.365	127.69
734.766	127.35
735.166	124.93
735.566	124.34
735.966	125.4
736.366	125.89
736.766	123.95
737.166	124.41
737.566	124.83
737.966	124.79
738.365	126.08
738.765	128.41
739.165	126.22
739.564	125.52
739.964	124.6
740.363	121.65
740.763	119.4
741.162	121.47
741.561	119.91
741.96	119.09
742.36	117.12
742.759	117.81
743.158	115.61
743.557	116.22
743.955	116.67
744.354	114.81
744.753	115.43
745.152	117.34
745.55	116.69
745.949	116.66
746.348	116
746.746	115.73
747.144	118.56
747.543	117.35
747.941	117.52
748.339	115.4
748.737	117.61
749.136	119.17
749.534	117.64
749.932	119.34
750.33	119.97
750.727	120.4
751.125	121.68
751.523	118.06
751.921	124.97
752.318	125.43
752.716	129.95
753.113	129.59
753.511	129.77
753.908	131.77
754.305	136.62
754.703	138.06
755.1	141.4
755.497	142.86
755.894	146.01
756.291	146.59
756.688	155.39
757.085	162.54
757.482	179.27
757.878	201.18
758.275	219.19
758.672	226.48
759.068	241.38
759.465	263.74
759.861	291.86
760.258	325.98
760.654	340.92
761.05	339.98
761.447	326.7
761.843	302.19
762.239	275.1
762.635	258.41
763.031	249.37
763.427	237.31
763.822	221.53
764.218	206.43
764.614	188.44
765.01	173.75
765.405	164.01
765.801	159.74
766.196	153.36
766.592	147.83
766.987	142.01
767.382	137.56
767.778	135.66
768.173	133.08
768.568	131.7
768.963	130.01
769.358	132.46
769.753	133.88
770.148	131.41
770.542	130.32
770.937	128.4
771.332	131.25
771.726	130.51
772.121	134.41
772.515	135.55
772.91	136.6
773.304	138.14
773.699	136.77
774.093	134.79
774.487	137.31
774.881	137.74
775.275	138.78
775.669	135.92
776.063	137.56
776.457	135.31
776.851	133.35
777.245	133.17
777.638	133.45
778.032	134.82
778.425	135.86
778.819	141.03
779.212	144.63
779.606	146.99
779.999	146.47
780.392	149.95
780.786	149.71
781.179	151.14
781.572	153.83
781.965	154.25
782.358	154.14
782.751	155.06
783.143	148.71
783.536	147.15
783.929	143.61
784.322	148.75
784.714	146.16
785.107	148.07
785.499	150.98
785.891	151.97
786.284	151.89
786.676	155.32
787.068	157.76
787.46	158.23
787.852	158.64
788.245	160.96
788.636	159.88
789.028	164.3
789.42	164.86
789.812	165.14
790.204	165.49
790.595	171.04
790.987	165.6
791.378	165.49
791.77	167.46
792.161	168.32
792.553	171.88
792.944	168.44
793.335	164.03
793.726	166.38
794.117	171.67
794.508	171.84
794.899	165.98
795.29	169.19
795.681	169
796.072	165.5
796.463	193.53
796.853	199.63
797.244	208.72
797.634	211.45
798.025	210.15
798.415	204.09
798.806	211.13
799.196	219.36
799.586	224.83
799.976	226.75
800.366	235.8
800.756	207.86
801.146	199.14
801.536	197.82
801.926	197.13
802.316	200.76
802.706	203.73
803.095	199.47
803.485	198.61
803.874	197.34
804.264	199.78
804.653	197.76
805.043	208.56
805.432	215.59
805.821	218.11
806.21	220.86
806.599	221.74
806.988	225.08
807.377	223.26
807.766	225.13
808.155	231.43
808.544	224.74
808.933	227.01
809.321	226.68
809.71	226.91
810.098	228.02
810.487	235.92
810.875	245.7
811.264	246.08
811.652	271.23
812.04	275
812.428	281.03
812.816	296.39
813.204	307.43
813.592	311.5
813.98	321.13
814.368	328.95
814.756	342.19
815.144	341.31
815.531	357.86
815.919	337.97
816.306	346.55
816.694	336.49
817.081	343.89
817.469	355.54
817.856	355.4
818.243	364.9
818.63	365.4
819.017	360.58
819.404	364.42
819.791	370.59
820.178	380.18
820.565	388.57
820.952	425.26
821.339	415.02
821.725	416.66
822.112	403.06
822.498	402.58
822.885	403.5
823.271	396.85
823.657	400.55
824.044	401.67
824.43	407.03
824.816	420.93
825.202	406.49
825.588	427.22
825.974	430.94
826.36	444.65
826.746	445.02
827.132	453.46
827.517	461.96
827.903	441.55
828.289	446.72
828.674	430.48
829.06	417.79
829.445	418.33
829.83	426
830.216	436.13
830.601	450.41
830.986	450.31
831.371	448.95
831.756	463.76
832.141	464.02
832.526	464.66
832.911	473.26
833.295	466.24
833.68	481.84
834.065	471.5
834.449	444.29
834.834	439.98
835.218	435.69
835.603	447.26
835.987	433.15
836.371	446.71
836.755	441.72
837.139	445.98
837.524	449.94
837.908	442.4
838.291	444.91
838.675	446.68
839.059	445.35
839.443	440.62
839.827	427.5
840.21	438.08
840.594	442.81
840.977	448.17
841.361	448.48
841.744	456.22
842.127	453.67
842.511	455.92
842.894	465.41
843.277	477.48
843.66	488.53
844.043	497.72
844.426	487.31
844.809	467.2
845.191	469.33
845.574	458.84
845.957	452.54
846.339	452.51
846.722	438.14
847.104	439.71
847.487	430.47
847.869	434.7
848.252	438.62
848.634	443.32
849.016	451.05
849.398	446.94
849.78	465.72
850.162	465.91
850.544	475.58
850.926	488.01
851.307	489.6
851.689	500.67
852.071	501.28
852.452	513.75
852.834	507.44
853.215	527.85
853.597	536.25
853.978	551.31
854.359	561.25
854.741	536.77
855.122	533.33
855.503	525.22
855.884	529.73
856.265	536.08
856.646	526.97
857.026	521.83
857.407	520.22
857.788	522.16
858.169	519.5
858.549	507.99
858.93	524.26
859.31	531.79
859.69	545.25
860.071	533.29
860.451	529.74
860.831	513.74
861.211	539.9
861.591	541.62
861.971	535.19
862.351	537.5
862.731	535.32
863.111	539.97
863.491	552.02
863.87	564.93
864.25	572.63
864.629	573.13
865.009	586.75
865.388	612.09
865.768	661.07
866.147	669.97
866.526	637.1
866.905	648.31
867.284	675.93
867.663	628.64
868.042	607.04
868.421	602.51
868.8	596.3
869.179	613.54
869.558	571.56
869.936	530.34
870.315	532.86
870.693	553.11
871.072	591.24
871.45	561.85
871.828	574.99
872.207	599.89
872.585	592.53
872.963	607.38
873.341	593.36
873.719	598.01
874.097	583.82
874.475	593.35
874.853	598.6
875.23	580.67
875.608	614.18
875.986	663.72
876.363	635.3
876.741	675.53
877.118	671.5
877.495	700.06
877.873	704.89
878.25	744.65
878.627	714.69
879.004	727.04
879.381	716.66
879.758	704.85
880.135	657.93
880.512	690.16
880.889	646.35
881.265	635.15
881.642	614.55
882.019	618.49
882.395	622.72
882.772	661.51
883.148	638.36
883.524	644.09
883.901	633.71
884.277	639.14
884.653	632.78
885.029	666.81
885.405	744.11
885.781	737.94
886.157	704.97
886.532	696.39
886.908	683.98
887.284	746.14
887.659	769.75
888.035	786.48
888.411	806.63
888.786	820.99
889.161	843.47
889.537	817.71
889.912	848.06
890.287	851.41
890.662	869.63
891.037	847.66
891.412	798.21
891.787	777.9
892.162	757.96
892.536	773.69
892.911	749.16
893.286	724.22
893.66	695.7
894.035	713.62
894.409	771.46
894.784	748.06
895.158	761.96
895.532	808.86
895.906	842.78
896.281	867.48
896.655	867.05
897.029	989.09
897.402	1033.85
897.776	1144.22
898.15	1144.66
898.524	1136.03
898.898	1146.07
899.271	1301.88
899.645	1129.29
900.018	1073.83
900.392	1108.95
900.765	1096.51
901.138	1011.77
901.511	992.41
901.884	932.55
902.258	862.98
902.631	909.08
903.003	1044.06
903.376	927.33
903.749	1044.6
904.122	1113.33
904.495	1210.16
904.867	1227.47
905.24	1077.52
905.612	1000.25
905.985	1002.97
906.357	1041.42
906.729	979.9
907.102	843.62
907.474	827.41
907.846	836.24
908.218	834
908.59	752.32
908.962	733.45
909.334	788.63
909.705	841.66
910.077	806.49
910.449	838.42
910.82	873.26
911.192	952.54
911.563	988.39
911.935	1035.49
912.306	1028.22
912.677	1049.78
913.048	1046.6
913.419	1127.58
913.79	1112.54
914.161	1206.46
914.532	1166.37
914.903	1051.01
915.274	999.24
915.645	987.26
916.015	859.99
916.386	825.32
916.756	880.18
917.127	891.15
917.497	809.61
917.868	894.61
918.238	858.09
918.608	875.05
918.978	899.2
919.348	942.16
919.718	953.41
920.088	939.5
920.458	986.37
920.828	1019.86
921.198	985.93
921.567	1032.77
921.937	800.31
922.306	793.78
922.676	852.17
923.045	735.66
923.415	718.95
923.784	656.1
924.153	693.27
924.522	701.72
924.891	657.42
925.26	689.14
925.629	672.32
925.998	759.9
926.367	747.4
926.736	751.92
927.104	868.48
927.473	920
927.842	1120.4
928.21	1067.37
928.578	1084.56
928.947	1049.97
929.315	1089.3
929.683	1317.69
930.051	1348.01
930.42	1559.89
930.788	1298.41
931.156	1290.66
931.523	1252.6
931.891	1168.08
932.259	1143.1
932.627	1357.24
932.994	1909.02
933.362	1601.01
933.729	1365.69
934.097	1298.21
934.464	1111.14
934.831	1217.76
935.199	1197.98
935.566	1148.03
935.933	1129.42
936.3	1389.95
936.667	1052.15
937.034	1087.69
937.401	1032.37
937.767	896.37
938.134	799.05
938.501	1096.77
938.867	1261.2
939.234	2104.38
939.6	1743.73
939.967	1984.51
940.333	1297.36
940.699	1085.31
941.065	685.21
941.431	942.08
941.798	993.74
942.163	1345.33
942.529	852.4
942.895	738.13
943.261	492.55
943.627	656.71
943.992	589.36
944.358	597.97
944.723	670.82
945.089	677.38
945.454	632.31
945.82	617.04
946.185	561.82
946.55	656.26
946.915	596.38
947.28	709.26
947.645	640.07
948.01	605.78
948.375	644.95
948.74	706.87
949.104	824.49
949.469	1078.62
949.834	1910.6
950.198	2050.13
950.562	1295.37
950.927	1099.61
951.291	1297.56
951.655	1056.34
952.02	904.25
952.384	680.96
952.748	650.62
953.112	696.09
953.476	631.75
953.839	577.58
954.203	580.94
954.567	693.66
954.931	1014.15
955.294	904.77
955.658	935.2
956.021	1641.98
956.385	2619.26
956.748	3734.58
957.111	5336.21
957.474	5892.63
957.837	6465.82
958.2	4531.95
958.563	1644.47
958.926	1203.42
959.289	1744.45
959.652	1921.81
960.015	1441.89
960.377	2213.64
960.74	2480.82
961.102	4079.13
961.465	4642.24
961.827	3207.53
962.189	6151.4
962.552	4268.95
962.914	3385.11
963.276	2223.84
963.638	1830.2
964	1793.14
964.362	1211.12
964.724	1119.74
965.085	827.48
965.447	663.54
965.809	612.26
966.17	580.71
966.532	623.15
966.893	575.64
967.255	504.23
967.616	566.63
967.977	461.53
968.338	489.76
968.699	452.41
969.061	451.91
969.421	472.01
969.782	506.31
970.143	475.17
970.504	542.95
970.865	618.88
971.225	667.38
971.586	666.24
971.946	915.04
972.307	786.53
972.667	951.02
973.027	973.61
973.388	1112.29
973.748	785.86
974.108	840.71
974.468	987.76
974.828	863.38
975.188	622.87
975.548	567.69
975.907	495.99
976.267	538.09
976.627	495.97
976.986	500.04
977.346	477.75
977.705	461.02
978.064	399.4
978.424	344.32
978.783	294.73
979.142	348.47
979.501	354.44
979.86	382.93
980.219	381.65
980.578	442.89
980.937	494.81
981.296	453.93
981.654	466.07
982.013	700.87
982.371	959.22
982.73	928.5
983.088	1008.49
983.447	1099.94
983.805	1621.61
984.163	3305.64
984.521	3641.34
984.879	5237.8
985.237	-8740.05
985.595	8807.81
985.953	2231.71
986.311	1168.75
986.669	699.08
987.026	593.86
987.384	713.77
987.741	675.47
988.099	588.79
988.456	499.47
988.814	498.33
989.171	419.42
989.528	355.73
989.885	358.9
990.242	316.24
990.599	348.45
990.956	296.9
991.313	219.18
991.67	179.38
992.027	238.19
992.383	212.69
992.74	189.74
993.096	211.12
993.453	225.95
993.809	231.35
994.165	302.62
994.522	363.08
994.878	397.71
995.234	507.55
995.59	508.64
995.946	368.1
996.302	408.62
996.658	447.35
997.013	458.79
997.369	611.63
997.725	837.45
998.08	530.79
998.436	527.82
998.791	768.8
999.147	777.64
999.502	847.25
999.857	537.97
1000.212	865.71
1000.567	1271.46
1000.922	794.88
1001.277	484.52
1001.632	360.59
1001.987	489.52
1002.342	380.52
1002.696	301.77
1003.051	264.25
1003.406	338.28
1003.76	351.3
1004.114	368.33
1004.469	334.98
1004.823	268.64
1005.177	264.29
1005.531	208.87
1005.885	208.1
1006.239	261.24
1006.593	340.31
1006.947	452.2
1007.301	316.89
1007.655	369.39
1008.008	279.99
1008.362	304.14
1008.715	432.37
1009.069	386.06
1009.422	709.22
1009.776	1246.37
1010.129	730.79
1010.482	525.87
1010.835	385.08
1011.188	780.42
1011.541	712.28
1011.894	-3778.95
1012.247	10482.28
1012.6	632.66
1012.952	536.47
1013.305	145.08
1013.657	149.63
1014.01	160.06
1014.362	138.08
1014.715	203.46
1015.067	198.97
1015.419	194.33
1015.771	191.79
1016.123	198.45
1016.475	216.22
1016.827	213.45
1017.179	261.07
1017.531	237.21
1017.883	227.97
1018.234	316.33
1018.586	356.25
1018.938	443.92
1019.289	611.41
1019.64	639.95
1019.992	530.76
1020.343	460.95
1020.694	432.49
1021.045	373.37
1021.396	407.44
1021.747	474.15
1022.098	406.75
1022.449	257.01
1022.8	217.24
1023.151	181.36
1023.501	194.61
1023.852	214.05
1024.202	254.75
1024.553	223.57
1024.903	267.67
1025.253	286.43
1025.604	282.81
1025.954	338.61
1026.304	397.96
1026.654	423.58
1027.004	547.93
1027.354	789.27
1027.703	845.8
1028.053	973.01
1028.403	1745.51
1028.753	1847.16
1029.102	1495.34
1029.452	2881.43
1029.801	70.37
1030.15	59.33
1030.499	-5.5
897.758	2825.8
901.051	2788.17
904.343	2819.2
907.636	2816.32
910.928	2883.78
914.22	2790.41
917.511	2798.2
920.803	2868.14
924.094	2890.07
927.384	2860.05
930.675	2827.32
933.965	2775.92
937.255	2779.79
940.544	2750.16
943.834	2670.81
947.123	2616.25
950.411	2716.09
953.7	2685.48
956.988	2644.49
960.276	2587.37
963.563	2676.24
966.851	2665.19
970.138	2728.36
973.424	2717.12
976.711	2664.65
979.997	2820.96
983.283	2851.64
986.568	2746.74
989.853	2768.33
993.138	2795.56
996.423	2875.33
999.708	2804.14
1002.992	2880.68
1006.275	2692.62
1009.559	2749.13
1012.842	2866.7
1016.125	2790.5
1019.408	2768
1022.69	2863.82
1025.972	2874.65
1029.254	2849.29
1032.536	2773.38
1035.817	2803.99
1039.098	2734.59
1042.379	2902.91
1045.659	2889.38
1048.939	2816.83
1052.219	2839.34
1055.498	2855.29
1058.778	2831.67
1062.057	2821.73
1065.335	2839.1
1068.614	2857.37
1071.892	2834.72
1075.17	2915.45
1078.447	2897.82
1081.724	2887.56
1085.001	2925.09
1088.278	2899.38
1091.554	2910.62
1094.83	2906.73
1098.106	2928.39
1101.382	2975.23
1104.657	2975.55
1107.932	2971.1
1111.206	2931.33
1114.481	2886.53
1117.755	2891.62
1121.029	2866.69
1124.302	2915.7
1127.575	2860.45
1130.848	2846.09
1134.121	2803.53
1137.393	2750.44
1140.665	2820.19
1143.937	2792.51
1147.208	2757.27
1150.48	2792.25
1153.75	2775.72
1157.021	2815.03
1160.291	2782.83
1163.561	2823.98
1166.831	2821.41
1170.101	2853.77
1173.37	2834.97
1176.639	2775.18
1179.907	2836.76
1183.176	2834.62
1186.444	2847.69
1189.711	2874.4
1192.979	2883.26
1196.246	2839.96
1199.513	2862.36
1202.78	2857
1206.046	2865.28
1209.312	2888.74
1212.578	2915.19
1215.843	2864.98
1219.108	2844.64
1222.373	2865.41
1225.638	2827.73
1228.902	2809.78
1232.166	2782.43
1235.43	2762.96
1238.693	2785.59
1241.956	2785.42
1245.219	2824.01
1248.482	2820.78
1251.744	2813.28
1255.006	2968.4
1258.268	2923.93
1261.529	2865.75
1264.79	2874.58
1268.051	2975.63
1271.312	2993.44
1274.572	2952.93
1277.832	2941.36
1281.092	2930.27
1284.351	2896.65
1287.61	2875.43
1290.869	2781.53
1294.128	2751.9
1297.386	2851.86
1300.644	2839.41
1303.902	2851.16
1307.159	2710.28
1310.416	2765.7
1313.673	2790.16
1316.93	2776.48
1320.186	2825.96
1323.442	2872.56
1326.697	2863.41
1329.953	2861.43
1333.208	2881.58
1336.463	2867.83
1339.717	2803.57
1342.972	2947.38
1346.226	2929.79
1349.479	2858.87
1352.733	2827.14
1355.986	2858.92
1359.238	2832.95
1362.491	2836.2
1365.743	2842.1
1368.995	2842.96
1372.247	2854.69
1375.498	2881.92
1378.749	2891.1
1382	2852.79
1385.251	2914.31
1388.501	2878.1
1391.751	2859.42
1395	2835.76
1398.25	2872.41
1401.499	2877.99
1404.748	2799.67
1407.996	2798
1411.244	2782.32
1414.492	2763.01
1417.74	2736.88
1420.987	2748.61
1424.234	2810.43
1427.481	2793.41
1430.728	2854.45
1433.974	2827.7
1437.22	2848.87
1440.465	2850.17
1443.711	2803.48
1446.956	2842.61
1450.201	2833.23
1453.445	2878.1
1456.689	2852.53
1459.933	2863.18
1463.177	2892.55
1466.42	2861.67
1469.663	2839.85
1472.906	2824.75
1476.148	2910.38
1479.391	2857.57
1482.633	2829.46
1485.874	2834.17
1489.115	2816.33
1492.356	2823.81
1495.597	2795.48
1498.838	2798.24
1502.078	2762.67
1505.318	2705.01
1508.557	2748.29
1511.797	2709.29
1515.036	2792.43
1518.274	2777.18
1521.513	2754.95
1524.751	2775.38
1527.989	2782.41
1531.227	2793.58
1534.464	2776.57
1537.701	2801.7
1540.938	2820.4
1544.174	2774.87
1547.41	2775.37
1550.646	2814.05
1553.882	2845.92
1557.117	2892.99
1560.352	2908.06
1563.587	2863.36
1566.821	2819.75
1570.055	2859.24
1573.289	2824.83
1576.523	2905.05
1579.756	2906.06
1582.989	2920.41
1586.222	2879.18
1589.454	2919.23
1592.686	2889.04
1595.918	2910.91
1599.15	2894.53
1602.381	2978.92
1605.612	2924.45
1608.843	3020.39
1612.073	2931.99
1615.303	2913.13
1618.533	2902.93
1621.762	2906.48
1624.992	2894.81
1628.221	2872.82
1631.449	2860.12
1634.678	2927.34
1637.906	2873.56
1641.134	2918.45
1644.361	2869.99
1647.588	2857.02
1650.815	2873.75
1654.042	2857.2
1657.269	2886.7
1660.495	2832.05
1663.72	2855.46
1666.946	2820.64
1670.171	2753.95
1673.396	2734.46
1676.621	2722.66
1679.845	2752.5
1683.069	2775.58
1686.293	2819.92
1689.517	2788.08
1692.74	2713.2
1695.963	2745.28
1699.185	2763.65
1702.408	2740.63
1705.63	2783.73
1708.852	2791.42
1712.073	2768.59
1715.294	2746.15
1718.515	2814.24
1721.736	2760.32
1724.956	2759.61
1728.176	2787.29
1731.396	2811.75
1734.616	2798.99
1737.835	2822.82
1741.054	2807.55
1744.272	2805.39
1747.491	2831.51
1750.709	2893.32
1753.927	2787.67
1757.144	2838.41
1760.361	2875.7
1763.578	2874.2
1766.795	2814.32
1770.011	2828.83
1773.227	2873.69
1776.443	2908.83
1779.658	2951.51
1782.874	2899.02
1786.089	2873.78
1789.303	2878.3
1792.518	2887.19
1795.732	2874.91
1798.945	2886.54
1802.159	2938.51
1805.372	2832.35
1808.585	2816.06
1811.797	2819.73
1815.01	2876.82
1818.222	2874.78
1821.434	2838.88
1824.645	2901.22
1827.856	2881.36
1831.067	2919.86
1834.278	2883.01
1837.488	2868.38
1840.698	3025.58
1843.908	2945.93
1847.117	2910.14
1850.326	2784.08
1853.535	2901.07
1856.744	2943.68
1859.952	2857.88
1863.16	2862.12
1866.368	2891.17
1869.575	2996.5
1872.782	2885.41
1875.989	2827.87
1879.196	2928.9
1882.402	2924.65
1885.608	2973.22
1888.814	2872.05
1892.019	2765.64
1895.224	2823.5
1898.429	2808.18
1901.634	2785.66
1904.838	2766.29
1908.042	2820.71
1911.246	2830.54
1914.449	2751.32
1917.652	2750.86
1920.855	2730.3
1924.058	2786.93
1927.26	2821.7
1930.462	2853.3
1933.664	2878.47
1936.865	2813.64
1940.066	2819.2
1943.267	2762.47
1946.467	2781.16
1949.668	2810.65
1952.868	2880.37
1956.067	2855.87
1959.267	2783.77
1962.466	2813.75
1965.665	2796.24
1968.863	2793.04
1972.061	2811.26
1975.259	2811.2
1978.457	2893.38
1981.654	2845.71
1984.852	2845.79
1988.048	2772.97
1991.245	2782.24
1994.441	2865.52
1997.637	2854.36
2000.833	2834.09
2004.028	2875.59
2007.223	2924.82
2010.418	2901.77
2013.613	2864.26
2016.807	2828.99
2020.001	2841.39
2023.194	2888.37
2026.388	2860.81
2029.581	2807.08
2032.774	2854.6
2035.966	2858.95
2039.158	2784.52
2042.35	2818.24
2045.542	2741.1
2048.733	2847.51
2051.924	2878.05
2055.115	2908.07
2058.306	2845.84
2061.496	2907.52
2064.686	2975.27
2067.875	2887.71
2071.065	2904.62
2074.254	2935.27
2077.442	2881.97
2080.631	2976.43
2083.819	2856.63
2087.007	2835.68
2090.195	2802.04
2093.382	2841.07
2096.569	2817.59
2099.756	2767.37
2102.942	2788.74
2106.128	2793.91
2109.314	2783.59
2112.5	2742.16
2115.685	2718.57
2118.87	2729.96
2122.055	2797.52
2125.239	2759.72
2128.424	2730.75
2131.608	2843.87
2134.791	2825.72
2137.974	2890.97
2141.157	2875.21
2144.34	2822.58
2147.523	2843.89
2150.705	2854.09
2153.887	2835.4
2157.068	2778.25
2160.25	2784.47
2163.431	2826.83
2166.611	2767.96
2169.792	2783.51
2172.972	2670.12
2176.152	2758.54
2179.331	2797.16
2182.511	2775.31
2185.69	2804.85
2188.868	2797.69
2192.047	2860.08
2195.225	2844.94
2198.403	2795.05
2201.58	2790.64
2204.758	2785.33
2207.935	2875.04
2211.111	2752.05
2214.288	2735.19
2217.464	2776.4
2220.64	2753.37
2223.815	2811.97
2226.991	2728.42
2230.166	2751.24
2233.34	2777.68
2236.515	2804.94
2239.689	2886.33
2242.863	2823.96
2246.036	2883.12
2249.209	2886.83
2252.382	2926.14
2255.555	2907.5
2258.727	2840.48
2261.9	2883.97
2265.071	2874.05
2268.243	2880.93
2271.414	2806.48
2274.585	2761.9
2277.756	2833.9
2280.926	2788.96
2284.096	2835.37
2287.266	2734.87
2290.436	2796.55
2293.605	2826.14
2296.774	2858.37
2299.942	2880.69
2303.111	2901.39
2306.279	2948.43
2309.447	2935.64
2312.614	2911.15
2315.781	2930.64
2318.948	2898.79
2322.115	2938.76
2325.281	2837.11
2328.447	2863.98
2331.613	2837.24
2334.779	2808.3
2337.944	2809.65
2341.109	2811.48
2344.274	2790.37
2347.438	2754.86
2350.602	2782.52
2353.766	2798.66
2356.929	2784.11
2360.092	2826.84
2363.255	2773.62
2366.418	2698.44
2369.58	2827.09
2372.742	2582.56
2375.904	2603.03
2379.066	2576.91
2382.227	2616.22
2385.388	2576.99
2388.548	2495.46
2391.709	2556.31
2394.869	2533.47
2398.029	2643.91
2401.188	2659.68
2404.347	2585.52
2407.506	2752.01
2410.665	2778.87
2413.823	2789.35
2416.981	2739.75
2420.139	2776.91
2423.296	2830.11
2426.453	2801.21
2429.61	2827.24
2432.767	2751.95
2435.923	2792.49
2439.079	2739.08
2442.235	2794.41
2445.391	2713.15
2448.546	2741.43
2451.701	2795.7
2454.855	2759.79
2458.009	2818.74
2461.163	2823.44
2464.317	2779.56
2467.471	2817.2
2470.624	2860.36
2473.777	2843.96
2476.929	2853.35
2480.082	2881.86
2483.234	2842.06
2486.385	2793.33
2489.537	2785.5
2492.688	2740.06
2495.839	2760.99
2498.989	2770.57
2502.14	2751.87
2505.29	2732.72
2508.439	2760.74
2511.589	2679.29
2514.738	2691.18
2517.887	2724.64
2521.035	2795.53
2524.183	2783.64
2527.331	2762.21
2530.479	2729.47
2533.627	2743.14
