Data from C_3_HIR_WI_4N_Splice17_13-10-49-806.txt Node
Date: Sat Mar 14 13:10:49 EDT 2020
User: sa697716
Spectrometer: FLMS03696
Trigger mode: 0
Integration Time (sec): 3.180400E-1
Scans to average: 20
Electric dark correction enabled: true
Nonlinearity correction enabled: true
Boxcar width: 5
XAxis mode: Wavelengths
Number of Pixels in Spectrum: 2048
>>>>>Begin Spectral Data<<<<<
187.83	-318138.12
188.298	2297.43
188.766	1221.49
189.233	1145.52
189.701	1606.3
190.169	2138.83
190.636	801.03
191.104	647.32
191.571	73.95
192.039	-82.09
192.506	-159.93
192.974	433.14
193.441	-914.22
193.908	-424.13
194.375	-72.04
194.842	-20.79
195.31	1.42
195.777	124.17
196.244	371.97
196.711	434.67
197.177	537.32
197.644	773.67
198.111	1376.8
198.578	1960.23
199.045	1594.13
199.511	2610.26
199.978	3047.16
200.445	2573.91
200.911	2874.46
201.378	3171.89
201.844	2888.53
202.31	4965.41
202.777	5182.41
203.243	2845.34
203.709	2714.2
204.176	3229.22
204.642	2690.75
205.108	2517.45
205.574	2069.86
206.04	1867.25
206.506	1757.47
206.972	1675.45
207.438	1632.47
207.903	1841.18
208.369	1630.73
208.835	1632.06
209.301	1722.75
209.766	1737.77
210.232	1720.94
210.697	2127.07
211.163	2638.15
211.628	3960.27
212.094	3290.97
212.559	4046.43
213.024	2528.66
213.49	3080.8
213.955	3008.31
214.42	2889.78
214.885	2694.57
215.35	2577.9
215.815	2507.28
216.28	2660.41
216.745	2192.28
217.21	2389.29
217.675	2198
218.14	2495.06
218.604	2792.85
219.069	3197.94
219.534	3394.97
219.998	3956.8
220.463	4810.65
220.927	5905.86
221.392	5561.46
221.856	5625.56
222.32	7108.2
222.785	8768.2
223.249	11047.28
223.713	12362.54
224.177	12360.88
224.642	15823.28
225.106	19471.28
225.57	21289.02
226.034	15828.47
226.497	24134.39
226.961	21789.6
227.425	25262.89
227.889	28039.66
228.353	27996.71
228.816	57654.55
229.28	55145.48
229.744	46506.02
230.207	28240.38
230.671	27749.98
231.134	45888.71
231.597	52862.69
232.061	52851.84
232.524	51669.91
232.987	35534.2
233.45	31996.56
233.914	28741.99
234.377	29441.17
234.84	26928.37
235.303	31747.6
235.766	35449.58
236.229	36605.03
236.691	23029.2
237.154	25836.84
237.617	19415.15
238.08	19890.05
238.542	23236.76
239.005	16593.21
239.468	16457.5
239.93	15511.08
240.393	14094.86
240.855	12364.39
241.317	12663.8
241.78	15410.54
242.242	15938.12
242.704	17203.79
243.166	14974.03
243.629	13610.45
244.091	15671.83
244.553	17164.92
245.015	18433.63
245.477	23851.01
245.939	34910.76
246.4	37037.68
246.862	36000.45
247.324	33895.16
247.786	37879.05
248.247	49656.47
248.709	51186.28
249.17	38275.42
249.632	36068.83
250.093	41813.65
250.555	36071.05
251.016	22004.31
251.477	20862.19
251.939	22483.22
252.4	23604.04
252.861	28072.28
253.322	26107.7
253.783	31062.05
254.244	40285.69
254.705	31743.8
255.166	28204.08
255.627	27773.03
256.088	39169.27
256.549	41548.5
257.009	35776.59
257.47	43427.55
257.931	35364.47
258.391	26480.86
258.852	27322.54
259.312	28605.09
259.773	35320.09
260.233	29875.34
260.694	25194.56
261.154	28560.69
261.614	22948.64
262.074	20508.2
262.534	21304.97
262.994	20064.56
263.455	26737.11
263.915	22511.39
264.374	21212.53
264.834	23151.43
265.294	25646.58
265.754	26575.99
266.214	25151.67
266.673	23541.82
267.133	29703.23
267.593	29420.9
268.052	36028.45
268.512	31333.44
268.971	37806.02
269.431	41422.45
269.89	37110.99
270.349	55617.7
270.809	61856.28
271.268	55594.91
271.727	124689.72
272.186	80816.25
272.645	60628.01
273.104	43661.88
273.563	63156.37
274.022	49616.03
274.481	42227.57
274.94	32514.36
275.399	24148.66
275.857	28147.32
276.316	38051.33
276.775	33850.47
277.233	33292.8
277.692	31162.12
278.15	35252.52
278.609	36270.5
279.067	33550.75
279.525	31138.52
279.984	40191.16
280.442	48257.16
280.9	47558
281.358	31259.24
281.816	29108.93
282.274	28477.84
282.732	29399.61
283.19	29540.2
283.648	25450.46
284.106	27093.61
284.564	27555.64
285.021	25530.56
285.479	19009.9
285.937	17247.28
286.394	15141.93
286.852	15590.45
287.309	16389.1
287.767	15838.76
288.224	15061.82
288.682	16527.85
289.139	18138.2
289.596	16576.01
290.053	17253.35
290.511	21802.18
290.968	26476.68
291.425	35918.95
291.882	29910.13
292.339	26029.66
292.796	25812.42
293.252	24292.07
293.709	19300.68
294.166	17282.53
294.623	19083.78
295.079	18258.75
295.536	18299.33
295.992	16604.74
296.449	16415.75
296.905	17026.62
297.362	16314.56
297.818	17153.24
298.274	17804.27
298.731	18126.3
299.187	17930.73
299.643	19257.07
300.099	23315.91
300.555	25549.83
301.011	21348.44
301.467	20562.58
301.923	24027.39
302.379	23443.63
302.835	23007.52
303.291	23014.64
303.746	26191.33
304.202	33044.64
304.658	33132.57
305.113	22241.38
305.569	21816.5
306.024	23190.91
306.479	22050.96
306.935	18628.69
307.39	20343.58
307.845	18760.87
308.301	18871.51
308.756	18365.44
309.211	17693.71
309.666	18148.04
310.121	22529.54
310.576	22842.73
311.031	22675.56
311.486	25948.91
311.94	25859.36
312.395	34583.98
312.85	64965.25
313.305	318536.35
313.759	1650641.29
314.214	119664.18
314.668	94615.65
315.123	79520.8
315.577	28512.96
316.032	25390.73
316.486	31832.44
316.94	25188.42
317.394	17524.73
317.849	13638.84
318.303	12911.53
318.757	12177.66
319.211	13447.64
319.665	11771.59
320.119	11923.14
320.572	17111.74
321.026	16000.52
321.48	13306.16
321.934	14458.74
322.387	14481.94
322.841	15640.98
323.295	14095.72
323.748	16212.68
324.202	16438.71
324.655	19777.93
325.108	27668.79
325.562	19524.75
326.015	23182.67
326.468	17540.67
326.921	19637.82
327.374	18310.5
327.827	19033.98
328.28	21521.77
328.733	14414.26
329.186	12675.27
329.639	12056.12
330.092	10144.41
330.545	9668.34
330.997	9744.83
331.45	10658.11
331.903	12476.13
332.355	21450.3
332.808	20861.36
333.26	17204.89
333.713	18738.57
334.165	18861.65
334.617	25199.87
335.069	20338.67
335.522	36777.36
335.974	40732.48
336.426	37110.34
336.878	25745.27
337.33	13080.29
337.782	12760.81
338.234	15978.06
338.686	19029.19
339.137	22574.9
339.589	21265.95
340.041	16655.79
340.493	14310.25
340.944	14646.17
341.396	15800.2
341.847	13294.09
342.299	15672.79
342.75	19144.11
343.201	16711.97
343.653	19208.22
344.104	23571.08
344.555	18528.01
345.006	28825.91
345.457	22085.15
345.908	17554.22
346.359	16462.98
346.81	13394.41
347.261	14100.31
347.712	13870.01
348.163	14859.2
348.613	15086.18
349.064	14096.34
349.515	12332.52
349.965	12637.21
350.416	15213.06
350.866	16682.72
351.317	18870.18
351.767	31223.78
352.217	39476.62
352.668	32754.61
353.118	29988.88
353.568	28870.66
354.018	22860.6
354.468	24136.61
354.918	17329.26
355.368	15141.87
355.818	21378.19
356.268	61591.51
356.718	257651.11
357.168	64123.57
357.617	32168.14
358.067	35821.43
358.517	33562.51
358.966	39266.36
359.416	44013.08
359.865	47513.02
360.315	56484.86
360.764	26418.74
361.213	14795.59
361.663	14003.57
362.112	17267.99
362.561	27900.04
363.01	21021.09
363.459	17635.89
363.908	19108.92
364.357	16213.66
364.806	27408.54
365.255	18856.18
365.703	17266.7
366.152	17265.92
366.601	14000.52
367.05	11373.11
367.498	10347.97
367.947	10807.79
368.395	11256.06
368.844	9969
369.292	12004.96
369.74	8284.57
370.189	12675.45
370.637	14816.01
371.085	12787.68
371.533	15568.4
371.981	14985.66
372.429	14247.97
372.877	14811.66
373.325	12400.51
373.773	12595.35
374.221	11213.25
374.669	13882.9
375.116	11995
375.564	12109.73
376.012	13537.27
376.459	11163.16
376.907	13324.76
377.354	16066.04
377.801	15008.65
378.249	17238.98
378.696	21982.55
379.143	26604.44
379.591	28399.96
380.038	48075.4
380.485	34679.23
380.932	37308.7
381.379	34087.23
381.826	25043.27
382.273	17807.06
382.72	15528.58
383.166	15125.97
383.613	9824.46
384.06	8848.13
384.506	10221.03
384.953	7477.34
385.4	7504.2
385.846	6586.89
386.292	6423.79
386.739	6276.69
387.185	6197.07
387.631	6202.29
388.078	6028.44
388.524	6443.83
388.97	5950.28
389.416	4958.79
389.862	5277.45
390.308	5006.65
390.754	5085.93
391.2	5501.8
391.645	5641.51
392.091	5408.35
392.537	5216.3
392.983	5215.38
393.428	5133.98
393.874	5505.75
394.319	5542.56
394.765	5271.04
395.21	5408.83
395.655	5065.11
396.101	4746.49
396.546	4288.67
396.991	4322.37
397.436	4014.58
397.881	3872.92
398.326	3661.69
398.771	3461.66
399.216	3014.12
399.661	2707.87
400.106	2703.45
400.551	2770.54
400.995	2485.32
401.44	2453.09
401.885	2303.31
402.329	2331.58
402.774	2237.85
403.218	2174.34
403.663	2094
404.107	2150.13
404.551	2165.46
404.995	1986.15
405.44	1911.68
405.884	1941.72
406.328	1881.29
406.772	1876.68
407.216	1710.57
407.66	1652.53
408.104	1564.34
408.547	1463.82
408.991	1419.8
409.435	1366.97
409.879	1348.35
410.322	1329.73
410.766	1282.95
411.209	1217.82
411.653	1169.33
412.096	1146.07
412.54	1145.71
412.983	1140.55
413.426	1145.96
413.869	1145.4
414.312	1125.46
414.756	1082.48
415.199	1032.85
415.642	1004.85
416.085	1007.54
416.527	999.2
416.97	1013.73
417.413	964.77
417.856	953.39
418.298	943.83
418.741	936.3
419.184	931.73
419.626	971.68
420.069	973.66
420.511	980.46
420.953	958.89
421.396	952.78
421.838	927.21
422.28	948.42
422.722	955.88
423.164	968.42
423.606	955.1
424.048	954.3
424.49	907.07
424.932	901.35
425.374	885.64
425.816	900.9
426.258	918.8
426.699	931.61
427.141	917.45
427.582	926.62
428.024	921.3
428.465	913.63
428.907	890.46
429.348	878.39
429.789	881
430.231	864.58
430.672	875.64
431.113	853.24
431.554	837.65
431.995	815.72
432.436	791.26
432.877	775.71
433.318	765.34
433.759	763.14
434.2	765.58
434.64	754.74
435.081	757.14
435.522	720.17
435.962	693.06
436.403	680.44
436.843	685.9
437.284	666.94
437.724	646.97
438.164	646.32
438.604	630.91
439.045	607.27
439.485	584.8
439.925	571.74
440.365	556.08
440.805	548.76
441.245	542.07
441.685	525
442.125	522.42
442.564	525.81
443.004	513.63
443.444	513.89
443.883	513.66
444.323	507.24
444.762	506.51
445.202	513.28
445.641	525.56
446.081	521.02
446.52	525.91
446.959	520.56
447.398	508.13
447.837	503.49
448.276	493.89
448.716	499.4
449.154	503.15
449.593	492.73
450.032	491.81
450.471	479.81
450.91	480.85
451.349	478.5
451.787	476.25
452.226	483.48
452.664	482.26
453.103	482.59
453.541	481.9
453.98	483.01
454.418	487.64
454.856	480.16
455.295	479.08
455.733	483.02
456.171	486.45
456.609	486.5
457.047	486.84
457.485	494.81
457.923	496.65
458.361	488.47
458.798	489.89
459.236	486.68
459.674	489.47
460.111	492.49
460.549	488.3
460.987	486.57
461.424	485.85
461.862	483.77
462.299	477.24
462.736	476.91
463.173	478.66
463.611	474.62
464.048	474.25
464.485	477.8
464.922	473.37
465.359	469.73
465.796	467.52
466.233	463.99
466.67	460.83
467.106	459.79
467.543	454.71
467.98	448.01
468.416	435.94
468.853	430.88
469.29	417.65
469.726	411.76
470.162	400.25
470.599	390.79
471.035	386.87
471.471	375.92
471.907	372.1
472.344	369.24
472.78	371.21
473.216	374.1
473.652	370.97
474.088	369.71
474.523	370.04
474.959	373.24
475.395	369.93
475.831	369.05
476.266	371.37
476.702	370.09
477.138	366.12
477.573	365.21
478.008	364.37
478.444	366.09
478.879	370.31
479.314	371.67
479.75	372.02
480.185	373.71
480.62	376.22
481.055	377.83
481.49	380.72
481.925	386.71
482.36	393.96
482.795	404.55
483.229	415.54
483.664	423.2
484.099	424.32
484.534	430.86
484.968	434.81
485.403	436.1
485.837	434.58
486.271	433.65
486.706	433.33
487.14	427.18
487.574	420.71
488.009	415.95
488.443	412.67
488.877	417.47
489.311	418.61
489.745	423.83
490.179	426.87
490.613	436.43
491.046	439.92
491.48	443.14
491.914	445.14
492.348	449.02
492.781	452.64
493.215	454.96
493.648	455.45
494.082	459.24
494.515	461.21
494.948	468.57
495.382	471.54
495.815	476.37
496.248	482.19
496.681	491.07
497.114	499.83
497.547	509.36
497.98	519.49
498.413	526.87
498.846	535.86
499.279	542.75
499.711	547.17
500.144	551.22
500.577	560.91
501.009	570.3
501.442	580.15
501.874	584.06
502.306	586.57
502.739	596.25
503.171	608.61
503.603	613.43
504.036	623.53
504.468	631.05
504.9	642.2
505.332	649.96
505.764	656.98
506.196	665.18
506.627	678.25
507.059	691.76
507.491	700.87
507.923	703.58
508.354	718.86
508.786	730.48
509.217	747.54
509.649	763.16
510.08	781.95
510.512	798.12
510.943	813.8
511.374	827.45
511.805	847.1
512.237	865.39
512.668	894.37
513.099	919.78
513.53	946.17
513.961	967.41
514.391	997.39
514.822	1029.06
515.253	1062.75
515.684	1089.05
516.114	1117.33
516.545	1140.19
516.975	1167.61
517.406	1188.29
517.836	1196.04
518.267	1205.71
518.697	1225.22
519.127	1233.49
519.558	1243.15
519.988	1251.63
520.418	1263.72
520.848	1282.4
521.278	1293.94
521.708	1320.79
522.138	1335.13
522.567	1366.27
522.997	1392.56
523.427	1410.16
523.857	1428.47
524.286	1441.8
524.716	1458.21
525.145	1478.97
525.575	1492.83
526.004	1509.04
526.433	1498.87
526.863	1502.24
527.292	1495.18
527.721	1502.77
528.15	1510.05
528.579	1512.95
529.008	1525.09
529.437	1547.17
529.866	1560.75
530.295	1578.2
530.724	1591.65
531.152	1618.39
531.581	1632.18
532.01	1650.25
532.438	1658.45
532.867	1673.44
533.295	1691.78
533.723	1698.57
534.152	1698.11
534.58	1699.69
535.008	1686.82
535.436	1688.29
535.865	1695.75
536.293	1710.42
536.721	1726.06
537.149	1749.53
537.576	1751.83
538.004	1763.82
538.432	1770.66
538.86	1769.51
539.287	1775.88
539.715	1788.66
540.143	1791.78
540.57	1788.99
540.998	1785.09
541.425	1764.12
541.852	1745.49
542.28	1744.82
542.707	1729.46
543.134	1716.82
543.561	1712.78
543.988	1706.17
544.415	1705.41
544.842	1700.64
545.269	1693.71
545.696	1696.71
546.123	1709.16
546.549	1701
546.976	1690.21
547.403	1691.59
547.829	1694.38
548.256	1697.73
548.682	1695.11
549.108	1688.07
549.535	1689.17
549.961	1692.35
550.387	1680.33
550.813	1675.38
551.24	1681.15
551.666	1682.64
552.092	1674.39
552.518	1668.61
552.943	1662.91
553.369	1670.15
553.795	1677.2
554.221	1679.34
554.646	1676.6
555.072	1687.31
555.498	1691.79
555.923	1701.06
556.349	1714.51
556.774	1721.62
557.199	1721.87
557.625	1727.73
558.05	1721.51
558.475	1730.56
558.9	1727.67
559.325	1719.34
559.75	1713.25
560.175	1707.19
560.6	1700.5
561.025	1697.76
561.449	1697.62
561.874	1702.88
562.299	1705.38
562.723	1711.64
563.148	1701.39
563.572	1703.85
563.997	1711.29
564.421	1713.55
564.846	1711.22
565.27	1712.3
565.694	1707.43
566.118	1716.9
566.542	1722.24
566.966	1713.84
567.39	1707.7
567.814	1695.37
568.238	1693.6
568.662	1696.12
569.086	1697.13
569.509	1702.11
569.933	1685.54
570.357	1677.03
570.78	1655.4
571.204	1641.06
571.627	1630.1
572.05	1625.79
572.474	1623.39
572.897	1609.33
573.32	1600.97
573.743	1589.64
574.166	1571.36
574.589	1570.36
575.012	1562.33
575.435	1559.56
575.858	1550.62
576.281	1539.08
576.704	1523.46
577.126	1511.19
577.549	1499.81
577.972	1490.02
578.394	1479.38
578.817	1471.84
579.239	1452.9
579.661	1439.3
580.084	1424.54
580.506	1410.08
580.928	1405.64
581.35	1394.82
581.772	1389.7
582.194	1377.3
582.616	1364.91
583.038	1351.73
583.46	1342.34
583.882	1339.67
584.303	1342.05
584.725	1336.4
585.147	1338.56
585.568	1347.01
585.99	1356.86
586.411	1361.6
586.833	1373.51
587.254	1373.54
587.675	1384.71
588.096	1393.25
588.518	1387.1
588.939	1372.07
589.36	1370.63
589.781	1359.65
590.202	1334.38
590.623	1326.19
591.043	1322.8
591.464	1311.78
591.885	1307.69
592.305	1301.99
592.726	1290.77
593.147	1292.07
593.567	1287.54
593.987	1279.67
594.408	1274.49
594.828	1271.19
595.248	1266.27
595.669	1250.68
596.089	1243.64
596.509	1237.05
596.929	1224.43
597.349	1224.82
597.769	1216.09
598.189	1209.9
598.608	1210.98
599.028	1213.2
599.448	1213.18
599.867	1201.03
600.287	1196.55
600.706	1192.08
601.126	1184.23
601.545	1183.45
601.965	1180.81
602.384	1175.82
602.803	1176.94
603.222	1172.29
603.641	1165.6
604.061	1161.23
604.48	1157.22
604.898	1163.18
605.317	1166.68
605.736	1166.76
606.155	1163.3
606.574	1154.92
606.992	1158.41
607.411	1154.4
607.829	1145.84
608.248	1141.25
608.666	1138.73
609.085	1136.92
609.503	1128.58
609.921	1122.04
610.339	1122.53
610.758	1120.35
611.176	1115.63
611.594	1105.36
612.012	1099.79
612.43	1100.8
612.847	1104.61
613.265	1103.83
613.683	1106.06
614.101	1105.89
614.518	1101.04
614.936	1092.58
615.353	1079.16
615.771	1074.71
616.188	1073.82
616.606	1070.47
617.023	1064.34
617.44	1052.32
617.857	1045.51
618.274	1036.8
618.691	1029.93
619.108	1020.65
619.525	1013.58
619.942	1017.88
620.359	1018.47
620.776	1013.32
621.192	1009.93
621.609	1007.04
622.026	1011.5
622.442	1014.94
622.859	1016.77
623.275	1011.26
623.691	1016.03
624.108	1024.25
624.524	1035.05
624.94	1035.12
625.356	1043.2
625.772	1052.26
626.188	1061.57
626.604	1062.75
627.02	1059.26
627.436	1058.24
627.852	1062.99
628.268	1072.82
628.683	1065.81
629.099	1058.21
629.514	1053.19
629.93	1054.78
630.345	1057.39
630.761	1053.39
631.176	1054.14
631.591	1049.63
632.007	1043.84
632.422	1042.71
632.837	1031.81
633.252	1029.61
633.667	1020.64
634.082	1013.47
634.497	1002.66
634.911	987.35
635.326	983.2
635.741	969.06
636.155	959.13
636.57	958.4
636.984	955.22
637.399	956.14
637.813	953.53
638.228	950.69
638.642	950.35
639.056	940.07
639.47	937.1
639.884	928.67
640.298	920.84
640.712	917.3
641.126	905.69
641.54	896.7
641.954	888.6
642.368	877.49
642.781	871.43
643.195	856.9
643.609	855.72
644.022	849.42
644.436	843.47
644.849	832.55
645.262	821.69
645.676	820.66
646.089	815.49
646.502	802.7
646.915	795.41
647.328	779.08
647.741	775.94
648.154	764.71
648.567	761.95
648.98	751.08
649.393	750.04
649.805	747.39
650.218	739.89
650.631	727.17
651.043	721.91
651.456	717.18
651.868	716.72
652.28	727.43
652.693	735.78
653.105	738.79
653.517	743.73
653.929	742.98
654.341	744.82
654.753	734.99
655.165	737.92
655.577	734.67
655.989	729.89
656.401	721.68
656.813	695.17
657.224	677.83
657.636	654.72
658.047	640.27
658.459	624.28
658.87	614.91
659.282	604.99
659.693	588.78
660.104	577.32
660.515	566.39
660.926	563.54
661.338	559.74
661.749	554.05
662.159	547.06
662.57	542.09
662.981	537.9
663.392	532.63
663.803	533.96
664.213	530.65
664.624	525
665.035	525.4
665.445	515.31
665.855	509.41
666.266	504.08
666.676	501.11
667.086	494.57
667.497	493.87
667.907	488.39
668.317	481.67
668.727	481.09
669.137	481.72
669.547	479.86
669.956	480.86
670.366	481.51
670.776	482.33
671.186	485.46
671.595	488.87
672.005	490.15
672.414	491.33
672.824	491.65
673.233	492.52
673.642	495.46
674.052	498.32
674.461	500.75
674.87	504.46
675.279	504.01
675.688	504.82
676.097	505.97
676.506	505.27
676.915	514.47
677.323	516.64
677.732	517.31
678.141	516.87
678.549	510.22
678.958	510.4
679.366	510.72
679.775	514.87
680.183	523.98
680.592	529.99
681	535.35
681.408	532.61
681.816	538.53
682.224	545.02
682.632	554.73
683.04	577.26
683.448	596.29
683.856	620.48
684.264	647.53
684.671	672.32
685.079	702.05
685.487	735.79
685.894	782.44
686.302	822.2
686.709	856.57
687.116	895.63
687.524	930.85
687.931	962.22
688.338	988.8
688.745	1011.5
689.152	1038.99
689.559	1076.01
689.966	1113.56
690.373	1135.4
690.78	1172.57
691.187	1226.72
691.593	1270
692	1308.16
692.407	1362.82
692.813	1430.56
693.22	1489.01
693.626	1547.02
694.032	1595.19
694.439	1665.98
694.845	1723.6
695.251	1794.13
695.657	1859.01
696.063	1952.72
696.469	2025.13
696.875	2093.63
697.281	2136.6
697.687	2185.49
698.093	2230.46
698.498	2306.09
698.904	2366.4
699.31	2453.44
699.715	2519.05
700.12	2610.44
700.526	2634.15
700.931	2706.47
701.337	2762.04
701.742	2802.01
702.147	2886.57
702.552	2923.37
702.957	2987.02
703.362	3013.85
703.767	3049.83
704.172	3094.34
704.577	3057.48
704.981	3110.9
705.386	3133.11
705.791	3133.51
706.195	3211.84
706.6	3229.23
707.004	3310.44
707.408	3291.29
707.813	3324.54
708.217	3316.94
708.621	3325.89
709.025	3426.25
709.43	3433.56
709.834	3497.03
710.237	3568.61
710.641	3559.07
711.045	3586.22
711.449	3587.67
711.853	3619.54
712.256	3663.88
712.66	3708.31
713.064	3786.29
713.467	3832.11
713.87	3946.37
714.274	3995.45
714.677	4108.65
715.08	4270.48
715.484	4438.21
715.887	4641.1
716.29	4840.84
716.693	5051.54
717.096	5293.59
717.499	5427.97
717.901	5460.34
718.304	5492.11
718.707	5524.94
719.109	5432.58
719.512	5407.68
719.915	5281.66
720.317	5229.98
720.719	5277.58
721.122	5254.42
721.524	5205.14
721.926	5169.65
722.328	5270.43
722.731	5265.02
723.133	5295.12
723.535	5489.93
723.937	5510.56
724.338	5565.51
724.74	5609.89
725.142	5552.03
725.544	5550.18
725.945	5584.28
726.347	5583.74
726.748	5579.71
727.15	5595.94
727.551	5563.48
727.952	5537.03
728.354	5513.15
728.755	5514.56
729.156	5475.69
729.557	5465.07
729.958	5347.13
730.359	5290.47
730.76	5273.75
731.161	5215.18
731.562	5192.63
731.962	5195.35
732.363	5131.35
732.763	5070.51
733.164	5109.14
733.564	5041.95
733.965	4947.36
734.365	4915.02
734.766	4945.85
735.166	4907.87
735.566	4855.34
735.966	4829.45
736.366	4824.41
736.766	4764.22
737.166	4795.86
737.566	4756.97
737.966	4731.8
738.365	4771.3
738.765	4767.47
739.165	4693.18
739.564	4668.72
739.964	4715.33
740.363	4672.46
740.763	4671.23
741.162	4661.55
741.561	4628.83
741.96	4581.54
742.36	4603.41
742.759	4610.39
743.158	4648.68
743.557	4663.21
743.955	4703.02
744.354	4657.24
744.753	4714.02
745.152	4673.97
745.55	4730.41
745.949	4728.35
746.348	4731.38
746.746	4749.13
747.144	4708.55
747.543	4686.2
747.941	4738.15
748.339	4668.31
748.737	4661.28
749.136	4652.19
749.534	4718.04
749.932	4690.65
750.33	4713.98
750.727	4771.61
751.125	4748.68
751.523	4734.71
751.921	4779.42
752.318	4744.04
752.716	4803.86
753.113	4818.16
753.511	4843.44
753.908	4844.39
754.305	4829.17
754.703	4890.78
755.1	4949.01
755.497	5007.86
755.894	5195.23
756.291	5372.38
756.688	5700.48
757.085	6138.3
757.482	6754.53
757.878	7431.01
758.275	8037.32
758.672	8871.23
759.068	9547.92
759.465	10520.54
759.861	11773.26
760.258	13225.26
760.654	13973.79
761.05	13860.59
761.447	13223.38
761.843	12310.17
762.239	11358.55
762.635	10933.55
763.031	10523.49
763.427	9930.63
763.822	9309.75
764.218	8699.62
764.614	7908.28
765.01	7379.7
765.405	7038.08
765.801	6778.06
766.196	6444.22
766.592	6261.2
766.987	5946.69
767.382	5734.24
767.778	5651.32
768.173	5521.68
768.568	5447.02
768.963	5323.9
769.358	5340.82
769.753	5293.36
770.148	5212.14
770.542	5213.98
770.937	5178.86
771.332	5270.55
771.726	5289.46
772.121	5223.93
772.515	5278.3
772.91	5265.85
773.304	5337.23
773.699	5269.68
774.093	5323.26
774.487	5377.17
774.881	5418.75
775.275	5417.25
775.669	5374.13
776.063	5418.8
776.457	5454.24
776.851	5381.67
777.245	5372.4
777.638	5403.32
778.032	5518.08
778.425	5481.9
778.819	5523.01
779.212	5480.17
779.606	5439.18
779.999	5458.89
780.392	5441.6
780.786	5521.32
781.179	5541.03
781.572	5584.74
781.965	5599.35
782.358	5543.1
782.751	5599.57
783.143	5551.89
783.536	5625.41
783.929	5670.83
784.322	5785.76
784.714	5818.26
785.107	5817.48
785.499	5890.27
785.891	5868.34
786.284	5850.87
786.676	5990.35
787.068	5971.76
787.46	6020.4
787.852	6041.02
788.245	6124.53
788.636	6155.77
789.028	6220.57
789.42	6260.3
789.812	6271.16
790.204	6366.7
790.595	6464.11
790.987	6271.63
791.378	6294.52
791.77	6425.87
792.161	6559.13
792.553	6616.46
792.944	6504.55
793.335	6439.9
793.726	6513.71
794.117	6601.52
794.508	6737.89
794.899	6709.92
795.29	6851.33
795.681	6910.3
796.072	6769.68
796.463	6589.66
796.853	6602.01
797.244	6759.44
797.634	6793.39
798.025	6789.96
798.415	6803.65
798.806	6891.76
799.196	6977.73
799.586	7029.85
799.976	6991.91
800.366	7224.19
800.756	7460.71
801.146	7422.01
801.536	7452.15
801.926	7526.62
802.316	7551.64
802.706	7625.7
803.095	7509.84
803.485	7607.41
803.874	7650.19
804.264	7909.86
804.653	7883
805.043	8027.22
805.432	8133.23
805.821	8138.15
806.21	8160.95
806.599	8287.39
806.988	8333.06
807.377	8440.69
807.766	8576.96
808.155	8862.06
808.544	8604.9
808.933	8625.43
809.321	8610.77
809.71	8914.7
810.098	9075.12
810.487	9539.57
810.875	10024.13
811.264	10047.3
811.652	10337.63
812.04	10485.04
812.428	10650.75
812.816	11412.71
813.204	11831.21
813.592	12384.78
813.98	12714.76
814.368	12621.32
814.756	13099.93
815.144	13013.68
815.531	13485.14
815.919	13411.75
816.306	13717.92
816.694	13412.99
817.081	13469.75
817.469	13820.23
817.856	13817.57
818.243	14092.32
818.63	14487.53
819.017	14067.73
819.404	14129.97
819.791	14518.68
820.178	15134.99
820.565	15398.39
820.952	16330.59
821.339	15832.63
821.725	16011.95
822.112	15264.47
822.498	15232.79
822.885	15361.49
823.271	15270.92
823.657	15697.22
824.044	15692.84
824.43	15768.38
824.816	15732.52
825.202	15293.58
825.588	16323.8
825.974	16349.52
826.36	16866.51
826.746	16890.77
827.132	17250.35
827.517	17224.4
827.903	16435.33
828.289	16475.56
828.674	15691.14
829.06	15581.86
829.445	15977.31
829.83	16321.31
830.216	16787.57
830.601	17155.34
830.986	16745.49
831.371	16604.41
831.756	17155.79
832.141	16723.94
832.526	16709.37
832.911	16989.55
833.295	16874.13
833.68	17344.71
834.065	16719.62
834.449	15806.26
834.834	15730.63
835.218	15724.57
835.603	16057.72
835.987	15845.83
836.371	16673.71
836.755	16574.51
837.139	16977.19
837.524	17207.01
837.908	17017.69
838.291	17080.73
838.675	17151.44
839.059	17350.8
839.443	17332.28
839.827	17100.65
840.21	17570.03
840.594	17421.51
840.977	17625.33
841.361	17602.84
841.744	17965.46
842.127	17814.64
842.511	18056.86
842.894	18637.18
843.277	19018.81
843.66	19555.35
844.043	19639.32
844.426	18843.15
844.809	18534.81
845.191	18563.4
845.574	18099.31
845.957	17749.36
846.339	17642
846.722	17121.13
847.104	17193.09
847.487	17023.57
847.869	17035.61
848.252	17311.8
848.634	17633.13
849.016	17894.58
849.398	18013.73
849.78	18862.77
850.162	18877.11
850.544	19286.82
850.926	19911.78
851.307	19822.67
851.689	20097.83
852.071	20555.38
852.452	20876.52
852.834	20866.02
853.215	21254.8
853.597	21411.7
853.978	21705.34
854.359	22137.61
854.741	21151.3
855.122	21053.64
855.503	20768.38
855.884	20902.85
856.265	20843.56
856.646	20968.12
857.026	20572.24
857.407	20519.24
857.788	20672.12
858.169	20958.48
858.549	20122.1
858.93	20738.67
859.31	20790.53
859.69	20997.48
860.071	20593.75
860.451	20375.71
860.831	19635.24
861.211	20792.17
861.591	21326.28
861.971	21309.01
862.351	21500.32
862.731	21883.12
863.111	22147.42
863.491	22470.52
863.87	23339.22
864.25	23684.75
864.629	23282.02
865.009	23778.97
865.388	24625.11
865.768	26390.43
866.147	26281.63
866.526	24820.59
866.905	25110.67
867.284	26514.13
867.663	25181.14
868.042	24128.56
868.421	24048.28
868.8	24448.88
869.179	24704.78
869.558	23273.88
869.936	21448.53
870.315	21831.98
870.693	22364.62
871.072	24126.28
871.45	22982.78
871.828	23277.04
872.207	24475.02
872.585	24109.68
872.963	24774.14
873.341	23910.72
873.719	23616.15
874.097	23337.6
874.475	23781.44
874.853	24329.73
875.23	23315.23
875.608	24296.63
875.986	26278.28
876.363	25140.28
876.741	25910.48
877.118	25252.67
877.495	26493.4
877.873	26932.38
878.25	28335.61
878.627	27168.63
879.004	27553.66
879.381	27427.56
879.758	26708.87
880.135	24877.11
880.512	26301.93
880.889	25595.15
881.265	25332.02
881.642	25109.13
882.019	25541.17
882.395	25032.95
882.772	26033.09
883.148	24902.27
883.524	24804.3
883.901	24662.4
884.277	25009.81
884.653	24835.42
885.029	25561.11
885.405	28298.9
885.781	28096.58
886.157	26927.56
886.532	27249.59
886.908	27220.81
887.284	30255.21
887.659	31231.3
888.035	32187.68
888.411	33018.1
888.786	33461.65
889.161	34607.38
889.537	33955.52
889.912	35033.06
890.287	35004.52
890.662	35895.56
891.037	35246.23
891.412	32866.2
891.787	32527.27
892.162	31392.61
892.536	32126.94
892.911	30927.43
893.286	30278.85
893.66	29059.99
894.035	29796.15
894.409	32445.46
894.784	31144.12
895.158	31667.63
895.532	33538.56
895.906	34449.06
896.281	35240.55
896.655	34666.42
897.029	39613.35
897.402	41240.41
897.776	45913.83
898.15	45767.68
898.524	45259.04
898.898	45837.41
899.271	51293.41
899.645	44428.74
900.018	42688.64
900.392	44296.28
900.765	44648.31
901.138	41289.22
901.511	40653.97
901.884	37318.85
902.258	34425.38
902.631	35559.22
903.003	40933.42
903.376	36960.06
903.749	41443.15
904.122	44355.76
904.495	48843.55
904.867	49458.6
905.24	42974.16
905.612	39995.93
905.985	40904.48
906.357	42746.41
906.729	40817.39
907.102	34869.01
907.474	33516.5
907.846	33729.17
908.218	33289.06
908.59	29400.37
908.962	28447.77
909.334	30619.95
909.705	32173.32
910.077	31234.24
910.449	32515.51
910.82	33425.05
911.192	36766.37
911.563	38201.55
911.935	40868.64
912.306	40930.73
912.677	42266.86
913.048	41841.83
913.419	45401.95
913.79	45674.38
914.161	48986.08
914.532	46833.93
914.903	43055.24
915.274	40903.83
915.645	40310.38
916.015	35480.65
916.386	33824.48
916.756	36018.61
917.127	37165.43
917.497	33212.18
917.868	36148.95
918.238	34353.3
918.608	35339.64
918.978	36066.53
919.348	38206.92
919.718	39489.03
920.088	38052.4
920.458	39528.27
920.828	41568.37
921.198	39392.67
921.567	42073.59
921.937	32593.6
922.306	32897.23
922.676	35462.97
923.045	29569.3
923.415	28090.63
923.784	25591.21
924.153	26322.69
924.522	26311.93
924.891	24754.31
925.26	26525.13
925.629	25897.49
925.998	29757.24
926.367	29069.45
926.736	27688.54
927.104	33003.84
927.473	35498.47
927.842	42861.71
928.21	42426.55
928.578	44560.77
928.947	42139.46
929.315	42402.44
929.683	49728.45
930.051	50148.88
930.42	58223.32
930.788	49786.59
931.156	49383.4
931.523	46262.5
931.891	42736.26
932.259	41037.81
932.627	47563.56
932.994	67292.53
933.362	55594.44
933.729	48277.98
934.097	46191.12
934.464	39078.39
934.831	45082
935.199	44453.31
935.566	43082.25
935.933	43585.89
936.3	52794.25
936.667	41089.81
937.034	37060.15
937.401	36661.52
937.767	31650.86
938.134	28167.95
938.501	39713.14
938.867	42318.45
939.234	71575.52
939.6	61073.08
939.967	67396.94
940.333	45116.44
940.699	38447.59
941.065	30838.82
941.431	40442.8
941.798	38990.44
942.163	51263.63
942.529	32016.46
942.895	29484.28
943.261	19076.12
943.627	25053.98
943.992	21966.24
944.358	22025.19
944.723	22124.67
945.089	21587.15
945.454	19946.54
945.82	21298.88
946.185	20473.03
946.55	23763.6
946.915	21311.36
947.28	24973.67
947.645	21998.37
948.01	20302.46
948.375	21162.35
948.74	25337.1
949.104	29575.06
949.469	42711.99
949.834	75506.36
950.198	71509.97
950.562	42819.34
950.927	35670.12
951.291	42970.57
951.655	36598.11
952.02	34398.72
952.384	26013.18
952.748	22646.21
953.112	22075.62
953.476	19193.87
953.839	17751.36
954.203	17572.3
954.567	21990.93
954.931	34637.91
955.294	29601.11
955.658	29732.02
956.021	50547.78
956.385	85705.14
956.748	126492.48
957.111	196139.21
957.474	220134.67
957.837	247642.21
958.2	187411.44
958.563	67379.74
958.926	45585.32
959.289	69232.45
959.652	77424.09
960.015	58090.37
960.377	83277.52
960.74	95042.67
961.102	164037.75
961.465	176193.98
961.827	94293.63
962.189	180766.18
962.552	125276.48
962.914	100338.3
963.276	65016.93
963.638	53706.21
964	53081.18
964.362	35955.53
964.724	34749.16
965.085	24780.79
965.447	20305.43
965.809	23170.91
966.17	23220.87
966.532	25118.94
966.893	23050.63
967.255	20994.64
967.616	24789.46
967.977	19872.59
968.338	21674.14
968.699	17815.48
969.061	17815.9
969.421	17938.24
969.782	20130.93
970.143	17000.02
970.504	17624.65
970.865	20023.84
971.225	20470.98
971.586	20044.26
971.946	28568.55
972.307	24789.58
972.667	32379.72
973.027	33340.81
973.388	40430.37
973.748	27507.75
974.108	29957.56
974.468	40497.22
974.828	31245.33
975.188	24039.02
975.548	22069.98
975.907	18534.91
976.267	20787.38
976.627	17472.85
976.986	18115.46
977.346	17259.21
977.705	16611.98
978.064	15117.78
978.424	12583.58
978.783	13004.98
979.142	14851.25
979.501	14214.13
979.86	15027.08
980.219	14472.26
980.578	18645.09
980.937	20876.35
981.296	18611.56
981.654	19113.45
982.013	29750.64
982.371	38579.91
982.73	36049.94
983.088	40841.32
983.447	43598.68
983.805	62270.23
984.163	130234.33
984.521	144559.71
984.879	211670.52
985.237	-344526.27
985.595	332193.57
985.953	82531.26
986.311	47705.46
986.669	27686.03
987.026	23849.69
987.384	32044.6
987.741	33156.9
988.099	23704.85
988.456	18917.48
988.814	17734.29
989.171	15417.63
989.528	15235.46
989.885	16091.37
990.242	12738.94
990.599	15862.64
990.956	12987.22
991.313	9091.38
991.67	7459.57
992.027	7920.36
992.383	7046.38
992.74	6183.14
993.096	6481.98
993.453	6719
993.809	6968.15
994.165	9282.24
994.522	8511.26
994.878	9388.65
995.234	11759.9
995.59	11605.77
995.946	10978.44
996.302	12515.35
996.658	14455.64
997.013	15946.02
997.369	18907.04
997.725	24229.63
998.08	15688.32
998.436	24211.89
998.791	33400.11
999.147	33409.8
999.502	36385.7
999.857	26448.26
1000.212	43088.17
1000.567	61454.96
1000.922	35422.79
1001.277	22458.9
1001.632	16670.76
1001.987	21488.29
1002.342	15431.91
1002.696	12309.75
1003.051	9807.37
1003.406	11906.01
1003.76	11830.36
1004.114	11680.57
1004.469	9812.9
1004.823	8130
1005.177	8790.65
1005.531	6951.24
1005.885	6167.47
1006.239	6957.29
1006.593	8746.97
1006.947	11726.38
1007.301	8789.78
1007.655	9598.23
1008.008	7035.88
1008.362	7900.22
1008.715	11301.51
1009.069	10267.35
1009.422	15482.53
1009.776	31084.81
1010.129	20628.58
1010.482	17198.66
1010.835	14531.11
1011.188	30180.1
1011.541	28398.9
1011.894	-173690.61
1012.247	511638.4
1012.6	34596.17
1012.952	21808.32
1013.305	11221.37
1013.657	8064.04
1014.01	7636.53
1014.362	6329.62
1014.715	5630.54
1015.067	4929.91
1015.419	4807.61
1015.771	4248.42
1016.123	3769.33
1016.475	3879.58
1016.827	4126.29
1017.179	4433.85
1017.531	4482.85
1017.883	4552.95
1018.234	4371.4
1018.586	5516.24
1018.938	5837.94
1019.289	8063.24
1019.64	9228.78
1019.992	8604.79
1020.343	7889.26
1020.694	6241.59
1021.045	5517.18
1021.396	6282.28
1021.747	6779.22
1022.098	8179.44
1022.449	5931.44
1022.8	5501.28
1023.151	3852.69
1023.501	3431.03
1023.852	3726.75
1024.202	3857.87
1024.553	4228.03
1024.903	4127.57
1025.253	3543.15
1025.604	3181.8
1025.954	3934.17
1026.304	4800.17
1026.654	5601.1
1027.004	8155.7
1027.354	13138
1027.703	12379.62
1028.053	16365.03
1028.403	23992.19
1028.753	34683.95
1029.102	47083.15
1029.452	242211.65
1029.801	10460.38
1030.15	6736.74
1030.499	5678.53
897.758	2744.55
901.051	2707.43
904.343	2742.13
907.636	2742.74
910.928	2806.46
914.22	2714.63
917.511	2723.44
920.803	2786.44
924.094	2810.49
927.384	2786.23
930.675	2751.03
933.965	2704.1
937.255	2707.9
940.544	2676.52
943.834	2605.72
947.123	2553.45
950.411	2649.71
953.7	2621.81
956.988	2592.93
960.276	2531.67
963.563	2616.37
966.851	2609.69
970.138	2670.84
973.424	2663.86
976.711	2610.17
979.997	2757.51
983.283	2789.77
986.568	2692.51
989.853	2712.85
993.138	2737.67
996.423	2823.43
999.708	2755.26
1002.992	2826.43
1006.275	2647.81
1009.559	2701.36
1012.842	2822.39
1016.125	2750.19
1019.408	2727.01
1022.69	2819.09
1025.972	2834.09
1029.254	2808.45
1032.536	2734.44
1035.817	2766.95
1039.098	2704.1
1042.379	2865.3
1045.659	2857.47
1048.939	2785.72
1052.219	2811.6
1055.498	2827.35
1058.778	2810.45
1062.057	2795.41
1065.335	2815.81
1068.614	2838.65
1071.892	2821
1075.17	2898.19
1078.447	2885.31
1081.724	2876.58
1085.001	2918.5
1088.278	2889.57
1091.554	2901.84
1094.83	2898.11
1098.106	2927.38
1101.382	2973.89
1104.657	2972.32
1107.932	2968
1111.206	2933.79
1114.481	2890.02
1117.755	2892.61
1121.029	2867.54
1124.302	2921.08
1127.575	2871.92
1130.848	2858.54
1134.121	2818
1137.393	2767.99
1140.665	2835.19
1143.937	2807.56
1147.208	2768.87
1150.48	2807.25
1153.75	2794.12
1157.021	2829.97
1160.291	2798.17
1163.561	2844.62
1166.831	2836.23
1170.101	2868.96
1173.37	2842.41
1176.639	2784.95
1179.907	2847.74
1183.176	2851.92
1186.444	2859.1
1189.711	2887.19
1192.979	2901.31
1196.246	2856.42
1199.513	2871.84
1202.78	2868.72
1206.046	2878.61
1209.312	2904.34
1212.578	2933.72
1215.843	2881.17
1219.108	2853.13
1222.373	2877.99
1225.638	2838.57
1228.902	2818.33
1232.166	2786.27
1235.43	2768.04
1238.693	2792.2
1241.956	2790.56
1245.219	2828.88
1248.482	2820.25
1251.744	2814.85
1255.006	2972.24
1258.268	2929.56
1261.529	2871.61
1264.79	2879.08
1268.051	2980.51
1271.312	3000.74
1274.572	2964.18
1277.832	2949.87
1281.092	2944.15
1284.351	2914.47
1287.61	2890.45
1290.869	2804.56
1294.128	2775.1
1297.386	2870.35
1300.644	2861.23
1303.902	2875.67
1307.159	2728.13
1310.416	2783.4
1313.673	2811.26
1316.93	2793.13
1320.186	2839.97
1323.442	2887.97
1326.697	2869.48
1329.953	2865.28
1333.208	2889.31
1336.463	2867.54
1339.717	2803.3
1342.972	2947.06
1346.226	2920.26
1349.479	2849.17
1352.733	2816.7
1355.986	2846.24
1359.238	2819.36
1362.491	2824.6
1365.743	2824.26
1368.995	2817.96
1372.247	2832.64
1375.498	2860.08
1378.749	2868.21
1382	2823.92
1385.251	2880.78
1388.501	2844.38
1391.751	2822.82
1395	2795.13
1398.25	2829.95
1401.499	2835.62
1404.748	2759.27
1407.996	2749.3
1411.244	2731.86
1414.492	2713.33
1417.74	2694.05
1420.987	2703.61
1424.234	2760.2
1427.481	2742.43
1430.728	2802.49
1433.974	2773.89
1437.22	2791.42
1440.465	2792.92
1443.711	2750.59
1446.956	2790.56
1450.201	2777.12
1453.445	2821.5
1456.689	2799.18
1459.933	2811
1463.177	2846.8
1466.42	2817.43
1469.663	2799.44
1472.906	2792.04
1476.148	2878.36
1479.391	2829.52
1482.633	2798.89
1485.874	2812.23
1489.115	2794.57
1492.356	2805.19
1495.597	2779.13
1498.838	2781
1502.078	2748.17
1505.318	2693.3
1508.557	2737.85
1511.797	2702.85
1515.036	2789.22
1518.274	2779.56
1521.513	2751.17
1524.751	2774.21
1527.989	2783.9
1531.227	2798.89
1534.464	2787.77
1537.701	2812.57
1540.938	2831.67
1544.174	2784.62
1547.41	2785.05
1550.646	2822.84
1553.882	2855.16
1557.117	2912.55
1560.352	2930.06
1563.587	2884.65
1566.821	2842.18
1570.055	2882.36
1573.289	2849.45
1576.523	2930.52
1579.756	2936.35
1582.989	2956.56
1586.222	2915.61
1589.454	2955.83
1592.686	2927.27
1595.918	2950.43
1599.15	2938.08
1602.381	3020.47
1605.612	2969.78
1608.843	3069.75
1612.073	2977.21
1615.303	2961.34
1618.533	2951.79
1621.762	2954.6
1624.992	2945.09
1628.221	2928.5
1631.449	2915.34
1634.678	2973.71
1637.906	2924.48
1641.134	2964.8
1644.361	2919.68
1647.588	2908.38
1650.815	2922.68
1654.042	2902.7
1657.269	2935.87
1660.495	2881.89
1663.72	2894.32
1666.946	2859.61
1670.171	2799.2
1673.396	2773.33
1676.621	2762.91
1679.845	2786.61
1683.069	2810.74
1686.293	2859.01
1689.517	2825.92
1692.74	2748.73
1695.963	2783.09
1699.185	2806.42
1702.408	2778.42
1705.63	2825.78
1708.852	2836.35
1712.073	2810.12
1715.294	2790.35
1718.515	2853
1721.736	2796.59
1724.956	2794.04
1728.176	2822.37
1731.396	2843.2
1734.616	2832.55
1737.835	2859.57
1741.054	2837.01
1744.272	2830.99
1747.491	2860.86
1750.709	2921.22
1753.927	2818.6
1757.144	2866.3
1760.361	2907.49
1763.578	2902.46
1766.795	2841.48
1770.011	2850.34
1773.227	2894.14
1776.443	2928.1
1779.658	2976.59
1782.874	2918.45
1786.089	2892.2
1789.303	2896.33
1792.518	2902.12
1795.732	2887.69
1798.945	2896.19
1802.159	2947.75
1805.372	2842.01
1808.585	2826.69
1811.797	2830.26
1815.01	2880.99
1818.222	2878.29
1821.434	2841.94
1824.645	2904.94
1827.856	2885.21
1831.067	2922.89
1834.278	2880.57
1837.488	2866.35
1840.698	3023.28
1843.908	2941.64
1847.117	2902.38
1850.326	2776.86
1853.535	2892.58
1856.744	2928.1
1859.952	2838.86
1863.16	2840.63
1866.368	2866.92
1869.575	2971.37
1872.782	2850.25
1875.989	2790.9
1879.196	2882.2
1882.402	2876.11
1885.608	2919.72
1888.814	2811.94
1892.019	2704.01
1895.224	2757.79
1898.429	2739.3
1901.634	2714.61
1904.838	2693.09
1908.042	2744.94
1911.246	2748.53
1914.449	2673.72
1917.652	2670.36
1920.855	2652.67
1924.058	2707.73
1927.26	2743.2
1930.462	2769.89
1933.664	2797.83
1936.865	2729.24
1940.066	2734.97
1943.267	2682.61
1946.467	2700.48
1949.668	2730.52
1952.868	2798.03
1956.067	2774.13
1959.267	2700.58
1962.466	2730.45
1965.665	2716.01
1968.863	2708.29
1972.061	2729.94
1975.259	2731.81
1978.457	2810.18
1981.654	2766.68
1984.852	2766.13
1988.048	2697.82
1991.245	2702.53
1994.441	2790.68
1997.637	2780
2000.833	2762.23
2004.028	2804.93
2007.223	2856.87
2010.418	2830.17
2013.613	2795.34
2016.807	2762.37
2020.001	2770.05
2023.194	2817.79
2026.388	2794.77
2029.581	2739.29
2032.774	2786.5
2035.966	2792.92
2039.158	2718.43
2042.35	2748.15
2045.542	2674.67
2048.733	2779.09
2051.924	2805.46
2055.115	2838.87
2058.306	2777.26
2061.496	2836.61
2064.686	2905.16
2067.875	2819.22
2071.065	2834.22
2074.254	2865.25
2077.442	2816.17
2080.631	2909.78
2083.819	2792.5
2087.007	2775.38
2090.195	2742.2
2093.382	2779.08
2096.569	2756.92
2099.756	2708.77
2102.942	2730.45
2106.128	2736.04
2109.314	2727.6
2112.5	2686.87
2115.685	2660.92
2118.87	2672.54
2122.055	2736.39
2125.239	2699.47
2128.424	2673.3
2131.608	2785.49
2134.791	2765.56
2137.974	2827.68
2141.157	2810.59
2144.34	2758.92
2147.523	2778.23
2150.705	2792.23
2153.887	2771.09
2157.068	2717.85
2160.25	2724.38
2163.431	2765.34
2166.611	2704.64
2169.792	2721.73
2172.972	2610.43
2176.152	2694.92
2179.331	2732.49
2182.511	2711.07
2185.69	2741.84
2188.868	2732.3
2192.047	2794.41
2195.225	2779.35
2198.403	2726.39
2201.58	2721.84
2204.758	2717.27
2207.935	2805.44
2211.111	2689.7
2214.288	2669.5
2217.464	2709.96
2220.64	2683.79
2223.815	2744.66
2226.991	2660.41
2230.166	2682.46
2233.34	2709.83
2236.515	2739.86
2239.689	2814.48
2242.863	2755.47
2246.036	2810.11
2249.209	2816.72
2252.382	2853.94
2255.555	2837.21
2258.727	2770.57
2261.9	2813.12
2265.071	2802.86
2268.243	2808.85
2271.414	2732.07
2274.585	2690.89
2277.756	2758.63
2280.926	2716.07
2284.096	2757.26
2287.266	2659.98
2290.436	2719.22
2293.605	2750.27
2296.774	2780.48
2299.942	2804.7
2303.111	2819.17
2306.279	2869.26
2309.447	2854.77
2312.614	2832.12
2315.781	2850.58
2318.948	2817.96
2322.115	2859.55
2325.281	2760.21
2328.447	2780.49
2331.613	2755.61
2334.779	2724.96
2337.944	2731.37
2341.109	2727.62
2344.274	2711.36
2347.438	2671.82
2350.602	2697.88
2353.766	2717.89
2356.929	2701.01
2360.092	2743.33
2363.255	2693.79
2366.418	2619.59
2369.58	2742.72
2372.742	2512.33
2375.904	2530.68
2379.066	2503.42
2382.227	2546.73
2385.388	2507.85
2388.548	2426.11
2391.709	2485.21
2394.869	2462.33
2398.029	2568.98
2401.188	2585.84
2404.347	2514.12
2407.506	2668.25
2410.665	2697.26
2413.823	2705.33
2416.981	2656.62
2420.139	2691.29
2423.296	2745.56
2426.453	2719.7
2429.61	2741.8
2432.767	2669.79
2435.923	2707.51
2439.079	2669.1
2442.235	2718.34
2445.391	2643.1
2448.546	2671.78
2451.701	2724.14
2454.855	2692.43
2458.009	2748.52
2461.163	2751.72
2464.317	2711.37
2467.471	2745.3
2470.624	2789.63
2473.777	2758.77
2476.929	2772.25
2480.082	2798.29
2483.234	2760.58
2486.385	2714.91
2489.537	2706.94
2492.688	2663.34
2495.839	2679.23
2498.989	2691.67
2502.14	2676.07
2505.29	2653.24
2508.439	2680.86
2511.589	2602.22
2514.738	2615.68
2517.887	2648.32
2521.035	2711.02
2524.183	2699.3
2527.331	2677.22
2530.479	2648.62
2533.627	2658.3
