Data from C_3_DEC_CT_2N_Splice17_13-00-43-563.txt Node
Date: Sat Mar 14 13:00:43 EDT 2020
User: sa697716
Spectrometer: FLMS03696
Trigger mode: 0
Integration Time (sec): 3.180400E-1
Scans to average: 20
Electric dark correction enabled: true
Nonlinearity correction enabled: true
Boxcar width: 5
XAxis mode: Wavelengths
Number of Pixels in Spectrum: 2048
>>>>>Begin Spectral Data<<<<<
187.83	-350564.83
188.298	2500.57
188.766	1348.26
189.233	1160.88
189.701	1611.33
190.169	2210.07
190.636	761.93
191.104	552.7
191.571	48.16
192.039	-153.77
192.506	-99.76
192.974	532.78
193.441	-806.05
193.908	-244.15
194.375	-103.51
194.842	-80.59
195.31	-57.94
195.777	81.93
196.244	321.05
196.711	505.72
197.177	661.51
197.644	997.04
198.111	1750.99
198.578	2488.74
199.045	2036.94
199.511	3309.12
199.978	3921.26
200.445	3339.62
200.911	3721.39
201.378	4174.66
201.844	3771.9
202.31	6465.89
202.777	6724.89
203.243	3737.49
203.709	3553.44
204.176	4200.02
204.642	3482.28
205.108	3244.67
205.574	2651.48
206.04	2427.37
206.506	2279.44
206.972	2169.56
207.438	2106.34
207.903	2398.49
208.369	2119.65
208.835	2115.82
209.301	2232.99
209.766	2313.98
210.232	2301.25
210.697	2871.99
211.163	3586.58
211.628	5494.86
212.094	4629.38
212.559	5674.55
213.024	3561.81
213.49	4339.98
213.955	4278.75
214.42	4245.4
214.885	3957.01
215.35	3828.45
215.815	3694.99
216.28	3958.87
216.745	3268.57
217.21	3580.38
217.675	3402.14
218.14	3934.83
218.604	4535.78
219.069	5317.32
219.534	5697.41
219.998	6811.2
220.463	8455.62
220.927	10691.43
221.392	10226.05
221.856	10471.07
222.32	13430.56
222.785	16684.29
223.249	21165.98
223.713	23817.82
224.177	23968.73
224.642	30973.53
225.106	38306.46
225.57	42037.82
226.034	31314.26
226.497	47823.9
226.961	43260.08
227.425	50470.12
227.889	56259.42
228.353	56489.93
228.816	116982.8
229.28	111939.56
229.744	94584.85
230.207	57446.38
230.671	56594.97
231.134	93907.39
231.597	108293.64
232.061	108575.8
232.524	106056.94
232.987	73163.02
233.45	65868.44
233.914	59084.16
234.377	60793.35
234.84	55699.38
235.303	65806.97
235.766	73495.15
236.229	76026.89
236.691	47987.62
237.154	54010.27
237.617	40624.43
238.08	41625.47
238.542	48736.91
239.005	34888.36
239.468	34586.51
239.93	32581.37
240.393	29643.79
240.855	26026.58
241.317	26678.64
241.78	32504.34
242.242	33583.3
242.704	36249.16
243.166	31556.37
243.629	28640.83
244.091	33025.06
244.553	36229.69
245.015	38974.8
245.477	50458.6
245.939	74064.73
246.4	78628.47
246.862	76427.52
247.324	72123.99
247.786	80871.76
248.247	106269.19
248.709	109951.28
249.17	82307.07
249.632	77521.49
250.093	89906.6
250.555	77717.42
251.016	47426.82
251.477	45017.13
251.939	48625.6
252.4	51100.87
252.861	60853.92
253.322	56595.21
253.783	67471.29
254.244	87591.1
254.705	69203.08
255.166	61664.34
255.627	60807.13
256.088	85826.87
256.549	91246.93
257.009	78638.16
257.47	95560.77
257.931	77921.39
258.391	58461.3
258.852	60345.07
259.312	63355.72
259.773	78367.96
260.233	66196.86
260.694	55851.6
261.154	63444.73
261.614	50939.41
262.074	45665.86
262.534	47461.47
262.994	44779.5
263.455	59808.53
263.915	50459.7
264.374	47616.92
264.834	52103.65
265.294	57937.99
265.754	60111.14
266.214	57032.06
266.673	53554.7
267.133	67675.5
267.593	67304.78
268.052	82504.71
268.512	71857.4
268.971	86685.4
269.431	95094.85
269.89	85238.69
270.349	127887.18
270.809	142724.01
271.268	128385.41
271.727	288536.37
272.186	187110.23
272.645	140438.51
273.104	101464.3
273.563	147050.4
274.022	115925.67
274.481	98719.22
274.94	76065.09
275.399	56595.44
275.857	65988.96
276.316	89383.09
276.775	79523.06
277.233	78345.22
277.692	73315.65
278.15	82929.45
278.609	85212.76
279.067	78850.49
279.525	73201.97
279.984	94662.77
280.442	113758.69
280.9	112017.02
281.358	73618.1
281.816	68628.88
282.274	67193.58
282.732	69497.12
283.19	69867.66
283.648	60366.38
284.106	64329.36
284.564	65517.44
285.021	60694.18
285.479	45252.09
285.937	41258.98
286.394	36193.92
286.852	37272.68
287.309	39201.05
287.767	37828.91
288.224	35968.49
288.682	39481.76
289.139	43315.71
289.596	39628.86
290.053	41262.62
290.511	52151.34
290.968	63248.43
291.425	86031.39
291.882	71609.9
292.339	62351.46
292.796	61971.71
293.252	58487.51
293.709	46468.58
294.166	41670.31
294.623	46087.8
295.079	44237.81
295.536	44400.3
295.992	40286.79
296.449	39826.63
296.905	41372.3
297.362	39651.33
297.818	41743.36
298.274	43252.87
298.731	44108.5
299.187	43682.24
299.643	46903.41
300.099	56734.94
300.555	62259.53
301.011	52078.97
301.467	50109.99
301.923	58799.28
302.379	57462.92
302.835	56444.12
303.291	56529.33
303.746	64386.51
304.202	81322.23
304.658	81693.26
305.113	54931.27
305.569	53851.68
306.024	57385.44
306.479	54772.34
306.935	46076.39
307.39	50372.63
307.845	46507.99
308.301	46793.21
308.756	45584.46
309.211	43913.66
309.666	44979.01
310.121	55724.04
310.576	56525.04
311.031	56079.37
311.486	64186.09
311.94	64179.7
312.395	85743.53
312.85	161205.85
313.305	792239.51
313.759	4090514.37
314.214	296321.91
314.668	234475.22
315.123	197366.68
315.577	70714.69
316.032	62927.51
316.486	78925.17
316.94	62197.61
317.394	43267.96
317.849	33588.71
318.303	31828.46
318.757	30041
319.211	33205.16
319.665	29108.96
320.119	29469.3
320.572	42316.86
321.026	39538.28
321.48	32868.89
321.934	35910.18
322.387	36011.7
322.841	38925.99
323.295	34911.9
323.748	40307.53
324.202	40852.75
324.655	49026.14
325.108	68403.53
325.562	48283.38
326.015	57386.1
326.468	43393.48
326.921	48485.22
327.374	45156.56
327.827	46911.39
328.28	53083.46
328.733	35479.07
329.186	31227.03
329.639	29738.53
330.092	25065.02
330.545	23831.1
330.997	24010.04
331.45	26189.55
331.903	30627.75
332.355	52699.36
332.808	51240.96
333.26	42297.45
333.713	45894.93
334.165	46173.37
334.617	61672.6
335.069	49865.42
335.522	90248.73
335.974	99763.07
336.426	91166.23
336.878	63216.99
337.33	32033.83
337.782	31286.44
338.234	39104.59
338.686	46811.34
339.137	55472.68
339.589	52215.5
340.041	40900.52
340.493	35136.06
340.944	36000.39
341.396	38756.15
341.847	32563.91
342.299	38373.38
342.75	46760.43
343.201	40983.48
343.653	47152.64
344.104	58035.88
344.555	45690.29
345.006	71301.28
345.457	54545.21
345.908	43386.7
346.359	40843.51
346.81	33298.16
347.261	35157.27
347.712	34652.88
348.163	37105.78
348.613	37475.45
349.064	34924.79
349.515	30568.64
349.965	31286.33
350.416	37677.92
350.866	41312.08
351.317	46703.24
351.767	77233.2
352.217	97493.09
352.668	80909.91
353.118	74112.17
353.568	71580.44
354.018	56562.34
354.468	59655.35
354.918	42731.98
355.368	37378.22
355.818	52831.33
356.268	152035.33
356.718	635862.36
357.168	158125.81
357.617	79367.62
358.067	88284.88
358.517	82655.54
358.966	96854.41
359.416	108267.74
359.865	117168.72
360.315	139675.89
360.764	65140.5
361.213	36462.7
361.663	34609.28
362.112	42769.5
362.561	69046.68
363.01	52109.35
363.459	43896.56
363.908	47562.53
364.357	40405.37
364.806	68267.12
365.255	46903.3
365.703	42940.29
366.152	42978.08
366.601	34767.28
367.05	28180.84
367.498	25582.13
367.947	26730.32
368.395	27782.91
368.844	24570.7
369.292	29690.37
369.74	20496.25
370.189	31417.81
370.637	36830.35
371.085	31794.7
371.533	38750.94
371.981	37371.22
372.429	35582.49
372.877	37048.82
373.325	31010.62
373.773	31618.21
374.221	28148.82
374.669	34933.29
375.116	30189.28
375.564	30441.51
376.012	34067.82
376.459	28056.68
376.907	33510.14
377.354	40570.11
377.801	37772.73
378.249	43387.55
378.696	55470.18
379.143	67140.67
379.591	71547.18
380.038	120825.05
380.485	87163.06
380.932	93986.61
381.379	85819.98
381.826	63052.23
382.273	44771.76
382.72	39156.88
383.166	38120.51
383.613	24687.29
384.06	22227.46
384.506	25698.3
384.953	18860.83
385.4	18997.22
385.846	16611.25
386.292	16209.99
386.739	15875.91
387.185	15691.86
387.631	15675.49
388.078	15157.04
388.524	16196.79
388.97	14934.31
389.416	12416.28
389.862	13179.05
390.308	12460.58
390.754	12627.53
391.2	13685.81
391.645	13990.28
392.091	13312.22
392.537	12838.97
392.983	12868.17
393.428	12591.95
393.874	13471.79
394.319	13466.94
394.765	12724.83
395.21	13060.46
395.655	12225.53
396.101	11403.3
396.546	10256.24
396.991	10344.71
397.436	9590.62
397.881	9245.01
398.326	8757.48
398.771	8256.25
399.216	7221.01
399.661	6497.61
400.106	6452.9
400.551	6586.58
400.995	5893.25
401.44	5819.92
401.885	5463.13
402.329	5506.61
402.774	5265.18
403.218	5065.51
403.663	4870.68
404.107	4989.42
404.551	5012.28
404.995	4588.68
405.44	4417.93
405.884	4484.52
406.328	4336.55
406.772	4310.29
407.216	3915.42
407.66	3777.64
408.104	3596.85
408.547	3364.52
408.991	3250.04
409.435	3121.72
409.879	3070.66
410.322	3021.83
410.766	2909.89
411.209	2756.5
411.653	2642.76
412.096	2583.66
412.54	2584.03
412.983	2561.07
413.426	2562.01
413.869	2559.7
414.312	2508.67
414.756	2413.68
415.199	2299.7
415.642	2230.31
416.085	2231.34
416.527	2214.26
416.97	2247.97
417.413	2128.94
417.856	2108.43
418.298	2086.76
418.741	2072.92
419.184	2067.94
419.626	2153.1
420.069	2150.46
420.511	2158.55
420.953	2110.86
421.396	2091.06
421.838	2037.29
422.28	2082.79
422.722	2087.67
423.164	2116.45
423.606	2075.58
424.048	2072.61
424.49	1969.52
424.932	1960.05
425.374	1935.63
425.816	1967.03
426.258	2003.77
426.699	2023.86
427.141	1991.5
427.582	2023.59
428.024	2013.81
428.465	2002.32
428.907	1948.29
429.348	1923.4
429.789	1920.99
430.231	1875.12
430.672	1898.03
431.113	1848.4
431.554	1815.79
431.995	1767.59
432.436	1698.66
432.877	1653.28
433.318	1620.41
433.759	1609.61
434.2	1607.41
434.64	1590.82
435.081	1592.45
435.522	1508.57
435.962	1452.18
436.403	1420.74
436.843	1440.57
437.284	1408.48
437.724	1372.98
438.164	1377.85
438.604	1346.71
439.045	1293.58
439.485	1234.59
439.925	1208.5
440.365	1176.35
440.805	1159.12
441.245	1141.72
441.685	1096.79
442.125	1087.36
442.564	1092.55
443.004	1064.15
443.444	1059.84
443.883	1058.81
444.323	1051.76
444.762	1052.07
445.202	1063.72
445.641	1078.75
446.081	1071.76
446.52	1076.58
446.959	1061.16
447.398	1030.72
447.837	1014.92
448.276	995.2
448.716	1001.4
449.154	1006.12
449.593	978.75
450.032	973.84
450.471	954.79
450.91	952.04
451.349	947.61
451.787	942.14
452.226	956.37
452.664	955.68
453.103	955.99
453.541	952.65
453.98	949.44
454.418	954.08
454.856	934.59
455.295	932.76
455.733	938.67
456.171	942.28
456.609	940.94
457.047	936.38
457.485	947.33
457.923	946.85
458.361	932.95
458.798	933.33
459.236	930.75
459.674	936.97
460.111	939.91
460.549	930.51
460.987	926.22
461.424	923.4
461.862	919.63
462.299	904.55
462.736	902.01
463.173	904.16
463.611	894.59
464.048	890.66
464.485	896.56
464.922	887.13
465.359	882.11
465.796	869.02
466.233	861.66
466.67	851.07
467.106	849.17
467.543	841.69
467.98	831.69
468.416	809.39
468.853	803.94
469.29	780.79
469.726	773.2
470.162	752.45
470.599	743.58
471.035	739.07
471.471	722.9
471.907	719.76
472.344	714.76
472.78	716.39
473.216	726.19
473.652	716.9
474.088	715.05
474.523	710.85
474.959	716.3
475.395	709.26
475.831	702.77
476.266	705.89
476.702	703.32
477.138	694.42
477.573	691.31
478.008	687.93
478.444	690.82
478.879	695.69
479.314	698.32
479.75	697.44
480.185	700.2
480.62	705.12
481.055	708.28
481.49	712.23
481.925	721.75
482.36	733.09
482.795	753.1
483.229	771.88
483.664	787.03
484.099	788.51
484.534	799.23
484.968	805.46
485.403	807.79
485.837	805.23
486.271	800.76
486.706	800.57
487.14	790.15
487.574	775.04
488.009	765.96
488.443	758.07
488.877	763.74
489.311	763.97
489.745	770.7
490.179	774.48
490.613	785.1
491.046	790.12
491.48	792.56
491.914	790.02
492.348	793.06
492.781	795.05
493.215	792.8
493.648	791.42
494.082	794.45
494.515	791.28
494.948	796.49
495.382	798.74
495.815	799.81
496.248	803.06
496.681	813.02
497.114	820.37
497.547	826.18
497.98	836.92
498.413	838.44
498.846	843.98
499.279	849.2
499.711	849.17
500.144	846.84
500.577	853.03
501.009	858.89
501.442	864.49
501.874	861.74
502.306	859.27
502.739	861.18
503.171	871.54
503.603	869.69
504.036	873.6
504.468	874.89
504.9	880.39
505.332	882.24
505.764	880.91
506.196	882.18
506.627	891.55
507.059	899.57
507.491	903.66
507.923	897.51
508.354	907.29
508.786	912.69
509.217	924.56
509.649	934.73
510.08	948.29
510.512	960.35
510.943	971.41
511.374	978.66
511.805	994.33
512.237	1008.4
512.668	1034.51
513.099	1056.13
513.53	1078.51
513.961	1094.71
514.391	1121.81
514.822	1149.96
515.253	1180.37
515.684	1201.68
516.114	1227.39
516.545	1246.07
516.975	1270.12
517.406	1286.12
517.836	1289.69
518.267	1296.39
518.697	1314.45
519.127	1319.66
519.558	1327.91
519.988	1333.18
520.418	1344.29
520.848	1361.14
521.278	1371.65
521.708	1398.19
522.138	1412.78
522.567	1443.07
522.997	1469.37
523.427	1485.78
523.857	1503.96
524.286	1515.64
524.716	1532.31
525.145	1552.99
525.575	1566.55
526.004	1582.2
526.433	1570.82
526.863	1573.47
527.292	1567.55
527.721	1575.4
528.15	1583.46
528.579	1587.36
529.008	1601.02
529.437	1625.91
529.866	1641.6
530.295	1659.54
530.724	1674.37
531.152	1702.81
531.581	1718.7
532.01	1737.46
532.438	1748.17
532.867	1764.61
533.295	1784.28
533.723	1791.57
534.152	1791.19
534.58	1792.93
535.008	1779.9
535.436	1783.73
535.865	1792.59
536.293	1808.38
536.721	1824.85
537.149	1850.93
537.576	1854.63
538.004	1868.18
538.432	1875.83
538.86	1874.07
539.287	1880.96
539.715	1896.24
540.143	1899.66
540.57	1896.77
540.998	1894.58
541.425	1873.23
541.852	1853.43
542.28	1852.22
542.707	1837.64
543.134	1825.76
543.561	1823.86
543.988	1818.07
544.415	1818.39
544.842	1813.56
545.269	1807.16
545.696	1809.12
546.123	1822.19
546.549	1811.91
546.976	1800.18
547.403	1799.26
547.829	1803.39
548.256	1806.45
548.682	1803.71
549.108	1797.82
549.535	1798.61
549.961	1802.03
550.387	1789.83
550.813	1786.28
551.24	1793.44
551.666	1796.45
552.092	1788.89
552.518	1781.65
552.943	1776.15
553.369	1783.28
553.795	1788.65
554.221	1789.51
554.646	1786.01
555.072	1796.1
555.498	1800.22
555.923	1808.44
556.349	1821.94
556.774	1829.9
557.199	1830.26
557.625	1834.33
558.05	1828.42
558.475	1836.26
558.9	1834.1
559.325	1825
559.75	1817.23
560.175	1809.45
560.6	1800.84
561.025	1796.65
561.449	1795.1
561.874	1798.54
562.299	1801.3
562.723	1805.79
563.148	1794.4
563.572	1795.87
563.997	1802.77
564.421	1805.76
564.846	1803.12
565.27	1804.39
565.694	1800.53
566.118	1807.67
566.542	1812.24
566.966	1801.84
567.39	1793.56
567.814	1779.51
568.238	1775.34
568.662	1776.58
569.086	1775.78
569.509	1779.82
569.933	1762.23
570.357	1750.73
570.78	1728.4
571.204	1713.61
571.627	1701.47
572.05	1696.44
572.474	1692.91
572.897	1678.16
573.32	1669.77
573.743	1658.01
574.166	1638.87
574.589	1636.78
575.012	1628.63
575.435	1625.72
575.858	1614.54
576.281	1602.56
576.704	1587.15
577.126	1575.96
577.549	1565.57
577.972	1554.36
578.394	1544.26
578.817	1537.5
579.239	1520.06
579.661	1506.61
580.084	1491.67
580.506	1479.4
580.928	1474.77
581.35	1464.04
581.772	1458.48
582.194	1444.5
582.616	1432.99
583.038	1418.78
583.46	1406.62
583.882	1403.45
584.303	1406.91
584.725	1401.69
585.147	1402.71
585.568	1412.03
585.99	1422.79
586.411	1428.11
586.833	1443.01
587.254	1442.97
587.675	1455.71
588.096	1467.91
588.518	1461.74
588.939	1445.71
589.36	1444.5
589.781	1434.27
590.202	1408.04
590.623	1400.41
591.043	1397.86
591.464	1384.37
591.885	1380.94
592.305	1376.1
592.726	1363.34
593.147	1365.12
593.567	1359.98
593.987	1352.95
594.408	1349.15
594.828	1348.05
595.248	1342.28
595.669	1325.7
596.089	1319.04
596.509	1312.7
596.929	1299.73
597.349	1300.2
597.769	1289.39
598.189	1282.77
598.608	1283.3
599.028	1284.82
599.448	1283.15
599.867	1270.88
600.287	1266.09
600.706	1261.39
601.126	1251.91
601.545	1249.52
601.965	1246.67
602.384	1241.45
602.803	1243.08
603.222	1237.52
603.641	1228.99
604.061	1225.22
604.48	1220.2
604.898	1226.74
605.317	1231.57
605.736	1231.94
606.155	1228.73
606.574	1220.84
606.992	1224.99
607.411	1220.6
607.829	1217.56
608.248	1214.56
608.666	1211.19
609.085	1211.02
609.503	1202.92
609.921	1195.67
610.339	1196.79
610.758	1196.37
611.176	1190.99
611.594	1182.59
612.012	1178.33
612.43	1176.69
612.847	1181.54
613.265	1182.27
613.683	1185.41
614.101	1186.65
614.518	1183.07
614.936	1174.9
615.353	1160.4
615.771	1157.27
616.188	1157.08
616.606	1154.61
617.023	1147.72
617.44	1135.88
617.857	1130.13
618.274	1122.68
618.691	1116.93
619.108	1108.4
619.525	1102.5
619.942	1109.59
620.359	1112.51
620.776	1108.17
621.192	1105.19
621.609	1102.18
622.026	1107.22
622.442	1112.78
622.859	1114.75
623.275	1107.91
623.691	1113.13
624.108	1123.87
624.524	1136.24
624.94	1136.46
625.356	1144.99
625.772	1156.76
626.188	1168.26
626.604	1169.78
627.02	1165.67
627.436	1164.87
627.852	1171.97
628.268	1183.13
628.683	1175.49
629.099	1168.38
629.514	1163.67
629.93	1167.68
630.345	1170.37
630.761	1167.29
631.176	1170.82
631.591	1167.46
632.007	1162.6
632.422	1161.15
632.837	1151.16
633.252	1149.86
633.667	1140.82
634.082	1133.89
634.497	1123.89
634.911	1109.02
635.326	1106.15
635.741	1092.02
636.155	1082.88
636.57	1084.5
636.984	1084.25
637.399	1087.29
637.813	1087.11
638.228	1086.99
638.642	1091.25
639.056	1082.45
639.47	1082.37
639.884	1075.88
640.298	1072.77
640.712	1073.4
641.126	1063.72
641.54	1058.12
641.954	1054.69
642.368	1045.03
642.781	1040.97
643.195	1027.37
643.609	1029.85
644.022	1026.49
644.436	1024.97
644.849	1015.28
645.262	1005.83
645.676	1009.22
646.089	1006.75
646.502	994.81
646.915	992.99
647.328	977.34
647.741	976.5
648.154	966.46
648.567	964.98
648.98	954.77
649.393	955.31
649.805	954.19
650.218	948.21
650.631	933.65
651.043	929.23
651.456	923.84
651.868	926.73
652.28	944.01
652.693	957.71
653.105	965.58
653.517	974.41
653.929	976.15
654.341	981.91
654.753	972.5
655.165	981.03
655.577	980.25
655.989	978.7
656.401	972.64
656.813	941.88
657.224	924.14
657.636	899.71
658.047	886.82
658.459	872.32
658.87	866.87
659.282	858.74
659.693	841.49
660.104	830.41
660.515	821.31
660.926	824.21
661.338	824.44
661.749	822.61
662.159	816.47
662.57	815.59
662.981	814.67
663.392	812.13
663.803	820.31
664.213	823.48
664.624	823.97
665.035	830.71
665.445	819.28
665.855	817.05
666.266	812.57
666.676	814.53
667.086	808.89
667.497	811.24
667.907	807.04
668.317	801.59
668.727	800.34
669.137	802.36
669.547	801.69
669.956	806.06
670.366	808.63
670.776	811.92
671.186	817.37
671.595	821.87
672.005	826.69
672.414	826.84
672.824	824.49
673.233	829.45
673.642	833.78
674.052	837.21
674.461	840.56
674.87	845.1
675.279	843.69
675.688	845.91
676.097	847.57
676.506	844.09
676.915	859.02
677.323	862.52
677.732	860.43
678.141	858.06
678.549	845.07
678.958	842.91
679.366	840.51
679.775	842.61
680.183	851.08
680.592	854.37
681	858.18
681.408	848.49
681.816	853.15
682.224	858.24
682.632	865.79
683.04	894.19
683.448	915.51
683.856	942.18
684.264	973.6
684.671	999.41
685.079	1032.72
685.487	1067.62
685.894	1119.59
686.302	1158.09
686.709	1187.48
687.116	1222.35
687.524	1247.26
687.931	1267.07
688.338	1282.59
688.745	1291.85
689.152	1306.66
689.559	1331.32
689.966	1358.07
690.373	1365.78
690.78	1392.37
691.187	1438.48
691.593	1472.08
692	1501.58
692.407	1550.14
692.813	1612.84
693.22	1663.17
693.626	1718.89
694.032	1764.11
694.439	1832.05
694.845	1887.7
695.251	1959.89
695.657	2026.28
696.063	2124.3
696.469	2201.24
696.875	2273.91
697.281	2320.45
697.687	2377.18
698.093	2425.82
698.498	2508.9
698.904	2578.29
699.31	2675.77
699.715	2750.47
700.12	2853.24
700.526	2887.03
700.931	2970.96
701.337	3038.63
701.742	3086.09
702.147	3187.63
702.552	3234.15
702.957	3313.82
703.362	3352.98
703.767	3400.65
704.172	3458.72
704.577	3429.05
704.981	3495.21
705.386	3531.35
705.791	3539.75
706.195	3639.48
706.6	3668.44
707.004	3775.11
707.408	3759.84
707.813	3807.3
708.217	3813.89
708.621	3836.09
709.025	3961.39
709.43	3980.03
709.834	4063.22
710.237	4159.06
710.641	4161.35
711.045	4201.43
711.449	4209.91
711.853	4260.07
712.256	4325.73
712.66	4384.86
713.064	4485.74
713.467	4551.51
713.87	4697.7
714.274	4767.01
714.677	4912.12
715.08	5115.12
715.484	5328.29
715.887	5581.25
716.29	5831.23
716.693	6090.27
717.096	6391.59
717.499	6567.43
717.901	6617.81
718.304	6667.99
718.707	6715.31
719.109	6613.51
719.512	6595.16
719.915	6451.46
720.317	6402.12
720.719	6473.4
721.122	6454.23
721.524	6408.87
721.926	6371.32
722.328	6507.86
722.731	6512.38
723.133	6562.2
723.535	6813.3
723.937	6853.61
724.338	6932.3
724.74	6999.01
725.142	6920.37
725.544	6932.69
725.945	6976.61
726.347	6985.45
726.748	6985.43
727.15	7016.09
727.551	6978.97
727.952	6953.3
728.354	6927.27
728.755	6936.38
729.156	6890.18
729.557	6898.24
729.958	6753.75
730.359	6694.88
730.76	6681.72
731.161	6613.78
731.562	6589.17
731.962	6603.54
732.363	6530.78
732.763	6454.2
733.164	6509.95
733.564	6432.88
733.965	6317.53
734.365	6281.59
734.766	6324.01
735.166	6280.26
735.566	6215.58
735.966	6185.64
736.366	6182.75
736.766	6107.54
737.166	6154.02
737.566	6103.35
737.966	6072.73
738.365	6126.93
738.765	6122.54
739.165	6030.86
739.564	5999.76
739.964	6064.53
740.363	6009.91
740.763	6011.36
741.162	5999.36
741.561	5960.76
741.96	5903.28
742.36	5935.54
742.759	5944.83
743.158	5997.73
743.557	6017.42
743.955	6072.42
744.354	6013.93
744.753	6091.31
745.152	6038.68
745.55	6114.2
745.949	6107.81
746.348	6114.26
746.746	6134.45
747.144	6086.41
747.543	6058.67
747.941	6124.69
748.339	6034.52
748.737	6028.87
749.136	6018.01
749.534	6105.33
749.932	6067.06
750.33	6101.07
750.727	6174.26
751.125	6145.35
751.523	6127.25
751.921	6181.05
752.318	6137.5
752.716	6213.55
753.113	6233.18
753.511	6266.42
753.908	6267.81
754.305	6245.78
754.703	6327.34
755.1	6404.88
755.497	6485.33
755.894	6730.95
756.291	6966.73
756.688	7393.53
757.085	7964.45
757.482	8757.62
757.878	9623.14
758.275	10407.54
758.672	11493.2
759.068	12368.41
759.465	13624.59
759.861	15239.43
760.258	17115.76
760.654	18078.51
761.05	17925.43
761.447	17099.92
761.843	15920.65
762.239	14712.34
762.635	14161.25
763.031	13634.75
763.427	12875.03
763.822	12073.57
764.218	11285.35
764.614	10257.27
765.01	9569.23
765.405	9131.14
765.801	8794.16
766.196	8367.17
766.592	8128.79
766.987	7724.89
767.382	7449.88
767.778	7335.27
768.173	7172.56
768.568	7077.64
768.963	6918.46
769.358	6945.65
769.753	6884.99
770.148	6778.92
770.542	6777.32
770.937	6735.04
771.332	6850.85
771.726	6878.76
772.121	6796.36
772.515	6865.55
772.91	6849.85
773.304	6940.89
773.699	6854.67
774.093	6922.92
774.487	6992.47
774.881	7047.53
775.275	7044.02
775.669	6993.6
776.063	7049.01
776.457	7094.78
776.851	6997.67
777.245	6985.03
777.638	7028.5
778.032	7178.61
778.425	7131.81
778.819	7188.16
779.212	7133.4
779.606	7081.85
779.999	7105.78
780.392	7086.37
780.786	7196.89
781.179	7222.34
781.572	7280.67
781.965	7297.47
782.358	7222.18
782.751	7297.21
783.143	7233.45
783.536	7331.64
783.929	7387.43
784.322	7535.31
784.714	7575.09
785.107	7567.87
785.499	7663.2
785.891	7633.23
786.284	7608.4
786.676	7793.22
787.068	7768.05
787.46	7835.6
787.852	7862.09
788.245	7974.22
788.636	8013.77
789.028	8101.27
789.42	8149.87
789.812	8160.51
790.204	8288.01
790.595	8414.99
790.987	8159.43
791.378	8188.56
791.77	8360.75
792.161	8535.63
792.553	8606.44
792.944	8463.98
793.335	8377.24
793.726	8477.12
794.117	8596.3
794.508	8775.06
794.899	8740.71
795.29	8926.05
795.681	9005.22
796.072	8816.52
796.463	8567.09
796.853	8577.73
797.244	8777.33
797.634	8820.07
798.025	8819.98
798.415	8841.02
798.806	8951.39
799.196	9063.41
799.586	9126.63
799.976	9077.21
800.366	9378.83
800.756	9702
801.146	9654.46
801.536	9700.95
801.926	9798.44
802.316	9832.69
802.706	9921.69
803.095	9767.19
803.485	9899.5
803.874	9960.83
804.264	10299.12
804.653	10268.37
805.043	10456.35
805.432	10598.68
805.821	10599.33
806.21	10627.42
806.599	10779.23
806.988	10841.42
807.377	10981.49
807.766	11148.89
808.155	11513.93
808.544	11168.26
808.933	11186.56
809.321	11157.36
809.71	11544.52
810.098	11749.51
810.487	12348.52
810.875	12970.61
811.264	12995.03
811.652	13364.54
812.04	13556.28
812.428	13765.96
812.816	14759.62
813.204	15305.23
813.592	16026.46
813.98	16466.04
814.368	16341.47
814.756	16962.63
815.144	16857.81
815.531	17462.2
815.919	17376.49
816.306	17766.26
816.694	17368.72
817.081	17433.06
817.469	17879.86
817.856	17873.12
818.243	18220.36
818.63	18735.38
819.017	18195.02
819.404	18284.76
819.791	18787.67
820.178	19590.1
820.565	19920.05
820.952	21126.81
821.339	20484.13
821.725	20727.1
822.112	19761
822.498	19714.14
822.885	19883.55
823.271	19757.44
823.657	20298.52
824.044	20298.37
824.43	20380.6
824.816	20338.57
825.202	19775.81
825.588	21107.49
825.974	21125.81
826.36	21796.24
826.746	21835.54
827.132	22300.55
827.517	22270.97
827.903	21250.27
828.289	21304.27
828.674	20298.01
829.06	20165.85
829.445	20679.27
829.83	21132.55
830.216	21748.4
830.601	22212.93
830.986	21676.53
831.371	21490.17
831.756	22206.8
832.141	21647.23
832.526	21634.15
832.911	21997.13
833.295	21849.08
833.68	22454.79
834.065	21655.87
834.449	20472.85
834.834	20382.32
835.218	20376.44
835.603	20817.58
835.987	20535.66
836.371	21612.67
836.755	21480.61
837.139	21989.83
837.524	22295.88
837.908	22069.94
838.291	22135.47
838.675	22218.23
839.059	22490.05
839.443	22471.84
839.827	22177.57
840.21	22800.33
840.594	22607.17
840.977	22865.62
841.361	22848.16
841.744	23330.41
842.127	23118.15
842.511	23437.85
842.894	24205.25
843.277	24681.77
843.66	25379.43
844.043	25475.09
844.426	24432.15
844.809	24027.93
845.191	24067.14
845.574	23461.48
845.957	22986.54
846.339	22839.41
846.722	22155.03
847.104	22237.88
847.487	22020.54
847.869	22041.1
848.252	22390.45
848.634	22815.38
849.016	23151.05
849.398	23306.26
849.78	24407.57
850.162	24405.77
850.544	24942.77
850.926	25754.54
851.307	25644.53
851.689	26000.71
852.071	26579.01
852.452	27009.42
852.834	26983.87
853.215	27499.15
853.597	27704.05
853.978	28076.01
854.359	28670.03
854.741	27396.78
855.122	27269.69
855.503	26898.96
855.884	27079.57
856.265	26993.88
856.646	27139.45
857.026	26632.95
857.407	26540.33
857.788	26742.35
858.169	27122.86
858.549	26035.89
858.93	26837.82
859.31	26918.43
859.69	27198.21
860.071	26667.51
860.451	26387.95
860.831	25438.32
861.211	26935.91
861.591	27652.68
861.971	27624.06
862.351	27863.82
862.731	28362.76
863.111	28701.37
863.491	29116.7
863.87	30236.6
864.25	30685.63
864.629	30166.34
865.009	30815.98
865.388	31921.15
865.768	34208.57
866.147	34075.58
866.526	32202.99
866.905	32586.81
867.284	34424.57
867.663	32688.77
868.042	31327.92
868.421	31234.19
868.8	31758.54
869.179	32078.88
869.558	30204.03
869.936	27843.47
870.315	28338.85
870.693	29022.93
871.072	31292.78
871.45	29814.93
871.828	30204.64
872.207	31751.18
872.585	31277.24
872.963	32147.62
873.341	31042.9
873.719	30667.41
874.097	30283.86
874.475	30858.2
874.853	31558.48
875.23	30250.71
875.608	31509.93
875.986	34068.75
876.363	32582.4
876.741	33556.68
877.118	32694.09
877.495	34296.76
877.873	34883.9
878.25	36731.01
878.627	35227.12
879.004	35720.25
879.381	35550.97
879.758	34610.11
880.135	32218.43
880.512	34061.49
880.889	33172.81
881.265	32831.03
881.642	32558.05
882.019	33092.54
882.395	32398.44
882.772	33667.88
883.148	32201.29
883.524	32066.31
883.901	31878.79
884.277	32363.06
884.653	32165.83
885.029	33078.77
885.405	36627.05
885.781	36329.27
886.157	34831.72
886.532	35261.68
886.908	35254.63
887.284	39205.65
887.659	40472.73
888.035	41719.49
888.411	42777.08
888.786	43334.26
889.161	44847.13
889.537	44024.89
889.912	45431.9
890.287	45377.99
890.662	46547.25
891.037	45709.92
891.412	42623.65
891.787	42185.65
892.162	40715.22
892.536	41660.22
892.911	40084.04
893.286	39215.77
893.66	37612.25
894.035	38564.97
894.409	41998.24
894.784	40287.71
895.158	40924.1
895.532	43318.07
895.906	44499.47
896.281	45510.07
896.655	44791.18
897.029	51187.24
897.402	53301.84
897.776	59328.88
898.15	59097.11
898.524	58443.91
898.898	59221.62
899.271	66303.3
899.645	57440.39
900.018	55178.43
900.392	57239.4
900.765	57697.1
901.138	53375.81
901.511	52574.95
901.884	48273.11
902.258	44557.6
902.631	46049.25
903.003	53002.45
903.376	47846.99
903.749	53668.08
904.122	57464.63
904.495	63298.27
904.867	64105.4
905.24	55667.35
905.612	51841.93
905.985	53046.49
906.357	55440.96
906.729	52890.88
907.102	45171.74
907.474	43438.18
907.846	43711.6
908.218	43122.62
908.59	38103.88
908.962	36843.75
909.334	39686.85
909.705	41667.25
910.077	40441.73
910.449	42105.97
910.82	43308.77
911.192	47681.77
911.563	49551.71
911.935	53030.56
912.306	53097.67
912.677	54844.34
913.048	54291.02
913.419	58888.4
913.79	59240.92
914.161	63554.83
914.532	60734.02
914.903	55811.5
915.274	52993.9
915.645	52221.47
916.015	45984.19
916.386	43830.14
916.756	46620.3
917.127	48108.46
917.497	42970.02
917.868	46780.65
918.238	44437.92
918.608	45737.9
918.978	46687.29
919.348	49442.29
919.718	51054.27
920.088	49155.06
920.458	51083.3
920.828	53796.19
921.198	50976.47
921.567	54481.76
921.937	42180.95
922.306	42560.62
922.676	45896.83
923.045	38282.08
923.415	36367.78
923.784	33135.55
924.153	34069.03
924.522	34035.8
924.891	31983.67
925.26	34269.46
925.629	33458
925.998	38469.03
926.367	37569.85
926.736	35774.78
927.104	42635.97
927.473	45863.38
927.842	55382.96
928.21	54854.86
928.578	57675.1
928.947	54550.17
929.315	54871.1
929.683	64319.73
930.051	64822.26
930.42	75271.39
930.788	64308.36
931.156	63774.05
931.523	59712.06
931.891	55168.35
932.259	52954.25
932.627	61348.08
932.994	86806.59
933.362	71739.98
933.729	62313.06
934.097	59662.27
934.464	50461.45
934.831	58236.8
935.199	57419.7
935.566	55693.26
935.933	56520.17
936.3	68488.79
936.667	53355.44
937.034	48064.48
937.401	47545.92
937.767	41023.86
938.134	36505.91
938.501	51486.24
938.867	54856.34
939.234	92765.72
939.6	79172.07
939.967	87086.73
940.333	58303.96
940.699	49636.18
941.065	39880.36
941.431	52263.02
941.798	50407.88
942.163	66249.5
942.529	41471.21
942.895	38228.7
943.261	24710.2
943.627	32437.2
943.992	28410.7
944.358	28459.7
944.723	28538.65
945.089	27826.19
945.454	25739.93
945.82	27493.97
946.185	26422.83
946.55	30590.63
946.915	27440.53
947.28	32210.68
947.645	28358.52
948.01	26162.5
948.375	27283.95
948.74	32732.56
949.104	38235.29
949.469	55242.41
949.834	97562.39
950.198	92416.07
950.562	55346.64
950.927	46078.09
951.291	55486.97
951.655	47280.46
952.02	44421.86
952.384	33616.89
952.748	29254.56
953.112	28492.87
953.476	24775.57
953.839	22907.91
954.203	22666.06
954.567	28374.26
954.931	44708.55
955.294	38211.63
955.658	38428.21
956.021	65298.76
956.385	110674.18
956.748	163293.77
957.111	253358.43
957.474	284386.46
957.837	320655.04
958.2	242732.35
958.563	87243.57
958.926	58915.07
959.289	89433.79
959.652	99859.89
960.015	74912.52
960.377	107423
960.74	122675.83
961.102	211736.63
961.465	227294.01
961.827	121545.64
962.189	233278.45
962.552	161694.46
962.914	129803.71
963.276	84203.47
963.638	69624.95
964	68965.2
964.362	46628.52
964.724	45049.83
965.085	32114.01
965.447	26308.24
965.809	30007.35
966.17	30028.99
966.532	32537.26
966.893	29800.27
967.255	27123.9
967.616	31999.42
967.977	25624.21
968.338	27983.32
968.699	22967.85
969.061	22969.9
969.421	23134.6
969.782	25942.38
970.143	21904.04
970.504	22638.86
970.865	25748.44
971.225	26278.1
971.586	25692.36
971.946	36616.99
972.307	31796.25
972.667	41595.13
973.027	42828.33
973.388	51892.07
973.748	35298.91
974.108	38450.72
974.468	52036.15
974.828	40092.3
975.188	30885.79
975.548	28382.72
975.907	23799.38
976.267	26652.25
976.627	22399.56
976.986	23224.15
977.346	22113
977.705	21274.63
978.064	19358.16
978.424	16114.43
978.783	16668.52
979.142	19023.64
979.501	18180.61
979.86	19253.1
980.219	18558.9
980.578	23906.26
980.937	26771.23
981.296	23901.83
981.654	24590.58
982.013	38317.76
982.371	49664.21
982.73	46400.61
983.088	52480.19
983.447	56146.89
983.805	80237.52
984.163	167820.89
984.521	186380.97
984.879	273177.93
985.237	-443854.02
985.595	427224.27
985.953	105945.14
986.311	61307.77
986.669	35592.19
987.026	30759.31
987.384	41292.88
987.741	42667.61
988.099	30447.09
988.456	24255.01
988.814	22720.04
989.171	19779.42
989.528	19560.96
989.885	20685.82
990.242	16351.41
990.599	20358.59
990.956	16649.78
991.313	11661.62
991.67	9561.37
992.027	10108.86
992.383	8989.7
992.74	7879.11
993.096	8246.73
993.453	8544.63
993.809	8840.92
994.165	11771.08
994.522	10756.93
994.878	11856.09
995.234	14855.86
995.59	14660.19
995.946	13920.52
996.302	15864.26
996.658	18313.77
997.013	20219.22
997.369	23936.54
997.725	30656.11
998.08	19859.1
998.436	30721.05
998.791	42334.81
999.147	42314.48
999.502	46105.13
999.857	33470.49
1000.212	54520.27
1000.567	77578.03
1000.922	44697.45
1001.277	28423.64
1001.632	21112.9
1001.987	27217.84
1002.342	19525.34
1002.696	15635.69
1003.051	12448.36
1003.406	15107.42
1003.76	15064.78
1004.114	14860.97
1004.469	12495.81
1004.823	10336.9
1005.177	11172.28
1005.531	8857.56
1005.885	7865.55
1006.239	8882.78
1006.593	11115.64
1006.947	14901.68
1007.301	11204.13
1007.655	12211.5
1008.008	8965.32
1008.362	10080.24
1008.715	14393.39
1009.069	13054.06
1009.422	19586.67
1009.776	39281.84
1010.129	26047.28
1010.482	21776.51
1010.835	18405.49
1011.188	38245.62
1011.541	35962.8
1011.894	-219622.38
1012.247	645201.82
1012.6	43846.67
1012.952	27655.81
1013.305	14284.39
1013.657	10280.13
1014.01	9729.89
1014.362	8042.25
1014.715	7135.38
1015.067	6202.91
1015.419	6063.76
1015.771	5377.43
1016.123	4797.89
1016.475	4930.01
1016.827	5266.08
1017.179	5649.39
1017.531	5705.62
1017.883	5846.45
1018.234	5618.52
1018.586	7119.88
1018.938	7532.62
1019.289	10416.7
1019.64	11938.12
1019.992	11096.35
1020.343	10176.45
1020.694	7994.88
1021.045	7054.55
1021.396	8049.12
1021.747	8617.83
1022.098	10343.08
1022.449	7485.32
1022.8	6964.46
1023.151	4834.3
1023.501	4282.87
1023.852	4665.82
1024.202	4841.53
1024.553	5334.9
1024.903	5213.22
1025.253	4452.72
1025.604	4001.09
1025.954	4996.04
1026.304	6089.37
1026.654	7076.44
1027.004	10396.61
1027.354	16762.57
1027.703	15744.91
1028.053	20705.06
1028.403	29972.65
1028.753	43740.12
1029.102	59629.86
1029.452	307058.43
1029.801	13222.19
1030.15	8524.03
1030.499	7241.06
897.758	2659.83
901.051	2616.75
904.343	2652.86
907.636	2653.84
910.928	2717.26
914.22	2625.65
917.511	2635.75
920.803	2695.05
924.094	2714.07
927.384	2695.85
930.675	2661.23
933.965	2613.91
937.255	2623.08
940.544	2589.59
943.834	2531.65
947.123	2477.58
950.411	2575.57
953.7	2547.71
956.988	2520.27
960.276	2461.4
963.563	2539.59
966.851	2534.65
970.138	2593.44
973.424	2588.9
976.711	2538.04
979.997	2670.54
983.283	2705.73
986.568	2612.55
989.853	2627.08
993.138	2653.31
996.423	2738.3
999.708	2679.23
1002.992	2743.95
1006.275	2579.11
1009.559	2622.56
1012.842	2738.23
1016.125	2670.09
1019.408	2648.84
1022.69	2736.56
1025.972	2757.19
1029.254	2732.32
1032.536	2664.04
1035.817	2690.58
1039.098	2636.47
1042.379	2781.04
1045.659	2782.04
1048.939	2715.84
1052.219	2737.91
1055.498	2748.15
1058.778	2734.26
1062.057	2717.32
1065.335	2738.89
1068.614	2761.92
1071.892	2742.91
1075.17	2818.96
1078.447	2811.33
1081.724	2802.11
1085.001	2839.85
1088.278	2810.99
1091.554	2824.68
1094.83	2820.08
1098.106	2851.01
1101.382	2897.12
1104.657	2893.77
1107.932	2892.79
1111.206	2856.21
1114.481	2810.03
1117.755	2812.2
1121.029	2793.26
1124.302	2849.88
1127.575	2802.16
1130.848	2789.04
1134.121	2751.69
1137.393	2700.13
1140.665	2767.88
1143.937	2741.54
1147.208	2701.7
1150.48	2744.09
1153.75	2732.88
1157.021	2762.73
1160.291	2731.83
1163.561	2777.95
1166.831	2767.91
1170.101	2802.15
1173.37	2772.11
1176.639	2715.89
1179.907	2777.48
1183.176	2783.21
1186.444	2793.75
1189.711	2820.34
1192.979	2834.12
1196.246	2788.76
1199.513	2807.25
1202.78	2804.13
1206.046	2810.22
1209.312	2842.15
1212.578	2868.42
1215.843	2817.98
1219.108	2791.64
1222.373	2812.46
1225.638	2777.35
1228.902	2759.29
1232.166	2721.62
1235.43	2701.68
1238.693	2725.33
1241.956	2722.79
1245.219	2763.35
1248.482	2756.36
1251.744	2751.15
1255.006	2901.36
1258.268	2854.54
1261.529	2796.5
1264.79	2804.72
1268.051	2912.4
1271.312	2933.4
1274.572	2895.99
1277.832	2882.9
1281.092	2871
1284.351	2842.97
1287.61	2821.98
1290.869	2739.84
1294.128	2716.64
1297.386	2806.06
1300.644	2794.38
1303.902	2807.53
1307.159	2658.14
1310.416	2716.13
1313.673	2745.61
1316.93	2730.39
1320.186	2776.23
1323.442	2818.33
1326.697	2803.11
1329.953	2792.01
1333.208	2817.72
1336.463	2795.37
1339.717	2733.65
1342.972	2873.44
1346.226	2845.85
1349.479	2774.7
1352.733	2744.03
1355.986	2767.01
1359.238	2743.02
1362.491	2749.6
1365.743	2753.25
1368.995	2740.94
1372.247	2756.69
1375.498	2780.76
1378.749	2796.74
1382	2749.33
1385.251	2805.04
1388.501	2762.11
1391.751	2744.66
1395	2715.24
1398.25	2745.1
1401.499	2752.18
1404.748	2683.36
1407.996	2670.18
1411.244	2656.36
1414.492	2635.04
1417.74	2613.39
1420.987	2620.06
1424.234	2682.43
1427.481	2660.74
1430.728	2719.26
1433.974	2691.76
1437.22	2705.72
1440.465	2706.6
1443.711	2670.45
1446.956	2704.48
1450.201	2693.91
1453.445	2739.06
1456.689	2719.42
1459.933	2730.58
1463.177	2763.74
1466.42	2737.56
1469.663	2720.01
1472.906	2715.41
1476.148	2790.97
1479.391	2752.97
1482.633	2721.95
1485.874	2734.64
1489.115	2722.45
1492.356	2728.34
1495.597	2701.17
1498.838	2705.34
1502.078	2674.38
1505.318	2624.51
1508.557	2668.05
1511.797	2644.7
1515.036	2716.6
1518.274	2706.86
1521.513	2676.11
1524.751	2699.05
1527.989	2710.78
1531.227	2728.56
1534.464	2725.08
1537.701	2743.69
1540.938	2763.3
1544.174	2714.3
1547.41	2713.55
1550.646	2752.78
1553.882	2792.72
1557.117	2846.81
1560.352	2862.78
1563.587	2822.95
1566.821	2781
1570.055	2815.33
1573.289	2788.13
1576.523	2863.85
1579.756	2875.07
1582.989	2893.24
1586.222	2855.24
1589.454	2894.78
1592.686	2865.94
1595.918	2894.52
1599.15	2883.56
1602.381	2959.28
1605.612	2914.83
1608.843	3014.39
1612.073	2927.27
1615.303	2912.21
1618.533	2907.08
1621.762	2908.95
1624.992	2891.65
1628.221	2882.68
1631.449	2864.29
1634.678	2920.16
1637.906	2874.49
1641.134	2913.7
1644.361	2868.88
1647.588	2854.9
1650.815	2871.08
1654.042	2847.42
1657.269	2878.31
1660.495	2832.94
1663.72	2852.89
1666.946	2818.2
1670.171	2762.18
1673.396	2736.38
1676.621	2722.99
1679.845	2742.64
1683.069	2763.54
1686.293	2806.2
1689.517	2777.6
1692.74	2706.48
1695.963	2734.59
1699.185	2753.4
1702.408	2725.6
1705.63	2766.22
1708.852	2779.28
1712.073	2750.94
1715.294	2735.57
1718.515	2796.07
1721.736	2742.9
1724.956	2734.52
1728.176	2761.2
1731.396	2785.93
1734.616	2771.17
1737.835	2799.83
1741.054	2779.87
1744.272	2770.52
1747.491	2802.86
1750.709	2856.13
1753.927	2760.67
1757.144	2807.64
1760.361	2852.93
1763.578	2841.62
1766.795	2780.25
1770.011	2785.72
1773.227	2826.53
1776.443	2862.19
1779.658	2909.15
1782.874	2850.83
1786.089	2829.34
1789.303	2833.44
1792.518	2833.22
1795.732	2819.21
1798.945	2834.45
1802.159	2882.73
1805.372	2786.3
1808.585	2774.34
1811.797	2774.62
1815.01	2819.26
1818.222	2821.25
1821.434	2793.5
1824.645	2851.43
1827.856	2839.63
1831.067	2877.15
1834.278	2824.76
1837.488	2812.76
1840.698	2963.22
1843.908	2883.08
1847.117	2845.12
1850.326	2730.53
1853.535	2835.57
1856.744	2861.45
1859.952	2771.64
1863.16	2773.83
1866.368	2792.62
1869.575	2898.94
1872.782	2776.96
1875.989	2714.86
1879.196	2798.23
1882.402	2788.14
1885.608	2829.36
1888.814	2728
1892.019	2619.26
1895.224	2673.86
1898.429	2650.93
1901.634	2629.68
1904.838	2605.97
1908.042	2658.37
1911.246	2663.13
1914.449	2593.72
1917.652	2592.36
1920.855	2573.02
1924.058	2622.38
1927.26	2660.47
1930.462	2685.6
1933.664	2713.16
1936.865	2648.98
1940.066	2657.46
1943.267	2602.58
1946.467	2619.79
1949.668	2648.29
1952.868	2716.04
1956.067	2694.83
1959.267	2624.55
1962.466	2652.25
1965.665	2638.24
1968.863	2632.65
1972.061	2649.9
1975.259	2646.92
1978.457	2729.09
1981.654	2684.52
1984.852	2683.88
1988.048	2616.76
1991.245	2619.03
1994.441	2706.75
1997.637	2689.84
2000.833	2673.2
2004.028	2714.67
2007.223	2767.7
2010.418	2747.21
2013.613	2705.44
2016.807	2677.44
2020.001	2683.93
2023.194	2727.4
2026.388	2703.64
2029.581	2650.19
2032.774	2700.15
2035.966	2703.36
2039.158	2634.51
2042.35	2663.21
2045.542	2592.35
2048.733	2688.09
2051.924	2711.14
2055.115	2740.82
2058.306	2682.84
2061.496	2743.82
2064.686	2806.89
2067.875	2721.87
2071.065	2735.97
2074.254	2763.61
2077.442	2713.92
2080.631	2802.33
2083.819	2699.45
2087.007	2681.55
2090.195	2649.36
2093.382	2685.18
2096.569	2663.28
2099.756	2617.77
2102.942	2643.25
2106.128	2652.27
2109.314	2643.07
2112.5	2606.6
2115.685	2581.52
2118.87	2591.04
2122.055	2655.47
2125.239	2624.64
2128.424	2598.07
2131.608	2702.51
2134.791	2680.97
2137.974	2739.99
2141.157	2723.94
2144.34	2673.86
2147.523	2689.28
2150.705	2704.92
2153.887	2682.89
2157.068	2633.79
2160.25	2634.84
2163.431	2672.37
2166.611	2617.63
2169.792	2637.81
2172.972	2529.03
2176.152	2607.72
2179.331	2643.93
2182.511	2626.74
2185.69	2655.6
2188.868	2651.09
2192.047	2705.74
2195.225	2696.02
2198.403	2646.93
2201.58	2637.49
2204.758	2627.57
2207.935	2711.61
2211.111	2602.07
2214.288	2585.16
2217.464	2626.15
2220.64	2595.65
2223.815	2652
2226.991	2571.37
2230.166	2591.78
2233.34	2618.89
2236.515	2647.2
2239.689	2723.1
2242.863	2664.28
2246.036	2720.22
2249.209	2720.67
2252.382	2754.96
2255.555	2742.35
2258.727	2679.18
2261.9	2719.9
2265.071	2711.49
2268.243	2714.85
2271.414	2644.59
2274.585	2607.45
2277.756	2678.64
2280.926	2631.5
2284.096	2671.15
2287.266	2576.01
2290.436	2632.51
2293.605	2660.81
2296.774	2691.63
2299.942	2713.69
2303.111	2731.3
2306.279	2781.31
2309.447	2764.86
2312.614	2739.32
2315.781	2759.4
2318.948	2730.15
2322.115	2768.49
2325.281	2670.64
2328.447	2687.98
2331.613	2661.69
2334.779	2634.53
2337.944	2635.27
2341.109	2633.29
2344.274	2617.37
2347.438	2580.11
2350.602	2604.27
2353.766	2622.99
2356.929	2609.26
2360.092	2649.01
2363.255	2603.73
2366.418	2538.93
2369.58	2650.55
2372.742	2439.15
2375.904	2453.12
2379.066	2429.96
2382.227	2468.51
2385.388	2430.25
2388.548	2354.1
2391.709	2411.16
2394.869	2391.97
2398.029	2487.73
2401.188	2498.39
2404.347	2433.53
2407.506	2575.35
2410.665	2605.2
2413.823	2610
2416.981	2566.3
2420.139	2600.56
2423.296	2648.92
2426.453	2618.5
2429.61	2641.63
2432.767	2576.43
2435.923	2618.67
2439.079	2579.55
2442.235	2627.82
2445.391	2552.15
2448.546	2583.32
2451.701	2632.25
2454.855	2602.11
2458.009	2658.63
2461.163	2660.79
2464.317	2619.93
2467.471	2653.86
2470.624	2690.99
2473.777	2663.78
2476.929	2677.51
2480.082	2704.19
2483.234	2668.14
2486.385	2620.04
2489.537	2613.93
2492.688	2571.16
2495.839	2591.25
2498.989	2604.29
2502.14	2590
2505.29	2571.82
2508.439	2599.13
2511.589	2522.15
2514.738	2533.01
2517.887	2563.78
2521.035	2628.09
2524.183	2610.73
2527.331	2593.94
2530.479	2567.65
2533.627	2577.23
