Data from C_3_DEC_ON_6N_Splice17_13-36-08-694.txt Node
Date: Sat Mar 14 13:36:08 EDT 2020
User: sa697716
Spectrometer: FLMS03696
Trigger mode: 0
Integration Time (sec): 3.180400E-1
Scans to average: 20
Electric dark correction enabled: true
Nonlinearity correction enabled: true
Boxcar width: 5
XAxis mode: Wavelengths
Number of Pixels in Spectrum: 2048
>>>>>Begin Spectral Data<<<<<
187.83	-474146.16
188.298	3316.4
188.766	1734
189.233	1554.61
189.701	2149.99
190.169	2963.94
190.636	1127.43
191.104	847.08
191.571	100.65
192.039	-136.98
192.506	-195.36
192.974	399.41
193.441	-864.93
193.908	-271.23
194.375	-97.45
194.842	-47.88
195.31	83.08
195.777	192.6
196.244	411.47
196.711	440.61
197.177	559.63
197.644	775.73
198.111	1362.51
198.578	1938.98
199.045	1548.09
199.511	2546.35
199.978	2926.82
200.445	2475.73
200.911	2738.99
201.378	3023.78
201.844	2745.39
202.31	4674
202.777	4877.13
203.243	2716.25
203.709	2563.24
204.176	3044.01
204.642	2495.85
205.108	2339
205.574	1903.02
206.04	1708.81
206.506	1609.34
206.972	1521.22
207.438	1470.84
207.903	1680.16
208.369	1470.95
208.835	1490.97
209.301	1577.38
209.766	1601.96
210.232	1598.47
210.697	1956.16
211.163	2434.85
211.628	3657.9
212.094	3061.09
212.559	3800.7
213.024	2343.23
213.49	2859.29
213.955	2747.37
214.42	2642.32
214.885	2453.8
215.35	2336.94
215.815	2290.53
216.28	2411.57
216.745	1954.34
217.21	2127.31
217.675	1926.38
218.14	2161.24
218.604	2383.01
219.069	2714.09
219.534	2862.57
219.998	3300.77
220.463	3979.64
220.927	4819.97
221.392	4519.52
221.856	4554.82
222.32	5678.93
222.785	6999.29
223.249	8786.25
223.713	9808.42
224.177	9804.48
224.642	12519.06
225.106	15454
225.57	16896.5
226.034	12654.89
226.497	19280.45
226.961	17476.37
227.425	20434.03
227.889	22674.14
228.353	22720.7
228.816	46974.45
229.28	45040.42
229.744	37983.75
230.207	23116.02
230.671	22773.57
231.134	37584.78
231.597	43418.79
232.061	43448.45
232.524	42352.87
232.987	29214.94
233.45	26348.79
233.914	23652.07
234.377	24184.14
234.84	22189.22
235.303	26207.94
235.766	29276.02
236.229	30303.1
236.691	19099.5
237.154	21459.81
237.617	16168.19
238.08	16565.74
238.542	19384.34
239.005	13876.55
239.468	13822.31
239.93	13013.22
240.393	11834.31
240.855	10405.57
241.317	10667.34
241.78	12972.38
242.242	13448.09
242.704	14572.11
243.166	12712.04
243.629	11571.06
244.091	13366.66
244.553	14665.76
245.015	15825.2
245.477	20456.88
245.939	29999.95
246.4	31885.4
246.862	31052.69
247.324	29308.96
247.786	32813.32
248.247	43057.92
248.709	44492.32
249.17	33320.83
249.632	31463.85
250.093	36534.23
250.555	31610.12
251.016	19305.22
251.477	18317.04
251.939	19784.32
252.4	20789.22
252.861	24689.55
253.322	22978.82
253.783	27343.51
254.244	35421.41
254.705	27899.14
255.166	24789.67
255.627	24418.78
256.088	34483.97
256.549	36568.13
257.009	31462.19
257.47	38053.18
257.931	30977.03
258.391	23193.39
258.852	23893.94
259.312	25017.63
259.773	30896.01
260.233	26130.15
260.694	22047.02
261.154	24964.82
261.614	20072.12
262.074	17948.09
262.534	18655
262.994	17579.45
263.455	23399.42
263.915	19709.95
264.374	18552.73
264.834	20223.54
265.294	22363.46
265.754	23126.39
266.214	21866.87
266.673	20453.43
267.133	25771.03
267.593	25539.49
268.052	31246.56
268.512	27148.49
268.971	32766.1
269.431	35914.65
269.89	32161.19
270.349	48195
270.809	53754.09
271.268	48286.64
271.727	108330.46
272.186	70166.25
272.645	52631.86
273.104	37945.27
273.563	54956.37
274.022	43159.01
274.481	36754.58
274.94	28323.79
275.399	21041
275.857	24497.99
276.316	33143.87
276.775	29491.99
277.233	29062.29
277.692	27229.63
278.15	30794.22
278.609	31695.69
279.067	29294.04
279.525	27212.33
279.984	35118.29
280.442	42216.3
280.9	41667.76
281.358	27420.73
281.816	25546.4
282.274	24987.52
282.732	25766.69
283.19	25906.19
283.648	22338.47
284.106	23824.58
284.564	24223.39
285.021	22482.45
285.479	16755.53
285.937	15216.49
286.394	13359.94
286.852	13741.71
287.309	14474.48
287.767	14026.96
288.224	13340.58
288.682	14641.5
289.139	16084
289.596	14735.95
290.053	15317.35
290.511	19348.43
290.968	23464.32
291.425	31794.81
291.882	26544.54
292.339	23129.34
292.796	22922.28
293.252	21610.92
293.709	17220.62
294.166	15425.46
294.623	17052.05
295.079	16368.06
295.536	16453.81
295.992	14964.56
296.449	14838.71
296.905	15430.43
297.362	14802.83
297.818	15567.24
298.274	16169
298.731	16458.65
299.187	16301.84
299.643	17489.51
300.099	21174.44
300.555	23237.51
301.011	19399.23
301.467	18747.16
301.923	21921.08
302.379	21391.11
302.835	21066.51
303.291	21112.52
303.746	24033.62
304.202	30426.54
304.658	30599.29
305.113	20567.9
305.569	20142.65
306.024	21500.53
306.479	20438.01
306.935	17250.95
307.39	18863.33
307.845	17412.43
308.301	17543.37
308.756	17103.61
309.211	16467.49
309.666	16886.44
310.121	21022.33
310.576	21385.89
311.031	21212.05
311.486	24301.81
311.94	24297.5
312.395	32542.98
312.85	61255.49
313.305	300667.49
313.759	1563493.7
314.214	113320.1
314.668	89931.59
315.123	75613.2
315.577	27130.19
316.032	24168.41
316.486	30314.74
316.94	23941.83
317.394	16679.96
317.849	12954.7
318.303	12266.69
318.757	11572.56
319.211	12831.65
319.665	11215.08
320.119	11376.68
320.572	16340.99
321.026	15289.48
321.48	12734.54
321.934	13890.27
322.387	13908.63
322.841	15058.79
323.295	13596.31
323.748	15625.31
324.202	15821.57
324.655	19061.69
325.108	26678.17
325.562	18846.87
326.015	22389.65
326.468	16915.63
326.921	18906.71
327.374	17684.57
327.827	18432.09
328.28	20863.21
328.733	14023.28
329.186	12367.51
329.639	11780.84
330.092	9916.83
330.545	9439.69
330.997	9541.75
331.45	10454.01
331.903	12289.21
332.355	21127.97
332.808	20529.41
333.26	16907.28
333.713	18361.91
334.165	18473.72
334.617	24635.92
335.069	19914.2
335.522	35981.97
335.974	39887.33
336.426	36396.7
336.878	25179.62
337.33	12789.4
337.782	12497.08
338.234	15713.56
338.686	18793.4
339.137	22276.66
339.589	21041.72
340.041	16511.04
340.493	14227.03
340.944	14581.01
341.396	15724.27
341.847	13229.6
342.299	15611.07
342.75	19088.91
343.201	16645.08
343.653	19156.01
344.104	23579.97
344.555	18537.67
345.006	28812.74
345.457	22123.37
345.908	17527.66
346.359	16522.43
346.81	13486.63
347.261	14191.95
347.712	13970.17
348.163	14999.34
348.613	15217.4
349.064	14241.61
349.515	12494.33
349.965	12842.08
350.416	15466.64
350.866	17022.08
351.317	19222.2
351.767	31815.28
352.217	40294.48
352.668	33428.86
353.118	30615.38
353.568	29494.87
354.018	23345.3
354.468	24669.79
354.918	17708.85
355.368	15485.98
355.818	21899.39
356.268	63100.59
356.718	264699.67
357.168	65860.03
357.617	33096.71
358.067	36832.18
358.517	34569.08
358.966	40551.75
359.416	45570.43
359.865	49293.99
360.315	58735.83
360.764	27436.26
361.213	15367.29
361.663	14559.98
362.112	17988.06
362.561	29083.62
363.01	22003.46
363.459	18526.93
363.908	20088.06
364.357	17058.35
364.806	28844.98
365.255	19870.58
365.703	18258.22
366.152	18331.7
366.601	14869.73
367.05	12125.55
367.498	11027.08
367.947	11479.75
368.395	11920.52
368.844	10553.32
369.292	12720.32
369.74	8786.4
370.189	13464.78
370.637	15751.51
371.085	13605.37
371.533	16542.29
371.981	15888.62
372.429	15201.56
372.877	15877.02
373.325	13326.86
373.773	13530.85
374.221	12007.35
374.669	14885.89
375.116	12855.83
375.564	12950.41
376.012	14459.59
376.459	11945.24
376.907	14268.07
377.354	17199.36
377.801	16080.81
378.249	18490.02
378.696	23695.56
379.143	28762.84
379.591	30649.77
380.038	51734.05
380.485	37385.52
380.932	40375.2
381.379	37054.82
381.826	27270.61
382.273	19398.96
382.72	16895.62
383.166	16479.2
383.613	10666.26
384.06	9604.98
384.506	11122.18
384.953	8181.45
385.4	8232.12
385.846	7193.78
386.292	6979
386.739	6824.59
387.185	6739.11
387.631	6741.99
388.078	6528.65
388.524	6984.68
388.97	6458.45
389.416	5383.65
389.862	5712.64
390.308	5406.02
390.754	5496.57
391.2	5963.72
391.645	6117.47
392.091	5873.08
392.537	5683.6
392.983	5702.41
393.428	5633.66
393.874	6032.96
394.319	6064.99
394.765	5776.08
395.21	5946.9
395.655	5578.14
396.101	5232.14
396.546	4731.39
396.991	4756.74
397.436	4422.54
397.881	4274.84
398.326	4035.89
398.771	3829.77
399.216	3347.42
399.661	3018.22
400.106	3021.94
400.551	3110.43
400.995	2795.49
401.44	2765.93
401.885	2605.28
402.329	2636.42
402.774	2533.21
403.218	2465.31
403.663	2371.91
404.107	2443.9
404.551	2468.24
404.995	2262.88
405.44	2180.38
405.884	2218.27
406.328	2148.91
406.772	2149.93
407.216	1960.69
407.66	1896.42
408.104	1800.08
408.547	1688.38
408.991	1635.72
409.435	1577.09
409.879	1561
410.322	1546.39
410.766	1498.07
411.209	1428.82
411.653	1371.13
412.096	1348.54
412.54	1352.16
412.983	1347.3
413.426	1357.42
413.869	1360.56
414.312	1337.41
414.756	1288.42
415.199	1228.46
415.642	1193.82
416.085	1196.28
416.527	1192.74
416.97	1211.5
417.413	1150.72
417.856	1140.68
418.298	1131.04
418.741	1122.89
419.184	1118.5
419.626	1163.96
420.069	1163.92
420.511	1172.33
420.953	1149.15
421.396	1137.43
421.838	1106.62
422.28	1132.43
422.722	1137.98
423.164	1152.29
423.606	1137.53
424.048	1138.57
424.49	1084.59
424.932	1079.76
425.374	1064.37
425.816	1082.32
426.258	1105.25
426.699	1120.69
427.141	1105.04
427.582	1121.2
428.024	1117.78
428.465	1108.17
428.907	1079.76
429.348	1066.5
429.789	1068.76
430.231	1047.74
430.672	1064.76
431.113	1036.67
431.554	1021.42
431.995	995.71
432.436	964.18
432.877	944.73
433.318	932.17
433.759	928.98
434.2	928.51
434.64	918.62
435.081	922.76
435.522	874.32
435.962	845.82
436.403	828.83
436.843	840.04
437.284	819.09
437.724	793.57
438.164	791.37
438.604	774.5
439.045	747.48
439.485	716.52
439.925	699.27
440.365	680.44
440.805	669.72
441.245	663.4
441.685	639.89
442.125	634.72
442.564	640.09
443.004	626.55
443.444	624.49
443.883	625.74
444.323	621.45
444.762	620.95
445.202	630.88
445.641	644.17
446.081	637.86
446.52	642.12
446.959	639.38
447.398	624.28
447.837	618.12
448.276	608.07
448.716	614.6
449.154	619.74
449.593	608.34
450.032	605.4
450.471	594.24
450.91	594.71
451.349	595.51
451.787	590.75
452.226	600.86
452.664	601.75
453.103	602.51
453.541	600.67
453.98	603.01
454.418	605.06
454.856	597.99
455.295	597.21
455.733	603.48
456.171	606.48
456.609	607.65
457.047	605.63
457.485	615.02
457.923	616.7
458.361	608.39
458.798	606.81
459.236	604.89
459.674	607.12
460.111	610.69
460.549	604
460.987	600.74
461.424	597.9
461.862	595.62
462.299	584.76
462.736	583.79
463.173	585.2
463.611	581.86
464.048	583.59
464.485	587.51
464.922	579.94
465.359	575.72
465.796	573.57
466.233	570.62
466.67	566.95
467.106	567.21
467.543	560.99
467.98	553.79
468.416	537.11
468.853	529.57
469.29	513.43
469.726	508.59
470.162	496.65
470.599	485.54
471.035	481.16
471.471	468.1
471.907	464.2
472.344	461.52
472.78	464.42
473.216	471.12
473.652	466.85
474.088	466.6
474.523	466.1
474.959	470.16
475.395	466.66
475.831	463.87
476.266	467.89
476.702	467.33
477.138	463.27
477.573	460.56
478.008	459.01
478.444	462.34
478.879	468.48
479.314	470.88
479.75	471.66
480.185	474.61
480.62	478.48
481.055	480.52
481.49	484.45
481.925	492.21
482.36	501.77
482.795	515.68
483.229	528.99
483.664	539.11
484.099	540.42
484.534	549.19
484.968	554.07
485.403	555.91
485.837	554.81
486.271	553.54
486.706	552.96
487.14	547.12
487.574	537.88
488.009	533.13
488.443	528.96
488.877	535.18
489.311	535.97
489.745	543.02
490.179	549.36
490.613	561.82
491.046	566.58
491.48	571.41
491.914	572.29
492.348	577.26
492.781	581.74
493.215	582.67
493.648	582.97
494.082	587.96
494.515	589.28
494.948	596.27
495.382	599.98
495.815	604.66
496.248	610.08
496.681	621.43
497.114	632.08
497.547	641.13
497.98	654.69
498.413	662.96
498.846	672.81
499.279	680.39
499.711	684.65
500.144	687.9
500.577	699.58
501.009	710.69
501.442	721.92
501.874	725.45
502.306	729.22
502.739	738.93
503.171	752.67
503.603	757.55
504.036	767.91
504.468	774.79
504.9	786.59
505.332	794.59
505.764	801.6
506.196	809.79
506.627	825.52
507.059	840.08
507.491	848.85
507.923	849.38
508.354	865.35
508.786	877.84
509.217	897.79
509.649	914.05
510.08	933.53
510.512	951.57
510.943	967.9
511.374	981.35
511.805	1002.42
512.237	1022.17
512.668	1055.59
513.099	1083.92
513.53	1111.35
513.961	1133.04
514.391	1165.78
514.822	1200.82
515.253	1236.55
515.684	1263.22
516.114	1293.12
516.545	1316.45
516.975	1345.35
517.406	1364.85
517.836	1370.49
518.267	1381.14
518.697	1402.55
519.127	1409.62
519.558	1417.96
519.988	1424.81
520.418	1436.65
520.848	1456.69
521.278	1468.57
521.708	1503.66
522.138	1518.65
522.567	1550.36
522.997	1578.17
523.427	1593.61
523.857	1612.4
524.286	1625.05
524.716	1642.5
525.145	1665.02
525.575	1678.41
526.004	1693.04
526.433	1673.56
526.863	1676.44
527.292	1669.32
527.721	1676.27
528.15	1684.71
528.579	1686.84
529.008	1699.55
529.437	1723.22
529.866	1737.92
530.295	1756.3
530.724	1771.47
531.152	1800.39
531.581	1815.62
532.01	1834.28
532.438	1843.44
532.867	1859.36
533.295	1879.04
533.723	1886.4
534.152	1884.74
534.58	1885.28
535.008	1869.18
535.436	1871.41
535.865	1879.06
536.293	1894.35
536.721	1911.34
537.149	1938.78
537.576	1941.76
538.004	1956.18
538.432	1963.47
538.86	1961.78
539.287	1968.79
539.715	1983.17
540.143	1985.3
540.57	1981.29
540.998	1976.62
541.425	1953.75
541.852	1931.37
542.28	1929.89
542.707	1912.44
543.134	1899.52
543.561	1896.57
543.988	1889.99
544.415	1890.84
544.842	1886.45
545.269	1881.13
545.696	1885.04
546.123	1899.41
546.549	1888.94
546.976	1876.63
547.403	1878.55
547.829	1880.62
548.256	1883.4
548.682	1881.05
549.108	1874.12
549.535	1875.25
549.961	1877.7
550.387	1864.95
550.813	1859.64
551.24	1868.45
551.666	1871.47
552.092	1862.08
552.518	1857.9
552.943	1852.26
553.369	1860.74
553.795	1866.84
554.221	1868.84
554.646	1866.99
555.072	1879.97
555.498	1886.02
555.923	1896.03
556.349	1912.76
556.774	1922.59
557.199	1923.54
557.625	1930.79
558.05	1926.1
558.475	1938.11
558.9	1937.96
559.325	1929.49
559.75	1922.99
560.175	1917.08
560.6	1910.71
561.025	1908.45
561.449	1910.51
561.874	1918.52
562.299	1924.88
562.723	1932.81
563.148	1922.77
563.572	1926.9
563.997	1939.1
564.421	1945.74
564.846	1946.75
565.27	1951.26
565.694	1948.57
566.118	1961.34
566.542	1969.37
566.966	1961.26
567.39	1955.86
567.814	1945.83
568.238	1945.4
568.662	1950.64
569.086	1953.7
569.509	1961.47
569.933	1946.58
570.357	1939.05
570.78	1916.99
571.204	1902.9
571.627	1892.93
572.05	1891.52
572.474	1890.64
572.897	1878.96
573.32	1871.58
573.743	1860.86
574.166	1842.08
574.589	1841.8
575.012	1834.8
575.435	1833.31
575.858	1824.16
576.281	1812.59
576.704	1795.86
577.126	1784.38
577.549	1771.73
577.972	1761.93
578.394	1752.14
578.817	1745.99
579.239	1727.62
579.661	1715.14
580.084	1699.47
580.506	1686.5
580.928	1683.99
581.35	1673.45
581.772	1668.29
582.194	1656.13
582.616	1642.59
583.038	1626.87
583.46	1615.05
583.882	1610.94
584.303	1615.11
584.725	1610.65
585.147	1613.71
585.568	1625.56
585.99	1638.68
586.411	1645.56
586.833	1660.63
587.254	1662.09
587.675	1678.67
588.096	1692.99
588.518	1688.51
588.939	1670.07
589.36	1668.1
589.781	1655.27
590.202	1624.78
590.623	1616.1
591.043	1613.53
591.464	1600.26
591.885	1596.75
592.305	1589.47
592.726	1574.92
593.147	1575.58
593.567	1570.77
593.987	1562.2
594.408	1556.6
594.828	1552.56
595.248	1544.74
595.669	1525.94
596.089	1518.93
596.509	1511.21
596.929	1497.47
597.349	1498.61
597.769	1487.36
598.189	1479.62
598.608	1481.66
599.028	1483.43
599.448	1485.07
599.867	1472.35
600.287	1467.72
600.706	1462.27
601.126	1451.69
601.545	1450.31
601.965	1448.12
602.384	1443.04
602.803	1446.49
603.222	1441.22
603.641	1434.97
604.061	1431.08
604.48	1426.71
604.898	1434.9
605.317	1440.59
605.736	1443.12
606.155	1440.41
606.574	1430.2
606.992	1435.29
607.411	1430.26
607.829	1421.08
608.248	1417.09
608.666	1414.07
609.085	1412.9
609.503	1404.05
609.921	1398.04
610.339	1400.84
610.758	1399.29
611.176	1395.07
611.594	1386.79
612.012	1382.59
612.43	1386.13
612.847	1392.32
613.265	1393.72
613.683	1399.16
614.101	1400.47
614.518	1395.53
614.936	1385.02
615.353	1368.96
615.771	1364.41
616.188	1362.88
616.606	1358.72
617.023	1351.8
617.44	1336.36
617.857	1327.67
618.274	1317.42
618.691	1310.57
619.108	1300.67
619.525	1293.51
619.942	1301.24
620.359	1304.52
620.776	1299.24
621.192	1295.06
621.609	1292.54
622.026	1301.02
622.442	1308.01
622.859	1311.69
623.275	1304.27
623.691	1310
624.108	1321.2
624.524	1334.72
624.94	1334.4
625.356	1344.46
625.772	1358.32
626.188	1368.92
626.604	1370.14
627.02	1365.23
627.436	1362.81
627.852	1369.21
628.268	1380.78
628.683	1369.97
629.099	1361.26
629.514	1356.2
629.93	1359.49
630.345	1362.99
630.761	1359.32
631.176	1361.11
631.591	1354.24
632.007	1348.18
632.422	1345.95
632.837	1333.49
633.252	1331.67
633.667	1320.56
634.082	1309.87
634.497	1295.65
634.911	1275.48
635.326	1270
635.741	1249.99
636.155	1238.49
636.57	1238.16
636.984	1236.31
637.399	1237.17
637.813	1234.62
638.228	1232.06
638.642	1234.98
639.056	1222.28
639.47	1220.15
639.884	1209.79
640.298	1202.99
640.712	1199.1
641.126	1184.45
641.54	1172.31
641.954	1163.08
642.368	1148.97
642.781	1139.41
643.195	1118.55
643.609	1117.94
644.022	1109.41
644.436	1103.06
644.849	1088.58
645.262	1073.58
645.676	1071.77
646.089	1064.51
646.502	1048.96
646.915	1041.47
647.328	1021.56
647.741	1017.58
648.154	1002.9
648.567	999.77
648.98	985.98
649.393	983.89
649.805	979.69
650.218	971.81
650.631	956.94
651.043	949.76
651.456	943.08
651.868	942.68
652.28	958.21
652.693	969.66
653.105	972.61
653.517	979.72
653.929	979.8
654.341	985.34
654.753	972
655.165	976.7
655.577	973.68
655.989	967.6
656.401	958.58
656.813	924.43
657.224	903.77
657.636	875.96
658.047	857.97
658.459	837.62
658.87	825.47
659.282	812.4
659.693	791.53
660.104	775.73
660.515	761.68
660.926	756.98
661.338	751.45
661.749	743.48
662.159	733.38
662.57	726.34
662.981	722.03
663.392	714.94
663.803	716.78
664.213	711.74
664.624	705.59
665.035	705.78
665.445	691.84
665.855	683.42
666.266	675.3
666.676	671.4
667.086	662.91
667.497	659.23
667.907	651.47
668.317	642.76
668.727	641.04
669.137	639.97
669.547	637.06
669.956	638.39
670.366	639.75
670.776	640.65
671.186	642.74
671.595	645
672.005	647.43
672.414	647.37
672.824	646.32
673.233	648.05
673.642	650.8
674.052	653.46
674.461	656.83
674.87	660.92
675.279	659.55
675.688	661.38
676.097	662.96
676.506	661.34
676.915	674.06
677.323	677.11
677.732	674.87
678.141	675.09
678.549	666.36
678.958	666.31
679.366	666.93
679.775	670.7
680.183	683.07
680.592	690.47
681	696.54
681.408	693.43
681.816	702.52
682.224	714.57
682.632	727.21
683.04	756.71
683.448	782.83
683.856	814.99
684.264	853.08
684.671	886.02
685.079	928.31
685.487	975.46
685.894	1038.1
686.302	1091.51
686.709	1136.95
687.116	1192.02
687.524	1240.53
687.931	1281.83
688.338	1317.77
688.745	1348.78
689.152	1384.87
689.559	1432.1
689.966	1478.46
690.373	1504.89
690.78	1550.97
691.187	1618.21
691.593	1668.03
692	1712.87
692.407	1775.96
692.813	1857.93
693.22	1921.21
693.626	1986.62
694.032	2037.92
694.439	2117.66
694.845	2178.29
695.251	2254.42
695.657	2324.51
696.063	2426.99
696.469	2502.1
696.875	2573.18
697.281	2609.01
697.687	2657.74
698.093	2695.17
698.498	2772.33
698.904	2832.27
699.31	2923.69
699.715	2987.41
700.12	3079.6
700.526	3097.26
700.931	3168.56
701.337	3222.84
701.742	3255.77
702.147	3342.43
702.552	3373.11
702.957	3434.49
703.362	3451.6
703.767	3480.06
704.172	3521.6
704.577	3470.07
704.981	3518.85
705.386	3535.25
705.791	3524.92
706.195	3600.42
706.6	3606.16
707.004	3686.51
707.408	3653.13
707.813	3681.46
708.217	3664.64
708.621	3662.97
709.025	3763.02
709.43	3761.08
709.834	3821.64
710.237	3891.19
710.641	3875.4
711.045	3897.77
711.449	3893.41
711.853	3922.65
712.256	3962.36
712.66	4001.45
713.064	4079.94
713.467	4121.03
713.87	4233.32
714.274	4277.24
714.677	4387.66
715.08	4552.01
715.484	4721.27
715.887	4926.98
716.29	5124.87
716.693	5337.94
717.096	5581.85
717.499	5711.3
717.901	5734.7
718.304	5761.53
718.707	5785.18
719.109	5676.46
719.512	5638.91
719.915	5498.74
720.317	5438.66
720.719	5482.94
721.122	5447.43
721.524	5393.09
721.926	5349.3
722.328	5447.92
722.731	5434.08
723.133	5457.28
723.535	5654.22
723.937	5672.74
724.338	5724.09
724.74	5761.86
725.142	5715.11
725.544	5715.38
725.945	5741.45
726.347	5734.25
726.748	5726.12
727.15	5739.09
727.551	5699.67
727.952	5666.29
728.354	5635.92
728.755	5634.68
729.156	5591.31
729.557	5557.08
729.958	5429.09
730.359	5369.36
730.76	5349.99
731.161	5286.27
731.562	5259.54
731.962	5262.82
732.363	5198.08
732.763	5133.72
733.164	5168.49
733.564	5098.84
733.965	5003.33
734.365	4968.77
734.766	4997.65
735.166	4958.63
735.566	4903.15
735.966	4876.76
736.366	4872.24
736.766	4808.98
737.166	4839.07
737.566	4795.75
737.966	4771.67
738.365	4808.37
738.765	4802.76
739.165	4727.63
739.564	4697.74
739.964	4743.68
740.363	4696.77
740.763	4692.56
741.162	4683.33
741.561	4650.8
741.96	4606.45
742.36	4623.89
742.759	4630.01
743.158	4669.61
743.557	4684.24
743.955	4723.86
744.354	4678.88
744.753	4736.47
745.152	4695.53
745.55	4749.06
745.949	4742.63
746.348	4741.96
746.746	4758.67
747.144	4720.01
747.543	4695.07
747.941	4741.49
748.339	4671.66
748.737	4660.89
749.136	4651.83
749.534	4713.12
749.932	4687.04
750.33	4711.52
750.727	4765.78
751.125	4741.81
751.523	4722.62
751.921	4767.95
752.318	4734.67
752.716	4794.48
753.113	4808.85
753.511	4833.35
753.908	4836.07
754.305	4820.19
754.703	4882.27
755.1	4946.82
755.497	5007.39
755.894	5199.67
756.291	5376.26
756.688	5705.93
757.085	6144.18
757.482	6762.8
757.878	7440.73
758.275	8049.75
758.672	8882.93
759.068	9562.08
759.465	10535.37
759.861	11788.46
760.258	13247.99
760.654	13998.13
761.05	13885.77
761.447	13259.41
761.843	12340.69
762.239	11396.16
762.635	10968.59
763.031	10557.01
763.427	9966.8
763.822	9346.85
764.218	8735.54
764.614	7933.87
765.01	7401.66
765.405	7057.21
765.801	6793.55
766.196	6462.89
766.592	6273.25
766.987	5959.42
767.382	5750.45
767.778	5661.61
768.173	5532.12
768.568	5459.1
768.963	5337.41
769.358	5357.04
769.753	5309.97
770.148	5224.88
770.542	5224.37
770.937	5192.52
771.332	5285.98
771.726	5303.65
772.121	5242.93
772.515	5293.47
772.91	5279.65
773.304	5348.26
773.699	5281.61
774.093	5337.1
774.487	5391.39
774.881	5431.5
775.275	5427.59
775.669	5381.71
776.063	5423.28
776.457	5456.06
776.851	5381.78
777.245	5372.75
777.638	5407.13
778.032	5519.64
778.425	5484.12
778.819	5530
779.212	5488.41
779.606	5447.92
779.999	5468.73
780.392	5456.42
780.786	5540.81
781.179	5564.86
781.572	5607.37
781.965	5615.57
782.358	5561.26
782.751	5616.28
783.143	5564.14
783.536	5640.3
783.929	5685.64
784.322	5801.23
784.714	5830.44
785.107	5824.64
785.499	5896.56
785.891	5876.35
786.284	5862.36
786.676	6005.77
787.068	5987.38
787.46	6042.32
787.852	6058.66
788.245	6146.31
788.636	6174.21
789.028	6244.69
789.42	6285.59
789.812	6293.08
790.204	6389.29
790.595	6489.03
790.987	6291.32
791.378	6312.37
791.77	6442.85
792.161	6586.58
792.553	6640.4
792.944	6529.99
793.335	6459.74
793.726	6532.22
794.117	6623.02
794.508	6764.41
794.899	6734.86
795.29	6876.81
795.681	6938.71
796.072	6795.41
796.463	6612.74
796.853	6629.2
797.244	6790.74
797.634	6829.9
798.025	6830.18
798.415	6845.91
798.806	6935.35
799.196	7021.02
799.586	7078.01
799.976	7044.17
800.366	7279.1
800.756	7515.73
801.146	7473.96
801.536	7504.67
801.926	7577.3
802.316	7608.33
802.706	7686.07
803.095	7565.57
803.485	7674.5
803.874	7714.52
804.264	7972.32
804.653	7955.04
805.043	8100.5
805.432	8214.62
805.821	8224.47
806.21	8249.36
806.599	8368.38
806.988	8412.06
807.377	8519.97
807.766	8651.31
808.155	8939.21
808.544	8677.95
808.933	8689.23
809.321	8676.06
809.71	8971.59
810.098	9126.02
810.487	9593.55
810.875	10085.48
811.264	10109.3
811.652	10409.6
812.04	10561.09
812.428	10725.08
812.816	11495.35
813.204	11922.6
813.592	12481.04
813.98	12820.96
814.368	12737.47
814.756	13226.06
815.144	13144.34
815.531	13622.1
815.919	13545.61
816.306	13854.88
816.694	13549.84
817.081	13608.34
817.469	13957.91
817.856	13955.31
818.243	14234.73
818.63	14628.48
819.017	14200.07
819.404	14274.16
819.791	14656.13
820.178	15283.14
820.565	15537.54
820.952	16483.59
821.339	15988.51
821.725	16172.04
822.112	15422.82
822.498	15382.13
822.885	15512.47
823.271	15414.42
823.657	15830.36
824.044	15844.04
824.43	15911.45
824.816	15893
825.202	15446.65
825.588	16475.25
825.974	16498.36
826.36	17019.96
826.746	17051.39
827.132	17407.62
827.517	17395.85
827.903	16597.73
828.289	16636.89
828.674	15851.5
829.06	15730.38
829.445	16126.03
829.83	16490.58
830.216	16963.72
830.601	17334.82
830.986	16925.04
831.371	16792.38
831.756	17348.04
832.141	16907.7
832.526	16894.41
832.911	17171.14
833.295	17052.79
833.68	17531.79
834.065	16905.18
834.449	15986.24
834.834	15907.53
835.218	15895.93
835.603	16237.21
835.987	16017.84
836.371	16861.62
836.755	16753.78
837.139	17150.13
837.524	17386.37
837.908	17198.79
838.291	17251.35
838.675	17310.04
839.059	17512.73
839.443	17496.08
839.827	17256.25
840.21	17730.61
840.594	17579.23
840.977	17784.85
841.361	17765.56
841.744	18149.37
842.127	17996.06
842.511	18236.74
842.894	18833.18
843.277	19213.37
843.66	19763.84
844.043	19850.56
844.426	19039.25
844.809	18719.91
845.191	18747.33
845.574	18288.15
845.957	17911.96
846.339	17798.95
846.722	17267.89
847.104	17336.92
847.487	17153.34
847.869	17160.09
848.252	17439.67
848.634	17776.62
849.016	18040.88
849.398	18165.03
849.78	19011.76
850.162	19023.63
850.544	19435.39
850.926	20066.17
851.307	19976.01
851.689	20266.8
852.071	20724.1
852.452	21041.27
852.834	21014.05
853.215	21406.32
853.597	21551.62
853.978	21841
854.359	22293
854.741	21300.24
855.122	21210.28
855.503	20919.46
855.884	21057
856.265	20992.76
856.646	21107.54
857.026	20711.38
857.407	20659.03
857.788	20823.79
858.169	21119.69
858.549	20271.39
858.93	20893.93
859.31	20937.1
859.69	21155.98
860.071	20742.54
860.451	20524.44
860.831	19788.05
861.211	20954.14
861.591	21493.39
861.971	21459.17
862.351	21650.99
862.731	22037.82
863.111	22306.43
863.491	22636.3
863.87	23509.93
864.25	23863.28
864.629	23471.92
865.009	23988.12
865.388	24843.83
865.768	26634.23
866.147	26558.17
866.526	25098.47
866.905	25406.77
867.284	26838.36
867.663	25487.61
868.042	24416.4
868.421	24333.37
868.8	24731.18
869.179	24970.93
869.558	23519.87
869.936	21668.08
870.315	22041.14
870.693	22575.96
871.072	24333.19
871.45	23177.5
871.828	23477.14
872.207	24691.22
872.585	24324.19
872.963	24973.32
873.341	24117.82
873.719	23830.61
874.097	23548.56
874.475	23993.27
874.853	24543.75
875.23	23520.73
875.608	24503.74
875.986	26508.2
876.363	25358.4
876.741	26142.34
877.118	25502.61
877.495	26757.71
877.873	27202.14
878.25	28618.3
878.627	27452.68
879.004	27827.04
879.381	27692.88
879.758	26959.36
880.135	25088.72
880.512	26518.36
880.889	25785.54
881.265	25511.12
881.642	25287.78
882.019	25708.38
882.395	25189.19
882.772	26183.25
883.148	25045.53
883.524	24951.15
883.901	24819.22
884.277	25188.82
884.653	25021.36
885.029	25749.81
885.405	28503.77
885.781	28276.01
886.157	27108.8
886.532	27435.12
886.908	27415.97
887.284	30476.44
887.659	31463.69
888.035	32411.19
888.411	33239.61
888.786	33673.8
889.161	34847.44
889.537	34199.83
889.912	35297.09
890.287	35263.93
890.662	36168.13
891.037	35506.7
891.412	33096.25
891.787	32749.02
892.162	31611
892.536	32338.71
892.911	31125.14
893.286	30457.01
893.66	29229.7
894.035	29967.39
894.409	32614.11
894.784	31292.64
895.158	31802.8
895.532	33694.63
895.906	34623.84
896.281	35439.09
896.655	34879.6
897.029	39848.38
897.402	41491.65
897.776	46177.26
898.15	46010.34
898.524	45519.3
898.898	46119.53
899.271	51661.86
899.645	44753.82
900.018	42979.52
900.392	44563.06
900.765	44908.16
901.138	41551.51
901.511	40914.57
901.884	37589.5
902.258	34681.06
902.631	35845.01
903.003	41265.97
903.376	37224.15
903.749	41722.16
904.122	44645.61
904.495	49135.41
904.867	49753.88
905.24	43191.83
905.612	40221.46
905.985	41106.44
906.357	42956.46
906.729	40999.34
907.102	35008.39
907.474	33665.49
907.846	33872.77
908.218	33430.74
908.59	29549.58
908.962	28580.66
909.334	30775.67
909.705	32315.54
910.077	31372.66
910.449	32661.8
910.82	33552.46
911.192	36933.46
911.563	38369.62
911.935	41067.34
912.306	41108.13
912.677	42455.83
913.048	42032.29
913.419	45602.9
913.79	45874.1
914.161	49175.36
914.532	47015.36
914.903	43221.53
915.274	41030.55
915.645	40427.39
916.015	35581.5
916.386	33938.01
916.756	36111.46
917.127	37241.51
917.497	33267.9
917.868	36208.01
918.238	34404.36
918.608	35396.76
918.978	36145.93
919.348	38287.23
919.718	39553.58
920.088	38113.02
920.458	39606.57
920.828	41697.38
921.198	39546.22
921.567	42274.63
921.937	32751.59
922.306	33099.53
922.676	35680.89
923.045	29754.59
923.415	28281.33
923.784	25763.62
924.153	26496.06
924.522	26458.33
924.891	24866.72
925.26	26639.7
925.629	25999.14
925.998	29879.33
926.367	29156.22
926.736	27766.21
927.104	33092.53
927.473	35559.68
927.842	42933.58
928.21	42483.89
928.578	44689.84
928.947	42281.01
929.315	42562.98
929.683	49957.88
930.051	50366.1
930.42	58494.41
930.788	50011.64
931.156	49612.52
931.523	46515.3
931.891	43002.52
932.259	41310.42
932.627	47854.32
932.994	67670.87
933.362	55877.94
933.729	48491.23
934.097	46399.87
934.464	39257.29
934.831	45255.63
935.199	44586.25
935.566	43234.88
935.933	43773.61
936.3	53027.34
936.667	41303.64
937.034	37294.68
937.401	36886.62
937.767	31844.99
938.134	28353.47
938.501	39976.37
938.867	42639.08
939.234	72074.55
939.6	61442.71
939.967	67771.43
940.333	45418.06
940.699	38636.21
941.065	30965.03
941.431	40611.86
941.798	39174.46
942.163	51403.09
942.529	32133.3
942.895	29592.8
943.261	19163.27
943.627	25142.94
943.992	22021.15
944.358	22027.24
944.723	22111.24
945.089	21544.32
945.454	19905.49
945.82	21226.9
946.185	20411.34
946.55	23632.94
946.915	21189.81
947.28	24856.37
947.645	21881.34
948.01	20185.87
948.375	21071.3
948.74	25262.16
949.104	29479.07
949.469	42586.9
949.834	75369.99
950.198	71482.01
950.562	42849.76
950.927	35674.75
951.291	42922.13
951.655	36561.36
952.02	34355.43
952.384	25948.15
952.748	22621.64
953.112	22065.28
953.476	19176.63
953.839	17709.24
954.203	17530.21
954.567	21911.22
954.931	34479.15
955.294	29481.73
955.658	29646.96
956.021	50398.57
956.385	85504.43
956.748	125900.12
957.111	195087.94
957.474	218839.01
957.837	246445.75
958.2	186297.29
958.563	67019.76
958.926	45413.43
959.289	68907.97
959.652	76971.41
960.015	57747.67
960.377	82826.33
960.74	94509.63
961.102	163243.98
961.465	175418.91
961.827	94063.17
962.189	180594.42
962.552	125379.28
962.914	100368.3
963.276	65207.77
963.638	53918.32
964	53300.84
964.362	36012.82
964.724	34784.88
965.085	24799.83
965.447	20314.18
965.809	23133.93
966.17	23149.49
966.532	24995.4
966.893	22920.38
967.255	20835.51
967.616	24582.26
967.977	19708.01
968.338	21521.37
968.699	17702.9
969.061	17695.84
969.421	17820.9
969.782	19980.36
970.143	16878.28
970.504	17487.17
970.865	19878.04
971.225	20335.7
971.586	19896.99
971.946	28336.14
972.307	24601.48
972.667	32123.81
973.027	33090.27
973.388	40136.06
973.748	27307.72
974.108	29742.06
974.468	40250.12
974.828	31071.36
975.188	23879.35
975.548	21919.11
975.907	18431.5
976.267	20668.88
976.627	17395.97
976.986	18026.51
977.346	17173.2
977.705	16509.04
978.064	15023.07
978.424	12492.1
978.783	12906.12
979.142	14717.96
979.501	14074.95
979.86	14857.81
980.219	14305.52
980.578	18426.99
980.937	20641.74
981.296	18382.77
981.654	18938.39
982.013	29461.04
982.371	38239.52
982.73	35711.22
983.088	40442.67
983.447	43237.92
983.805	61855.91
984.163	129220.34
984.521	143313.81
984.879	209990.94
985.237	-341580.48
985.595	329141.29
985.953	81684.4
986.311	47145.8
986.669	27379.86
987.026	23654.21
987.384	31840.6
987.741	32883.18
988.099	23539.42
988.456	18778.09
988.814	17571.78
989.171	15290.54
989.528	15067.97
989.885	15917.43
990.242	12622.33
990.599	15711.27
990.956	12851.43
991.313	8982.74
991.67	7372
992.027	7824.91
992.383	6956.21
992.74	6107.78
993.096	6410.76
993.453	6645.59
993.809	6886.61
994.165	9177.37
994.522	8424.59
994.878	9276.97
995.234	11621.39
995.59	11460.08
995.946	10809.79
996.302	12326.8
996.658	14235.53
997.013	15659.12
997.369	18619.98
997.725	23890.68
998.08	15454.66
998.436	23729.68
998.791	32775.61
999.147	32729.46
999.502	35749.24
999.857	26008.13
1000.212	42329.23
1000.567	60161.85
1000.922	34703.77
1001.277	21989.2
1001.632	16298.38
1001.987	21029.93
1002.342	15126.24
1002.696	12088.25
1003.051	9657.45
1003.406	11710.72
1003.76	11676.28
1004.114	11540.44
1004.469	9726.04
1004.823	8066.71
1005.177	8720.79
1005.531	6920.63
1005.885	6135.16
1006.239	6933.12
1006.593	8689.68
1006.947	11653.94
1007.301	8729.14
1007.655	9488.73
1008.008	6950.34
1008.362	7815.48
1008.715	11130.74
1009.069	10092.8
1009.422	15221.83
1009.776	30441.25
1010.129	20178.05
1010.482	16876.85
1010.835	14217.46
1011.188	29602.25
1011.541	27881.26
1011.894	-171184
1012.247	503277.81
1012.6	34230.99
1012.952	21658.51
1013.305	11107.22
1013.657	8030.95
1014.01	7610.62
1014.362	6263.12
1014.715	5578.39
1015.067	4852.94
1015.419	4755.8
1015.771	4203.17
1016.123	3745.82
1016.475	3845.84
1016.827	4078.92
1017.179	4395.51
1017.531	4426.16
1017.883	4502.37
1018.234	4364.07
1018.586	5509.66
1018.938	5855.3
1019.289	8044.88
1019.64	9196.16
1019.992	8523.93
1020.343	7816.51
1020.694	6187.84
1021.045	5457.15
1021.396	6222.81
1021.747	6693.64
1022.098	7999.89
1022.449	5812.12
1022.8	5399.49
1023.151	3780.5
1023.501	3363.56
1023.852	3663.14
1024.202	3815.6
1024.553	4201.62
1024.903	4124.13
1025.253	3530.79
1025.604	3186.98
1025.954	3956.92
1026.304	4804.97
1026.654	5569.89
1027.004	8147.6
1027.354	13091.62
1027.703	12340.83
1028.053	16132.91
1028.403	23736.06
1028.753	34362.05
1029.102	46703.12
1029.452	239098.5
1029.801	10320.97
1030.15	6674.86
1030.499	5668.84
897.758	3316.61
901.051	3301.9
904.343	3338.81
907.636	3331.82
910.928	3402.03
914.22	3300.77
917.511	3314.46
920.803	3401.41
924.094	3452.29
927.384	3399.26
930.675	3361.36
933.965	3302.73
937.255	3294.06
940.544	3259.27
943.834	3106.31
947.123	3065.48
950.411	3172.48
953.7	3133.95
956.988	3080.24
960.276	3025.59
963.563	3149.79
966.851	3128.86
970.138	3209.14
973.424	3183.74
976.711	3134.38
979.997	3395.96
983.283	3408.98
986.568	3276.38
989.853	3326.35
993.138	3355.4
996.423	3439
999.708	3348.38
1002.992	3469.16
1006.275	3189.54
1009.559	3302.44
1012.842	3442
1016.125	3346.16
1019.408	3320.44
1022.69	3450.23
1025.972	3451.92
1029.254	3422.03
1032.536	3309.6
1035.817	3357.28
1039.098	3254.83
1042.379	3532.27
1045.659	3479.04
1048.939	3387.65
1052.219	3430.23
1055.498	3463.18
1058.778	3433.99
1062.057	3423.94
1065.335	3440.06
1068.614	3475.18
1071.892	3437.2
1075.17	3542.97
1078.447	3514.92
1081.724	3499.1
1085.001	3553.86
1088.278	3515.6
1091.554	3542.78
1094.83	3539.48
1098.106	3562.91
1101.382	3627.64
1104.657	3625.86
1107.932	3625.2
1111.206	3567.32
1114.481	3526.05
1117.755	3536.29
1121.029	3494.5
1124.302	3542.92
1127.575	3469.69
1130.848	3443.81
1134.121	3395.22
1137.393	3325.33
1140.665	3409.58
1143.937	3386.07
1147.208	3287.68
1150.48	3313.9
1153.75	3293.34
1157.021	3368.16
1160.291	3320.03
1163.561	3361.63
1166.831	3386.36
1170.101	3419.68
1173.37	3405.61
1176.639	3322.3
1179.907	3397.02
1183.176	3453.71
1186.444	3459.14
1189.711	3493.21
1192.979	3491.33
1196.246	3453.28
1199.513	3474.06
1202.78	3466.8
1206.046	3473.56
1209.312	3515.51
1212.578	3552.06
1215.843	3480.38
1219.108	3460.38
1222.373	3485.06
1225.638	3428.92
1228.902	3403.5
1232.166	3369.51
1235.43	3345.84
1238.693	3359.36
1241.956	3368
1245.219	3393.52
1248.482	3402.54
1251.744	3391.25
1255.006	3584.54
1258.268	3546.55
1261.529	3475.68
1264.79	3491.47
1268.051	3623.86
1271.312	3643.67
1274.572	3598.32
1277.832	3591.15
1281.092	3591.95
1284.351	3535.24
1287.61	3504.82
1290.869	3387.86
1294.128	3334
1297.386	3482.38
1300.644	3465.14
1303.902	3476.04
1307.159	3317.3
1310.416	3377.09
1313.673	3393.06
1316.93	3365.52
1320.186	3434.05
1323.442	3492.98
1326.697	3467.29
1329.953	3483.28
1333.208	3491.11
1336.463	3478.19
1339.717	3401.46
1342.972	3490.49
1346.226	3502.91
1349.479	3409.22
1352.733	3358.45
1355.986	3408.22
1359.238	3375.77
1362.491	3374.42
1365.743	3381.08
1368.995	3382.34
1372.247	3397.62
1375.498	3410.32
1378.749	3476.64
1382	3413.51
1385.251	3491.9
1388.501	3467.3
1391.751	3429.86
1395	3411.11
1398.25	3453
1401.499	3443.28
1404.748	3349.27
1407.996	3256.11
1411.244	3253.75
1414.492	3228.53
1417.74	3196.72
1420.987	3220.22
1424.234	3269.15
1427.481	3273.77
1430.728	3327.47
1433.974	3300.17
1437.22	3335.86
1440.465	3340.37
1443.711	3347.72
1446.956	3379.38
1450.201	3391.56
1453.445	3438.96
1456.689	3399.88
1459.933	3419.29
1463.177	3444.46
1466.42	3416.07
1469.663	3394.7
1472.906	3357.93
1476.148	3509.7
1479.391	3384.14
1482.633	3375.87
1485.874	3368.29
1489.115	3328.66
1492.356	3360.44
1495.597	3329.61
1498.838	3346.45
1502.078	3289.99
1505.318	3205.74
1508.557	3263.6
1511.797	3168.84
1515.036	3352.57
1518.274	3332.91
1521.513	3323.16
1524.751	3359.54
1527.989	3361.65
1531.227	3362.66
1534.464	3327.05
1537.701	3385.32
1540.938	3415.68
1544.174	3375.77
1547.41	3387.21
1550.646	3425.94
1553.882	3447
1557.117	3498.89
1560.352	3523.69
1563.587	3472.92
1566.821	3421.06
1570.055	3485.96
1573.289	3440.42
1576.523	3544.94
1579.756	3539.48
1582.989	3559.67
1586.222	3513.81
1589.454	3568.09
1592.686	3527.99
1595.918	3550.37
1599.15	3526.23
1602.381	3643.15
1605.612	3559.3
1608.843	3665.11
1612.073	3557.26
1615.303	3538.68
1618.533	3511.95
1621.762	3528.79
1624.992	3530.41
1628.221	3492.54
1631.449	3475.09
1634.678	3575.04
1637.906	3513.37
1641.134	3569.27
1644.361	3511.74
1647.588	3498.4
1650.815	3504.16
1654.042	3505
1657.269	3541.52
1660.495	3488.95
1663.72	3427.78
1666.946	3417.04
1670.171	3310.44
1673.396	3291.77
1676.621	3292.99
1679.845	3348.1
1683.069	3388.05
1686.293	3453.89
1689.517	3399.56
1692.74	3288.83
1695.963	3304.97
1699.185	3410.63
1702.408	3355.32
1705.63	3415.77
1708.852	3416.93
1712.073	3388.96
1715.294	3347
1718.515	3371.72
1721.736	3315.19
1724.956	3275.74
1728.176	3314.03
1731.396	3332.54
1734.616	3330.55
1737.835	3334.87
1741.054	3331.08
1744.272	3330.25
1747.491	3338.13
1750.709	3433.41
1753.927	3331.87
1757.144	3390.09
1760.361	3466.27
1763.578	3479.02
1766.795	3405.69
1770.011	3433.14
1773.227	3499.93
1776.443	3529.39
1779.658	3572.72
1782.874	3520.9
1786.089	3479.42
1789.303	3484.31
1792.518	3499.49
1795.732	3486.58
1798.945	3488.31
1802.159	3549.41
1805.372	3396.66
1808.585	3368.65
1811.797	3368.63
1815.01	3458.72
1818.222	3462.28
1821.434	3326.41
1824.645	3442.26
1827.856	3393.67
1831.067	3448.29
1834.278	3364.22
1837.488	3360.14
1840.698	3551.28
1843.908	3443.7
1847.117	3404.07
1850.326	3218.56
1853.535	3366.29
1856.744	3505.09
1859.952	3376.6
1863.16	3374.61
1866.368	3398.25
1869.575	3565.08
1872.782	3436.44
1875.989	3380.04
1879.196	3516.01
1882.402	3511.04
1885.608	3563.46
1888.814	3413.42
1892.019	3283.98
1895.224	3336.36
1898.429	3339.5
1901.634	3305.84
1904.838	3288.45
1908.042	3332.06
1911.246	3331.24
1914.449	3217.99
1917.652	3236.66
1920.855	3222.41
1924.058	3305.06
1927.26	3331.75
1930.462	3370.79
1933.664	3382.17
1936.865	3311.81
1940.066	3305.18
1943.267	3256.85
1946.467	3285.23
1949.668	3323.06
1952.868	3386.94
1956.067	3345.5
1959.267	3262.19
1962.466	3297.14
1965.665	3284.31
1968.863	3278.33
1972.061	3315.65
1975.259	3323.01
1978.457	3410.21
1981.654	3357.11
1984.852	3356.32
1988.048	3258.47
1991.245	3283.75
1994.441	3370.61
1997.637	3388.66
2000.833	3372.13
2004.028	3418.07
2007.223	3460.43
2010.418	3421.04
2013.613	3389.76
2016.807	3327.28
2020.001	3354.69
2023.194	3436.12
2026.388	3396.15
2029.581	3345.22
2032.774	3374.36
2035.966	3369.95
2039.158	3277.9
2042.35	3317.79
2045.542	3241.61
2048.733	3378.85
2051.924	3446.66
2055.115	3489.68
2058.306	3394.28
2061.496	3463.06
2064.686	3546.95
2067.875	3470.98
2071.065	3505.05
2074.254	3546.27
2077.442	3492.22
2080.631	3599.33
2083.819	3425.67
2087.007	3387.67
2090.195	3341.05
2093.382	3404.41
2096.569	3378.78
2099.756	3317.94
2102.942	3314.82
2106.128	3299.2
2109.314	3300.55
2112.5	3231.13
2115.685	3214.65
2118.87	3230.81
2122.055	3305.39
2125.239	3249.3
2128.424	3200.86
2131.608	3369.52
2134.791	3347.08
2137.974	3440.57
2141.157	3419.66
2144.34	3338.82
2147.523	3355.06
2150.705	3349.43
2153.887	3347.57
2157.068	3263.55
2160.25	3296.75
2163.431	3361.49
2166.611	3268.05
2169.792	3280.3
2172.972	3144.49
2176.152	3269.74
2179.331	3317.6
2182.511	3301.02
2185.69	3338.8
2188.868	3319.8
2192.047	3409.28
2195.225	3364.56
2198.403	3309.56
2201.58	3315.12
2204.758	3315.86
2207.935	3415.67
2211.111	3258.7
2214.288	3235.72
2217.464	3288.02
2220.64	3275.67
2223.815	3343.91
2226.991	3243.85
2230.166	3270.47
2233.34	3285.15
2236.515	3322.51
2239.689	3417.51
2242.863	3348.89
2246.036	3414.99
2249.209	3440.49
2252.382	3494.98
2255.555	3460.14
2258.727	3372.14
2261.9	3430.14
2265.071	3419.19
2268.243	3431.19
2271.414	3340.77
2274.585	3265.99
2277.756	3343.17
2280.926	3300.49
2284.096	3356.01
2287.266	3228.06
2290.436	3302.63
2293.605	3347.2
2296.774	3362.34
2299.942	3410.65
2303.111	3427.19
2306.279	3469.42
2309.447	3459.13
2312.614	3441.41
2315.781	3453.29
2318.948	3407.94
2322.115	3453.46
2325.281	3348
2328.447	3387.19
2331.613	3368.2
2334.779	3311.45
2337.944	3327.46
2341.109	3319.96
2344.274	3293.7
2347.438	3253.89
2350.602	3289.4
2353.766	3313.54
2356.929	3293.81
2360.092	3342.21
2363.255	3263.13
2366.418	3150.16
2369.58	3331.56
2372.742	2988.85
2375.904	3030.39
2379.066	2992.24
2382.227	3042.19
2385.388	2999.24
2388.548	2893.93
2391.709	2972.3
2394.869	2940.19
2398.029	3102.85
2401.188	3145.84
2404.347	3036.82
2407.506	3265.52
2410.665	3285.42
2413.823	3320.32
2416.981	3246.57
2420.139	3300.01
2423.296	3363.33
2426.453	3337.92
2429.61	3363.43
2432.767	3246.2
2435.923	3298.61
2439.079	3167.2
2442.235	3267.56
2445.391	3166.64
2448.546	3167.77
2451.701	3245.88
2454.855	3177.51
2458.009	3267.62
2461.163	3286.3
2464.317	3228.28
2467.471	3273.62
2470.624	3309.18
2473.777	3373.75
2476.929	3357.15
2480.082	3393.09
2483.234	3362.91
2486.385	3219.52
2489.537	3224.48
2492.688	3145.66
2495.839	3165.67
2498.989	3165.34
2502.14	3144.8
2505.29	3109.62
2508.439	3142.51
2511.589	3038.97
2514.738	3068.78
2517.887	3096.32
2521.035	3263.22
2524.183	3259.59
2527.331	3224.16
2530.479	3167.81
2533.627	3191.88
