Data from C_3_HIR_WI_4N_Splice17_13-10-43-446.txt Node
Date: Sat Mar 14 13:10:43 EDT 2020
User: sa697716
Spectrometer: FLMS03696
Trigger mode: 0
Integration Time (sec): 3.180400E-1
Scans to average: 20
Electric dark correction enabled: true
Nonlinearity correction enabled: true
Boxcar width: 5
XAxis mode: Wavelengths
Number of Pixels in Spectrum: 2048
>>>>>Begin Spectral Data<<<<<
187.83	-308229.35
188.298	2355.75
188.766	1319.63
189.233	1221.07
189.701	1772.66
190.169	2421.17
190.636	957.9
191.104	863.71
191.571	217.77
192.039	58.52
192.506	118.08
192.974	743.41
193.441	-1041.72
193.908	-199.99
194.375	16.17
194.842	123.36
195.31	191.38
195.777	209.35
196.244	443.82
196.711	518.49
197.177	628.46
197.644	878.16
198.111	1462.31
198.578	2057.81
199.045	1655.98
199.511	2656.99
199.978	3117.23
200.445	2643.11
200.911	2910.88
201.378	3236.78
201.844	2908.82
202.31	4969.09
202.777	5155.25
203.243	2865.14
203.709	2729.41
204.176	3212.79
204.642	2662.96
205.108	2458.06
205.574	2017.75
206.04	1856.05
206.506	1752.84
206.972	1672.63
207.438	1606.04
207.903	1826
208.369	1608.85
208.835	1586.09
209.301	1672.24
209.766	1715.52
210.232	1698.47
210.697	2090.26
211.163	2559.03
211.628	3856.22
212.094	3228.28
212.559	3985.86
213.024	2496.47
213.49	3039.65
213.955	2995.49
214.42	2931.19
214.885	2721.84
215.35	2633.72
215.815	2551.96
216.28	2703.93
216.745	2203.89
217.21	2388.16
217.675	2204.39
218.14	2481.07
218.604	2780.85
219.069	3174.49
219.534	3338.03
219.998	3901.15
220.463	4735.09
220.927	5815.63
221.392	5477.19
221.856	5576.65
222.32	7031.74
222.785	8712.67
223.249	10971.42
223.713	12281.01
224.177	12275.14
224.642	15753.11
225.106	19370.59
225.57	21149.2
226.034	15766.92
226.497	24030.97
226.961	21691.94
227.425	25228.6
227.889	27950.71
228.353	27932.65
228.816	57547.78
229.28	55104.11
229.744	46342.03
230.207	28187.21
230.671	27712.23
231.134	45782.67
231.597	52781.22
232.061	52677.91
232.524	51414.51
232.987	35399.32
233.45	31867.26
233.914	28557.53
234.377	29228.94
234.84	26787.26
235.303	31535.58
235.766	35190.87
236.229	36338.44
236.691	22876.91
237.154	25685.11
237.617	19309.99
238.08	19761.73
238.542	23111.31
239.005	16530.49
239.468	16376.33
239.93	15410.1
240.393	13989.6
240.855	12277.64
241.317	12563
241.78	15269.61
242.242	15793.8
242.704	17046.9
243.166	14839.77
243.629	13464.59
244.091	15505.17
244.553	16991.83
245.015	18263.87
245.477	23612.1
245.939	34608.12
246.4	36711.14
246.862	35694.47
247.324	33609.33
247.786	37574.24
248.247	49192.54
248.709	50771.09
249.17	37936.04
249.632	35772.76
250.093	41478.36
250.555	35824.91
251.016	21829.9
251.477	20697.33
251.939	22336.78
252.4	23417.48
252.861	27817.16
253.322	25864.77
253.783	30762.85
254.244	39895.58
254.705	31466.81
255.166	27964.45
255.627	27516.22
256.088	38790.98
256.549	41201.16
257.009	35419.59
257.47	42969.49
257.931	35018.41
258.391	26223.95
258.852	27014.97
259.312	28294.94
259.773	34867.06
260.233	29457.38
260.694	24832.34
261.154	28176.48
261.614	22618.06
262.074	20245.44
262.534	21020.93
262.994	19818.46
263.455	26413.38
263.915	22288.75
264.374	20995.94
264.834	22958.41
265.294	25418.38
265.754	26373.51
266.214	24948.81
266.673	23353.29
267.133	29443.08
267.593	29210.58
268.052	35741.06
268.512	31080.89
268.971	37423.82
269.431	41025.33
269.89	36699.25
270.349	55011.98
270.809	61236.94
271.268	55065.29
271.727	123467.61
272.186	79914
272.645	59983.26
273.104	43189.71
273.563	62498.4
274.022	49161.2
274.481	41841.02
274.94	32208.14
275.399	23958.68
275.857	27858.35
276.316	37673.17
276.775	33535.57
277.233	33023.74
277.692	30900.51
278.15	34983.36
278.609	36011.64
279.067	33307.04
279.525	30905.86
279.984	39914.23
280.442	47918.04
280.9	47326.39
281.358	31096.67
281.816	28978.44
282.274	28380.79
282.732	29239.38
283.19	29381.02
283.648	25321.66
284.106	26939.12
284.564	27403.29
285.021	25402.27
285.479	18916.62
285.937	17180.44
286.394	15068.65
286.852	15503.05
287.309	16278.36
287.767	15747.66
288.224	14957.83
288.682	16409.59
289.139	18020.59
289.596	16470.46
290.053	17109.55
290.511	21583.09
290.968	26184.36
291.425	35548.59
291.882	29574.92
292.339	25716.87
292.796	25498.86
293.252	24033.49
293.709	19083.33
294.166	17088.8
294.623	18865.09
295.079	18088.65
295.536	18177.21
295.992	16466.93
296.449	16252.38
296.905	16885.31
297.362	16177.3
297.818	17006.36
298.274	17610.44
298.731	17934.61
299.187	17737.65
299.643	19055.47
300.099	23019.07
300.555	25210.77
301.011	21055.55
301.467	20300.76
301.923	23723.95
302.379	23177.33
302.835	22741.54
303.291	22771.57
303.746	25874.98
304.202	32687.4
304.658	32796.37
305.113	22065.26
305.569	21625.78
306.024	23079.39
306.479	21957.3
306.935	18492.11
307.39	20182.37
307.845	18633.01
308.301	18739.16
308.756	18293.41
309.211	17611.21
309.666	18026.73
310.121	22386.59
310.576	22692.5
311.031	22496.6
311.486	25758.77
311.94	25717.91
312.395	34382.04
312.85	64579.88
313.305	317182.52
313.759	1639817.14
314.214	118970.91
314.668	94180.18
315.123	79182.69
315.577	28416.23
316.032	25275.58
316.486	31675.1
316.94	25057.36
317.394	17456.17
317.849	13590.91
318.303	12842.74
318.757	12122.32
319.211	13371.63
319.665	11708.45
320.119	11844.54
320.572	16967.57
321.026	15862.3
321.48	13185.05
321.934	14364.77
322.387	14376.8
322.841	15524.88
323.295	13983.53
323.748	16068.45
324.202	16310.73
324.655	19582.86
325.108	27341.38
325.562	19289.92
326.015	22882.38
326.468	17296.68
326.921	19346.56
327.374	18040.88
327.827	18768.33
328.28	21224.62
328.733	14221.43
329.186	12514.53
329.639	11938.2
330.092	10061.13
330.545	9592.82
330.997	9684.63
331.45	10603.57
331.903	12407.88
332.355	21341.65
332.808	20734.56
333.26	17108.25
333.713	18598.49
334.165	18722.96
334.617	24975.07
335.069	20178.55
335.522	36489.23
335.974	40386.39
336.426	36820.13
336.878	25508.91
337.33	12944.07
337.782	12644.49
338.234	15845.31
338.686	18945.99
339.137	22405.37
339.589	21105.01
340.041	16565.5
340.493	14231.02
340.944	14558.92
341.396	15678.68
341.847	13199.09
342.299	15592.37
342.75	19056.75
343.201	16635.79
343.653	19156.42
344.104	23527.05
344.555	18507.66
345.006	28719
345.457	21987.93
345.908	17440.21
346.359	16430.66
346.81	13370.44
347.261	14062.08
347.712	13790.04
348.163	14786.64
348.613	14960.54
349.064	13996.54
349.515	12248.85
349.965	12594.79
350.416	15171.87
350.866	16676.06
351.317	18833.78
351.767	31156.36
352.217	39318.12
352.668	32733.89
353.118	29983.91
353.568	28849.66
354.018	22785.54
354.468	24035.15
354.918	17214.74
355.368	15030.98
355.818	21178.71
356.268	60810.37
356.718	254790.18
357.168	63478.8
357.617	31799.71
358.067	35310.49
358.517	33104.29
358.966	38788.25
359.416	43568.69
359.865	47072.84
360.315	56081.7
360.764	26233.38
361.213	14716.9
361.663	13912.79
362.112	17178.31
362.561	27714.98
363.01	20934.43
363.459	17634.39
363.908	19070.82
364.357	16182.31
364.806	27309.46
365.255	18783.83
365.703	17219.55
366.152	17240.19
366.601	14003.04
367.05	11359.5
367.498	10334.89
367.947	10792.31
368.395	11193.27
368.844	9913.86
369.292	11886.93
369.74	8219.01
370.189	12570.26
370.637	14713.04
371.085	12665.32
371.533	15360.31
371.981	14800.34
372.429	14123.03
372.877	14660.61
373.325	12268.43
373.773	12510.08
374.221	11171.45
374.669	13848.08
375.116	11962.2
375.564	12043.42
376.012	13468.21
376.459	11103.76
376.907	13232.48
377.354	15948.26
377.801	14931.07
378.249	17198.55
378.696	21890.46
379.143	26468.79
379.591	28227.6
380.038	47733.91
380.485	34520.7
380.932	37276.26
381.379	34125.4
381.826	25122.34
382.273	17887.24
382.72	15567.73
383.166	15162.79
383.613	9853.09
384.06	8892.98
384.506	10264.28
384.953	7528.16
385.4	7564.64
385.846	6610.97
386.292	6423.62
386.739	6280.74
387.185	6178.01
387.631	6184.77
388.078	5993.73
388.524	6403.84
388.97	5899.6
389.416	4914.74
389.862	5235.55
390.308	4958.27
390.754	5032.93
391.2	5462.4
391.645	5587.26
392.091	5370.19
392.537	5185.91
392.983	5185.49
393.428	5108.2
393.874	5473.6
394.319	5505.75
394.765	5216.02
395.21	5347.81
395.655	5011.27
396.101	4695.62
396.546	4238.71
396.991	4254.73
397.436	3954.78
397.881	3816.77
398.326	3605.89
398.771	3408.19
399.216	2968.88
399.661	2673.57
400.106	2672.65
400.551	2736.57
400.995	2454.96
401.44	2426.83
401.885	2285.39
402.329	2306.7
402.774	2204.8
403.218	2140.38
403.663	2062.6
404.107	2126.09
404.551	2142.87
404.995	1962.14
405.44	1891.34
405.884	1917.09
406.328	1858.06
406.772	1850.45
407.216	1688.67
407.66	1639.2
408.104	1550.34
408.547	1454.49
408.991	1403.91
409.435	1351.89
409.879	1335.67
410.322	1318.98
410.766	1276.23
411.209	1211.6
411.653	1163.71
412.096	1140.42
412.54	1140.02
412.983	1135.25
413.426	1139.84
413.869	1140.55
414.312	1116.94
414.756	1074.65
415.199	1023.85
415.642	997.75
416.085	1003.35
416.527	997.11
416.97	1011.56
417.413	961.55
417.856	952.52
418.298	940.66
418.741	932.72
419.184	930.3
419.626	967.83
420.069	970.81
420.511	974.71
420.953	952.95
421.396	945.78
421.838	924.31
422.28	943.97
422.722	950.79
423.164	964.55
423.606	951.38
424.048	949.63
424.49	904.24
424.932	899.54
425.374	886.46
425.816	900.55
426.258	917.03
426.699	925.75
427.141	915.67
427.582	924.55
428.024	920.24
428.465	910.64
428.907	889.49
429.348	879.27
429.789	879.16
430.231	862.13
430.672	874.29
431.113	853.05
431.554	842.03
431.995	817.8
432.436	793.2
432.877	776.12
433.318	765.9
433.759	761.52
434.2	762.41
434.64	753.58
435.081	754.01
435.522	715.14
435.962	689.18
436.403	673.59
436.843	682.9
437.284	666.9
437.724	646.77
438.164	645.09
438.604	632.26
439.045	608.06
439.485	585.89
439.925	572.46
440.365	558.14
440.805	550.49
441.245	541.76
441.685	523.83
442.125	519.05
442.564	521.61
443.004	512.03
443.444	511.42
443.883	512.67
444.323	506.41
444.762	508.59
445.202	514.64
445.641	526.16
446.081	522.41
446.52	524.88
446.959	520.37
447.398	509.46
447.837	504.83
448.276	495.39
448.716	499.3
449.154	503.99
449.593	492.6
450.032	491.52
450.471	480.53
450.91	482.17
451.349	481.92
451.787	479.71
452.226	486.8
452.664	485.81
453.103	487.03
453.541	485.69
453.98	486.54
454.418	490.2
454.856	484.3
455.295	483.31
455.733	487.31
456.171	490.53
456.609	490.06
457.047	490.29
457.485	497.95
457.923	498.4
458.361	491.57
458.798	491
459.236	488.33
459.674	488.77
460.111	490.29
460.549	484.65
460.987	480.96
461.424	480.28
461.862	477.23
462.299	468.49
462.736	469.1
463.173	471.19
463.611	467.52
464.048	465.98
464.485	469.92
464.922	465.35
465.359	462.24
465.796	461.32
466.233	457.79
466.67	454.9
467.106	455.03
467.543	448.95
467.98	441.93
468.416	429.05
468.853	424.88
469.29	411.81
469.726	407.77
470.162	396.76
470.599	386.95
471.035	382.13
471.471	371.82
471.907	369.24
472.344	366.21
472.78	367.97
473.216	372.67
473.652	369.73
474.088	368.9
474.523	367.81
474.959	371.32
475.395	367.86
475.831	366.96
476.266	368.89
476.702	366.99
477.138	363.96
477.573	362.43
478.008	361.98
478.444	363.78
478.879	367.44
479.314	368.98
479.75	369.41
480.185	371.72
480.62	374.32
481.055	376.04
481.49	378.78
481.925	383.99
482.36	392.11
482.795	401.18
483.229	410.68
483.664	419.44
484.099	421.11
484.534	427.7
484.968	431.98
485.403	432.05
485.837	430.11
486.271	429.41
486.706	429
487.14	422.61
487.574	417.04
488.009	414.03
488.443	409.93
488.877	415.37
489.311	416.5
489.745	421.72
490.179	426.6
490.613	436.91
491.046	440.42
491.48	444.38
491.914	445.86
492.348	449.64
492.781	452.69
493.215	454.4
493.648	454.95
494.082	459.86
494.515	460.15
494.948	466.16
495.382	468.2
495.815	472.54
496.248	477.67
496.681	487.67
497.114	495.82
497.547	504.42
497.98	516.1
498.413	522.67
498.846	530.49
499.279	538.26
499.711	543.48
500.144	548.1
500.577	558.23
501.009	568.23
501.442	577.45
501.874	581.54
502.306	585.03
502.739	593.31
503.171	606.11
503.603	611.22
504.036	620.79
504.468	627.6
504.9	639.68
505.332	646.98
505.764	653.33
506.196	661.1
506.627	674.69
507.059	688.56
507.491	697.91
507.923	700.19
508.354	715.69
508.786	728.19
509.217	746.4
509.649	761.17
510.08	780.76
510.512	798.35
510.943	814.46
511.374	828.05
511.805	847.89
512.237	867.15
512.668	896.43
513.099	922.16
513.53	947.65
513.961	968.52
514.391	998.92
514.822	1030.33
515.253	1063.63
515.684	1089.9
516.114	1119.21
516.545	1141.22
516.975	1167.67
517.406	1187.83
517.836	1194.5
518.267	1206
518.697	1225.64
519.127	1233.92
519.558	1244.17
519.988	1251.36
520.418	1264.59
520.848	1283.71
521.278	1295.43
521.708	1322.28
522.138	1337.67
522.567	1368.37
522.997	1393.51
523.427	1410.41
523.857	1428.72
524.286	1441.36
524.716	1458.11
525.145	1477.5
525.575	1490.94
526.004	1507.29
526.433	1497.57
526.863	1500.53
527.292	1494.61
527.721	1502.23
528.15	1510.5
528.579	1513.44
529.008	1525.82
529.437	1549.29
529.866	1563.91
530.295	1580.73
530.724	1593.28
531.152	1619.61
531.581	1634.57
532.01	1651.72
532.438	1660.71
532.867	1675.38
533.295	1693.84
533.723	1699.71
534.152	1697.95
534.58	1698.45
535.008	1685.04
535.436	1688.32
535.865	1696.47
536.293	1709.41
536.721	1723.9
537.149	1747.81
537.576	1750.57
538.004	1762.52
538.432	1771.36
538.86	1770.26
539.287	1778.15
539.715	1792.01
540.143	1794.74
540.57	1792.02
540.998	1789.38
541.425	1769.06
541.852	1750.55
542.28	1750.01
542.707	1735.22
543.134	1721.1
543.561	1717.94
543.988	1710.26
544.415	1708.98
544.842	1703.72
545.269	1697.46
545.696	1700.01
546.123	1714.05
546.549	1704.28
546.976	1691.86
547.403	1692.38
547.829	1695.92
548.256	1698.81
548.682	1697.65
549.108	1692.08
549.535	1694.01
549.961	1695.69
550.387	1683.87
550.813	1679.22
551.24	1685.95
551.666	1688.2
552.092	1679.76
552.518	1673.54
552.943	1667.35
553.369	1673.15
553.795	1679.19
554.221	1679.83
554.646	1677.31
555.072	1687.53
555.498	1691.67
555.923	1699.6
556.349	1713.92
556.774	1722.12
557.199	1723.01
557.625	1729.48
558.05	1723.85
558.475	1732.04
558.9	1730.1
559.325	1722.58
559.75	1715.47
560.175	1708.96
560.6	1703.51
561.025	1701.05
561.449	1700.57
561.874	1705.23
562.299	1708.8
562.723	1714.99
563.148	1705
563.572	1706.91
563.997	1715.1
564.421	1718.88
564.846	1717.66
565.27	1718.7
565.694	1713.84
566.118	1723.46
566.542	1728.82
566.966	1719.81
567.39	1713.31
567.814	1701.28
568.238	1699.68
568.662	1701.99
569.086	1702.33
569.509	1705.99
569.933	1690.22
570.357	1681.91
570.78	1659.87
571.204	1646.54
571.627	1634.55
572.05	1629.91
572.474	1627.57
572.897	1613.23
573.32	1603.99
573.743	1592.49
574.166	1574.45
574.589	1572.09
575.012	1563.94
575.435	1561.11
575.858	1549.36
576.281	1537.97
576.704	1523.23
577.126	1509.6
577.549	1499.19
577.972	1489.22
578.394	1478.78
578.817	1471.6
579.239	1453.7
579.661	1439.57
580.084	1423.34
580.506	1411.63
580.928	1407.22
581.35	1396.37
581.772	1392.32
582.194	1379.71
582.616	1367.05
583.038	1353.85
583.46	1343.57
583.882	1339.57
584.303	1342.12
584.725	1338.94
585.147	1341
585.568	1348.49
585.99	1357.73
586.411	1363.23
586.833	1375.28
587.254	1375.83
587.675	1387.25
588.096	1397.38
588.518	1391.72
588.939	1376.41
589.36	1374.56
589.781	1361.93
590.202	1337.38
590.623	1329.14
591.043	1324.84
591.464	1312.5
591.885	1308.47
592.305	1302.9
592.726	1290
593.147	1290.59
593.567	1286.3
593.987	1278.34
594.408	1274.3
594.828	1271.39
595.248	1265.98
595.669	1250.38
596.089	1244.57
596.509	1238.98
596.929	1226.48
597.349	1226.87
597.769	1218.77
598.189	1212.61
598.608	1213.21
599.028	1214.71
599.448	1214.02
599.867	1202.42
600.287	1198.49
600.706	1193.7
601.126	1184.91
601.545	1183.31
601.965	1181.36
602.384	1175.59
602.803	1177.24
603.222	1172.59
603.641	1165.67
604.061	1161.68
604.48	1157.25
604.898	1162.65
605.317	1166.08
605.736	1166.08
606.155	1163.64
606.574	1154.92
606.992	1159.72
607.411	1154.08
607.829	1144.87
608.248	1141.1
608.666	1138.43
609.085	1137.84
609.503	1129.57
609.921	1122.58
610.339	1123.5
610.758	1120.61
611.176	1115.5
611.594	1105.02
612.012	1100.65
612.43	1103.43
612.847	1106.44
613.265	1105.69
613.683	1107.58
614.101	1106.52
614.518	1101.68
614.936	1091.54
615.353	1079.32
615.771	1075.47
616.188	1074.27
616.606	1069.6
617.023	1062.38
617.44	1050.08
617.857	1043.28
618.274	1034.43
618.691	1029.61
619.108	1021.49
619.525	1014.72
619.942	1017.71
620.359	1017.52
620.776	1013.34
621.192	1009.98
621.609	1007.6
622.026	1011.6
622.442	1015.42
622.859	1016.87
623.275	1009.06
623.691	1013.22
624.108	1022.97
624.524	1033.92
624.94	1034.12
625.356	1040.86
625.772	1051.74
626.188	1059.61
626.604	1061.12
627.02	1056.9
627.436	1055.18
627.852	1061.43
628.268	1070.19
628.683	1061.9
629.099	1053.91
629.514	1049.04
629.93	1051.08
630.345	1052.71
630.761	1049.48
631.176	1051.12
631.591	1046.83
632.007	1041.42
632.422	1038.88
632.837	1028.36
633.252	1026.63
633.667	1017.88
634.082	1009.89
634.497	998.4
634.911	982.14
635.326	977.06
635.741	962.79
636.155	952.63
636.57	951.71
636.984	949.26
637.399	949.87
637.813	945.97
638.228	942.31
638.642	943.44
639.056	933.93
639.47	931.64
639.884	922.81
640.298	915.55
640.712	912.74
641.126	901.73
641.54	892.15
641.954	884.86
642.368	874.06
642.781	868.67
643.195	853.95
643.609	853.38
644.022	847.44
644.436	842.91
644.849	831.53
645.262	819.88
645.676	817.93
646.089	812.72
646.502	800.31
646.915	794.52
647.328	778.69
647.741	775.37
648.154	763.1
648.567	760.12
648.98	748.62
649.393	747.61
649.805	744.65
650.218	737.21
650.631	723.69
651.043	717.23
651.456	712.41
651.868	712.08
652.28	722.59
652.693	731.2
653.105	732.77
653.517	738.14
653.929	736.77
654.341	739.06
654.753	729.92
655.165	733.42
655.577	729.75
655.989	724.46
656.401	715.46
656.813	688.99
657.224	672.4
657.636	650.45
658.047	636.26
658.459	620.06
658.87	610.96
659.282	600.67
659.693	585.88
660.104	574.75
660.515	563.73
660.926	560.67
661.338	556.28
661.749	549.67
662.159	542.79
662.57	538.5
662.981	535.16
663.392	529.21
663.803	530.32
664.213	526.66
664.624	523.18
665.035	523.36
665.445	513.81
665.855	508.51
666.266	503.31
666.676	500.43
667.086	492.92
667.497	491
667.907	486.78
668.317	480.08
668.727	478.93
669.137	477.53
669.547	474.92
669.956	476.08
670.366	476.72
670.776	477.1
671.186	478.96
671.595	482.48
672.005	484.42
672.414	484.13
672.824	484.69
673.233	486.54
673.642	488.68
674.052	492.82
674.461	497.08
674.87	501.61
675.279	501.85
675.688	503.32
676.097	504.87
676.506	504.62
676.915	514.56
677.323	516.78
677.732	516.38
678.141	516.54
678.549	509.87
678.958	508.63
679.366	507.74
679.775	511.36
680.183	520.74
680.592	525.9
681	530.58
681.408	528.41
681.816	534.86
682.224	541.52
682.632	551.62
683.04	573.68
683.448	591.83
683.856	615.8
684.264	642.5
684.671	665.94
685.079	695.31
685.487	729.22
685.894	775.14
686.302	815.89
686.709	850.03
687.116	889.6
687.524	923.66
687.931	955.5
688.338	984.01
688.745	1008.09
689.152	1036.35
689.559	1074.38
689.966	1112.21
690.373	1133.25
690.78	1169.83
691.187	1224.46
691.593	1268.11
692	1307.24
692.407	1362.59
692.813	1428.83
693.22	1484.84
693.626	1544.89
694.032	1593.18
694.439	1664.34
694.845	1722.76
695.251	1791.77
695.657	1857.62
696.063	1949.06
696.469	2021.52
696.875	2090.32
697.281	2133.42
697.687	2185.98
698.093	2228.08
698.498	2303.68
698.904	2364.51
699.31	2452.8
699.715	2519.63
700.12	2608.83
700.526	2634.57
700.931	2706.84
701.337	2761.71
701.742	2800.88
702.147	2884.22
702.552	2922
702.957	2985.16
703.362	3010.64
703.767	3043.93
704.172	3088.55
704.577	3053.83
704.981	3104.65
705.386	3127.13
705.791	3127.4
706.195	3204.53
706.6	3220.34
707.004	3301.09
707.408	3279.17
707.813	3313.82
708.217	3310.7
708.621	3318.51
709.025	3418.12
709.43	3428.04
709.834	3491.12
710.237	3564.74
710.641	3556.51
711.045	3583.4
711.449	3587.02
711.853	3620.95
712.256	3665.44
712.66	3706.24
713.064	3785.71
713.467	3830.96
713.87	3943.72
714.274	3994.1
714.677	4104.67
715.08	4266.93
715.484	4434.63
715.887	4634.97
716.29	4834.25
716.693	5044.51
717.096	5285.44
717.499	5416.63
717.901	5448.48
718.304	5483.72
718.707	5513.73
719.109	5422.96
719.512	5401.07
719.915	5276.08
720.317	5226.75
720.719	5274.57
721.122	5248.98
721.524	5203.15
721.926	5171.92
722.328	5273.03
722.731	5263.37
723.133	5295.49
723.535	5488.45
723.937	5509.79
724.338	5566.42
724.74	5608.75
725.142	5554.41
725.544	5557.12
725.945	5584.78
726.347	5582.72
726.748	5581.34
727.15	5602.42
727.551	5567.57
727.952	5538.24
728.354	5511.87
728.755	5513.64
729.156	5476.14
729.557	5460.32
729.958	5339.69
730.359	5290.18
730.76	5272.31
731.161	5213.44
731.562	5187.98
731.962	5192.91
732.363	5132.52
732.763	5069.77
733.164	5108.2
733.564	5042.64
733.965	4950.34
734.365	4915.96
734.766	4942.03
735.166	4904.21
735.566	4851.26
735.966	4825.68
736.366	4820.77
736.766	4761.62
737.166	4793.22
737.566	4750.84
737.966	4724.73
738.365	4766.93
738.765	4763.66
739.165	4688.03
739.564	4661.32
739.964	4708.13
740.363	4663.41
740.763	4662.4
741.162	4650.15
741.561	4619.71
741.96	4574.23
742.36	4593.62
742.759	4597.44
743.158	4637.48
743.557	4656.33
743.955	4698.17
744.354	4652.68
744.753	4710.94
745.152	4667.6
745.55	4723.59
745.949	4718.01
746.348	4720.17
746.746	4737.65
747.144	4700.7
747.543	4678.71
747.941	4728.25
748.339	4657.06
748.737	4648.24
749.136	4641.09
749.534	4708.72
749.932	4682.26
750.33	4707.32
750.727	4765.47
751.125	4744.5
751.523	4726.07
751.921	4770.31
752.318	4737.78
752.716	4798.56
753.113	4814.13
753.511	4840.06
753.908	4841.36
754.305	4823.64
754.703	4886.97
755.1	4946.37
755.497	5004.25
755.894	5194.24
756.291	5371.45
756.688	5699.58
757.085	6137.68
757.482	6752.84
757.878	7422.44
758.275	8027.53
758.672	8863.19
759.068	9538.66
759.465	10508.97
759.861	11761.22
760.258	13220.81
760.654	13968.14
761.05	13850.78
761.447	13216.5
761.843	12301.53
762.239	11354.25
762.635	10927.09
763.031	10518.32
763.427	9931.26
763.822	9313.08
764.218	8701.41
764.614	7904.5
765.01	7372.65
765.405	7030.16
765.801	6768.07
766.196	6436.36
766.592	6252.48
766.987	5942.31
767.382	5730.21
767.778	5641.47
768.173	5510.63
768.568	5438.25
768.963	5314.69
769.358	5333.36
769.753	5285.9
770.148	5203.73
770.542	5204.15
770.937	5174.77
771.332	5264.46
771.726	5284.8
772.121	5223.25
772.515	5281
772.91	5265.9
773.304	5336.46
773.699	5271.18
774.093	5324.44
774.487	5382.78
774.881	5421.7
775.275	5416.05
775.669	5373.5
776.063	5418.29
776.457	5452.51
776.851	5379.43
777.245	5374.89
777.638	5407.44
778.032	5521.14
778.425	5488.51
778.819	5525.43
779.212	5487.62
779.606	5447.56
779.999	5469.01
780.392	5450.33
780.786	5532.45
781.179	5551.97
781.572	5593.75
781.965	5604.79
782.358	5549.24
782.751	5603.31
783.143	5555.76
783.536	5628.09
783.929	5672.07
784.322	5785.97
784.714	5819.52
785.107	5815.42
785.499	5886.03
785.891	5863.91
786.284	5847.84
786.676	5987.32
787.068	5967.13
787.46	6020.48
787.852	6038.65
788.245	6124.35
788.636	6153.28
789.028	6217.26
789.42	6251.95
789.812	6259.49
790.204	6351.69
790.595	6449.19
790.987	6257.51
791.378	6283.94
791.77	6413.84
792.161	6551.57
792.553	6607.05
792.944	6497.06
793.335	6431.92
793.726	6510.28
794.117	6600.01
794.508	6740.61
794.899	6713.79
795.29	6854.13
795.681	6913.02
796.072	6772.49
796.463	6587.28
796.853	6597.11
797.244	6750.8
797.634	6784.33
798.025	6782.09
798.415	6797.04
798.806	6886.16
799.196	6968.95
799.586	7018.5
799.976	6979.26
800.366	7209.76
800.756	7444.96
801.146	7404.22
801.536	7443.32
801.926	7516.15
802.316	7546.46
802.706	7618.59
803.095	7496.52
803.485	7601.63
803.874	7643.76
804.264	7901.52
804.653	7876.01
805.043	8027.73
805.432	8141.5
805.821	8138.96
806.21	8166.83
806.599	8281.78
806.988	8329
807.377	8435.58
807.766	8566.74
808.155	8852.85
808.544	8594.76
808.933	8610.63
809.321	8590.39
809.71	8886.54
810.098	9039.45
810.487	9503.44
810.875	9988.15
811.264	10007.78
811.652	10307.05
812.04	10447.34
812.428	10609.04
812.816	11370.35
813.204	11794.19
813.592	12348.42
813.98	12683.22
814.368	12600.35
814.756	13077.08
815.144	13003.08
815.531	13476.22
815.919	13394.05
816.306	13709.02
816.694	13404.78
817.081	13466.75
817.469	13813.96
817.856	13817.92
818.243	14096.29
818.63	14490.86
819.017	14062.49
819.404	14122.43
819.791	14507.19
820.178	15125.71
820.565	15380.94
820.952	16319.95
821.339	15818.99
821.725	16006.27
822.112	15262.81
822.498	15217.89
822.885	15350.62
823.271	15266.47
823.657	15689.15
824.044	15695.47
824.43	15769.8
824.816	15735.13
825.202	15298.63
825.588	16320.07
825.974	16329.18
826.36	16848.55
826.746	16885.42
827.132	17240.82
827.517	17214.66
827.903	16420.49
828.289	16460.38
828.674	15681.81
829.06	15570.22
829.445	15963.01
829.83	16323.9
830.216	16801.91
830.601	17163.7
830.986	16749.01
831.371	16615.06
831.756	17165.71
832.141	16738.52
832.526	16728.81
832.911	17005.45
833.295	16889.98
833.68	17351.52
834.065	16729
834.449	15812.13
834.834	15732.71
835.218	15722.97
835.603	16053.19
835.987	15843.09
836.371	16667.02
836.755	16555.66
837.139	16953.71
837.524	17187.7
837.908	17008.96
838.291	17065.61
838.675	17125.57
839.059	17328.39
839.443	17322.12
839.827	17088.87
840.21	17561.54
840.594	17421.08
840.977	17627.04
841.361	17608.24
841.744	17986.08
842.127	17832.95
842.511	18074.34
842.894	18671.79
843.277	19045.46
843.66	19582.97
844.043	19663.1
844.426	18856.26
844.809	18537.07
845.191	18562.07
845.574	18094.98
845.957	17723.67
846.339	17617
846.722	17088.67
847.104	17152.02
847.487	16976.94
847.869	16988.59
848.252	17269.48
848.634	17604.22
849.016	17864.91
849.398	17988.54
849.78	18839.64
850.162	18849.09
850.544	19256.18
850.926	19877.22
851.307	19801.07
851.689	20088.24
852.071	20537.37
852.452	20853.24
852.834	20832.91
853.215	21228.7
853.597	21381.11
853.978	21670.64
854.359	22127.09
854.741	21145.94
855.122	21056.16
855.503	20759.77
855.884	20895.78
856.265	20837.17
856.646	20951.58
857.026	20561.26
857.407	20499.58
857.788	20654.98
858.169	20945.34
858.549	20106.96
858.93	20720.43
859.31	20771.31
859.69	20974.94
860.071	20566.67
860.451	20344.59
860.831	19610.56
861.211	20757.61
861.591	21301.51
861.971	21277.85
862.351	21467.68
862.731	21842.01
863.111	22103.63
863.491	22426.35
863.87	23307.89
864.25	23656.49
864.629	23264.84
865.009	23767.66
865.388	24613.95
865.768	26367.7
866.147	26260.06
866.526	24796.21
866.905	25099.5
867.284	26510.39
867.663	25173.97
868.042	24118.84
868.421	24045.71
868.8	24446.32
869.179	24688.37
869.558	23248.03
869.936	21430.98
870.315	21819.33
870.693	22355.07
871.072	24096.01
871.45	22962.02
871.828	23261.33
872.207	24457.72
872.585	24088.31
872.963	24746.66
873.341	23909.65
873.719	23619.25
874.097	23336.51
874.475	23786.79
874.853	24325.58
875.23	23319.54
875.608	24288.95
875.986	26258.21
876.363	25110.9
876.741	25862.64
877.118	25212.07
877.495	26445.89
877.873	26889.4
878.25	28293.99
878.627	27136.57
879.004	27533.39
879.381	27403.41
879.758	26673.99
880.135	24834.81
880.512	26261.33
880.889	25564.89
881.265	25288.92
881.642	25070.09
882.019	25496.26
882.395	24983.09
882.772	25973.85
883.148	24836.84
883.524	24737.55
883.901	24602.05
884.277	24974.22
884.653	24815.14
885.029	25530.92
885.405	28285.49
885.781	28067.36
886.157	26918.59
886.532	27233.9
886.908	27209.89
887.284	30260.64
887.659	31251.62
888.035	32220.81
888.411	33045.37
888.786	33477.26
889.161	34629.79
889.537	33983.61
889.912	35070.06
890.287	35036.4
890.662	35950.19
891.037	35286.16
891.412	32907.02
891.787	32567.55
892.162	31420.08
892.536	32148.38
892.911	30940.77
893.286	30281.35
893.66	29049.52
894.035	29788.07
894.409	32418.17
894.784	31104.53
895.158	31628.29
895.532	33481.62
895.906	34388.15
896.281	35191.6
896.655	34626.37
897.029	39551.47
897.402	41202.56
897.776	45858.17
898.15	45708.88
898.524	45225.24
898.898	45823.56
899.271	51302.45
899.645	44435.29
900.018	42672.38
900.392	44254.79
900.765	44621.4
901.138	41290.33
901.511	40646.37
901.884	37326.89
902.258	34409.3
902.631	35563.44
903.003	40927.73
903.376	36931.02
903.749	41406.97
904.122	44333.95
904.495	48824.13
904.867	49445.74
905.24	42924.82
905.612	39948.79
905.985	40842.8
906.357	42708.16
906.729	40736.08
907.102	34793.24
907.474	33458.62
907.846	33673.13
908.218	33240.92
908.59	29375.05
908.962	28403.81
909.334	30594.35
909.705	32164.93
910.077	31236.33
910.449	32526.65
910.82	33436.19
911.192	36800.07
911.563	38223.44
911.935	40918.76
912.306	40931.58
912.677	42257.17
913.048	41861.11
913.419	45418.9
913.79	45666.77
914.161	48983.52
914.532	46814.41
914.903	43034
915.274	40876.38
915.645	40300.95
916.015	35467.56
916.386	33850.51
916.756	36048.93
917.127	37169.11
917.497	33213.78
917.868	36164.29
918.238	34373.04
918.608	35368.25
918.978	36110.25
919.348	38226.96
919.718	39479.73
920.088	38026.02
920.458	39507.39
920.828	41564.5
921.198	39413.22
921.567	42118.4
921.937	32605.28
922.306	32898.75
922.676	35473.94
923.045	29609
923.415	28124.06
923.784	25635.27
924.153	26363.7
924.522	26324.93
924.891	24741.35
925.26	26504.41
925.629	25874.06
925.998	29752.43
926.367	29037.52
926.736	27652.52
927.104	32920.49
927.473	35407.37
927.842	42747.2
928.21	42348.14
928.578	44521.69
928.947	42118.25
929.315	42352.66
929.683	49679.44
930.051	50057.29
930.42	58161.05
930.788	49743.68
931.156	49359.02
931.523	46273.1
931.891	42737.37
932.259	41023.3
932.627	47543.08
932.994	67241.5
933.362	55590.58
933.729	48281.37
934.097	46226.5
934.464	39123.79
934.831	45093.29
935.199	44432.84
935.566	43082.17
935.933	43603.41
936.3	52799.69
936.667	41106.3
937.034	37086.06
937.401	36664.32
937.767	31618.9
938.134	28152.19
938.501	39703.36
938.867	42343.88
939.234	71614.76
939.6	61097.08
939.967	67431.76
940.333	45162.7
940.699	38477.15
941.065	30852.2
941.431	40487.11
941.798	39045.52
942.163	51258.97
942.529	32013.19
942.895	29478.09
943.261	19092.01
943.627	25066.84
943.992	21961.45
944.358	22005.12
944.723	22075.95
945.089	21538.08
945.454	19896.65
945.82	21243.24
946.185	20427.76
946.55	23662.4
946.915	21222.08
947.28	24881.34
947.645	21917.28
948.01	20255.13
948.375	21136.36
948.74	25344.33
949.104	29599.25
949.469	42764.34
949.834	75648.96
950.198	71691.92
950.562	42961.18
950.927	35787.36
951.291	43090.51
951.655	36692.28
952.02	34422.01
952.384	26011.51
952.748	22664.16
953.112	22097.04
953.476	19205.56
953.839	17750.43
954.203	17560.32
954.567	21960.25
954.931	34569.64
955.294	29550.31
955.658	29694.63
956.021	50487.26
956.385	85604.86
956.748	126230.05
957.111	195523.6
957.474	219336.48
957.837	247004.87
958.2	187057.15
958.563	67331.55
958.926	45514.55
959.289	69046.48
959.652	77211.09
960.015	57929.26
960.377	83124.08
960.74	94859.5
961.102	163786.61
961.465	175942.1
961.827	94314.57
962.189	180895.78
962.552	125410.39
962.914	100617.49
963.276	65290.85
963.638	53947.83
964	53445.53
964.362	36097.16
964.724	34883.22
965.085	24881.72
965.447	20391.23
965.809	23212.11
966.17	23228.42
966.532	25109.48
966.893	23036.03
967.255	20997.04
967.616	24764.81
967.977	19827.65
968.338	21672.93
968.699	17815.01
969.061	17821.58
969.421	17945.31
969.782	20139.61
970.143	17016.17
970.504	17629.89
970.865	20022.56
971.225	20445.32
971.586	20023.18
971.946	28529.65
972.307	24766.85
972.667	32341.53
973.027	33306.03
973.388	40381.64
973.748	27440.86
974.108	29889.73
974.468	40462.02
974.828	31192.71
975.188	23997.9
975.548	22019.25
975.907	18483.53
976.267	20704.29
976.627	17407.24
976.986	18049.04
977.346	17221.43
977.705	16576.7
978.064	15100.72
978.424	12562.57
978.783	13005.31
979.142	14835.4
979.501	14188.33
979.86	15019.13
980.219	14480.15
980.578	18667.06
980.937	20875.53
981.296	18573.17
981.654	19121.7
982.013	29745.27
982.371	38578.15
982.73	35980.32
983.088	40790.8
983.447	43613.58
983.805	62279.64
984.163	130320.59
984.521	144707.24
984.879	212300.79
985.237	-345746.98
985.595	333179.3
985.953	82730.54
986.311	47780.23
986.669	27780.53
987.026	23976.3
987.384	32253.69
987.741	33390.33
988.099	23865.24
988.456	19026.72
988.814	17799.62
989.171	15459.09
989.528	15272.03
989.885	16133.97
990.242	12789.8
990.599	15942.66
990.956	13029.01
991.313	9106.55
991.67	7462.96
992.027	7903.36
992.383	7030.04
992.74	6167.3
993.096	6473.06
993.453	6706.26
993.809	6955.64
994.165	9263.81
994.522	8470.51
994.878	9335.53
995.234	11713.34
995.59	11546.94
995.946	10938.03
996.302	12453.62
996.658	14412.33
997.013	15888.63
997.369	18837.51
997.725	24133.15
998.08	15635.12
998.436	24111.5
998.791	33274.71
999.147	33259.11
999.502	36282.93
999.857	26387.69
1000.212	43152.01
1000.567	61444.67
1000.922	35466.73
1001.277	22526.53
1001.632	16715.36
1001.987	21494.01
1002.342	15449.07
1002.696	12341.18
1003.051	9860.5
1003.406	11947.37
1003.76	11863.66
1004.114	11651.83
1004.469	9801.77
1004.823	8127.98
1005.177	8787.45
1005.531	6952.46
1005.885	6165.09
1006.239	6947
1006.593	8722.71
1006.947	11647.8
1007.301	8749.75
1007.655	9574.77
1008.008	7036.93
1008.362	7912.12
1008.715	11260
1009.069	10197.74
1009.422	15389.22
1009.776	30922.77
1010.129	20579.2
1010.482	17191.81
1010.835	14574.1
1011.188	30309.79
1011.541	28495.17
1011.894	-174164.85
1012.247	511487.75
1012.6	34806.39
1012.952	22001.51
1013.305	11318.62
1013.657	8159.48
1014.01	7722.29
1014.362	6393.37
1014.715	5663.28
1015.067	4940.09
1015.419	4813.02
1015.771	4265.81
1016.123	3807.99
1016.475	3917.51
1016.827	4176.05
1017.179	4486.64
1017.531	4531.53
1017.883	4622.51
1018.234	4463.45
1018.586	5652.53
1018.938	6002.8
1019.289	8306.64
1019.64	9513.54
1019.992	8821.89
1020.343	8069.81
1020.694	6366.34
1021.045	5632.16
1021.396	6420.65
1021.747	6884.82
1022.098	8214.11
1022.449	5954.4
1022.8	5512.03
1023.151	3825.96
1023.501	3390.04
1023.852	3690.96
1024.202	3839.81
1024.553	4226.88
1024.903	4145.9
1025.253	3555.18
1025.604	3197.45
1025.954	3995.55
1026.304	4869.46
1026.654	5651.86
1027.004	8310.42
1027.354	13469.76
1027.703	12681.17
1028.053	16605.89
1028.403	24315.37
1028.753	34983.05
1029.102	47326.2
1029.452	243111.8
1029.801	10420.39
1030.15	6714.99
1030.499	5704.72
897.758	2750.74
901.051	2708.44
904.343	2742.93
907.636	2746.03
910.928	2809.28
914.22	2716.74
917.511	2725.48
920.803	2789.85
924.094	2813.83
927.384	2787.06
930.675	2751.49
933.965	2703.59
937.255	2709.56
940.544	2678.71
943.834	2605.77
947.123	2553.59
950.411	2651.45
953.7	2623.89
956.988	2593.08
960.276	2532.54
963.563	2616.76
966.851	2609.48
970.138	2671.58
973.424	2664.9
976.711	2611.4
979.997	2758.75
983.283	2790.86
986.568	2692.46
989.853	2713.16
993.138	2739.72
996.423	2822.96
999.708	2757.2
1002.992	2829.5
1006.275	2649.67
1009.559	2702.04
1012.842	2821.87
1016.125	2750.73
1019.408	2729.21
1022.69	2821.09
1025.972	2834.51
1029.254	2808.75
1032.536	2736.07
1035.817	2766.86
1039.098	2703.35
1042.379	2865.66
1045.659	2859.18
1048.939	2789.12
1052.219	2813.04
1055.498	2828.07
1058.778	2810.28
1062.057	2797.76
1065.335	2818.53
1068.614	2839.43
1071.892	2820.59
1075.17	2901.37
1078.447	2884.94
1081.724	2877.13
1085.001	2917.97
1088.278	2888.75
1091.554	2901.82
1094.83	2898.44
1098.106	2926.6
1101.382	2972.92
1104.657	2972.77
1107.932	2970.01
1111.206	2933.29
1114.481	2891.42
1117.755	2893.62
1121.029	2868.68
1124.302	2922.4
1127.575	2872.61
1130.848	2860.08
1134.121	2817.59
1137.393	2765.52
1140.665	2834.76
1143.937	2805.36
1147.208	2767.01
1150.48	2806.05
1153.75	2792.32
1157.021	2827.06
1160.291	2797.06
1163.561	2842.64
1166.831	2833.41
1170.101	2867.16
1173.37	2842.48
1176.639	2783.74
1179.907	2847.02
1183.176	2851.69
1186.444	2858.87
1189.711	2886.18
1192.979	2899.58
1196.246	2854.34
1199.513	2869.85
1202.78	2868.33
1206.046	2877.5
1209.312	2903.78
1212.578	2933.5
1215.843	2881.84
1219.108	2851.37
1222.373	2877.96
1225.638	2840.52
1228.902	2821.78
1232.166	2790.08
1235.43	2771.38
1238.693	2794.17
1241.956	2794.39
1245.219	2830.46
1248.482	2821.97
1251.744	2816.07
1255.006	2976.5
1258.268	2930.16
1261.529	2870.37
1264.79	2879.72
1268.051	2980.58
1271.312	3002.46
1274.572	2965.02
1277.832	2949.26
1281.092	2945.93
1284.351	2915.11
1287.61	2891.59
1290.869	2805.88
1294.128	2777
1297.386	2873.36
1300.644	2861.53
1303.902	2876.35
1307.159	2728.17
1310.416	2784.8
1313.673	2812.55
1316.93	2791.56
1320.186	2840.29
1323.442	2887.56
1326.697	2869.52
1329.953	2862.98
1333.208	2884.34
1336.463	2865.11
1339.717	2800.18
1342.972	2942.87
1346.226	2917.01
1349.479	2845.88
1352.733	2816.6
1355.986	2842.51
1359.238	2817.13
1362.491	2819.14
1365.743	2825.19
1368.995	2819.92
1372.247	2832.18
1375.498	2859.64
1378.749	2868.1
1382	2823.26
1385.251	2880.68
1388.501	2842.36
1391.751	2822.49
1395	2796.58
1398.25	2831.48
1401.499	2835.28
1404.748	2759.33
1407.996	2749.52
1411.244	2733.17
1414.492	2712.85
1417.74	2693.8
1420.987	2703.68
1424.234	2761.05
1427.481	2743.58
1430.728	2801.54
1433.974	2774.35
1437.22	2791.9
1440.465	2792.92
1443.711	2752.09
1446.956	2791.12
1450.201	2779.63
1453.445	2822.59
1456.689	2800.99
1459.933	2813.09
1463.177	2847.32
1466.42	2816.54
1469.663	2798.29
1472.906	2789.49
1476.148	2875.77
1479.391	2827.06
1482.633	2796.34
1485.874	2808.94
1489.115	2792.6
1492.356	2802.31
1495.597	2774.63
1498.838	2778.56
1502.078	2746.38
1505.318	2691.28
1508.557	2735.2
1511.797	2702.21
1515.036	2787.47
1518.274	2778.46
1521.513	2749.49
1524.751	2772.38
1527.989	2782.24
1531.227	2799.27
1534.464	2787.61
1537.701	2811.61
1540.938	2830.6
1544.174	2785.75
1547.41	2784.49
1550.646	2822.34
1553.882	2855.21
1557.117	2912.12
1560.352	2929.65
1563.587	2884.23
1566.821	2840.98
1570.055	2882.01
1573.289	2849.96
1576.523	2931.5
1579.756	2935.76
1582.989	2956.01
1586.222	2915.48
1589.454	2955.84
1592.686	2928.43
1595.918	2951.33
1599.15	2939.48
1602.381	3022.16
1605.612	2970.22
1608.843	3069.1
1612.073	2978
1615.303	2963.72
1618.533	2952.57
1621.762	2957.08
1624.992	2945.38
1628.221	2928.42
1631.449	2915.57
1634.678	2974.37
1637.906	2924.45
1641.134	2964.66
1644.361	2920.48
1647.588	2907.77
1650.815	2920.65
1654.042	2903.24
1657.269	2932.48
1660.495	2879.74
1663.72	2892.9
1666.946	2856.86
1670.171	2795.09
1673.396	2769.61
1676.621	2759.88
1679.845	2783.69
1683.069	2808.51
1686.293	2856.42
1689.517	2821.92
1692.74	2746.96
1695.963	2781.34
1699.185	2803.55
1702.408	2777.49
1705.63	2825.39
1708.852	2836.11
1712.073	2809.61
1715.294	2789.74
1718.515	2851.64
1721.736	2795.8
1724.956	2794.07
1728.176	2822.61
1731.396	2843.51
1734.616	2833.62
1737.835	2860.09
1741.054	2838.06
1744.272	2831.05
1747.491	2862.14
1750.709	2922.29
1753.927	2820.01
1757.144	2867.16
1760.361	2908.51
1763.578	2903.13
1766.795	2840.07
1770.011	2850.16
1773.227	2894.45
1776.443	2926.7
1779.658	2975.44
1782.874	2916.13
1786.089	2890.09
1789.303	2894.23
1792.518	2901.04
1795.732	2886.55
1798.945	2895.79
1802.159	2947.2
1805.372	2840.34
1808.585	2824.95
1811.797	2826.95
1815.01	2880.4
1818.222	2878.38
1821.434	2841.94
1824.645	2904.28
1827.856	2883
1831.067	2921.73
1834.278	2877.95
1837.488	2864.82
1840.698	3021.93
1843.908	2939.59
1847.117	2904.33
1850.326	2776.65
1853.535	2891.43
1856.744	2926.1
1859.952	2838.9
1863.16	2840.05
1866.368	2866.32
1869.575	2971.54
1872.782	2850.37
1875.989	2790.82
1879.196	2883.75
1882.402	2874.43
1885.608	2918.5
1888.814	2811.61
1892.019	2704.06
1895.224	2755.89
1898.429	2738.95
1901.634	2713.56
1904.838	2692.28
1908.042	2744.59
1911.246	2748.19
1914.449	2672.23
1917.652	2670.97
1920.855	2652.87
1924.058	2706.98
1927.26	2742.7
1930.462	2771.75
1933.664	2800.76
1936.865	2731.99
1940.066	2736.67
1943.267	2684.55
1946.467	2702.88
1949.668	2732.22
1952.868	2798.4
1956.067	2774.67
1959.267	2702.11
1962.466	2731.5
1965.665	2716.69
1968.863	2707.35
1972.061	2729.53
1975.259	2731.68
1978.457	2810.37
1981.654	2765.62
1984.852	2765.7
1988.048	2697.3
1991.245	2700.89
1994.441	2790.87
1997.637	2779.12
2000.833	2761.41
2004.028	2804.06
2007.223	2856.22
2010.418	2829.81
2013.613	2793.69
2016.807	2761.37
2020.001	2768.14
2023.194	2816.07
2026.388	2794.21
2029.581	2736.67
2032.774	2784.89
2035.966	2787.49
2039.158	2714.57
2042.35	2742.77
2045.542	2669.76
2048.733	2774.65
2051.924	2802.61
2055.115	2834.64
2058.306	2774.15
2061.496	2834.19
2064.686	2902.16
2067.875	2816.72
2071.065	2832.78
2074.254	2862.76
2077.442	2813.48
2080.631	2907.92
2083.819	2789.57
2087.007	2773.86
2090.195	2740.92
2093.382	2777.45
2096.569	2754.88
2099.756	2708.49
2102.942	2730
2106.128	2735.88
2109.314	2726.45
2112.5	2686.85
2115.685	2660.63
2118.87	2673.46
2122.055	2734.26
2125.239	2699.21
2128.424	2674.47
2131.608	2785.63
2134.791	2762.41
2137.974	2826.22
2141.157	2811.61
2144.34	2760.62
2147.523	2778.65
2150.705	2792.48
2153.887	2772.13
2157.068	2719.74
2160.25	2724.95
2163.431	2764.14
2166.611	2703.05
2169.792	2723.01
2172.972	2611.57
2176.152	2693.38
2179.331	2731.27
2182.511	2709.96
2185.69	2740.43
2188.868	2732.61
2192.047	2792.41
2195.225	2777.68
2198.403	2726.06
2201.58	2725.11
2204.758	2718.47
2207.935	2804.39
2211.111	2689.57
2214.288	2670.65
2217.464	2711.83
2220.64	2684.71
2223.815	2743.39
2226.991	2662.3
2230.166	2684.11
2233.34	2711.05
2236.515	2737.8
2239.689	2814.8
2242.863	2756.2
2246.036	2810.22
2249.209	2815.96
2252.382	2853.41
2255.555	2837.48
2258.727	2770.66
2261.9	2813.19
2265.071	2804.9
2268.243	2808.18
2271.414	2731.35
2274.585	2689.84
2277.756	2759.25
2280.926	2717.43
2284.096	2757.44
2287.266	2659.9
2290.436	2720.27
2293.605	2750.32
2296.774	2777.21
2299.942	2801.41
2303.111	2817.92
2306.279	2870.52
2309.447	2854.16
2312.614	2828.08
2315.781	2845.79
2318.948	2815.86
2322.115	2856.44
2325.281	2755.97
2328.447	2777.25
2331.613	2753.83
2334.779	2722.34
2337.944	2728.9
2341.109	2723.42
2344.274	2707.34
2347.438	2671.39
2350.602	2697.66
2353.766	2716.05
2356.929	2700.08
2360.092	2742.92
2363.255	2692.48
2366.418	2618.46
2369.58	2741.92
2372.742	2512.09
2375.904	2530.53
2379.066	2503.7
2382.227	2548.26
2385.388	2508.3
2388.548	2427.11
2391.709	2485.72
2394.869	2461.95
2398.029	2569.71
2401.188	2585.97
2404.347	2515.62
2407.506	2669.06
2410.665	2697.03
2413.823	2705.75
2416.981	2654.72
2420.139	2690
2423.296	2743.52
2426.453	2716.75
2429.61	2741.11
2432.767	2668.51
2435.923	2705.63
2439.079	2665.34
2442.235	2716.06
2445.391	2640.04
2448.546	2668.8
2451.701	2721
2454.855	2690.03
2458.009	2747.87
2461.163	2753.29
2464.317	2710.13
2467.471	2743.04
2470.624	2788.41
2473.777	2756.67
2476.929	2771.16
2480.082	2799.42
2483.234	2760.98
2486.385	2715.66
2489.537	2707.44
2492.688	2663.14
2495.839	2678.13
2498.989	2690.67
2502.14	2676.31
2505.29	2651.59
2508.439	2681.76
2511.589	2601.39
2514.738	2614.9
2517.887	2647.83
2521.035	2710.18
2524.183	2696.15
2527.331	2674.67
2530.479	2645.87
2533.627	2657.05
