Data from C_3_DIV_IL_4N_Splice17_13-19-16-573.txt Node
Date: Sat Mar 14 13:19:16 EDT 2020
User: sa697716
Spectrometer: FLMS03696
Trigger mode: 0
Integration Time (sec): 3.180400E-1
Scans to average: 20
Electric dark correction enabled: true
Nonlinearity correction enabled: true
Boxcar width: 5
XAxis mode: Wavelengths
Number of Pixels in Spectrum: 2048
>>>>>Begin Spectral Data<<<<<
187.83	-387141.27
188.298	2873.28
188.766	1513.29
189.233	1355.28
189.701	1863.52
190.169	2580.31
190.636	1022.83
191.104	717.48
191.571	86.62
192.039	-76.88
192.506	-91.66
192.974	464.02
193.441	-690.44
193.908	-154.26
194.375	-41.48
194.842	13.25
195.31	159.94
195.777	217.68
196.244	396.75
196.711	421.22
197.177	511.48
197.644	712.65
198.111	1226.8
198.578	1703.81
199.045	1355.58
199.511	2191.53
199.978	2524.4
200.445	2142.78
200.911	2367.78
201.378	2624.29
201.844	2398.7
202.31	4061.44
202.777	4192.65
203.243	2321.77
203.709	2231.54
204.176	2652.51
204.642	2188.32
205.108	2076.17
205.574	1680.11
206.04	1521.21
206.506	1422.24
206.972	1333.5
207.438	1281.78
207.903	1452.52
208.369	1274.47
208.835	1270.4
209.301	1325.02
209.766	1338.64
210.232	1313.36
210.697	1614.05
211.163	1972.61
211.628	2921.85
212.094	2450.08
212.559	3094.36
213.024	1936.47
213.49	2376.91
213.955	2286.11
214.42	2211.43
214.885	2072.5
215.35	1977.6
215.815	1940.53
216.28	2059.03
216.745	1669.56
217.21	1789.31
217.675	1582.42
218.14	1726.59
218.604	1860.22
219.069	2075.64
219.534	2160.25
219.998	2428.73
220.463	2873.21
220.927	3401.22
221.392	3122.15
221.856	3116.08
222.32	3835.02
222.785	4680.85
223.249	5842.08
223.713	6475.35
224.177	6435.97
224.642	8135.76
225.106	9976.44
225.57	10840.77
226.034	8086.97
226.497	12301.68
226.961	11060.65
227.425	12892.47
227.889	14207.13
228.353	14158.69
228.816	29058.85
229.28	27735.71
229.744	23266.83
230.207	14142.07
230.671	13873.53
231.134	22730.71
231.597	26206.95
232.061	26112.42
232.524	25346.51
232.987	17448.54
233.45	15729.71
233.914	14114.69
234.377	14368.5
234.84	13163.71
235.303	15467.21
235.766	17191.02
236.229	17723.26
236.691	11110.1
237.154	12450.52
237.617	9362.64
238.08	9586.63
238.542	11155.37
239.005	7987.39
239.468	7946.62
239.93	7483.04
240.393	6805.37
240.855	5981.48
241.317	6127.54
241.78	7445.43
242.242	7724.42
242.704	8365.71
243.166	7283.03
243.629	6649.16
244.091	7646.34
244.553	8380.67
245.015	9005.68
245.477	11631.62
245.939	17016.87
246.4	18062.23
246.862	17534.75
247.324	16531.78
247.786	18424.56
248.247	24144.41
248.709	24794.72
249.17	18528.89
249.632	17487.58
250.093	20335.04
250.555	17554.71
251.016	10755.02
251.477	10208.15
251.939	11043.35
252.4	11564.76
252.861	13732.73
253.322	12793.26
253.783	15229.15
254.244	19738.93
254.705	15533.03
255.166	13752.77
255.627	13518.49
256.088	19033.25
256.549	20218.51
257.009	17349.91
257.47	21004.57
257.931	17102.46
258.391	12791.45
258.852	13178.2
259.312	13793.35
259.773	17012.29
260.233	14410.17
260.694	12188.36
261.154	13801.59
261.614	11101.23
262.074	9939.29
262.534	10341.4
262.994	9737.91
263.455	12956.35
263.915	10895.76
264.374	10253.64
264.834	11192.6
265.294	12370.53
265.754	12813.54
266.214	12110.51
266.673	11323.21
267.133	14258.34
267.593	14111.94
268.052	17284.34
268.512	14996.47
268.971	18147.35
269.431	19898.05
269.89	17776.5
270.349	26662.78
270.809	29704.01
271.268	26718.74
271.727	59762.63
272.186	38747.99
272.645	29058.19
273.104	20910.97
273.563	30298.49
274.022	23720.16
274.481	20205.1
274.94	15570.51
275.399	11547.44
275.857	13407.3
276.316	18099.63
276.775	16115.59
277.233	15855.88
277.692	14875.06
278.15	16839.88
278.609	17361.18
279.067	16085.06
279.525	14960.69
279.984	19321.11
280.442	23264.51
280.9	23000.03
281.358	15155.33
281.816	14121.99
282.274	13839.58
282.732	14292.81
283.19	14366.35
283.648	12364.3
284.106	13155.23
284.564	13363.17
285.021	12424.29
285.479	9237.55
285.937	8369.42
286.394	7363.18
286.852	7583.96
287.309	7971.49
287.767	7727.03
288.224	7372.73
288.682	8094.69
289.139	8937.27
289.596	8181.68
290.053	8485.56
290.511	10694.2
290.968	13010.97
291.425	17619.32
291.882	14687.19
292.339	12797.57
292.796	12637.31
293.252	11861.04
293.709	9453.91
294.166	8448.4
294.623	9317.3
295.079	8935.21
295.536	9019.38
295.992	8179.79
296.449	8079.22
296.905	8386.87
297.362	8045.79
297.818	8464.15
298.274	8815.46
298.731	8951.61
299.187	8840.8
299.643	9485.11
300.099	11488.35
300.555	12549.51
301.011	10484.37
301.467	10152.05
301.923	11843.27
302.379	11561.1
302.835	11332.78
303.291	11349.03
303.746	12908.84
304.202	16293.93
304.658	16343.34
305.113	10969.05
305.569	10780.96
306.024	11481.09
306.479	10865.93
306.935	9190.81
307.39	10022.69
307.845	9285.84
308.301	9337.51
308.756	9112.01
309.211	8790.62
309.666	9018.4
310.121	11243.53
310.576	11386.24
311.031	11293.37
311.486	12949.76
311.94	12926.69
312.395	17291.78
312.85	32433.99
313.305	158474.9
313.759	825239.87
314.214	59867.28
314.668	47557.97
315.123	40066.91
315.577	14435.96
316.032	12913.85
316.486	16188.27
316.94	12796.82
317.394	8932.66
317.849	6973.39
318.303	6624.56
318.757	6223.64
319.211	6895.08
319.665	6040.79
320.119	6111.75
320.572	8726.31
321.026	8111.36
321.48	6755.49
321.934	7330.53
322.387	7324.46
322.841	7908.43
323.295	7154.31
323.748	8214.55
324.202	8321.97
324.655	9999.21
325.108	14033.17
325.562	9937.29
326.015	11846.65
326.468	8955.95
326.921	10045.07
327.374	9392.8
327.827	9792.59
328.28	11054.56
328.733	7447.72
329.186	6562.83
329.639	6261.74
330.092	5258.89
330.545	5007.75
330.997	5055.29
331.45	5547.29
331.903	6532.99
332.355	11197.62
332.808	10870.81
333.26	8969.95
333.713	9753.91
334.165	9820.3
334.617	13066.64
335.069	10508.76
335.522	18974.98
335.974	21024.6
336.426	19139.66
336.878	13167.02
337.33	6732.43
337.782	6564.21
338.234	8258.94
338.686	9881.27
339.137	11738.64
339.589	11084.5
340.041	8739.96
340.493	7531.78
340.944	7717.96
341.396	8342.63
341.847	7064.59
342.299	8317.3
342.75	10224.44
343.201	8895.14
343.653	10208.43
344.104	12493.19
344.555	9831.65
345.006	15233.23
345.457	11754.1
345.908	9325.21
346.359	8788.85
346.81	7152.47
347.261	7532.65
347.712	7399.8
348.163	7904.99
348.613	8052.09
349.064	7517.8
349.515	6573.6
349.965	6751.09
350.416	8094.88
350.866	8871.87
351.317	9962.18
351.767	16512.02
352.217	20876.85
352.668	17285.18
353.118	15899.66
353.568	15258.36
354.018	12095.23
354.468	12825.81
354.918	9229.76
355.368	8084.85
355.818	11433.25
356.268	32992.72
356.718	138954.88
357.168	34583.96
357.617	17366.77
358.067	19234.98
358.517	18012.84
358.966	21293.79
359.416	23914.11
359.865	25780.03
360.315	30631.42
360.764	14359.28
361.213	8056.5
361.663	7576.4
362.112	9338.19
362.561	15100.56
363.01	11475.7
363.459	9619.39
363.908	10356.56
364.357	8822.82
364.806	14860.15
365.255	10188.08
365.703	9355.74
366.152	9367.27
366.601	7602.36
367.05	6197.4
367.498	5641.59
367.947	5862.78
368.395	6125.1
368.844	5411.59
369.292	6457.12
369.74	4474.73
370.189	6841.08
370.637	7982.3
371.085	6882.83
371.533	8364.87
371.981	7992.29
372.429	7620.8
372.877	7939.6
373.325	6642.32
373.773	6763.98
374.221	6026.38
374.669	7459.61
375.116	6469.41
375.564	6522.78
376.012	7298.74
376.459	6037.85
376.907	7239.82
377.354	8702.66
377.801	8156.53
378.249	9405.15
378.696	11978.35
379.143	14519.5
379.591	15496.9
380.038	26255.86
380.485	19026.11
380.932	20507.46
381.379	18794.71
381.826	13914.14
382.273	9917.87
382.72	8596.25
383.166	8379.62
383.613	5457.52
384.06	4912.89
384.506	5690.48
384.953	4170.06
385.4	4177.52
385.846	3653.8
386.292	3531.04
386.739	3437.41
387.185	3382.65
387.631	3393.44
388.078	3301.55
388.524	3539.22
388.97	3286.23
389.416	2750.22
389.862	2934.31
390.308	2785.44
390.754	2839.08
391.2	3086.95
391.645	3159.13
392.091	3067.66
392.537	2972.71
392.983	2965.85
393.428	2937.78
393.874	3133.04
394.319	3170.24
394.765	3027.55
395.21	3118.21
395.655	2934.18
396.101	2768.7
396.546	2504.11
396.991	2512.72
397.436	2345.71
397.881	2270
398.326	2144.63
398.771	2047.43
399.216	1773.74
399.661	1597.05
400.106	1607.2
400.551	1654.43
400.995	1490
401.44	1481.01
401.885	1395.44
402.329	1410
402.774	1360.76
403.218	1330.06
403.663	1283.69
404.107	1331.76
404.551	1346.86
404.995	1231.34
405.44	1183.96
405.884	1202.97
406.328	1165.97
406.772	1163.73
407.216	1065.06
407.66	1030.26
408.104	972.47
408.547	912.48
408.991	887.46
409.435	853.66
409.879	847.2
410.322	839.54
410.766	812.89
411.209	777.48
411.653	750.34
412.096	740.25
412.54	740.77
412.983	739.17
413.426	745.71
413.869	742.19
414.312	734.47
414.756	707.46
415.199	675.15
415.642	658.03
416.085	661.42
416.527	656.97
416.97	666.62
417.413	636.64
417.856	629.97
418.298	623.06
418.741	621
419.184	617.08
419.626	641.33
420.069	643.74
420.511	649.54
420.953	635.22
421.396	630.73
421.838	613.42
422.28	628.01
422.722	634.1
423.164	642.79
423.606	633.86
424.048	633.25
424.49	605.78
424.932	603.6
425.374	595.17
425.816	603.57
426.258	617.56
426.699	626.54
427.141	617.03
427.582	623.65
428.024	621.15
428.465	616.16
428.907	602.62
429.348	595.49
429.789	595.56
430.231	585.44
430.672	596.67
431.113	581.04
431.554	573.33
431.995	558.81
432.436	543.38
432.877	533.56
433.318	528.33
433.759	526.65
434.2	527.16
434.64	521.51
435.081	523.47
435.522	499.17
435.962	484.35
436.403	477.56
436.843	485.81
437.284	475.84
437.724	462.09
438.164	461.39
438.604	453.27
439.045	439.33
439.485	426.97
439.925	418.76
440.365	407.41
440.805	401.31
441.245	398.14
441.685	385.49
442.125	383.13
442.564	385.38
443.004	379.09
443.444	377.12
443.883	378.62
444.323	374.12
444.762	373.18
445.202	379.07
445.641	387.99
446.081	383.23
446.52	388.08
446.959	387.28
447.398	382.78
447.837	380.13
448.276	375.88
448.716	379.28
449.154	384.18
449.593	377.24
450.032	378.03
450.471	371.06
450.91	371.76
451.349	370.69
451.787	369.5
452.226	374.22
452.664	374.03
453.103	374.96
453.541	373.9
453.98	374.93
454.418	377.88
454.856	372.76
455.295	372.25
455.733	375.3
456.171	377.13
456.609	376.66
457.047	376.79
457.485	382.62
457.923	384.14
458.361	380.03
458.798	379.79
459.236	378.47
459.674	380.83
460.111	382.39
460.549	380.78
460.987	379.63
461.424	378.34
461.862	375.91
462.299	370.39
462.736	370.44
463.173	371.16
463.611	369.96
464.048	370.51
464.485	373.51
464.922	370.58
465.359	367.76
465.796	370.71
466.233	369.78
466.67	368.45
467.106	369.53
467.543	364.65
467.98	359.91
468.416	348.8
468.853	345.88
469.29	335.26
469.726	332.19
470.162	322.91
470.599	312.89
471.035	309.03
471.471	301.1
471.907	296.48
472.344	295.68
472.78	297.58
473.216	301.68
473.652	297.98
474.088	297.35
474.523	297.65
474.959	301.37
475.395	299.28
475.831	299.12
476.266	301.42
476.702	302.35
477.138	299.19
477.573	298.95
478.008	298.54
478.444	301.43
478.879	306.03
479.314	307.27
479.75	307.11
480.185	308.2
480.62	310.02
481.055	310.66
481.49	313.03
481.925	317.87
482.36	324.34
482.795	331.95
483.229	338.73
483.664	344.07
484.099	343.94
484.534	349.31
484.968	353.01
485.403	353.51
485.837	353.69
486.271	353.04
486.706	352.51
487.14	346.52
487.574	341.99
488.009	339.34
488.443	336.54
488.877	341.27
489.311	342.47
489.745	347.27
490.179	351.36
490.613	359.78
491.046	362.24
491.48	365.83
491.914	368.43
492.348	372.12
492.781	376.62
493.215	378.96
493.648	380.68
494.082	385.8
494.515	387.59
494.948	394.04
495.382	397.21
495.815	402.26
496.248	407.96
496.681	416.97
497.114	425
497.547	433.05
497.98	443.95
498.413	450.77
498.846	458.36
499.279	465.29
499.711	470.52
500.144	475.29
500.577	485.46
501.009	494.48
501.442	504.13
501.874	509.23
502.306	513.89
502.739	524.22
503.171	537.08
503.603	543.24
504.036	553.61
504.468	561.15
504.9	572.47
505.332	580.88
505.764	588.75
506.196	597.36
506.627	611.62
507.059	624.7
507.491	633.06
507.923	636.94
508.354	651.81
508.786	664.57
509.217	681.75
509.649	696.62
510.08	714.41
510.512	731.04
510.943	746.68
511.374	759.46
511.805	778.73
512.237	797.54
512.668	825.08
513.099	849.28
513.53	873.99
513.961	893.63
514.391	921.49
514.822	950.92
515.253	981.99
515.684	1005.78
516.114	1032.26
516.545	1052.46
516.975	1077.01
517.406	1095.73
517.836	1103.17
518.267	1112.59
518.697	1132.36
519.127	1140.81
519.558	1150.32
519.988	1157.08
520.418	1169.75
520.848	1187.71
521.278	1199.28
521.708	1234.36
522.138	1248.8
522.567	1276.49
522.997	1300.01
523.427	1315.42
523.857	1332.09
524.286	1343.33
524.716	1359.56
525.145	1377.79
525.575	1391.06
526.004	1406.41
526.433	1388.37
526.863	1390.79
527.292	1387.48
527.721	1395.3
528.15	1402.31
528.579	1405.86
529.008	1418.04
529.437	1439.07
529.866	1452.39
530.295	1467.99
530.724	1480.59
531.152	1504.57
531.581	1518.05
532.01	1533.49
532.438	1541.48
532.867	1555.3
533.295	1572.09
533.723	1578.22
534.152	1577.29
534.58	1578.02
535.008	1565.41
535.436	1567.47
535.865	1573.79
536.293	1585.94
536.721	1599.63
537.149	1621.66
537.576	1623.29
538.004	1634.62
538.432	1641.41
538.86	1639.87
539.287	1645.52
539.715	1657.48
540.143	1659.98
540.57	1657.43
540.998	1654.99
541.425	1635.64
541.852	1618.35
542.28	1619.14
542.707	1605.04
543.134	1594.21
543.561	1591.21
543.988	1586.75
544.415	1586.7
544.842	1582.15
545.269	1577.4
545.696	1579.29
546.123	1591.02
546.549	1582.81
546.976	1570.9
547.403	1572.13
547.829	1574.18
548.256	1577.41
548.682	1574.95
549.108	1569.1
549.535	1569.97
549.961	1572.17
550.387	1561.72
550.813	1558.63
551.24	1565.28
551.666	1567.24
552.092	1559.48
552.518	1554.97
552.943	1550.1
553.369	1556.12
553.795	1561.95
554.221	1562.99
554.646	1560.87
555.072	1571.07
555.498	1573.69
555.923	1581.36
556.349	1595.12
556.774	1602.25
557.199	1601.53
557.625	1606.49
558.05	1601.69
558.475	1609.88
558.9	1607.86
559.325	1600.18
559.75	1594.89
560.175	1590.4
560.6	1584.92
561.025	1583.06
561.449	1583.49
561.874	1589
562.299	1592.64
562.723	1598.57
563.148	1589.45
563.572	1592.71
563.997	1600
564.421	1602.91
564.846	1600.59
565.27	1602.22
565.694	1597.66
566.118	1605.98
566.542	1611.25
566.966	1603.91
567.39	1598.23
567.814	1586.35
568.238	1584.78
568.662	1587.37
569.086	1588.13
569.509	1593.71
569.933	1579
570.357	1571.64
570.78	1551.97
571.204	1539.53
571.627	1528.44
572.05	1525
572.474	1524.48
572.897	1512.83
573.32	1505.34
573.743	1496.16
574.166	1479.25
574.589	1478
575.012	1470.12
575.435	1468.38
575.858	1459.47
576.281	1449.72
576.704	1436.37
577.126	1425.21
577.549	1415.1
577.972	1405.97
578.394	1396.72
578.817	1390.8
579.239	1374.01
579.661	1363.52
580.084	1349.68
580.506	1338.03
580.928	1334.29
581.35	1324.13
581.772	1319.25
582.194	1307.31
582.616	1296.85
583.038	1282.49
583.46	1272.75
583.882	1268.76
584.303	1270.3
584.725	1266.17
585.147	1268.61
585.568	1276.92
585.99	1286.5
586.411	1291.23
586.833	1300.93
587.254	1299.15
587.675	1311.08
588.096	1319.99
588.518	1315.53
588.939	1300.34
589.36	1296.9
589.781	1284.8
590.202	1261.16
590.623	1252.95
591.043	1250.35
591.464	1239.84
591.885	1238.19
592.305	1231.66
592.726	1219.71
593.147	1221.09
593.567	1217.1
593.987	1210.74
594.408	1205.62
594.828	1203.72
595.248	1198.46
595.669	1184.12
596.089	1178.82
596.509	1173.03
596.929	1162.37
597.349	1163.47
597.769	1153.94
598.189	1147.99
598.608	1149.07
599.028	1150.44
599.448	1148.71
599.867	1137.47
600.287	1132.7
600.706	1128.74
601.126	1120.06
601.545	1118.13
601.965	1115.92
602.384	1111.2
602.803	1112.52
603.222	1107.91
603.641	1102.93
604.061	1099.41
604.48	1095.4
604.898	1101.53
605.317	1104.16
605.736	1104.76
606.155	1103.11
606.574	1094.71
606.992	1097.05
607.411	1091.75
607.829	1083.59
608.248	1079.43
608.666	1075.82
609.085	1073.55
609.503	1064.89
609.921	1058.5
610.339	1058.71
610.758	1054.7
611.176	1049.95
611.594	1042.47
612.012	1038.56
612.43	1039.85
612.847	1042.15
613.265	1042.12
613.683	1044.56
614.101	1043.57
614.518	1039.01
614.936	1029.01
615.353	1016.8
615.771	1013.01
616.188	1010.81
616.606	1007.08
617.023	1000.76
617.44	989.06
617.857	981.79
618.274	973.37
618.691	968.24
619.108	959.44
619.525	954.4
619.942	958.93
620.359	958.9
620.776	953.09
621.192	948.78
621.609	945.43
622.026	950.37
622.442	954.18
622.859	956.2
623.275	949.49
623.691	953.22
624.108	960.91
624.524	970.37
624.94	969.41
625.356	976.97
625.772	987.02
626.188	994.37
626.604	993.86
627.02	990.4
627.436	988.46
627.852	993.3
628.268	1002.31
628.683	994.88
629.099	988.02
629.514	984.39
629.93	985.77
630.345	987.54
630.761	984.42
631.176	986.54
631.591	981.77
632.007	976.51
632.422	973.71
632.837	963.08
633.252	960.78
633.667	951.31
634.082	943.46
634.497	934.01
634.911	920.08
635.326	915.91
635.741	900.93
636.155	891.37
636.57	890.81
636.984	888.7
637.399	889.23
637.813	886.04
638.228	883.72
638.642	883.72
639.056	873.95
639.47	869.72
639.884	861.3
640.298	856.11
640.712	853.05
641.126	841.39
641.54	832.09
641.954	824.66
642.368	812.61
642.781	804.99
643.195	790.32
643.609	788.2
644.022	781.14
644.436	775.4
644.849	763.18
645.262	751.16
645.676	747.83
646.089	741.28
646.502	728.85
646.915	723.39
647.328	708.41
647.741	704.58
648.154	693.06
648.567	691.58
648.98	681.06
649.393	679.74
649.805	676.48
650.218	670.66
650.631	659.58
651.043	653.47
651.456	648.09
651.868	647.31
652.28	655.74
652.693	662.13
653.105	661.75
653.517	666.23
653.929	664
654.341	665.12
654.753	655.83
655.165	657.82
655.577	655.58
655.989	650.38
656.401	642.65
656.813	618.68
657.224	603.84
657.636	583.63
658.047	569.98
658.459	555.11
658.87	546.58
659.282	535.51
659.693	520.17
660.104	507.28
660.515	495.35
660.926	489.53
661.338	484.1
661.749	477.67
662.159	469.72
662.57	463.59
662.981	457.63
663.392	449.21
663.803	448.34
664.213	443.2
664.624	437.7
665.035	436.06
665.445	426.21
665.855	420.31
666.266	413.97
666.676	409.55
667.086	400.99
667.497	398.84
667.907	393.83
668.317	387.46
668.727	386.75
669.137	384.85
669.547	382.54
669.956	382.85
670.366	382.95
670.776	382.05
671.186	382.16
671.595	384.59
672.005	384.09
672.414	383.65
672.824	382.98
673.233	381.64
673.642	382.77
674.052	385.24
674.461	386.89
674.87	388.21
675.279	387.96
675.688	388.24
676.097	389.96
676.506	390.34
676.915	398.34
677.323	400.54
677.732	400.88
678.141	401.54
678.549	395.64
678.958	396.14
679.366	396.95
679.775	399.76
680.183	410.23
680.592	414.64
681	419.51
681.408	418.54
681.816	424.73
682.224	432.95
682.632	443.24
683.04	463.93
683.448	481.96
683.856	504.11
684.264	529.14
684.671	551
685.079	578.26
685.487	610.35
685.894	654.4
686.302	692.5
686.709	725.2
687.116	764.96
687.524	801.01
687.931	833.32
688.338	863.84
688.745	890.67
689.152	922.09
689.559	962.66
689.966	1001.03
690.373	1024.48
690.78	1062.71
691.187	1115.22
691.593	1157.38
692	1194.79
692.407	1247.31
692.813	1309.69
693.22	1362.24
693.626	1413.25
694.032	1456.1
694.439	1519.28
694.845	1568.96
695.251	1628.86
695.657	1685.87
696.063	1764.73
696.469	1824.91
696.875	1880.87
697.281	1915.31
697.687	1955.54
698.093	1990.91
698.498	2052.92
698.904	2101.79
699.31	2175.49
699.715	2231.48
700.12	2306.33
700.526	2324.39
700.931	2384.03
701.337	2430.98
701.742	2461.26
702.147	2533.16
702.552	2562.02
702.957	2613.99
703.362	2633.29
703.767	2658.84
704.172	2691.94
704.577	2656.88
704.981	2698
705.386	2714.57
705.791	2708.62
706.195	2770.33
706.6	2777.63
707.004	2843.36
707.408	2820.13
707.813	2845.33
708.217	2838.15
708.621	2841.39
709.025	2921.59
709.43	2925.27
709.834	2975.25
710.237	3035.33
710.641	3025.31
711.045	3046.93
711.449	3046.11
711.853	3073.27
712.256	3107.55
712.66	3139.37
713.064	3201.95
713.467	3238.57
713.87	3328.99
714.274	3366.83
714.677	3456.32
715.08	3586.47
715.484	3722.76
715.887	3886.29
716.29	4043.56
716.693	4211.14
717.096	4404.26
717.499	4509.19
717.901	4528.51
718.304	4551.34
718.707	4571.39
719.109	4488.55
719.512	4467.49
719.915	4358.18
720.317	4311.89
720.719	4352.23
721.122	4331
721.524	4293.06
721.926	4262.18
722.328	4345.61
722.731	4336.15
723.133	4359.78
723.535	4518.52
723.937	4534.95
724.338	4578.49
724.74	4614.64
725.142	4583.91
725.544	4585.14
725.945	4612.57
726.347	4609.28
726.748	4602.08
727.15	4619.11
727.551	4589.67
727.952	4565.85
728.354	4542.11
728.755	4543.55
729.156	4508.33
729.557	4479.51
729.958	4380.65
730.359	4331.38
730.76	4319.08
731.161	4272.71
731.562	4253.1
731.962	4259.31
732.363	4209.82
732.763	4160.8
733.164	4189.6
733.564	4137.58
733.965	4060.72
734.365	4034.26
734.766	4060.12
735.166	4029.71
735.566	3985.22
735.966	3962.97
736.366	3957.84
736.766	3905.58
737.166	3930.92
737.566	3899.66
737.966	3879.03
738.365	3910.74
738.765	3907.57
739.165	3845.19
739.564	3824.56
739.964	3863.3
740.363	3827.11
740.763	3824.93
741.162	3818.46
741.561	3792.24
741.96	3751.98
742.36	3768.38
742.759	3774.09
743.158	3803.02
743.557	3815.4
743.955	3846.84
744.354	3809.42
744.753	3854.84
745.152	3821.04
745.55	3864.31
745.949	3859.07
746.348	3864.5
746.746	3875.71
747.144	3843.24
747.543	3823.47
747.941	3862.11
748.339	3804.14
748.737	3796.82
749.136	3791.71
749.534	3843.26
749.932	3819.95
750.33	3837.64
750.727	3880.67
751.125	3861.32
751.523	3846.59
751.921	3885.17
752.318	3858.47
752.716	3908.61
753.113	3921.36
753.511	3939.36
753.908	3939.31
754.305	3928.05
754.703	3979.93
755.1	4028.93
755.497	4077.22
755.894	4231.87
756.291	4371.76
756.688	4634.58
757.085	4979.65
757.482	5468.38
757.878	6007.64
758.275	6490.29
758.672	7151.25
759.068	7687.15
759.465	8457.19
759.861	9455.35
760.258	10609.56
760.654	11207.27
761.05	11113.38
761.447	10613.01
761.843	9884.96
762.239	9127.99
762.635	8790.23
763.031	8471.85
763.427	8004.35
763.822	7508.79
764.218	7021
764.614	6387.87
765.01	5965.22
765.405	5692.87
765.801	5484.64
766.196	5219.3
766.592	5073.35
766.987	4824.56
767.382	4654.61
767.778	4585.31
768.173	4486.2
768.568	4429.7
768.963	4330.07
769.358	4343.92
769.753	4307.73
770.148	4241.39
770.542	4243.1
770.937	4217.85
771.332	4293.02
771.726	4306.97
772.121	4257.24
772.515	4300.84
772.91	4290.55
773.304	4347.17
773.699	4294.75
774.093	4337.87
774.487	4383.86
774.881	4417.29
775.275	4415.67
775.669	4379.46
776.063	4416.41
776.457	4443.4
776.851	4380.8
777.245	4373.08
777.638	4400.85
778.032	4490.98
778.425	4461.1
778.819	4493.43
779.212	4460.31
779.606	4425.99
779.999	4442.21
780.392	4427.82
780.786	4492.96
781.179	4510.51
781.572	4544.34
781.965	4554.75
782.358	4508.79
782.751	4554.81
783.143	4514.6
783.536	4573.1
783.929	4605.59
784.322	4696.63
784.714	4719.43
785.107	4716.43
785.499	4775.32
785.891	4756.58
786.284	4738.81
786.676	4853.64
787.068	4836.63
787.46	4878.35
787.852	4892.3
788.245	4962.67
788.636	4986.03
789.028	5041.88
789.42	5074.73
789.812	5079.32
790.204	5156.19
790.595	5236.98
790.987	5079.96
791.378	5099.51
791.77	5202.28
792.161	5312.73
792.553	5358.82
792.944	5268.95
793.335	5216.3
793.726	5276.59
794.117	5352.52
794.508	5464.75
794.899	5442.74
795.29	5555.63
795.681	5598.79
796.072	5488.84
796.463	5349.46
796.853	5360.58
797.244	5492.12
797.634	5519
798.025	5516.24
798.415	5525.59
798.806	5601.86
799.196	5670.81
799.586	5714.32
799.976	5688.55
800.366	5875.19
800.756	6057.51
801.146	6022.07
801.536	6044.34
801.926	6101.58
802.316	6125.92
802.706	6181.03
803.095	6075.16
803.485	6158.74
803.874	6193.71
804.264	6402.56
804.653	6380.23
805.043	6500.61
805.432	6590.11
805.821	6591.32
806.21	6612.87
806.599	6706.17
806.988	6748.04
807.377	6838.11
807.766	6936.41
808.155	7160.09
808.544	6944.32
808.933	6956.01
809.321	6934.36
809.71	7168.83
810.098	7294.16
810.487	7662.15
810.875	8048.41
811.264	8059.22
811.652	8289.14
812.04	8405.03
812.428	8535.53
812.816	9150.57
813.204	9481.03
813.592	9920.57
813.98	10188.81
814.368	10113.73
814.756	10498.79
815.144	10429.47
815.531	10800.53
815.919	10736.1
816.306	10981.56
816.694	10736.76
817.081	10782.45
817.469	11064.64
817.856	11070.5
818.243	11290.71
818.63	11605.43
819.017	11269.02
819.404	11317.88
819.791	11625.44
820.178	12120.31
820.565	12321.69
820.952	13073.65
821.339	12665.36
821.725	12813.66
822.112	12214.06
822.498	12176.96
822.885	12277.83
823.271	12202.95
823.657	12540.6
824.044	12546.99
824.43	12605.97
824.816	12583.95
825.202	12225.57
825.588	13051.81
825.974	13060.05
826.36	13473.34
826.746	13501.17
827.132	13786.8
827.517	13760.39
827.903	13130.28
828.289	13165.88
828.674	12542.32
829.06	12457.66
829.445	12777.82
829.83	13062.59
830.216	13440.64
830.601	13729.47
830.986	13403.69
831.371	13296.54
831.756	13746.83
832.141	13403.92
832.526	13393.66
832.911	13619.94
833.295	13526.47
833.68	13899.77
834.065	13397.79
834.449	12670.56
834.834	12612.47
835.218	12607.02
835.603	12875.85
835.987	12698.81
836.371	13362.98
836.755	13276.14
837.139	13581.39
837.524	13762.87
837.908	13610.93
838.291	13658.2
838.675	13705.69
839.059	13866.98
839.443	13851.4
839.827	13670.58
840.21	14045.17
840.594	13923.1
840.977	14088.59
841.361	14074.74
841.744	14371.8
842.127	14253.35
842.511	14442.45
842.894	14912.31
843.277	15209.82
843.66	15642.06
844.043	15698.28
844.426	15066
844.809	14809.56
845.191	14831.86
845.574	14466.9
845.957	14176.73
846.339	14088.92
846.722	13663.6
847.104	13716.45
847.487	13574.89
847.869	13582.45
848.252	13804.29
848.634	14059.95
849.016	14270.51
849.398	14367.93
849.78	15040.71
850.162	15045.03
850.544	15370.03
850.926	15870.46
851.307	15798.67
851.689	16018.95
852.071	16373.06
852.452	16619.48
852.834	16602.29
853.215	16917.32
853.597	17028.23
853.978	17263.43
854.359	17611.04
854.741	16824.14
855.122	16744.39
855.503	16520
855.884	16631.37
856.265	16589.17
856.646	16681.35
857.026	16372.75
857.407	16321.94
857.788	16453.18
858.169	16683.16
858.549	16022.18
858.93	16519.62
859.31	16566.3
859.69	16734.03
860.071	16411.36
860.451	16241.28
860.831	15655.39
861.211	16570.76
861.591	17010.09
861.971	16988.34
862.351	17137.08
862.731	17447.98
863.111	17650.82
863.491	17916.6
863.87	18608.99
864.25	18890.27
864.629	18568.76
865.009	18972.7
865.388	19653.29
865.768	21066.82
866.147	20973.51
866.526	19819.35
866.905	20056.92
867.284	21186.91
867.663	20106.61
868.042	19268.08
868.421	19201.54
868.8	19515.4
869.179	19720.88
869.558	18570.21
869.936	17107.36
870.315	17426.72
870.693	17849.55
871.072	19240.98
871.45	18330.2
871.828	18567.84
872.207	19518.68
872.585	19228.16
872.963	19752.94
873.341	19076.03
873.719	18850.29
874.097	18618.54
874.475	18966.47
874.853	19396.78
875.23	18590.69
875.608	19372.04
875.986	20947.95
876.363	20035.64
876.741	20658.31
877.118	20142.2
877.495	21120.1
877.873	21471.13
878.25	22586.41
878.627	21663.57
879.004	21957.86
879.381	21844.91
879.758	21263.2
880.135	19797.18
880.512	20934.5
880.889	20362.85
881.265	20150.82
881.642	19979.6
882.019	20315.63
882.395	19913.38
882.772	20701.1
883.148	19812.02
883.524	19729.87
883.901	19610.72
884.277	19898.3
884.653	19766.31
885.029	20332.04
885.405	22506.91
885.781	22317.9
886.157	21384.56
886.532	21633.82
886.908	21606.18
887.284	24017.47
887.659	24809.15
888.035	25584.79
888.411	26247.98
888.786	26581.49
889.161	27485.92
889.537	26978.3
889.912	27857.97
890.287	27833.76
890.662	28554.72
891.037	28049.31
891.412	26145.59
891.787	25871.04
892.162	24956.36
892.536	25524.7
892.911	24575.03
893.286	24056.77
893.66	23066.7
894.035	23641.44
894.409	25735.5
894.784	24692
895.158	25089.05
895.532	26579.69
895.906	27301.43
896.281	27939.73
896.655	27498.05
897.029	31400.38
897.402	32698.47
897.776	36408.99
898.15	36286.73
898.524	35884.2
898.898	36372.44
899.271	40729.57
899.645	35259.95
900.018	33860.95
900.392	35107.16
900.765	35375.03
901.138	32749.98
901.511	32256.37
901.884	29628.33
902.258	27319.64
902.631	28250.37
903.003	32476.5
903.376	29287.97
903.749	32848.01
904.122	35151.46
904.495	38703.14
904.867	39183.08
905.24	34018.34
905.612	31670.73
905.985	32377.19
906.357	33850.32
906.729	32289.85
907.102	27587.24
907.474	26545.13
907.846	26714.12
908.218	26363.92
908.59	23310.46
908.962	22562.31
909.334	24308.67
909.705	25546.48
910.077	24813.06
910.449	25847.79
910.82	26600.04
911.192	29299.88
911.563	30443.6
911.935	32578.96
912.306	32640.01
912.677	33703.54
913.048	33370.35
913.419	36181.69
913.79	36371.48
914.161	39009.86
914.532	37293.54
914.903	34238.38
915.274	32506.97
915.645	32045.26
916.015	28208.09
916.386	26897.7
916.756	28627.65
917.127	29521.11
917.497	26392.4
917.868	28721.85
918.238	27285.54
918.608	28065.64
918.978	28656.08
919.348	30345.08
919.718	31338.44
920.088	30172.6
920.458	31365.24
920.828	32999.96
921.198	31303.89
921.567	33446.79
921.937	25915.97
922.306	26162.98
922.676	28195.92
923.045	23536.3
923.415	22357.84
923.784	20359.36
924.153	20944.34
924.522	20918.16
924.891	19683.95
925.26	21092.52
925.629	20580.77
925.998	23654.71
926.367	23086.04
926.736	21998.68
927.104	26190.17
927.473	28157.79
927.842	34010.28
928.21	33673.41
928.578	35383.63
928.947	33421.77
929.315	33620.53
929.683	39435.69
930.051	39742.48
930.42	46134.47
930.788	39439.61
931.156	39126.86
931.523	36710.42
931.891	33919.88
932.259	32586.79
932.627	37740.37
932.994	53385.16
933.362	44083.93
933.729	38252.09
934.097	36612.19
934.464	30993.43
934.831	35731.32
935.199	35212.43
935.566	34111.66
935.933	34531.97
936.3	41817.41
936.667	32555.35
937.034	29415.87
937.401	29066.2
937.767	25097.86
938.134	22337.95
938.501	31493.03
938.867	33556.89
939.234	56731.64
939.6	48352.8
939.967	53325.49
940.333	35708.95
940.699	30408.44
941.065	24360.51
941.431	31988.59
941.798	30857.3
942.163	40558.29
942.529	25355.78
942.895	23370.21
943.261	15131.37
943.627	19883.09
943.992	17411.96
944.358	17418.35
944.723	17514.51
945.089	17074.03
945.454	15773.71
945.82	16835.45
946.185	16175.43
946.55	18751.5
946.915	16820.29
947.28	19728.93
947.645	17366.25
948.01	16071.31
948.375	16775.74
948.74	20097.84
949.104	23442.82
949.469	33850.07
949.834	59872.37
950.198	56842.2
950.562	34052.88
950.927	28356.17
951.291	34101.79
951.655	29040.49
952.02	27209.93
952.384	20585.44
952.748	17937.64
953.112	17517.06
953.476	15239.36
953.839	14085.47
954.203	13932.46
954.567	17414.16
954.931	27397.11
955.294	23463.78
955.658	23617.58
956.021	40159.85
956.385	67991.25
956.748	100270.15
957.111	155194.05
957.474	174153.39
957.837	196082.96
958.2	148202.98
958.563	53327.26
958.926	36107.52
959.289	54754.15
959.652	61130.33
960.015	45889.56
960.377	65908.07
960.74	75161.02
961.102	129765.26
961.465	139487.78
961.827	74797.77
962.189	143586.57
962.552	99617.46
962.914	79888
963.276	51845.7
963.638	42845.8
964	42428.16
964.362	28690.77
964.724	27702.37
965.085	19767.01
965.447	16200.87
965.809	18441.78
966.17	18454.43
966.532	19934.92
966.893	18288.05
967.255	16643.33
967.616	19651.86
967.977	15734.09
968.338	17176.11
968.699	14146.95
969.061	14143.73
969.421	14237.93
969.782	15975.54
970.143	13494.1
970.504	14000.86
970.865	15919.78
971.225	16292.91
971.586	15915.95
971.946	22685.51
972.307	19655.96
972.667	25649.72
973.027	26383.1
973.388	31953.76
973.748	21745.5
974.108	23676.11
974.468	31968.75
974.828	24638.83
975.188	18904.25
975.548	17375.35
975.907	14580.1
976.267	16363.81
976.627	13754.95
976.986	14244.7
977.346	13570.44
977.705	13045.5
978.064	11884.63
978.424	9901.52
978.783	10208.01
979.142	11670.07
979.501	11164.9
979.86	11809.12
980.219	11377.13
980.578	14684.11
980.937	16463.16
981.296	14681.27
981.654	15097.53
982.013	23476.28
982.371	30469.94
982.73	28493.62
983.088	32241.23
983.447	34455.63
983.805	49234.9
984.163	102892.91
984.521	113957.52
984.879	167138.41
985.237	-272020.71
985.595	262562.03
985.953	65191.97
986.311	37621.31
986.669	21842.11
987.026	18850.05
987.384	25328.31
987.741	26123.24
988.099	18694.17
988.456	14931.03
988.814	13973.87
989.171	12127.36
989.528	11943.75
989.885	12605.94
990.242	9988.3
990.599	12434.87
990.956	10170.48
991.313	7115.77
991.67	5854.38
992.027	6215.35
992.383	5518.92
992.74	4844.08
993.096	5093.38
993.453	5281.39
993.809	5487.24
994.165	7305.62
994.522	6713.29
994.878	7401.09
995.234	9298.6
995.59	9180.48
995.946	8679.35
996.302	9892.83
996.658	11450.42
997.013	12603.98
997.369	14964.7
997.725	19172.44
998.08	12421.01
998.436	19087.63
998.791	26354.06
999.147	26322.69
999.502	28690.31
999.857	20811.76
1000.212	33878.51
1000.567	48107.98
1000.922	27726.9
1001.277	17578.17
1001.632	13006.83
1001.987	16766.23
1002.342	12055.19
1002.696	9640.8
1003.051	7684.83
1003.406	9315.6
1003.76	9276.38
1004.114	9149.56
1004.469	7689.66
1004.823	6365.19
1005.177	6882.54
1005.531	5462.89
1005.885	4852.32
1006.239	5473.9
1006.593	6855.6
1006.947	9182.85
1007.301	6885.82
1007.655	7515.02
1008.008	5538.56
1008.362	6234.44
1008.715	8906.11
1009.069	8062.71
1009.422	12168.61
1009.776	24335.61
1010.129	16162.49
1010.482	13490.86
1010.835	11370.3
1011.188	23577.55
1011.541	22237.4
1011.894	-136162.78
1012.247	400837.2
1012.6	27314.25
1012.952	17297.64
1013.305	8891.59
1013.657	6428.62
1014.01	6078.63
1014.362	5028.94
1014.715	4484.3
1015.067	3923.75
1015.419	3835.06
1015.771	3382.84
1016.123	3010.6
1016.475	3087.7
1016.827	3283.89
1017.179	3534.82
1017.531	3538.44
1017.883	3608.09
1018.234	3506.41
1018.586	4435.89
1018.938	4709.69
1019.289	6494.24
1019.64	7428.94
1019.992	6913.76
1020.343	6327.16
1020.694	5028.24
1021.045	4437.13
1021.396	5089.77
1021.747	5468.86
1022.098	6505.23
1022.449	4699.65
1022.8	4360.97
1023.151	3033.7
1023.501	2702.76
1023.852	2932.5
1024.202	3059.24
1024.553	3344.47
1024.903	3293.38
1025.253	2823.98
1025.604	2551.4
1025.954	3175.95
1026.304	3884.59
1026.654	4506.24
1027.004	6620.81
1027.354	10661.6
1027.703	10163.3
1028.053	13328.35
1028.403	19576.17
1028.753	28068.93
1029.102	38225.6
1029.452	196442.14
1029.801	8488.06
1030.15	5473.54
1030.499	4671.04
897.758	2828.99
901.051	2792.68
904.343	2826.99
907.636	2826.15
910.928	2892.83
914.22	2800.24
917.511	2809.93
920.803	2880.11
924.094	2904.64
927.384	2875.59
930.675	2841.83
933.965	2789.49
937.255	2792.84
940.544	2762.37
943.834	2679.92
947.123	2627.59
950.411	2727.08
953.7	2696.89
956.988	2658.41
960.276	2601.81
963.563	2693.88
966.851	2684.14
970.138	2747.81
973.424	2737.99
976.711	2686.92
979.997	2845.04
983.283	2876.97
986.568	2771.86
989.853	2798.08
993.138	2823.9
996.423	2907.58
999.708	2834.59
1002.992	2913.23
1006.275	2722.21
1009.559	2784.4
1012.842	2903.45
1016.125	2831.72
1019.408	2808.81
1022.69	2903.34
1025.972	2917.01
1029.254	2893.02
1032.536	2813.23
1035.817	2848.4
1039.098	2777.72
1042.379	2955.46
1045.659	2942.11
1048.939	2868.23
1052.219	2894.12
1055.498	2910.35
1058.778	2895.45
1062.057	2883.67
1065.335	2902.23
1068.614	2924.29
1071.892	2901.58
1075.17	2987.12
1078.447	2968.18
1081.724	2956.68
1085.001	3001.76
1088.278	2972.21
1091.554	2988.21
1094.83	2985.24
1098.106	3010.38
1101.382	3060.87
1104.657	3058.17
1107.932	3055.11
1111.206	3015.98
1114.481	2973.32
1117.755	2977.14
1121.029	2948.22
1124.302	3004.04
1127.575	2948.82
1130.848	2930.94
1134.121	2887.67
1137.393	2831.9
1140.665	2907.85
1143.937	2877.35
1147.208	2839.94
1150.48	2876.49
1153.75	2861.23
1157.021	2903.58
1160.291	2868.83
1163.561	2915.5
1166.831	2912.16
1170.101	2945.63
1173.37	2924.27
1176.639	2861.01
1179.907	2929.91
1183.176	2928.11
1186.444	2940.24
1189.711	2968.57
1192.979	2975.45
1196.246	2935.82
1199.513	2952.69
1202.78	2948.31
1206.046	2957.21
1209.312	2983.27
1212.578	3013.73
1215.843	2955.02
1219.108	2934.67
1222.373	2954.5
1225.638	2916.5
1228.902	2898.87
1232.166	2865.25
1235.43	2845.1
1238.693	2866.36
1241.956	2867.84
1245.219	2904.06
1248.482	2899.54
1251.744	2895.5
1255.006	3055.4
1258.268	3015.03
1261.529	2953.2
1264.79	2963.65
1268.051	3069.84
1271.312	3087.9
1274.572	3048.43
1277.832	3036.08
1281.092	3029.84
1284.351	2994.29
1287.61	2970.18
1290.869	2877.4
1294.128	2843.76
1297.386	2949.72
1300.644	2935.71
1303.902	2946.49
1307.159	2802.95
1310.416	2859.85
1313.673	2885.73
1316.93	2864.36
1320.186	2916.39
1323.442	2961.87
1326.697	2943.1
1329.953	2944
1333.208	2960.29
1336.463	2942.71
1339.717	2874.27
1342.972	3018.37
1346.226	2998.23
1349.479	2921.76
1352.733	2889.09
1355.986	2920.25
1359.238	2895.6
1362.491	2901.25
1365.743	2903.43
1368.995	2901.73
1372.247	2916.68
1375.498	2942.24
1378.749	2949.4
1382	2904.77
1385.251	2963.49
1388.501	2932.64
1391.751	2906.71
1395	2880.52
1398.25	2914.66
1401.499	2917.01
1404.748	2836.81
1407.996	2829.34
1411.244	2813.91
1414.492	2790.68
1417.74	2768.33
1420.987	2782.18
1424.234	2833.93
1427.481	2822.34
1430.728	2881
1433.974	2854.72
1437.22	2876.23
1440.465	2877.09
1443.711	2828.76
1446.956	2868.42
1450.201	2860.84
1453.445	2905.26
1456.689	2880.48
1459.933	2895.69
1463.177	2924.51
1466.42	2897.87
1469.663	2876.6
1472.906	2860.89
1476.148	2955.97
1479.391	2897.54
1482.633	2872.42
1485.874	2878.66
1489.115	2859.39
1492.356	2868.86
1495.597	2842.71
1498.838	2848.62
1502.078	2810.47
1505.318	2753.07
1508.557	2799.78
1511.797	2760.47
1515.036	2854.21
1518.274	2846.42
1521.513	2823.55
1524.751	2848.27
1527.989	2859.99
1531.227	2870.01
1534.464	2857.65
1537.701	2887.71
1540.938	2909.31
1544.174	2863.7
1547.41	2865.58
1550.646	2905.86
1553.882	2932.58
1557.117	2989.52
1560.352	3006.45
1563.587	2962.33
1566.821	2920.21
1570.055	2962.35
1573.289	2928.46
1576.523	3009.96
1579.756	3015.44
1582.989	3032.08
1586.222	2992.2
1589.454	3034.91
1592.686	3004.31
1595.918	3028.21
1599.15	3012.84
1602.381	3099.3
1605.612	3044.66
1608.843	3144.28
1612.073	3053.09
1615.303	3032.99
1618.533	3021.84
1621.762	3027.29
1624.992	3017.27
1628.221	2998.04
1631.449	2983.84
1634.678	3047.2
1637.906	2997.3
1641.134	3040.93
1644.361	2992.33
1647.588	2980.9
1650.815	2996.35
1654.042	2981.55
1657.269	3013.04
1660.495	2957.92
1663.72	2960.81
1666.946	2924.33
1670.171	2858.59
1673.396	2835.45
1676.621	2825.1
1679.845	2855.9
1683.069	2880.75
1686.293	2930.17
1689.517	2890.75
1692.74	2809.55
1695.963	2845.73
1699.185	2877.54
1702.408	2853.35
1705.63	2899.85
1708.852	2909.52
1712.073	2881.53
1715.294	2857.26
1718.515	2924.99
1721.736	2865.59
1724.956	2868.3
1728.176	2897.22
1731.396	2917.66
1734.616	2910.25
1737.835	2933.91
1741.054	2916.06
1744.272	2907.52
1747.491	2936.32
1750.709	3000.43
1753.927	2887.78
1757.144	2941.99
1760.361	2976.33
1763.578	2975.34
1766.795	2911.49
1770.011	2924.81
1773.227	2970.64
1776.443	3005.19
1779.658	3050.82
1782.874	2996.05
1786.089	2966.37
1789.303	2971.2
1792.518	2979.4
1795.732	2969.52
1798.945	2975.86
1802.159	3029
1805.372	2915.32
1808.585	2897.93
1811.797	2896.82
1815.01	2953.31
1818.222	2950.9
1821.434	2903.03
1824.645	2971.1
1827.856	2945.98
1831.067	2980.7
1834.278	2946.67
1837.488	2930.75
1840.698	3089.64
1843.908	3007.15
1847.117	2970.09
1850.326	2838.26
1853.535	2957.7
1856.744	3008.71
1859.952	2915.24
1863.16	2915.46
1866.368	2942.16
1869.575	3043.17
1872.782	2929.08
1875.989	2870.34
1879.196	2967.48
1882.402	2959.78
1885.608	3007.68
1888.814	2893.46
1892.019	2782.4
1895.224	2836.01
1898.429	2822.61
1901.634	2798.3
1904.838	2778.26
1908.042	2823.93
1911.246	2829.65
1914.449	2748.98
1917.652	2752.07
1920.855	2733.19
1924.058	2794.6
1927.26	2829.69
1930.462	2858.23
1933.664	2881.72
1936.865	2813.43
1940.066	2815.45
1943.267	2767.44
1946.467	2784.07
1949.668	2816.01
1952.868	2883.94
1956.067	2855.92
1959.267	2780.39
1962.466	2809.43
1965.665	2797.28
1968.863	2791.94
1972.061	2814.3
1975.259	2817.62
1978.457	2897.73
1981.654	2853.64
1984.852	2851.61
1988.048	2776.08
1991.245	2783.33
1994.441	2870.58
1997.637	2864.92
2000.833	2849.14
2004.028	2888.14
2007.223	2937.61
2010.418	2912.13
2013.613	2876.75
2016.807	2839.5
2020.001	2852.92
2023.194	2903.66
2026.388	2880.35
2029.581	2825.98
2032.774	2870.08
2035.966	2869.69
2039.158	2797.48
2042.35	2829.7
2045.542	2754.06
2048.733	2863.16
2051.924	2895.94
2055.115	2926.95
2058.306	2863.15
2061.496	2922.37
2064.686	2992.87
2067.875	2907.29
2071.065	2928.24
2074.254	2958.93
2077.442	2909.52
2080.631	3003.93
2083.819	2878.37
2087.007	2857.8
2090.195	2824.89
2093.382	2867.06
2096.569	2845.11
2099.756	2794.06
2102.942	2813.46
2106.128	2814.86
2109.314	2806.79
2112.5	2759.61
2115.685	2740.74
2118.87	2751.92
2122.055	2817.96
2125.239	2777.4
2128.424	2747.3
2131.608	2867.25
2134.791	2844.75
2137.974	2914.17
2141.157	2896.93
2144.34	2842.04
2147.523	2865.95
2150.705	2873.92
2153.887	2856.61
2157.068	2798.52
2160.25	2811.12
2163.431	2851.31
2166.611	2788.79
2169.792	2804.97
2172.972	2690.47
2176.152	2780.34
2179.331	2820.05
2182.511	2797.02
2185.69	2827.64
2188.868	2816.04
2192.047	2881.89
2195.225	2861.36
2198.403	2814.54
2201.58	2805.52
2204.758	2806.79
2207.935	2892.13
2211.111	2769.63
2214.288	2750.85
2217.464	2793.06
2220.64	2768.57
2223.815	2831.34
2226.991	2744.14
2230.166	2765.16
2233.34	2787.64
2236.515	2819.67
2239.689	2897.7
2242.863	2837.84
2246.036	2893.39
2249.209	2901.08
2252.382	2941.68
2255.555	2921.63
2258.727	2852.09
2261.9	2899.17
2265.071	2889.45
2268.243	2897.37
2271.414	2820.42
2274.585	2771.93
2277.756	2843.54
2280.926	2800.74
2284.096	2845.9
2287.266	2743.63
2290.436	2803.99
2293.605	2836.01
2296.774	2862.33
2299.942	2893.88
2303.111	2907.8
2306.279	2957.56
2309.447	2940.53
2312.614	2918.85
2315.781	2938.89
2318.948	2900.67
2322.115	2940.78
2325.281	2840.95
2328.447	2865.49
2331.613	2841.23
2334.779	2803.19
2337.944	2812.35
2341.109	2807.97
2344.274	2791.13
2347.438	2753.37
2350.602	2781.59
2353.766	2800.76
2356.929	2783.59
2360.092	2830.53
2363.255	2775.14
2366.418	2696.4
2369.58	2828.67
2372.742	2581.1
2375.904	2604.25
2379.066	2577.09
2382.227	2614.36
2385.388	2577.91
2388.548	2497.56
2391.709	2559.27
2394.869	2533.69
2398.029	2648.89
2401.188	2669.38
2404.347	2591.59
2407.506	2755.56
2410.665	2782.13
2413.823	2795.45
2416.981	2745.72
2420.139	2781.2
2423.296	2831.88
2426.453	2805.35
2429.61	2831.4
2432.767	2753.75
2435.923	2790.68
2439.079	2738.96
2442.235	2798.21
2445.391	2718.29
2448.546	2738.95
2451.701	2797.3
2454.855	2757.76
2458.009	2823.36
2461.163	2833.17
2464.317	2781.76
2467.471	2819.3
2470.624	2864.51
2473.777	2846.63
2476.929	2856.82
2480.082	2880.45
2483.234	2844.86
2486.385	2793.42
2489.537	2785.27
2492.688	2734.77
2495.839	2745.83
2498.989	2762.73
2502.14	2742.49
2505.29	2719.08
2508.439	2751.36
2511.589	2665.58
2514.738	2684.34
2517.887	2719.4
2521.035	2787.64
2524.183	2780.41
2527.331	2759.31
2530.479	2730.03
2533.627	2740.12
