Data from C_3_DEC_CT_2N_Splice17_13-00-51-916.txt Node
Date: Sat Mar 14 13:00:51 EDT 2020
User: sa697716
Spectrometer: FLMS03696
Trigger mode: 0
Integration Time (sec): 3.180400E-1
Scans to average: 20
Electric dark correction enabled: true
Nonlinearity correction enabled: true
Boxcar width: 5
XAxis mode: Wavelengths
Number of Pixels in Spectrum: 2048
>>>>>Begin Spectral Data<<<<<
187.83	-288376.61
188.298	2120.92
188.766	1160.27
189.233	1075.88
189.701	1498.97
190.169	2077.71
190.636	753.98
191.104	552.92
191.571	4.97
192.039	-99.53
192.506	-146.98
192.974	321.1
193.441	-641.85
193.908	-240.64
194.375	-44.11
194.842	31.18
195.31	139.8
195.777	171.89
196.244	408.7
196.711	528.13
197.177	701.11
197.644	996.04
198.111	1725.82
198.578	2482.61
199.045	2013.84
199.511	3331.76
199.978	3916.69
200.445	3313.46
200.911	3682.44
201.378	4099.85
201.844	3728.2
202.31	6374
202.777	6702.16
203.243	3736.28
203.709	3562.56
204.176	4298.12
204.642	3535.59
205.108	3298.96
205.574	2708.74
206.04	2488.88
206.506	2353.99
206.972	2212.33
207.438	2148.06
207.903	2469.96
208.369	2169.8
208.835	2155.1
209.301	2253.04
209.766	2332.56
210.232	2305.58
210.697	2864.13
211.163	3561.33
211.628	5428.81
212.094	4602.34
212.559	5640.06
213.024	3505.32
213.49	4291.83
213.955	4249.37
214.42	4178.46
214.885	3889.7
215.35	3752.13
215.815	3596.04
216.28	3824.92
216.745	3154.08
217.21	3451.08
217.675	3264.23
218.14	3733.19
218.604	4298.9
219.069	5009.98
219.534	5351
219.998	6370.28
220.463	7896.18
220.927	9969.4
221.392	9530.31
221.856	9750.69
222.32	12442.8
222.785	15458.19
223.249	19648.79
223.713	22031.12
224.177	22147.73
224.642	28603.14
225.106	35315.84
225.57	38680.86
226.034	28784.06
226.497	43947.96
226.961	39743.32
227.425	46356.58
227.889	51578.97
228.353	51634.72
228.816	106818.55
229.28	102135.74
229.744	86231.5
230.207	52394.75
230.671	51622.21
231.134	85628.97
231.597	98728.02
232.061	98889.14
232.524	96602.13
232.987	66542.41
233.45	59863.57
233.914	53741.15
234.377	55225.8
234.84	50585.98
235.303	59810.47
235.766	66767.93
236.229	68966.16
236.691	43472.91
237.154	48862.25
237.617	36742.3
238.08	37666.59
238.542	44151.09
239.005	31558.77
239.468	31279.1
239.93	29463.1
240.393	26741.21
240.855	23460.98
241.317	24048.68
241.78	29282.06
242.242	30244.79
242.704	32599.42
243.166	28367.12
243.629	25724
244.091	29643.1
244.553	32504.44
245.015	34954.89
245.477	45289.39
245.939	66484.71
246.4	70600.88
246.862	68643.46
247.324	64821.35
247.786	72722.94
248.247	95508.61
248.709	98826.63
249.17	73987.19
249.632	69729.24
250.093	80877.07
250.555	69856.56
251.016	42595.83
251.477	40423.6
251.939	43663.72
252.4	45847.65
252.861	54544.03
253.322	50774.97
253.783	60566.37
254.244	78670.87
254.705	62146.72
255.166	55354.22
255.627	54544.98
256.088	77014.36
256.549	81887.68
257.009	70573.32
257.47	85728.58
257.931	69917.37
258.391	52387.55
258.852	53995.94
259.312	56641.69
259.773	70076.24
260.233	59218.62
260.694	50052.87
261.154	56898.22
261.614	45661.07
262.074	40932.85
262.534	42566.37
262.994	40166.05
263.455	53654.97
263.915	45233.81
264.374	42651.39
264.834	46611.68
265.294	51787.61
265.754	53693.34
266.214	50867.82
266.673	47739.81
267.133	60327.39
267.593	59969.77
268.052	73512.94
268.512	63970.24
268.971	77206.32
269.431	84742.52
269.89	75971.77
270.349	113952.95
270.809	127116.51
271.268	114363.23
271.727	256971.08
272.186	166435.44
272.645	124858.03
273.104	90175.95
273.563	130732.61
274.022	102948.9
274.481	87659.97
274.94	67543.2
275.399	50258.2
275.857	58561.09
276.316	79291.18
276.775	70606.75
277.233	69578.66
277.692	65138.15
278.15	73649.34
278.609	75694.44
279.067	70093.55
279.525	65059.89
279.984	84119.62
280.442	101078.14
280.9	99619.18
281.358	65514.73
281.816	61023.93
282.274	59742.13
282.732	61754.01
283.19	62094.93
283.648	53614.83
284.106	57106.1
284.564	58145.6
285.021	53901.63
285.479	40155.53
285.937	36558.84
286.394	32061.54
286.852	33013.97
287.309	34713.19
287.767	33531.28
288.224	31833.89
288.682	34947.29
289.139	38353.41
289.596	35070.92
290.053	36481.4
290.511	46098.34
290.968	55906.38
291.425	76021.04
291.882	63262.39
292.339	55057.13
292.796	54672.12
293.252	51625.63
293.709	40984.44
294.166	36749.33
294.623	40640.45
295.079	38985.3
295.536	39168.83
295.992	35553.06
296.449	35140.09
296.905	36501.21
297.362	35001.45
297.818	36808.41
298.274	38129.94
298.731	38898.02
299.187	38503.02
299.643	41335.88
300.099	49991.49
300.555	54781.8
301.011	45819.45
301.467	44073.63
301.923	51640.07
302.379	50411.33
302.835	49521.82
303.291	49630.83
303.746	56430.45
304.202	71294.2
304.658	71591.74
305.113	48119.96
305.569	47152.54
306.024	50237.37
306.479	47900.15
306.935	40327.7
307.39	44050.23
307.845	40647.49
308.301	40856.45
308.756	39812.68
309.211	38307.57
309.666	39212.9
310.121	48612.81
310.576	49339.78
311.031	48936.41
311.486	56065.26
311.94	56015.46
312.395	74906.73
312.85	140741.54
313.305	692226.97
313.759	3578783.7
314.214	259472.49
314.668	205788.37
315.123	173012.39
315.577	62007.91
316.032	55126.12
316.486	69059.39
316.94	54455.73
317.394	37879.32
317.849	29443.67
318.303	27879.14
318.757	26315.07
319.211	29069.1
319.665	25451.43
320.119	25782.01
320.572	36999.94
321.026	34531.48
321.48	28747.2
321.934	31399.24
322.387	31512.69
322.841	34046.65
323.295	30561.35
323.748	35262.85
324.202	35760.74
324.655	42913.32
325.108	59897.5
325.562	42287.58
326.015	50311.8
326.468	37993.27
326.921	42452.74
327.374	39508.58
327.827	41091.88
328.28	46501.57
328.733	31120.23
329.186	27363.23
329.639	26055
330.092	21949.77
330.545	20895.02
330.997	21048.01
331.45	22975.25
331.903	26876.07
332.355	46281.3
332.808	44935.08
333.26	37058.87
333.713	40172.73
334.165	40473.46
334.617	54098.6
335.069	43785.44
335.522	79125.42
335.974	87635.63
336.426	80102.09
336.878	55517.86
337.33	28108.95
337.782	27459.7
338.234	34344.04
338.686	41111.19
339.137	48629.31
339.589	45746.27
340.041	35793.83
340.493	30768.27
340.944	31462.66
341.396	33860.43
341.847	28456.65
342.299	33554.85
342.75	40893.21
343.201	35807.97
343.653	41171.81
344.104	50739.54
344.555	39980.38
345.006	62366.25
345.457	47663.65
345.908	37927.65
346.359	35670.46
346.81	29081.91
347.261	30683.39
347.712	30277.39
348.163	32427.74
348.613	32769.78
349.064	30556.79
349.515	26731.1
349.965	27377.57
350.416	32996.17
350.866	36162.89
351.317	40882.36
351.767	67634.12
352.217	85386.46
352.668	70806.72
353.118	64850.25
353.568	62638.01
354.018	49455.42
354.468	52093.32
354.918	37330.81
355.368	32638.82
355.818	46121.4
356.268	132908.33
356.718	555330.03
357.168	138075.07
357.617	69286.85
358.067	77112.56
358.517	72217.47
358.966	84597.42
359.416	94764.55
359.865	102539.67
360.315	122204.63
360.764	57085.88
361.213	31928.18
361.663	30325.15
362.112	37482.2
362.561	60528.83
363.01	45624.96
363.459	38404.06
363.908	41605.76
364.357	35310.6
364.806	59626.31
365.255	40956.19
365.703	37416.79
366.152	37440.87
366.601	30317.88
367.05	24568.98
367.498	22293.74
367.947	23296.74
368.395	24211.73
368.844	21402.47
369.292	25836.02
369.74	17836.02
370.189	27331.54
370.637	32055.51
371.085	27659.45
371.533	33679.43
371.981	32440.01
372.429	30873.44
372.877	32142.14
373.325	26909.74
373.773	27450.3
374.221	24416.01
374.669	30275.85
375.116	26184.08
375.564	26353.31
376.012	29472.87
376.459	24275.67
376.907	29007.37
377.354	35131.55
377.801	32699.79
378.249	37503.56
378.696	47919.56
379.143	58016.23
379.591	61740.84
380.038	104316.86
380.485	75446.73
380.932	81462.31
381.379	74357.56
381.826	54603.6
382.273	38732.2
382.72	33866.99
383.166	32979.43
383.613	21352.42
384.06	19235.91
384.506	22261.63
384.953	16326.85
385.4	16421.16
385.846	14370.51
386.292	14009.52
386.739	13726.85
387.185	13568.41
387.631	13569.83
388.078	13138.15
388.524	14024.79
388.97	12923.9
389.416	10737.3
389.862	11383.33
390.308	10754.24
390.754	10875.99
391.2	11789.64
391.645	12052.04
392.091	11483.47
392.537	11055.82
392.983	11076.27
393.428	10865.68
393.874	11643.3
394.319	11660
394.765	11016.43
395.21	11327.84
395.655	10610.53
396.101	9904.37
396.546	8907.13
396.991	8982.4
397.436	8330.54
397.881	8038.59
398.326	7611.63
398.771	7165.65
399.216	6257.3
399.661	5639.71
400.106	5600.08
400.551	5725.78
400.995	5134.96
401.44	5080.81
401.885	4774.47
402.329	4821.22
402.774	4611.89
403.218	4445.36
403.663	4283.99
404.107	4403.7
404.551	4425.59
404.995	4056.7
405.44	3905.26
405.884	3959.44
406.328	3829.94
406.772	3810.2
407.216	3464.38
407.66	3344.67
408.104	3185.64
408.547	2983.01
408.991	2884.52
409.435	2778.07
409.879	2737.53
410.322	2699.59
410.766	2603.73
411.209	2470.98
411.653	2370.51
412.096	2320.6
412.54	2319.3
412.983	2300.33
413.426	2302.34
413.869	2299.14
414.312	2252.55
414.756	2166.63
415.199	2063.81
415.642	2001.56
416.085	2001.01
416.527	1987.98
416.97	2018.95
417.413	1914.54
417.856	1896.91
418.298	1875.93
418.741	1862.48
419.184	1858.25
419.626	1935.98
420.069	1936.68
420.511	1947.3
420.953	1904.23
421.396	1884.79
421.838	1835.35
422.28	1877.8
422.722	1882
423.164	1912.19
423.606	1881.81
424.048	1877.5
424.49	1785.74
424.932	1777.6
425.374	1751.12
425.816	1786.32
426.258	1819.89
426.699	1841.85
427.141	1813.02
427.582	1843.59
428.024	1833.25
428.465	1818.69
428.907	1773.07
429.348	1751.57
429.789	1748.59
430.231	1711.65
430.672	1732.57
431.113	1691.31
431.554	1662.4
431.995	1619.55
432.436	1554.9
432.877	1516.65
433.318	1489.28
433.759	1481.97
434.2	1482.26
434.64	1466.75
435.081	1470.64
435.522	1390.34
435.962	1338.33
436.403	1309.23
436.843	1328.22
437.284	1302.19
437.724	1266.6
438.164	1270.17
438.604	1240.96
439.045	1191.1
439.485	1139.95
439.925	1113.44
440.365	1084.02
440.805	1069.83
441.245	1052.25
441.685	1010.7
442.125	1001.82
442.564	1007.62
443.004	981.83
443.444	978.26
443.883	977.13
444.323	969.7
444.762	971.85
445.202	983.4
445.641	998.63
446.081	994.49
446.52	1002.31
446.959	989.66
447.398	961.83
447.837	949.31
448.276	930.22
448.716	936.5
449.154	941.58
449.593	917.52
450.032	912.81
450.471	893.24
450.91	890.37
451.349	883.86
451.787	879.02
452.226	891.92
452.664	889.54
453.103	888.44
453.541	885.05
453.98	882.51
454.418	886.81
454.856	870.63
455.295	867.45
455.733	873.12
456.171	878.22
456.609	875.95
457.047	873.85
457.485	885.02
457.923	887.46
458.361	875.21
458.798	875.82
459.236	871.85
459.674	877.45
460.111	880.24
460.549	870.56
460.987	867.01
461.424	864.11
461.862	859.76
462.299	846.92
462.736	843.81
463.173	845.01
463.611	835.02
464.048	832.3
464.485	838.71
464.922	831.58
465.359	828.17
465.796	815.06
466.233	810.23
466.67	801.25
467.106	798.62
467.543	791.72
467.98	782.62
468.416	763.37
468.853	757.49
469.29	735.24
469.726	726.14
470.162	705.71
470.599	698.11
471.035	691.22
471.471	674.64
471.907	669.89
472.344	664.41
472.78	665.76
473.216	673.41
473.652	665.79
474.088	663.09
474.523	660.92
474.959	667.52
475.395	661.18
475.831	656.64
476.266	659.98
476.702	658.37
477.138	651.29
477.573	647.88
478.008	644.73
478.444	646.31
478.879	651.8
479.314	654.16
479.75	652.51
480.185	654.36
480.62	659.55
481.055	661.75
481.49	665.06
481.925	674.12
482.36	685.9
482.795	704.52
483.229	721.69
483.664	735.84
484.099	737.07
484.534	746.49
484.968	752.57
485.403	753.87
485.837	752
486.271	749.71
486.706	748.57
487.14	737.72
487.574	723.86
488.009	716.43
488.443	707.87
488.877	713.06
489.311	714.1
489.745	719.42
490.179	722.99
490.613	733.82
491.046	737.45
491.48	739.58
491.914	737.59
492.348	740.22
492.781	741.72
493.215	740.82
493.648	739.31
494.082	740.36
494.515	738.26
494.948	743.08
495.382	744.1
495.815	744.67
496.248	746.51
496.681	755.98
497.114	762.97
497.547	768.32
497.98	776.96
498.413	778.44
498.846	784.97
499.279	789.04
499.711	788.46
500.144	787.11
500.577	793.11
501.009	799.27
501.442	804.23
501.874	801.14
502.306	798.96
502.739	801.84
503.171	811.39
503.603	809.36
504.036	813.2
504.468	813.42
504.9	819.11
505.332	820.45
505.764	820.88
506.196	822.33
506.627	831.71
507.059	839.95
507.491	843.12
507.923	837.59
508.354	847.35
508.786	853.08
509.217	865.57
509.649	874.9
510.08	889.16
510.512	900.59
510.943	911.75
511.374	919.26
511.805	934.06
512.237	948.11
512.668	973.65
513.099	995.63
513.53	1017.27
513.961	1033.82
514.391	1059.38
514.822	1086.27
515.253	1116.18
515.684	1136.57
516.114	1161.75
516.545	1179.73
516.975	1202.47
517.406	1218.7
517.836	1222.01
518.267	1229.94
518.697	1247.6
519.127	1252.8
519.558	1260.87
519.988	1265.68
520.418	1277.03
520.848	1294.29
521.278	1304.83
521.708	1334.2
522.138	1348.08
522.567	1377.18
522.997	1403.1
523.427	1419.39
523.857	1438.6
524.286	1450.49
524.716	1467.28
525.145	1488.25
525.575	1501.61
526.004	1518.01
526.433	1506.71
526.863	1511.14
527.292	1506.8
527.721	1513.99
528.15	1522.53
528.579	1526.79
529.008	1540.25
529.437	1564.71
529.866	1579.85
530.295	1598.18
530.724	1613.02
531.152	1639.24
531.581	1653.93
532.01	1672.67
532.438	1684.22
532.867	1700.07
533.295	1719.6
533.723	1727.14
534.152	1726.39
534.58	1728.47
535.008	1715.7
535.436	1718.59
535.865	1728.6
536.293	1744.79
536.721	1760.38
537.149	1784.57
537.576	1789.02
538.004	1800.74
538.432	1809.81
538.86	1808.64
539.287	1816.01
539.715	1829.42
540.143	1833.62
540.57	1830.1
540.998	1825.75
541.425	1805.63
541.852	1786.44
542.28	1784.95
542.707	1770.94
543.134	1758.74
543.561	1756.5
543.988	1750.57
544.415	1751.85
544.842	1747.15
545.269	1741.64
545.696	1746.01
546.123	1758.58
546.549	1749.66
546.976	1739.33
547.403	1740.43
547.829	1743.38
548.256	1746.15
548.682	1743.56
549.108	1737.31
549.535	1737.48
549.961	1739.86
550.387	1728.12
550.813	1723.44
551.24	1731.18
551.666	1732.02
552.092	1722.9
552.518	1716.61
552.943	1711.51
553.369	1719.06
553.795	1723.77
554.221	1725.23
554.646	1722.44
555.072	1731.69
555.498	1736.31
555.923	1744.42
556.349	1757.88
556.774	1765.89
557.199	1766.54
557.625	1771.07
558.05	1763.21
558.475	1771.46
558.9	1767.95
559.325	1758.6
559.75	1750.88
560.175	1741.6
560.6	1732.48
561.025	1729.39
561.449	1727.85
561.874	1730.13
562.299	1731.99
562.723	1737.07
563.148	1725.61
563.572	1727
563.997	1733.16
564.421	1735.15
564.846	1733.98
565.27	1733.19
565.694	1727.55
566.118	1734.7
566.542	1739.11
566.966	1729.57
567.39	1721.2
567.814	1707.91
568.238	1704.04
568.662	1705.28
569.086	1704.21
569.509	1706.46
569.933	1689.17
570.357	1678.87
570.78	1656.52
571.204	1641.67
571.627	1628.63
572.05	1624.08
572.474	1620.84
572.897	1606.85
573.32	1596.72
573.743	1584.9
574.166	1566.88
574.589	1565.8
575.012	1556.53
575.435	1553.62
575.858	1542.93
576.281	1531.67
576.704	1515.88
577.126	1502.96
577.549	1491.36
577.972	1482.28
578.394	1471.62
578.817	1463.92
579.239	1446.29
579.661	1431.94
580.084	1416.47
580.506	1403.01
580.928	1397.81
581.35	1386.84
581.772	1381.49
582.194	1369.13
582.616	1356.84
583.038	1343.66
583.46	1333.53
583.882	1328.91
584.303	1332.92
584.725	1328.25
585.147	1331.47
585.568	1340.54
585.99	1351.36
586.411	1357.44
586.833	1370.34
587.254	1370.93
587.675	1382.56
588.096	1394.5
588.518	1389.89
588.939	1375.54
589.36	1373.21
589.781	1362.21
590.202	1337.55
590.623	1328.99
591.043	1325.77
591.464	1314.04
591.885	1310.94
592.305	1305.72
592.726	1292
593.147	1292.62
593.567	1287
593.987	1281.04
594.408	1275.65
594.828	1272.69
595.248	1267.95
595.669	1252.38
596.089	1244.96
596.509	1238.39
596.929	1225.71
597.349	1226.73
597.769	1217.82
598.189	1212.35
598.608	1212.17
599.028	1213.12
599.448	1212.26
599.867	1199.66
600.287	1193.89
600.706	1190.06
601.126	1180.74
601.545	1179.28
601.965	1175.68
602.384	1170.36
602.803	1171.89
603.222	1167.37
603.641	1161.3
604.061	1157.53
604.48	1153.54
604.898	1160.63
605.317	1163.85
605.736	1164.53
606.155	1161.68
606.574	1153.4
606.992	1156.75
607.411	1151.46
607.829	1148.97
608.248	1144.88
608.666	1142.54
609.085	1141.41
609.503	1132.95
609.921	1127.76
610.339	1129.29
610.758	1127.29
611.176	1124.2
611.594	1115.98
612.012	1112.66
612.43	1109.2
612.847	1114.27
613.265	1114.36
613.683	1118.25
614.101	1119.83
614.518	1115.19
614.936	1106.71
615.353	1095.45
615.771	1092.07
616.188	1092.83
616.606	1089.75
617.023	1084.34
617.44	1072.19
617.857	1066.14
618.274	1058.41
618.691	1053.15
619.108	1045.8
619.525	1040.22
619.942	1045.33
620.359	1047.81
620.776	1042.85
621.192	1039.64
621.609	1037.35
622.026	1042.73
622.442	1048.2
622.859	1051.23
623.275	1044.53
623.691	1049.16
624.108	1059.7
624.524	1071.27
624.94	1071.68
625.356	1080.38
625.772	1090.96
626.188	1100.89
626.604	1104.1
627.02	1099.99
627.436	1097.47
627.852	1105.05
628.268	1114.94
628.683	1106.82
629.099	1100.25
629.514	1096.35
629.93	1099.74
630.345	1104.46
630.761	1101.55
631.176	1103.92
631.591	1099.65
632.007	1095.79
632.422	1092.32
632.837	1083.56
633.252	1082.99
633.667	1074.9
634.082	1067.42
634.497	1056.64
634.911	1040.67
635.326	1037.18
635.741	1023.1
636.155	1015.84
636.57	1017.34
636.984	1018.49
637.399	1020.99
637.813	1020.26
638.228	1019.22
638.642	1022.3
639.056	1014.41
639.47	1015.3
639.884	1009.27
640.298	1004.69
640.712	1004.91
641.126	994.65
641.54	988.78
641.954	985.03
642.368	975.99
642.781	970.98
643.195	959.32
643.609	962.29
644.022	958.7
644.436	958.26
644.849	949.89
645.262	941.12
645.676	945.37
646.089	942.92
646.502	932.64
646.915	930
647.328	918.15
647.741	917.97
648.154	908.81
648.567	909.62
648.98	899.95
649.393	902.53
649.805	901.32
650.218	895.96
650.631	883.6
651.043	878.95
651.456	875.52
651.868	876.18
652.28	891.51
652.693	905.12
653.105	910.73
653.517	919.66
653.929	920.62
654.341	926.95
654.753	917.53
655.165	924.99
655.577	925.52
655.989	922.82
656.401	918.26
656.813	888.8
657.224	872.36
657.636	849.19
658.047	836.39
658.459	821.22
658.87	816.08
659.282	809
659.693	792.95
660.104	782.78
660.515	773.55
660.926	776.52
661.338	777.87
661.749	775.85
662.159	771.6
662.57	771.66
662.981	771.59
663.392	768.42
663.803	775.81
664.213	778.59
664.624	777.68
665.035	784.69
665.445	775.29
665.855	773
666.266	769.16
666.676	770.75
667.086	763.84
667.497	766.63
667.907	764.23
668.317	758.64
668.727	758.68
669.137	762.43
669.547	762.03
669.956	766.61
670.366	769.36
670.776	772
671.186	777.93
671.595	784.67
672.005	789.79
672.414	790.68
672.824	791.36
673.233	795.13
673.642	798.42
674.052	802.71
674.461	805.86
674.87	810.55
675.279	809.41
675.688	809.76
676.097	810.11
676.506	805.04
676.915	818.42
677.323	819.68
677.732	818.97
678.141	817.86
678.549	807.33
678.958	805.88
679.366	805.75
679.775	808.32
680.183	818.91
680.592	823.23
681	828.85
681.408	819.41
681.816	824.53
682.224	828.69
682.632	834.62
683.04	859.2
683.448	877.21
683.856	900.98
684.264	929.77
684.671	952.63
685.079	982.65
685.487	1015.25
685.894	1064.32
686.302	1100.02
686.709	1126.48
687.116	1158.22
687.524	1181.55
687.931	1199.9
688.338	1212.06
688.745	1220.99
689.152	1233.99
689.559	1257.5
689.966	1282.54
690.373	1287.91
690.78	1312.36
691.187	1358.23
691.593	1390.18
692	1418.35
692.407	1466.21
692.813	1528
693.22	1577.54
693.626	1629.25
694.032	1673.02
694.439	1740.73
694.845	1796.35
695.251	1868.87
695.657	1932.38
696.063	2029.7
696.469	2107.19
696.875	2178.37
697.281	2223.75
697.687	2279.6
698.093	2330.53
698.498	2415.53
698.904	2483.36
699.31	2582.01
699.715	2656.08
700.12	2760.97
700.526	2795.74
700.931	2880.12
701.337	2949.81
701.742	3002.56
702.147	3106.08
702.552	3157.57
702.957	3236.78
703.362	3280.03
703.767	3331.7
704.172	3394.78
704.577	3368.59
704.981	3440.08
705.386	3478.04
705.791	3492.3
706.195	3592.26
706.6	3621.71
707.004	3725.4
707.408	3714.73
707.813	3764.33
708.217	3770.53
708.621	3791.56
709.025	3917.39
709.43	3936.41
709.834	4021.13
710.237	4116.87
710.641	4120.14
711.045	4165.53
711.449	4179.96
711.853	4230.89
712.256	4298.75
712.66	4361.29
713.064	4467.45
713.467	4532.73
713.87	4681.29
714.274	4754.96
714.677	4901.04
715.08	5104.77
715.484	5317.26
715.887	5572.82
716.29	5825.52
716.693	6085.02
717.096	6385.14
717.499	6557.11
717.901	6609.53
718.304	6664.67
718.707	6712.97
719.109	6610.44
719.512	6598.64
719.915	6455.6
720.317	6409.2
720.719	6483.23
721.122	6468.22
721.524	6424.91
721.926	6392.02
722.328	6529.56
722.731	6529.42
723.133	6579.59
723.535	6833.78
723.937	6870.7
724.338	6950.53
724.74	7011.8
725.142	6932.51
725.544	6943.11
725.945	6985.92
726.347	6996.86
726.748	6999.24
727.15	7029.82
727.551	6994.69
727.952	6971.1
728.354	6946.89
728.755	6960.09
729.156	6917.33
729.557	6925.74
729.958	6782.27
730.359	6724.91
730.76	6711.03
731.161	6646.83
731.562	6626.4
731.962	6641
732.363	6569.38
732.763	6496.38
733.164	6551.79
733.564	6477.8
733.965	6360.85
734.365	6323.52
734.766	6367.54
735.166	6322.52
735.566	6257.45
735.966	6227.54
736.366	6224.55
736.766	6148.06
737.166	6192.89
737.566	6140.81
737.966	6109.64
738.365	6167.73
738.765	6163.52
739.165	6071.21
739.564	6041.95
739.964	6104.71
740.363	6049.63
740.763	6051.15
741.162	6039.49
741.561	6003.96
741.96	5948.71
742.36	5980.17
742.759	5989.34
743.158	6042.86
743.557	6065.76
743.955	6120.49
744.354	6062.02
744.753	6137.89
745.152	6085.72
745.55	6158.11
745.949	6150.39
746.348	6153.61
746.746	6174.86
747.144	6123.68
747.543	6096.73
747.941	6162.29
748.339	6072.96
748.737	6064.76
749.136	6053.2
749.534	6140.83
749.932	6104.98
750.33	6137.95
750.727	6215.69
751.125	6184.22
751.523	6165.94
751.921	6221.39
752.318	6178.02
752.716	6255.97
753.113	6278.31
753.511	6315.56
753.908	6317.17
754.305	6295.02
754.703	6376.23
755.1	6450.6
755.497	6530.94
755.894	6778.92
756.291	7013.84
756.688	7443.19
757.085	8015.17
757.482	8818.46
757.878	9693.53
758.275	10483.32
758.672	11581.67
759.068	12471.64
759.465	13743.73
759.861	15384.66
760.258	17286.81
760.654	18275.28
761.05	18129.17
761.447	17298.67
761.843	16102.14
762.239	14875.2
762.635	14320.2
763.031	13785.15
763.427	13013.79
763.822	12203
764.218	11404.46
764.614	10365.66
765.01	9662.77
765.405	9215.15
765.801	8872.75
766.196	8437.41
766.592	8195.02
766.987	7786.02
767.382	7509.95
767.778	7393.9
768.173	7226.92
768.568	7130.61
768.963	6965.86
769.358	6993.77
769.753	6933.79
770.148	6827.45
770.542	6827.61
770.937	6789.57
771.332	6909.14
771.726	6935.3
772.121	6853.09
772.515	6925.99
772.91	6907.9
773.304	7002.61
773.699	6919.67
774.093	6986.32
774.487	7060.66
774.881	7118.86
775.275	7113.35
775.669	7056.8
776.063	7112.31
776.457	7156.28
776.851	7060.66
777.245	7051.72
777.638	7096.23
778.032	7243.68
778.425	7196.86
778.819	7251.57
779.212	7194.23
779.606	7137.32
779.999	7164.88
780.392	7143.57
780.786	7253.27
781.179	7276.3
781.572	7330.98
781.965	7347.06
782.358	7273.04
782.751	7351.12
783.143	7286.83
783.536	7383.07
783.929	7441.16
784.322	7591.96
784.714	7631.78
785.107	7625.75
785.499	7719.77
785.891	7689.14
786.284	7664.46
786.676	7849.67
787.068	7817.95
787.46	7887.57
787.852	7913.57
788.245	8028.81
788.636	8066.03
789.028	8156.7
789.42	8212.53
789.812	8224.83
790.204	8355.78
790.595	8484.85
790.987	8228.53
791.378	8264.85
791.77	8438.03
792.161	8617.61
792.553	8690.78
792.944	8547.9
793.335	8459.72
793.726	8553
794.117	8670.47
794.508	8850.61
794.899	8814.51
795.29	9000.46
795.681	9077.84
796.072	8888.55
796.463	8641.34
796.853	8655.22
797.244	8862.14
797.634	8906.61
798.025	8907
798.415	8927.34
798.806	9044.82
799.196	9154.19
799.586	9222.18
799.976	9174.11
800.366	9475.95
800.756	9795.82
801.146	9743.7
801.536	9778.95
801.926	9877.32
802.316	9910.94
802.706	10003.94
803.095	9840.56
803.485	9980.69
803.874	10032.77
804.264	10368.75
804.653	10337.66
805.043	10528.32
805.432	10667.73
805.821	10669.17
806.21	10697.75
806.599	10858.69
806.988	10919.7
807.377	11064.29
807.766	11232.57
808.155	11606.86
808.544	11262.8
808.933	11278.39
809.321	11256.91
809.71	11646.78
810.098	11858.68
810.487	12466.89
810.875	13091.34
811.264	13118.85
811.652	13490.66
812.04	13682.28
812.428	13897.85
812.816	14905.92
813.204	15449.86
813.592	16166.62
813.98	16607.85
814.368	16488.04
814.756	17113.92
815.144	17006.92
815.531	17618.83
815.919	17530.59
816.306	17931.29
816.694	17518.71
817.081	17581.42
817.469	18039.59
817.856	18036.68
818.243	18392.38
818.63	18905.55
819.017	18349.3
819.404	18432.25
819.791	18936.5
820.178	19736.86
820.565	20065.62
820.952	21290.9
821.339	20649.21
821.725	20895.4
822.112	19924.28
822.498	19866.51
822.885	20034.85
823.271	19916.49
823.657	20470.08
824.044	20473.14
824.43	20572.19
824.816	20520.97
825.202	19947.79
825.588	21275.46
825.974	21289.42
826.36	21963.72
826.746	22010.64
827.132	22479.97
827.517	22445.28
827.903	21421.24
828.289	21474.62
828.674	20457.59
829.06	20323.72
829.445	20848.42
829.83	21317.78
830.216	21939.44
830.601	22410.64
830.986	21872.59
831.371	21691.97
831.756	22412.32
832.141	21844.96
832.526	21840.14
832.911	22200.82
833.295	22051.48
833.68	22654.55
834.065	21837.03
834.449	20651.38
834.834	20562.05
835.218	20559.91
835.603	20999.22
835.987	20732.26
836.371	21814.57
836.755	21672.71
837.139	22194.03
837.524	22503.48
837.908	22275.13
838.291	22353.45
838.675	22430.84
839.059	22707.16
839.443	22680.9
839.827	22377.75
840.21	22990.58
840.594	22798.59
840.977	23063.29
841.361	23039.74
841.744	23533.44
842.127	23319.52
842.511	23636.69
842.894	24418.19
843.277	24892.91
843.66	25599.89
844.043	25702.04
844.426	24651.85
844.809	24239.32
845.191	24268.98
845.574	23666.94
845.957	23188.65
846.339	23049
846.722	22361.55
847.104	22445.12
847.487	22229.03
847.869	22250.77
848.252	22615.11
848.634	23037.47
849.016	23377.79
849.398	23545.21
849.78	24653.02
850.162	24659.52
850.544	25198.9
850.926	26020.18
851.307	25910.63
851.689	26264.16
852.071	26843.24
852.452	27261.86
852.834	27249.72
853.215	27766.63
853.597	27969.71
853.978	28348.82
854.359	28925.06
854.741	27624.82
855.122	27492.15
855.503	27101.62
855.884	27277.18
856.265	27199.23
856.646	27347.87
857.026	26829.39
857.407	26754.23
857.788	26955.71
858.169	27333.28
858.549	26233.06
858.93	27053.22
859.31	27119.08
859.69	27399.02
860.071	26872.94
860.451	26585.47
860.831	25628.66
861.211	27139.22
861.591	27840.43
861.971	27809.29
862.351	28054.14
862.731	28565.34
863.111	28911.75
863.491	29337.5
863.87	30492.08
864.25	30956.93
864.629	30454.49
865.009	31122.16
865.388	32228.44
865.768	34557.18
866.147	34424.9
866.526	32522.37
866.905	32913.86
867.284	34747.85
867.663	33002.32
868.042	31605.31
868.421	31496.65
868.8	32007.01
869.179	32320.51
869.558	30449.17
869.936	28058.84
870.315	28560.53
870.693	29251.1
871.072	31546.77
871.45	30071.83
871.828	30459.37
872.207	32043.21
872.585	31568.12
872.963	32430.78
873.341	31320.59
873.719	30941.64
874.097	30564.36
874.475	31148.16
874.853	31873.94
875.23	30551.61
875.608	31825.29
875.986	34419.42
876.363	32899.38
876.741	33891.33
877.118	33048.56
877.495	34679.36
877.873	35270.79
878.25	37116.9
878.627	35601.08
879.004	36085.52
879.381	35913.93
879.758	34953.54
880.135	32546
880.512	34429.91
880.889	33525.2
881.265	33175.15
881.642	32895.15
882.019	33443.69
882.395	32754.81
882.772	34046.74
883.148	32575.34
883.524	32444.11
883.901	32255.91
884.277	32739.06
884.653	32530.36
885.029	33459.86
885.405	37052.19
885.781	36743.55
886.157	35222.82
886.532	35663.61
886.908	35643.22
887.284	39632.77
887.659	40915.57
888.035	42183.11
888.411	43263.91
888.786	43816.6
889.161	45330.99
889.537	44471.57
889.912	45894.98
890.287	45852.99
890.662	47045.89
891.037	46191.18
891.412	43056.54
891.787	42610.53
892.162	41121.67
892.536	42065.73
892.911	40495.9
893.286	39628.94
893.66	38033.78
894.035	39000.5
894.409	42456.6
894.784	40725.47
895.158	41385.18
895.532	43837.94
895.906	45020.64
896.281	46053.43
896.655	45316.27
897.029	51782.55
897.402	53931.21
897.776	60032.47
898.15	59833.61
898.524	59181.84
898.898	59963.29
899.271	67143.56
899.645	58161.09
900.018	55882.95
900.392	57988.79
900.765	58486.5
901.138	54097.51
901.511	53283.84
901.884	48920.62
902.258	45115.61
902.631	46614.47
903.003	53659.95
903.376	48430.46
903.749	54292.4
904.122	58122.45
904.495	64004.63
904.867	64799.69
905.24	56256.61
905.612	52363.34
905.985	53564.8
906.357	56021.94
906.729	53498.01
907.102	45692.77
907.474	43940.5
907.846	44214.98
908.218	43632.77
908.59	38541.95
908.962	37270.96
909.334	40147.16
909.705	42192.52
910.077	40963.41
910.449	42654.88
910.82	43846.95
911.192	48256.87
911.563	50150.76
911.935	53696.61
912.306	53802.23
912.677	55602.3
913.048	55090.35
913.419	59805.59
913.79	60153.51
914.161	64521.1
914.532	61655.38
914.903	56669.94
915.274	53809.26
915.645	53031.56
916.015	46658.99
916.386	44473.07
916.756	47332.7
917.127	48818.05
917.497	43594.64
917.868	47450.11
918.238	45096.06
918.608	46407.38
918.978	47362.6
919.348	50164.48
919.718	51807.46
920.088	49936.15
920.458	51870.31
920.828	54596.99
921.198	51752.08
921.567	55295.45
921.937	42826.58
922.306	43242.99
922.676	46620.49
923.045	38887.01
923.415	36941.8
923.784	33648.6
924.153	34587.04
924.522	34578.48
924.891	32488.51
925.26	34802.7
925.629	33978.55
925.998	39044.56
926.367	38091.03
926.736	36256.56
927.104	43211.26
927.473	46473.98
927.842	56134.49
928.21	55589.29
928.578	58396.27
928.947	55235.68
929.315	55548.27
929.683	65157.79
930.051	65670.65
930.42	76267.52
930.788	65232.72
931.156	64730.53
931.523	60636.08
931.891	56001.09
932.259	53767.47
932.627	62295.7
932.994	88152.65
933.362	72848.31
933.729	63272.84
934.097	60591.77
934.464	51279.76
934.831	59160.96
935.199	58305.55
935.566	56562.63
935.933	57414.16
936.3	69580.73
936.667	54224.81
937.034	48878.88
937.401	48355
937.767	41701.84
938.134	37120.04
938.501	52351.75
938.867	55774.04
939.234	94357.12
939.6	80517.14
939.967	88590.47
940.333	59335.9
940.699	50463.22
941.065	40542.92
941.431	53172.82
941.798	51268.02
942.163	67343.87
942.529	42096.8
942.895	38793.98
943.261	25066.29
943.627	32912.18
943.992	28844.42
944.358	28910.16
944.723	29038.66
945.089	28305.82
945.454	26176.76
945.82	27974
946.185	26884.7
946.55	31171.83
946.915	27958.15
947.28	32820.18
947.645	28900.29
948.01	26673.46
948.375	27792.96
948.74	33340.63
949.104	38914.02
949.469	56216.66
949.834	99458.48
950.198	94274.22
950.562	56486.59
950.927	47052.2
951.291	56584.57
951.655	48206.64
952.02	45244.94
952.384	34204.92
952.748	29734.99
953.112	28959.4
953.476	25155.64
953.839	23234.67
954.203	22995.08
954.567	28750.92
954.931	45277.38
955.294	38751.07
955.658	38974.59
956.021	66284.26
956.385	112452.25
956.748	166112.97
957.111	257729.2
957.474	289469.27
957.837	326033.63
958.2	246630.56
958.563	88695.54
958.926	59960.84
959.289	90932.26
959.652	101534.02
960.015	76182.14
960.377	109255.92
960.74	124699.65
961.102	215323.16
961.465	231095.28
961.827	123609.94
962.189	237313.03
962.552	164452.37
962.914	131773.42
963.276	85518.76
963.638	70696.86
964	70002.58
964.362	47344.68
964.724	45768.63
965.085	32630.92
965.447	26776.05
965.809	30548.27
966.17	30595.13
966.532	33131.63
966.893	30423.54
967.255	27700.42
967.616	32698.33
967.977	26184.8
968.338	28587.67
968.699	23464.46
969.061	23458.25
969.421	23607.16
969.782	26498
970.143	22368.87
970.504	23155.05
970.865	26310.85
971.225	26894.04
971.586	26319.02
971.946	37506.73
972.307	32542.02
972.667	42557.87
973.027	43807.24
973.388	53114.17
973.748	36108
974.108	39314.11
974.468	53171.58
974.828	40937.38
975.188	31502.17
975.548	28910.15
975.907	24274.9
976.267	27225.35
976.627	22862.09
976.986	23692.24
977.346	22569.34
977.705	21734.12
978.064	19781.06
978.424	16457.19
978.783	17033.26
979.142	19447.33
979.501	18603.93
979.86	19649.88
980.219	18930.18
980.578	24431.37
980.937	27399.18
981.296	24413.4
981.654	25083.38
982.013	39063.36
982.371	50696.69
982.73	47378.06
983.088	53602.22
983.447	57196.79
983.805	81834.22
984.163	171240.46
984.521	190027.57
984.879	278659.24
985.237	-453447.73
985.595	437206.87
985.953	108650.21
986.311	62811.3
986.669	36470.62
987.026	31510.53
987.384	42447.53
987.741	43905.07
988.099	31316.72
988.456	24946.24
988.814	23309.32
989.171	20267.6
989.528	20005.35
989.885	21124.73
990.242	16720.74
990.599	20801.8
990.956	16990.07
991.313	11879
991.67	9740.13
992.027	10316.94
992.383	9182.26
992.74	8059.53
993.096	8442.32
993.453	8759.24
993.809	9079
994.165	12084.69
994.522	11064.95
994.878	12198.45
995.234	15309.94
995.59	15126.77
995.946	14340.7
996.302	16342.21
996.658	18904.95
997.013	20839.25
997.369	24661.63
997.725	31555.17
998.08	20451
998.436	31633.08
998.791	43659.3
999.147	43553.5
999.502	47443.94
999.857	34501.28
1000.212	56293.99
1000.567	80144.18
1000.922	46307.4
1001.277	29448.82
1001.632	21855.14
1001.987	28200.5
1002.342	20217.93
1002.696	16164.01
1003.051	12889.72
1003.406	15625.82
1003.76	15554.35
1004.114	15308.07
1004.469	12861.03
1004.823	10633.29
1005.177	11486.93
1005.531	9114.29
1005.885	8068.29
1006.239	9106.25
1006.593	11402.36
1006.947	15284.35
1007.301	11455.13
1007.655	12495.65
1008.008	9172.09
1008.362	10315.22
1008.715	14721.06
1009.069	13359.3
1009.422	20047.3
1009.776	40216.81
1010.129	26737.6
1010.482	22391.69
1010.835	18946
1011.188	39470.85
1011.541	37109.24
1011.894	-227566.34
1012.247	669362.46
1012.6	45651.79
1012.952	28805.89
1013.305	14897.91
1013.657	10744.47
1014.01	10142.1
1014.362	8377.28
1014.715	7417.63
1015.067	6446.18
1015.419	6301.12
1015.771	5573.01
1016.123	4955.19
1016.475	5088.24
1016.827	5419.96
1017.179	5807.55
1017.531	5850.13
1017.883	5965.68
1018.234	5736.73
1018.586	7252.18
1018.938	7666.77
1019.289	10585.92
1019.64	12135.37
1019.992	11279.98
1020.343	10317.09
1020.694	8125.65
1021.045	7197.06
1021.396	8231.77
1021.747	8841.2
1022.098	10641.45
1022.449	7707.99
1022.8	7171.5
1023.151	4981.78
1023.501	4397.33
1023.852	4799.86
1024.202	4971.7
1024.553	5482.65
1024.903	5333.85
1025.253	4542.39
1025.604	4094.43
1025.954	5078.82
1026.304	6201.64
1026.654	7240.71
1027.004	10659.26
1027.354	17309.48
1027.703	16231.23
1028.053	21334.98
1028.403	30949.31
1028.753	44993.5
1029.102	61352.55
1029.452	315450.52
1029.801	13599.97
1030.15	8782.21
1030.499	7437.37
897.758	2660
901.051	2615.96
904.343	2652.38
907.636	2653.15
910.928	2717.12
914.22	2625.79
917.511	2636.46
920.803	2694.36
924.094	2713.57
927.384	2696.77
930.675	2659.76
933.965	2613.2
937.255	2623.28
940.544	2590.04
943.834	2532.26
947.123	2477.76
950.411	2575.96
953.7	2546.59
956.988	2519.71
960.276	2460.7
963.563	2538.51
966.851	2533.84
970.138	2592.06
973.424	2587.79
976.711	2535.67
979.997	2668.38
983.283	2703.4
986.568	2609.17
989.853	2624.72
993.138	2650.24
996.423	2734.41
999.708	2674.95
1002.992	2740.26
1006.275	2575.85
1009.559	2617.86
1012.842	2733.77
1016.125	2666.35
1019.408	2645.27
1022.69	2733.37
1025.972	2753.58
1029.254	2728.61
1032.536	2661.56
1035.817	2688.74
1039.098	2634.22
1042.379	2778.85
1045.659	2778.56
1048.939	2715.33
1052.219	2735.38
1055.498	2744.92
1058.778	2731.13
1062.057	2715.2
1065.335	2736.64
1068.614	2759.55
1071.892	2741.49
1075.17	2815.99
1078.447	2807.95
1081.724	2800.95
1085.001	2835.52
1088.278	2808.08
1091.554	2820.9
1094.83	2817.58
1098.106	2848.22
1101.382	2893.66
1104.657	2889.6
1107.932	2886.7
1111.206	2853.89
1114.481	2808.48
1117.755	2809.41
1121.029	2791.21
1124.302	2846.17
1127.575	2800.45
1130.848	2786.54
1134.121	2748.1
1137.393	2697.82
1140.665	2765.95
1143.937	2741.37
1147.208	2698.92
1150.48	2741.88
1153.75	2728.12
1157.021	2759.27
1160.291	2730.13
1163.561	2775.49
1166.831	2764.39
1170.101	2797.86
1173.37	2768.31
1176.639	2711.94
1179.907	2771.62
1183.176	2779.59
1186.444	2788.5
1189.711	2817.71
1192.979	2828.91
1196.246	2783.8
1199.513	2803.33
1202.78	2800.21
1206.046	2807.14
1209.312	2838.86
1212.578	2865.74
1215.843	2817.71
1219.108	2789.32
1222.373	2810.23
1225.638	2775.84
1228.902	2759.61
1232.166	2721.06
1235.43	2699.83
1238.693	2725
1241.956	2721.46
1245.219	2761.48
1248.482	2753.42
1251.744	2747.96
1255.006	2898.83
1258.268	2850.82
1261.529	2793.47
1264.79	2799.31
1268.051	2907.83
1271.312	2930.71
1274.572	2892
1277.832	2880.88
1281.092	2869.41
1284.351	2841.6
1287.61	2819.7
1290.869	2738.07
1294.128	2717.02
1297.386	2805.44
1300.644	2795.43
1303.902	2806.72
1307.159	2657.7
1310.416	2716.45
1313.673	2745.23
1316.93	2728.86
1320.186	2774.23
1323.442	2817.17
1326.697	2801.46
1329.953	2790.7
1333.208	2815.66
1336.463	2793.93
1339.717	2732.21
1342.972	2869.05
1346.226	2843.19
1349.479	2772.36
1352.733	2743.7
1355.986	2765.68
1359.238	2741.45
1362.491	2748.62
1365.743	2750.48
1368.995	2741.55
1372.247	2756.55
1375.498	2781.52
1378.749	2797.21
1382	2747.42
1385.251	2803.52
1388.501	2760.21
1391.751	2744.63
1395	2714.57
1398.25	2742.72
1401.499	2751.4
1404.748	2679.17
1407.996	2665.85
1411.244	2652.09
1414.492	2631.87
1417.74	2609.74
1420.987	2616.62
1424.234	2677.77
1427.481	2656.77
1430.728	2715.77
1433.974	2688.71
1437.22	2702.76
1440.465	2703.81
1443.711	2668.55
1446.956	2703.03
1450.201	2693.2
1453.445	2738.69
1456.689	2719.43
1459.933	2730.16
1463.177	2762.16
1466.42	2734.99
1469.663	2717.13
1472.906	2712.2
1476.148	2788.69
1479.391	2750.74
1482.633	2719.62
1485.874	2730.58
1489.115	2718.55
1492.356	2723.62
1495.597	2697.82
1498.838	2702.06
1502.078	2672.18
1505.318	2623.24
1508.557	2666.71
1511.797	2642.42
1515.036	2714.04
1518.274	2701.64
1521.513	2673.79
1524.751	2696.36
1527.989	2707.86
1531.227	2724.29
1534.464	2721.16
1537.701	2739.77
1540.938	2759.74
1544.174	2710.75
1547.41	2711.86
1550.646	2749.78
1553.882	2789.65
1557.117	2843.88
1560.352	2859.96
1563.587	2819.78
1566.821	2778.62
1570.055	2811.98
1573.289	2784.49
1576.523	2861.16
1579.756	2872.18
1582.989	2889
1586.222	2852.52
1589.454	2894.62
1592.686	2864.05
1595.918	2892.36
1599.15	2881.6
1602.381	2958.94
1605.612	2915.38
1608.843	3015.73
1612.073	2927.28
1615.303	2910.08
1618.533	2904.68
1621.762	2907.55
1624.992	2889.24
1628.221	2879.9
1631.449	2865.53
1634.678	2920.58
1637.906	2870.7
1641.134	2912.29
1644.361	2866.73
1647.588	2853.9
1650.815	2871.74
1654.042	2848.32
1657.269	2877.31
1660.495	2832.62
1663.72	2852.82
1666.946	2814.84
1670.171	2759.38
1673.396	2737.14
1676.621	2722.14
1679.845	2740.26
1683.069	2761.54
1686.293	2804.24
1689.517	2773.98
1692.74	2702.94
1695.963	2731.06
1699.185	2750.53
1702.408	2723.16
1705.63	2764.19
1708.852	2775.99
1712.073	2747.17
1715.294	2733.76
1718.515	2792.21
1721.736	2739.4
1724.956	2732.21
1728.176	2760.12
1731.396	2784.49
1734.616	2769.03
1737.835	2798.06
1741.054	2777.89
1744.272	2767.08
1747.491	2800.22
1750.709	2854.78
1753.927	2760.53
1757.144	2804.4
1760.361	2850.57
1763.578	2839.65
1766.795	2778.14
1770.011	2783.62
1773.227	2825.14
1776.443	2861
1779.658	2908.26
1782.874	2847.02
1786.089	2825.95
1789.303	2829.25
1792.518	2831.24
1795.732	2817.15
1798.945	2830.75
1802.159	2880.09
1805.372	2783.68
1808.585	2768.57
1811.797	2767.55
1815.01	2815.51
1818.222	2819.62
1821.434	2790.02
1824.645	2849.28
1827.856	2837.25
1831.067	2873.51
1834.278	2822.04
1837.488	2809.4
1840.698	2957.55
1843.908	2880.07
1847.117	2842.49
1850.326	2727.48
1853.535	2830.96
1856.744	2855.15
1859.952	2765.94
1863.16	2769.22
1866.368	2791.29
1869.575	2896.59
1872.782	2774.6
1875.989	2714.4
1879.196	2795.5
1882.402	2787.32
1885.608	2826.52
1888.814	2727.21
1892.019	2618.84
1895.224	2672.4
1898.429	2649.77
1901.634	2626.58
1904.838	2603.13
1908.042	2655.42
1911.246	2659.99
1914.449	2592.73
1917.652	2590
1920.855	2572.19
1924.058	2620.73
1927.26	2658.92
1930.462	2685.9
1933.664	2713.11
1936.865	2647.96
1940.066	2658.76
1943.267	2604.1
1946.467	2619.79
1949.668	2647.82
1952.868	2716.26
1956.067	2693.7
1959.267	2625.26
1962.466	2653.03
1965.665	2635.94
1968.863	2632.14
1972.061	2649.12
1975.259	2645.06
1978.457	2726.36
1981.654	2684.5
1984.852	2683.65
1988.048	2616.17
1991.245	2618.16
1994.441	2705.13
1997.637	2688.47
2000.833	2672.23
2004.028	2711.24
2007.223	2764.09
2010.418	2743.68
2013.613	2703.1
2016.807	2674.37
2020.001	2679.44
2023.194	2723.25
2026.388	2701.87
2029.581	2647.76
2032.774	2697.57
2035.966	2702.57
2039.158	2634.06
2042.35	2664.05
2045.542	2589.29
2048.733	2687.58
2051.924	2710.41
2055.115	2741.61
2058.306	2683.72
2061.496	2742.43
2064.686	2805.56
2067.875	2720.85
2071.065	2734.24
2074.254	2761.21
2077.442	2710.76
2080.631	2802.88
2083.819	2696.93
2087.007	2677.99
2090.195	2647.78
2093.382	2684.59
2096.569	2663.23
2099.756	2615.47
2102.942	2641.54
2106.128	2649.32
2109.314	2643.12
2112.5	2608.07
2115.685	2580.57
2118.87	2590.45
2122.055	2657.28
2125.239	2623.3
2128.424	2595.15
2131.608	2698.75
2134.791	2680.94
2137.974	2739.24
2141.157	2723.57
2144.34	2672.18
2147.523	2686.65
2150.705	2703.7
2153.887	2682.09
2157.068	2631.91
2160.25	2633.39
2163.431	2671.7
2166.611	2617.83
2169.792	2635.99
2172.972	2527.92
2176.152	2606.67
2179.331	2641
2182.511	2625.52
2185.69	2653.73
2188.868	2647.71
2192.047	2704.19
2195.225	2694.45
2198.403	2645.8
2201.58	2635.71
2204.758	2628.03
2207.935	2711.9
2211.111	2600.26
2214.288	2585.71
2217.464	2624.68
2220.64	2594.93
2223.815	2652.28
2226.991	2568.99
2230.166	2590.68
2233.34	2617
2236.515	2645.45
2239.689	2720.32
2242.863	2662.33
2246.036	2717.94
2249.209	2718.55
2252.382	2753.06
2255.555	2739.37
2258.727	2675.47
2261.9	2718.25
2265.071	2710.43
2268.243	2712.27
2271.414	2641.27
2274.585	2604.96
2277.756	2675.11
2280.926	2629.44
2284.096	2668.62
2287.266	2572.99
2290.436	2632.85
2293.605	2661.9
2296.774	2690.69
2299.942	2712.11
2303.111	2731.32
2306.279	2782.92
2309.447	2765.46
2312.614	2738.97
2315.781	2760.08
2318.948	2728.98
2322.115	2767.86
2325.281	2667.59
2328.447	2685.55
2331.613	2660.18
2334.779	2632.44
2337.944	2633.28
2341.109	2631.78
2344.274	2615.72
2347.438	2579.05
2350.602	2603.22
2353.766	2622.95
2356.929	2610
2360.092	2649.61
2363.255	2602.2
2366.418	2537.71
2369.58	2649.5
2372.742	2438.06
2375.904	2452.2
2379.066	2428.6
2382.227	2467.51
2385.388	2427.91
2388.548	2351.43
2391.709	2407.9
2394.869	2388.58
2398.029	2487.78
2401.188	2498.67
2404.347	2432.32
2407.506	2574.44
2410.665	2603.55
2413.823	2609.23
2416.981	2565.13
2420.139	2601
2423.296	2649.57
2426.453	2621.72
2429.61	2642.49
2432.767	2578.09
2435.923	2619.6
2439.079	2580.69
2442.235	2629.05
2445.391	2554.24
2448.546	2586.92
2451.701	2634
2454.855	2604.74
2458.009	2660.79
2461.163	2659.78
2464.317	2623.05
2467.471	2653.15
2470.624	2690.32
2473.777	2664.48
2476.929	2677.15
2480.082	2704.1
2483.234	2665.58
2486.385	2621.03
2489.537	2613.49
2492.688	2570.93
2495.839	2591
2498.989	2602.34
2502.14	2588.92
2505.29	2571.59
2508.439	2599.08
2511.589	2521.89
2514.738	2531.66
2517.887	2563.75
2521.035	2627.16
2524.183	2608.24
2527.331	2590.82
2530.479	2564.89
2533.627	2574.78
