Data from C_3_DEC_OH_4N_Splice17_13-33-31-383.txt Node
Date: Sat Mar 14 13:33:31 EDT 2020
User: sa697716
Spectrometer: FLMS03696
Trigger mode: 0
Integration Time (sec): 3.180400E-1
Scans to average: 20
Electric dark correction enabled: true
Nonlinearity correction enabled: true
Boxcar width: 5
XAxis mode: Wavelengths
Number of Pixels in Spectrum: 2048
>>>>>Begin Spectral Data<<<<<
187.83	-392504.26
188.298	2828.34
188.766	1530.59
189.233	1363.05
189.701	1961.29
190.169	2807.49
190.636	1098.35
191.104	836.62
191.571	104.93
192.039	-93.34
192.506	-50.7
192.974	712.68
193.441	-1095.56
193.908	-187.58
194.375	-65.17
194.842	-0.48
195.31	127.2
195.777	205.77
196.244	413.14
196.711	465.3
197.177	606.01
197.644	858.72
198.111	1512.16
198.578	2111.26
199.045	1669.75
199.511	2742.05
199.978	3222.53
200.445	2777.4
200.911	3097.38
201.378	3454.41
201.844	3154.45
202.31	5398.91
202.777	5637.35
203.243	3129.3
203.709	2965.68
204.176	3564.65
204.642	2950.73
205.108	2788.09
205.574	2249.36
206.04	2050.97
206.506	1937.21
206.972	1841.67
207.438	1805.17
207.903	2078.52
208.369	1849.94
208.835	1894.26
209.301	2009.19
209.766	2093.3
210.232	2110.96
210.697	2717.51
211.163	3457.92
211.628	5387.55
212.094	4631.32
212.559	5786.39
213.024	3670.52
213.49	4556.96
213.955	4508.28
214.42	4513.57
214.885	4277.54
215.35	4169.78
215.815	4055.75
216.28	4402.76
216.745	3719.97
217.21	4210.48
217.675	4138.42
218.14	4990.96
218.604	6009.46
219.069	7342.44
219.534	8118.93
219.998	9995.96
220.463	12701.04
220.927	16445.51
221.392	16002.41
221.856	16604.4
222.32	21532.09
222.785	27002.1
223.249	34504.61
223.713	38947.35
224.177	39304.34
224.642	51010.03
225.106	63177.07
225.57	69515.33
226.034	51788.3
226.497	79150.85
226.961	71704.15
227.425	83636.24
227.889	93271.24
228.353	93629.36
228.816	193902.89
229.28	185847.61
229.744	157033.41
230.207	95463.93
230.671	94078.32
231.134	156296.23
231.597	180249.46
232.061	180568.65
232.524	176505.98
232.987	121647.56
233.45	109438.59
233.914	98267.51
234.377	100895.6
234.84	92378.12
235.303	109110.63
235.766	121779.02
236.229	125832.05
236.691	79375.26
237.154	89293.95
237.617	67099.46
238.08	68790.15
238.542	80552.3
239.005	57522.51
239.468	57043.07
239.93	53705.3
240.393	48752.54
240.855	42765.94
241.317	43821.5
241.78	53347.2
242.242	55087.12
242.704	59415.8
243.166	51659.16
243.629	46810.59
244.091	53982.75
244.553	59196.66
245.015	63642.29
245.477	82464.68
245.939	120983.98
246.4	128450.93
246.862	124990.16
247.324	117906.78
247.786	132250.79
248.247	173635.78
248.709	179899.1
249.17	134547.54
249.632	126613.37
250.093	146751.13
250.555	126804.76
251.016	77348.06
251.477	73367.96
251.939	79197.43
252.4	83204.01
252.861	98990.95
253.322	92083.72
253.783	109730.37
254.244	142485.45
254.705	112611.3
255.166	100374.44
255.627	98898.88
256.088	139504.34
256.549	148317.04
257.009	127835.2
257.47	155341.24
257.931	126787.28
258.391	95172.2
258.852	98248.51
259.312	103285.62
259.773	127856.74
260.233	108161.89
260.694	91386.1
261.154	103955.87
261.614	83455.32
262.074	74830.34
262.534	77846.44
262.994	73438.63
263.455	98096.22
263.915	82780.7
264.374	78121.57
264.834	85509.22
265.294	95042.99
265.754	98609.66
266.214	93563.88
266.673	87923.72
267.133	111170.44
267.593	110561.62
268.052	135560.26
268.512	118096.15
268.971	142452.21
269.431	156341.78
269.89	140105.66
270.349	210172.89
270.809	234512.38
271.268	210968.36
271.727	473870.95
272.186	307196.05
272.645	230467.66
273.104	166521.14
273.563	241256.31
274.022	190105.02
274.481	161631.47
274.94	124530.59
275.399	92717.14
275.857	108096.44
276.316	146327.69
276.775	130352.71
277.233	128415.44
277.692	120176.36
278.15	135889.94
278.609	139641.19
279.067	129231.3
279.525	120097.04
279.984	155218.57
280.442	186290.07
280.9	183416.24
281.358	120652.6
281.816	112304.92
282.274	109927.63
282.732	113673.59
283.19	114230.13
283.648	98672.65
284.106	105074.83
284.564	106880.92
285.021	99009.81
285.479	73786.57
285.937	67190.77
286.394	58865.23
286.852	60629.38
287.309	63695.42
287.767	61455.2
288.224	58443.25
288.682	64208.54
289.139	70491.27
289.596	64528.63
290.053	67195.29
290.511	85004.99
290.968	103209.06
291.425	140565.24
291.882	116988.31
292.339	101983.56
292.796	101520.31
293.252	95860.05
293.709	76085.09
294.166	68308.1
294.623	75646.79
295.079	72716.85
295.536	73027.16
295.992	66333.33
296.449	65584.3
296.905	68200.5
297.362	65370.76
297.818	68820.63
298.274	71348.83
298.731	72848.21
299.187	72113.62
299.643	77504.13
300.099	93712.89
300.555	102904.48
301.011	86078.52
301.467	82820.38
301.923	97164.46
302.379	94947.97
302.835	93237.93
303.291	93392.3
303.746	106367.41
304.202	134360.7
304.658	134905.74
305.113	90701.08
305.569	88810.55
306.024	94665.04
306.479	90320.61
306.935	75998.02
307.39	83031.2
307.845	76647.24
308.301	77023.85
308.756	75024.76
309.211	72288.34
309.666	73999.42
310.121	91739.41
310.576	93183.58
311.031	92479.7
311.486	105970.27
311.94	106045.59
312.395	141817.88
312.85	266608.75
313.305	1312761.58
313.759	6774346.66
314.214	490635.85
314.668	388496.09
315.123	326414.15
315.577	116899.23
316.032	103939.02
316.486	130290.95
316.94	102640.21
317.394	71422.68
317.849	55513.29
318.303	52632.97
318.757	49770.24
319.211	55117.13
319.665	48334.53
320.119	49042.3
320.572	70498.23
321.026	65847.22
321.48	54836.73
321.934	59932.11
322.387	60148.18
322.841	64947.1
323.295	58174.28
323.748	67147.62
324.202	68049.68
324.655	81652.45
325.108	113855.04
325.562	80354.07
326.015	95671.18
326.468	72277.66
326.921	80758.89
327.374	75209.24
327.827	78266.04
328.28	88676.15
328.733	59333.8
329.186	52176.92
329.639	49709.75
330.092	41942.44
330.545	39917.57
330.997	40170.51
331.45	43818.98
331.903	51277.19
332.355	88377.64
332.808	85964.15
333.26	70976.41
333.713	76936.44
334.165	77476.77
334.617	103565.17
335.069	83855.92
335.522	151749.72
335.974	168053.16
336.426	153713.31
336.878	106691.59
337.33	54019.09
337.782	52712.34
338.234	65910.78
338.686	79030.78
339.137	93738.6
339.589	88312.75
340.041	69151.61
340.493	59551.92
340.944	61033.67
341.396	65798.06
341.847	55283.98
342.299	65207.43
342.75	79572.85
343.201	69821.83
343.653	80431.42
344.104	99063.89
344.555	78111.58
345.006	122027.77
345.457	93226.35
345.908	74270.05
346.359	69867.92
346.81	57058.84
347.261	60307.13
347.712	59534.5
348.163	63867.01
348.613	64523.41
349.064	60268.67
349.515	52737.98
349.965	54006.01
350.416	65188.84
350.866	71592
351.317	81088.64
351.767	134205.62
352.217	169693.94
352.668	140808.48
353.118	128984.93
353.568	124727.41
354.018	98464.17
354.468	103802.65
354.918	74443.38
355.368	65102.26
355.818	91914.58
356.268	264649.56
356.718	1105285.98
357.168	274571.84
357.617	137890.36
358.067	153558.58
358.517	143776.43
358.966	168564.53
359.416	189005.61
359.865	204583.21
360.315	244046.23
360.764	113996.18
361.213	63880.37
361.663	60769.64
362.112	75144.72
362.561	121541.06
363.01	91650.53
363.459	77261.47
363.908	83787.51
364.357	71092.45
364.806	120265.54
365.255	82684.54
365.703	75693.97
366.152	75763.86
366.601	61377.56
367.05	49803.98
367.498	45204.66
367.947	47309.19
368.395	49221.16
368.844	43554.79
369.292	52733.78
369.74	36382.22
370.189	55813.94
370.637	65408.48
371.085	56508.85
371.533	68872.7
371.981	66535.93
372.429	63361.2
372.877	65982.76
373.325	55192.15
373.773	56314.21
374.221	50135.15
374.669	62240.31
375.116	53827.53
375.564	54322.78
376.012	60729.36
376.459	50036.12
376.907	59727.19
377.354	72310.36
377.801	67253.32
378.249	77184.06
378.696	98588.12
379.143	119191.51
379.591	126936.27
380.038	214015.1
380.485	154235.11
380.932	166353.36
381.379	151496.76
381.826	111174.48
382.273	78888.73
382.72	69019.54
383.166	67153.43
383.613	43464.55
384.06	39147.99
384.506	45261.3
384.953	33235.49
385.4	33481.5
385.846	29286.97
386.292	28601.78
386.739	27993.38
387.185	27647.04
387.631	27588.81
388.078	26664.68
388.524	28462.33
388.97	26185.32
389.416	21746.15
389.862	23045.34
390.308	21752.39
390.754	22002.91
391.2	23789.87
391.645	24281.11
392.091	23067.24
392.537	22200.38
392.983	22223.82
393.428	21708.54
393.874	23230.48
394.319	23198.95
394.765	21882.95
395.21	22450.04
395.655	20979.86
396.101	19593.3
396.546	17617.43
396.991	17786.13
397.436	16487.09
397.881	15892.83
398.326	15070.75
398.771	14183
399.216	12395.77
399.661	11155.81
400.106	11071.7
400.551	11304.41
400.995	10122.3
401.44	10003.29
401.885	9389.84
402.329	9471.36
402.774	9070.47
403.218	8732.31
403.663	8412.88
404.107	8627.49
404.551	8656.5
404.995	7929.17
405.44	7637.75
405.884	7749.37
406.328	7498.75
406.772	7459.6
407.216	6783.68
407.66	6543.47
408.104	6229.24
408.547	5828.79
408.991	5635.29
409.435	5429.89
409.879	5345.9
410.322	5266.9
410.766	5068.99
411.209	4802.31
411.653	4605.9
412.096	4495.27
412.54	4493.57
412.983	4454.88
413.426	4451.31
413.869	4441.96
414.312	4342.86
414.756	4179.76
415.199	3983.18
415.642	3861.32
416.085	3859.54
416.527	3825.39
416.97	3889.14
417.413	3689.02
417.856	3652.61
418.298	3624.33
418.741	3606.97
419.184	3607.94
419.626	3768.64
420.069	3773.63
420.511	3791.4
420.953	3706.98
421.396	3672.45
421.838	3580.13
422.28	3657.12
422.722	3668.83
423.164	3713.57
423.606	3641.7
424.048	3634.94
424.49	3443.83
424.932	3422.69
425.374	3381.74
425.816	3447.62
426.258	3516.47
426.699	3560.71
427.141	3501.75
427.582	3558.92
428.024	3541.85
428.465	3519.09
428.907	3421.87
429.348	3375.51
429.789	3363.55
430.231	3277.31
430.672	3312.5
431.113	3224.15
431.554	3161.54
431.995	3076.35
432.436	2948.19
432.877	2869
433.318	2807.13
433.759	2787.55
434.2	2785.18
434.64	2749.61
435.081	2751.94
435.522	2595.22
435.962	2495.79
436.403	2430.93
436.843	2461.85
437.284	2409.87
437.724	2348.08
438.164	2361.5
438.604	2308.87
439.045	2209.47
439.485	2113.76
439.925	2063.48
440.365	2010.01
440.805	1979.05
441.245	1951.78
441.685	1875.78
442.125	1860.24
442.564	1867.48
443.004	1816.06
443.444	1807.76
443.883	1806.8
444.323	1792.89
444.762	1799.63
445.202	1821.55
445.641	1847.44
446.081	1835.69
446.52	1845.67
446.959	1818.47
447.398	1765.04
447.837	1738.84
448.276	1702.68
448.716	1715.1
449.154	1729.13
449.593	1681.17
450.032	1672.41
450.471	1640.52
450.91	1638.97
451.349	1628.07
451.787	1621.67
452.226	1643.46
452.664	1642.89
453.103	1645.33
453.541	1644.35
453.98	1635.88
454.418	1647.64
454.856	1618.49
455.295	1614.05
455.733	1624.05
456.171	1635.34
456.609	1633.17
457.047	1634.8
457.485	1653.52
457.923	1653.19
458.361	1629.84
458.798	1633.84
459.236	1626.57
459.674	1637.51
460.111	1643.89
460.549	1625.39
460.987	1618.7
461.424	1613.92
461.862	1601.87
462.299	1576.47
462.736	1571.82
463.173	1574.72
463.611	1550.54
464.048	1543.09
464.485	1551.03
464.922	1533.99
465.359	1524.97
465.796	1491.6
466.233	1476.2
466.67	1458.1
467.106	1451.88
467.543	1437.9
467.98	1418.3
468.416	1383.64
468.853	1374.09
469.29	1334.21
469.726	1320.5
470.162	1287.62
470.599	1281.2
471.035	1273.21
471.471	1246.06
471.907	1242.75
472.344	1236.99
472.78	1240.1
473.216	1258.18
473.652	1244.73
474.088	1245.14
474.523	1241.37
474.959	1254.44
475.395	1244.48
475.831	1237
476.266	1244.96
476.702	1242.28
477.138	1229.42
477.573	1227.05
478.008	1223.52
478.444	1229.33
478.879	1238.74
479.314	1245.41
479.75	1245.55
480.185	1253.26
480.62	1267.46
481.055	1275.49
481.49	1286.18
481.925	1305.62
482.36	1328.82
482.795	1367.99
483.229	1406
483.664	1437.49
484.099	1443.31
484.534	1465.54
484.968	1478.36
485.403	1481.9
485.837	1480.36
486.271	1476.4
486.706	1477.66
487.14	1460.16
487.574	1434.58
488.009	1420.03
488.443	1405.38
488.877	1415.47
489.311	1417.46
489.745	1429.17
490.179	1437.69
490.613	1456.88
491.046	1465.25
491.48	1470.05
491.914	1465.89
492.348	1471.73
492.781	1473.95
493.215	1470.58
493.648	1468.78
494.082	1472.6
494.515	1466.68
494.948	1474.49
495.382	1478.88
495.815	1478.76
496.248	1481.84
496.681	1499.98
497.114	1514.18
497.547	1525.17
497.98	1541.39
498.413	1541.61
498.846	1550.85
499.279	1557.51
499.711	1556.51
500.144	1549.69
500.577	1558.61
501.009	1568.02
501.442	1573.62
501.874	1561.56
502.306	1553.77
502.739	1552.75
503.171	1567.47
503.603	1558.27
504.036	1562.38
504.468	1557.71
504.9	1563.15
505.332	1560
505.764	1551.89
506.196	1548.33
506.627	1558.91
507.059	1565.06
507.491	1566.15
507.923	1546.66
508.354	1554.95
508.786	1555.35
509.217	1566.85
509.649	1573.2
510.08	1585.25
510.512	1592.94
510.943	1599.51
511.374	1599.11
511.805	1611.07
512.237	1620.9
512.668	1651.37
513.099	1672.73
513.53	1692.59
513.961	1702.97
514.391	1729.25
514.822	1756.68
515.253	1788.07
515.684	1804.96
516.114	1827.24
516.545	1839.02
516.975	1856.89
517.406	1863.3
517.836	1849.77
518.267	1843.6
518.697	1851.74
519.127	1843.38
519.558	1839.05
519.988	1829.11
520.418	1827.59
520.848	1835.96
521.278	1832.83
521.708	1836.97
522.138	1839.54
522.567	1865.89
522.997	1883.87
523.427	1890.02
523.857	1897.83
524.286	1899.18
524.716	1908.76
525.145	1921.03
525.575	1923.33
526.004	1930.77
526.433	1916.53
526.863	1908.48
527.292	1888.3
527.721	1887.88
528.15	1888.04
528.579	1882.87
529.008	1888.48
529.437	1906.01
529.866	1915.36
530.295	1927.9
530.724	1938.08
531.152	1962.06
531.581	1974.03
532.01	1989.34
532.438	1993.85
532.867	2006.8
533.295	2023.81
533.723	2027.02
534.152	2022.86
534.58	2019.86
535.008	2000.79
535.436	1999.2
535.865	2004.62
536.293	2016.5
536.721	2031.87
537.149	2057.11
537.576	2057.93
538.004	2069.21
538.432	2074.58
538.86	2069.98
539.287	2075.14
539.715	2088.3
540.143	2089.56
540.57	2083.47
540.998	2077.3
541.425	2050.69
541.852	2026.53
542.28	2021.69
542.707	2002.54
543.134	1986.82
543.561	1980.57
543.988	1971.49
544.415	1969.8
544.842	1962.14
545.269	1954.22
545.696	1956.23
546.123	1970.14
546.549	1958.09
546.976	1943.7
547.403	1943
547.829	1946.13
548.256	1948.96
548.682	1944.97
549.108	1937.96
549.535	1937.91
549.961	1941.27
550.387	1928.16
550.813	1921.47
551.24	1929.09
551.666	1932.44
552.092	1922.54
552.518	1916.03
552.943	1910.71
553.369	1921.21
553.795	1927.34
554.221	1930.34
554.646	1927.86
555.072	1941.7
555.498	1949.13
555.923	1961.41
556.349	1979.41
556.774	1990.55
557.199	1994.3
557.625	2003.66
558.05	1998.75
558.475	2014.09
558.9	2015.86
559.325	2009.52
559.75	2004.46
560.175	2002.18
560.6	1998.02
561.025	1999.77
561.449	2006.2
561.874	2016.3
562.299	2025.17
562.723	2036.58
563.148	2029.84
563.572	2040.02
563.997	2057.3
564.421	2068.6
564.846	2073.73
565.27	2083.93
565.694	2085.9
566.118	2104.4
566.542	2117.67
566.966	2115.52
567.39	2116.9
567.814	2108.47
568.238	2113.17
568.662	2124.7
569.086	2135.11
569.509	2149.21
569.933	2136.72
570.357	2134.37
570.78	2115.72
571.204	2107.62
571.627	2101.48
572.05	2106.06
572.474	2113.25
572.897	2104.72
573.32	2101.04
573.743	2095.18
574.166	2079.59
574.589	2086.33
575.012	2083.9
575.435	2089.38
575.858	2084.3
576.281	2076.83
576.704	2063.34
577.126	2054.84
577.549	2047.49
577.972	2042.35
578.394	2037.06
578.817	2034.69
579.239	2018.1
579.661	2008.25
580.084	1994.19
580.506	1982.92
580.928	1984.84
581.35	1975.81
581.772	1975.97
582.194	1964.33
582.616	1953.2
583.038	1938.63
583.46	1930.68
583.882	1931.58
584.303	1941.26
584.725	1940.86
585.147	1948.52
585.568	1965.48
585.99	1986.49
586.411	1998.86
586.833	2020.65
587.254	2026.99
587.675	2048.39
588.096	2068.51
588.518	2065.11
588.939	2045.9
589.36	2045.08
589.781	2035.79
590.202	2002.11
590.623	1993.76
591.043	1993.15
591.464	1981.32
591.885	1978.77
592.305	1974.47
592.726	1958.53
593.147	1962.79
593.567	1959.29
593.987	1952.14
594.408	1946.12
594.828	1945.2
595.248	1940.16
595.669	1918.04
596.089	1909.5
596.509	1902.68
596.929	1885.38
597.349	1888.39
597.769	1876.52
598.189	1868.81
598.608	1873.28
599.028	1878.01
599.448	1881.19
599.867	1865.93
600.287	1862.73
600.706	1860.29
601.126	1850.76
601.545	1852.75
601.965	1853.39
602.384	1849.34
602.803	1857.22
603.222	1854.78
603.641	1848.71
604.061	1847.07
604.48	1844.93
604.898	1859.74
605.317	1870.89
605.736	1876.92
606.155	1876.72
606.574	1868.79
606.992	1879.74
607.411	1877.28
607.829	1869.31
608.248	1870.21
608.666	1871.52
609.085	1875.26
609.503	1867.52
609.921	1863.19
610.339	1871.61
610.758	1876.86
611.176	1875.36
611.594	1868.13
612.012	1868.56
612.43	1878.14
612.847	1892.59
613.265	1899.26
613.683	1911.66
614.101	1920.31
614.518	1920.57
614.936	1911.27
615.353	1894.95
615.771	1895.99
616.188	1901.86
616.606	1901.76
617.023	1897.8
617.44	1882.55
617.857	1876.53
618.274	1868.59
618.691	1863.3
619.108	1852.54
619.525	1847.54
619.942	1861.9
620.359	1869.15
620.776	1865.09
621.192	1862.15
621.609	1860.07
622.026	1871.27
622.442	1881.77
622.859	1887.99
623.275	1879.44
623.691	1890.07
624.108	1908.22
624.524	1929.87
624.94	1930.65
625.356	1946.54
625.772	1967.45
626.188	1985.95
626.604	1989.12
627.02	1983.81
627.436	1981.81
627.852	1993.38
628.268	2012.02
628.683	1999.09
629.099	1987.49
629.514	1981.5
629.93	1987.5
630.345	1994.93
630.761	1991.2
631.176	1998.09
631.591	1991.1
632.007	1983.7
632.422	1981.87
632.837	1966.3
633.252	1964.79
633.667	1951.18
634.082	1940.56
634.497	1925.73
634.911	1898.6
635.326	1896.81
635.741	1876.01
636.155	1866.14
636.57	1873.81
636.984	1879
637.399	1889.79
637.813	1897.37
638.228	1904.38
638.642	1918.91
639.056	1910.51
639.47	1921.48
639.884	1917.54
640.298	1917.26
640.712	1925.25
641.126	1915.65
641.54	1911.82
641.954	1915.5
642.368	1907.54
642.781	1904.9
643.195	1886.96
643.609	1899.91
644.022	1901.13
644.436	1906.36
644.849	1897.15
645.262	1889.04
645.676	1903.88
646.089	1907.37
646.502	1890.24
646.915	1889.89
647.328	1870.95
647.741	1878.36
648.154	1863.85
648.567	1865.82
648.98	1850.3
649.393	1858.32
649.805	1859.8
650.218	1852.85
650.631	1830.05
651.043	1823.97
651.456	1819.32
651.868	1825.6
652.28	1862.44
652.693	1893.63
653.105	1912.84
653.517	1936.73
653.929	1943.1
654.341	1960.06
654.753	1942.11
655.165	1960.99
655.577	1963.65
655.989	1962.15
656.401	1957.44
656.813	1894.47
657.224	1864.2
657.636	1817.29
658.047	1790.51
658.459	1763.27
658.87	1755.66
659.282	1743.26
659.693	1712.83
660.104	1693.4
660.515	1677.91
660.926	1682.4
661.338	1688.86
661.749	1687.21
662.159	1679.83
662.57	1683.27
662.981	1683.97
663.392	1678.31
663.803	1697.62
664.213	1703.07
664.624	1705.42
665.035	1722.02
665.445	1703.02
665.855	1694.23
666.266	1683.93
666.676	1686.23
667.086	1673.05
667.497	1677.17
667.907	1669.04
668.317	1653.75
668.727	1647.04
669.137	1654.28
669.547	1651.93
669.956	1661.93
670.366	1668.29
670.776	1674.15
671.186	1684.87
671.595	1691.85
672.005	1699.71
672.414	1697.48
672.824	1692
673.233	1703.77
673.642	1704.67
674.052	1706.61
674.461	1706.59
674.87	1715.9
675.279	1705.24
675.688	1706.12
676.097	1704.42
676.506	1694.16
676.915	1722.51
677.323	1724.52
677.732	1716.32
678.141	1709.83
678.549	1682.7
678.958	1676.53
679.366	1668.93
679.775	1676.38
680.183	1688.23
680.592	1695.03
681	1699.18
681.408	1676.35
681.816	1685.13
682.224	1695.11
682.632	1704.23
683.04	1755.84
683.448	1793.28
683.856	1840.39
684.264	1892.1
684.671	1940.37
685.079	1996.63
685.487	2058.18
685.894	2151.17
686.302	2215.82
686.709	2258.01
687.116	2314.98
687.524	2345.7
687.931	2364.41
688.338	2370.97
688.745	2369.38
689.152	2370.03
689.559	2390.03
689.966	2403.39
690.373	2380.09
690.78	2388.6
691.187	2428.26
691.593	2439.8
692	2445.35
692.407	2477.78
692.813	2528.43
693.22	2554.86
693.626	2584.1
694.032	2595.45
694.439	2641.88
694.845	2666.15
695.251	2710.89
695.657	2745.51
696.063	2820.67
696.469	2862.03
696.875	2896.09
697.281	2895.86
697.687	2909.14
698.093	2913.15
698.498	2957.85
698.904	2984.29
699.31	3044.51
699.715	3075.9
700.12	3140.1
700.526	3125.18
700.931	3165.9
701.337	3187.89
701.742	3192.61
702.147	3248.99
702.552	3252.91
702.957	3287.64
703.362	3280.82
703.767	3284.31
704.172	3299.83
704.577	3230.21
704.981	3253.27
705.386	3245.56
705.791	3218.65
706.195	3270.22
706.6	3258.65
707.004	3313.37
707.408	3264.42
707.813	3274.35
708.217	3247.03
708.621	3229.86
709.025	3301.95
709.43	3289.4
709.834	3330.53
710.237	3379.88
710.641	3351.21
711.045	3358.98
711.449	3342.39
711.853	3357.07
712.256	3380.86
712.66	3399.85
713.064	3454.34
713.467	3479.56
713.87	3562.54
714.274	3588.87
714.677	3670.6
715.08	3797.56
715.484	3929.58
715.887	4091.25
716.29	4248.82
716.693	4413.21
717.096	4604.37
717.499	4701.92
717.901	4710.25
718.304	4720.65
718.707	4731.87
719.109	4633.69
719.512	4595.44
719.915	4471.11
720.317	4412.01
720.719	4437.23
721.122	4401.78
721.524	4350.58
721.926	4308.43
722.328	4383.8
722.731	4367.37
723.133	4382.71
723.535	4533.28
723.937	4541.26
724.338	4576.68
724.74	4602.18
725.142	4574.32
725.544	4567.05
725.945	4589
726.347	4578.78
726.748	4564.9
727.15	4570.08
727.551	4534.75
727.952	4505.79
728.354	4475.81
728.755	4468.19
729.156	4430.4
729.557	4383.4
729.958	4278.45
730.359	4224.06
730.76	4204.65
731.161	4152.18
731.562	4128.2
731.962	4126.49
732.363	4072.58
732.763	4019.11
733.164	4045.44
733.564	3988.11
733.965	3911.75
734.365	3883.51
734.766	3903.28
735.166	3871.98
735.566	3827.19
735.966	3805.87
736.366	3797.81
736.766	3746.02
737.166	3772.82
737.566	3738.87
737.966	3716.16
738.365	3744.33
738.765	3739.61
739.165	3679.85
739.564	3655.3
739.964	3688.98
740.363	3651.63
740.763	3647.13
741.162	3638.44
741.561	3609.72
741.96	3572.68
742.36	3588.35
742.759	3590.38
743.158	3618.98
743.557	3629.56
743.955	3661.62
744.354	3624.37
744.753	3667.15
745.152	3636.22
745.55	3678.49
745.949	3672.21
746.348	3674.53
746.746	3687.72
747.144	3659.24
747.543	3641.3
747.941	3676.97
748.339	3620.83
748.737	3614.04
749.136	3607.73
749.534	3656.13
749.932	3634.61
750.33	3652.37
750.727	3692.64
751.125	3674.42
751.523	3659.2
751.921	3693.2
752.318	3666.72
752.716	3713.11
753.113	3725.23
753.511	3741.65
753.908	3741.83
754.305	3730.83
754.703	3780.92
755.1	3828.63
755.497	3872.43
755.894	4020.54
756.291	4157
756.688	4412.33
757.085	4750.34
757.482	5224.05
757.878	5745.55
758.275	6216.9
758.672	6855.17
759.068	7376.83
759.465	8123.83
759.861	9089.21
760.258	10205.82
760.654	10780.76
761.05	10691.62
761.447	10200.03
761.843	9497.17
762.239	8773.41
762.635	8439.25
763.031	8126.69
763.427	7671.42
763.822	7192.8
764.218	6721.44
764.614	6106.79
765.01	5699.81
765.405	5435.52
765.801	5237.57
766.196	4983.91
766.592	4838.83
766.987	4599.01
767.382	4435.47
767.778	4368.78
768.173	4271.36
768.568	4217.86
768.963	4125.04
769.358	4140.93
769.753	4106.7
770.148	4042.08
770.542	4041.72
770.937	4017.3
771.332	4088.49
771.726	4103.32
772.121	4057.28
772.515	4099.7
772.91	4088.11
773.304	4144.5
773.699	4090.96
774.093	4131.75
774.487	4173.2
774.881	4205.96
775.275	4204.59
775.669	4172.56
776.063	4206.78
776.457	4232.07
776.851	4174.31
777.245	4171.73
777.638	4197.4
778.032	4285.94
778.425	4257.84
778.819	4294.44
779.212	4260.58
779.606	4232.65
779.999	4246.54
780.392	4234.87
780.786	4299.99
781.179	4318.31
781.572	4351.51
781.965	4360.3
782.358	4318.63
782.751	4359.64
783.143	4320.39
783.536	4379.83
783.929	4412.45
784.322	4503.4
784.714	4526.21
785.107	4519.93
785.499	4575.88
785.891	4557.03
786.284	4540.56
786.676	4649.19
787.068	4637.46
787.46	4681.65
787.852	4696.06
788.245	4763.69
788.636	4785.16
789.028	4840.98
789.42	4873.64
789.812	4880.57
790.204	4953.33
790.595	5036.06
790.987	4884.42
791.378	4903.59
791.77	5000.55
792.161	5105.18
792.553	5147.24
792.944	5064.33
793.335	5012.88
793.726	5073.55
794.117	5145.73
794.508	5255.48
794.899	5230.43
795.29	5342.46
795.681	5388.76
796.072	5278.99
796.463	5150.9
796.853	5157.81
797.244	5280.8
797.634	5304.79
798.025	5300.77
798.415	5307.17
798.806	5378.57
799.196	5447.8
799.586	5490.01
799.976	5462.94
800.366	5642.68
800.756	5812.03
801.146	5785.09
801.536	5807.86
801.926	5867.37
802.316	5893.09
802.706	5949.91
803.095	5855.47
803.485	5935.86
803.874	5965.93
804.264	6171.66
804.653	6152.8
805.043	6274.34
805.432	6359.41
805.821	6367.45
806.21	6388.34
806.599	6478.8
806.988	6520.52
807.377	6603.71
807.766	6703.2
808.155	6924.24
808.544	6715.37
808.933	6732.41
809.321	6713.53
809.71	6945.78
810.098	7062.54
810.487	7420.38
810.875	7800.46
811.264	7813.55
811.652	8046.38
812.04	8163.24
812.428	8295.46
812.816	8891
813.204	9211.43
813.592	9642.92
813.98	9904.63
814.368	9844.3
814.756	10222.52
815.144	10158.69
815.531	10529.73
815.919	10457.13
816.306	10696.55
816.694	10455.33
817.081	10500.21
817.469	10774.48
817.856	10773.31
818.243	10980.21
818.63	11284.09
819.017	10956.3
819.404	10999.61
819.791	11296
820.178	11786.35
820.565	11980.11
820.952	12709.61
821.339	12323.93
821.725	12472.75
822.112	11893.87
822.498	11864.47
822.885	11955.61
823.271	11879.29
823.657	12203.03
824.044	12208.01
824.43	12262.24
824.816	12245.6
825.202	11904.14
825.588	12702.65
825.974	12708.24
826.36	13110.81
826.746	13134.51
827.132	13419.87
827.517	13397.98
827.903	12789.49
828.289	12823.08
828.674	12220.55
829.06	12128.5
829.445	12434.8
829.83	12702.22
830.216	13067.75
830.601	13349.52
830.986	13037.84
831.371	12925.24
831.756	13356.75
832.141	13025.37
832.526	13014.37
832.911	13229.54
833.295	13137.82
833.68	13499.57
834.065	13016.99
834.449	12308.76
834.834	12249.04
835.218	12243.04
835.603	12502.53
835.987	12338.56
836.371	12980.89
836.755	12890.84
837.139	13199.53
837.524	13385.09
837.908	13238.05
838.291	13283.38
838.675	13336.9
839.059	13496.23
839.443	13480.77
839.827	13303.93
840.21	13672.31
840.594	13554.18
840.977	13718.2
841.361	13696.59
841.744	13986.34
842.127	13874.19
842.511	14062.79
842.894	14512.72
843.277	14805.88
843.66	15225.48
844.043	15286.97
844.426	14654.92
844.809	14404.89
845.191	14422.05
845.574	14062.8
845.957	13768.9
846.339	13680.83
846.722	13272.36
847.104	13328.73
847.487	13185.62
847.869	13196.54
848.252	13410.15
848.634	13670.79
849.016	13879.48
849.398	13971.31
849.78	14622.42
850.162	14633.87
850.544	14945.64
850.926	15432.45
851.307	15360.57
851.689	15582.75
852.071	15924.67
852.452	16174.14
852.834	16155.95
853.215	16465.42
853.597	16588.87
853.978	16825.58
854.359	17171.65
854.741	16417.16
855.122	16337.7
855.503	16117.78
855.884	16226.51
856.265	16187.2
856.646	16268.25
857.026	15962.19
857.407	15905.83
857.788	16030.71
858.169	16239.74
858.549	15596.06
858.93	16066.11
859.31	16101.69
859.69	16263.69
860.071	15944.53
860.451	15771.94
860.831	15207.98
861.211	16091.46
861.591	16511.61
861.971	16489.47
862.351	16645.78
862.731	16943.05
863.111	17147.06
863.491	17400.62
863.87	18071.41
864.25	18343.04
864.629	18043.32
865.009	18441.58
865.388	19107.95
865.768	20474.71
866.147	20394.25
866.526	19269.52
866.905	19497.71
867.284	20602.29
867.663	19571.86
868.042	18754.53
868.421	18686.22
868.8	18990.95
869.179	19180.04
869.558	18058.3
869.936	16650.71
870.315	16946.9
870.693	17365.23
871.072	18729.55
871.45	17837.76
871.828	18069.79
872.207	19004.56
872.585	18725.99
872.963	19241.69
873.341	18581.84
873.719	18375.2
874.097	18149.56
874.475	18493.4
874.853	18908.34
875.23	18118.56
875.608	18879.87
875.986	20424.97
876.363	19531.99
876.741	20139.29
877.118	19632.85
877.495	20585.41
877.873	20921.88
878.25	22027.72
878.627	21124.75
879.004	21421.75
879.381	21314.43
879.758	20750.39
880.135	19310.5
880.512	20415.7
880.889	19862.94
881.265	19652.06
881.642	19489.73
882.019	19817.28
882.395	19411.45
882.772	20189.68
883.148	19309.07
883.524	19230.62
883.901	19117.6
884.277	19397.22
884.653	19279.13
885.029	19834.76
885.405	21962.43
885.781	21785.37
886.157	20886.19
886.532	21132.75
886.908	21120.89
887.284	23471.59
887.659	24245.85
888.035	24995.78
888.411	25633.83
888.786	25972.27
889.161	26865.31
889.537	26369.74
889.912	27215.04
890.287	27189.19
890.662	27891.27
891.037	27370.36
891.412	25535.98
891.787	25261.99
892.162	24389.98
892.536	24967.85
892.911	24037.09
893.286	23526.8
893.66	22566.33
894.035	23148.13
894.409	25206.7
894.784	24198.23
895.158	24607.93
895.532	26065.68
895.906	26793.17
896.281	27409.66
896.655	26964.08
897.029	30779.09
897.402	32052.18
897.776	35690.48
898.15	35554.87
898.524	35163.28
898.898	35615.74
899.271	39870.9
899.645	34537.64
900.018	33164.1
900.392	34392.06
900.765	34659.54
901.138	32082.72
901.511	31589.43
901.884	29004.86
902.258	26756.37
902.631	27649.68
903.003	31825.17
903.376	28703.05
903.749	32170.35
904.122	34446.43
904.495	37926.1
904.867	38404.36
905.24	33349.16
905.612	31054.29
905.985	31755.59
906.357	33197.4
906.729	31684.14
907.102	27049.14
907.474	26023.53
907.846	26196.77
908.218	25854.61
908.59	22861.16
908.962	22124.92
909.334	23849.06
909.705	25056.11
910.077	24334.75
910.449	25337.34
910.82	26056.26
911.192	28687.45
911.563	29823.1
911.935	31912.08
912.306	31947.12
912.677	32993.1
913.048	32664.91
913.419	35426.35
913.79	35614.57
914.161	38183.23
914.532	36513.14
914.903	33555.94
915.274	31890.22
915.645	31412.61
916.015	27639.74
916.386	26353
916.756	28039.24
917.127	28934.47
917.497	25844.07
917.868	28135.88
918.238	26738.75
918.608	27507.84
918.978	28083.03
919.348	29730.75
919.718	30733.25
920.088	29619.83
920.458	30763.6
920.828	32369.69
921.198	30699.45
921.567	32800.42
921.937	25403.67
922.306	25645.44
922.676	27643.32
923.045	23056.03
923.415	21907.13
923.784	19945.92
924.153	20509.21
924.522	20499.22
924.891	19279.31
925.26	20645.13
925.629	20154.68
925.998	23180.63
926.367	22622.52
926.736	21554.25
927.104	25671.66
927.473	27576.11
927.842	33283.57
928.21	32961.91
928.578	34657.73
928.947	32781.56
929.315	32957.9
929.683	38682.77
930.051	38967.11
930.42	45287.96
930.788	38693.88
931.156	38418.74
931.523	36036.49
931.891	33326.55
932.259	32001.1
932.627	37057.69
932.994	52427.42
933.362	43348.43
933.729	37585.98
934.097	35995.49
934.464	30431.98
934.831	35126.54
935.199	34608.25
935.566	33559.47
935.933	33954.11
936.3	41146.45
936.667	32012.52
937.034	28908.77
937.401	28576.07
937.767	24662.34
938.134	21926.89
938.501	30923.17
938.867	32937.81
939.234	55695.98
939.6	47508.96
939.967	52436.53
940.333	35075.21
940.699	29884.9
941.065	23895.78
941.431	31321.75
941.798	30266.48
942.163	39792.62
942.529	24816.97
942.895	22828.93
943.261	14762.97
943.627	19375.75
943.992	16965.68
944.358	17002.51
944.723	17070.26
945.089	16655.11
945.454	15413.52
945.82	16438.12
946.185	15790.53
946.55	18336.57
946.915	16442.69
947.28	19301.52
947.645	16985.62
948.01	15709.59
948.375	16377.24
948.74	19624.46
949.104	22904.88
949.469	33033.44
949.834	58450.82
950.198	55501.86
950.562	33241.53
950.927	27720.49
951.291	33331.1
951.655	28404.67
952.02	26618.33
952.384	20142.92
952.748	17543.08
953.112	17098.53
953.476	14870.15
953.839	13716.1
954.203	13568.25
954.567	16957.07
954.931	26661.55
955.294	22811.01
955.658	22901.04
956.021	38960.11
956.385	65934.12
956.748	97242.38
957.111	150761.61
957.474	169101.86
957.837	190352.63
958.2	143912.32
958.563	51803.56
958.926	35099.95
959.289	53239.01
959.652	59509.7
960.015	44653.05
960.377	64111.17
960.74	73189.41
961.102	126446.03
961.465	136051.58
961.827	73200.29
962.189	140557.96
962.552	97435.84
962.914	78012.78
963.276	50634.15
963.638	41903.24
964	41486.88
964.362	28062.01
964.724	27119.26
965.085	19331.44
965.447	15841.73
965.809	17976.82
966.17	17998.08
966.532	19473.97
966.893	17893.99
967.255	16286.46
967.616	19204.14
967.977	15371.95
968.338	16791.31
968.699	13797.85
969.061	13805.72
969.421	13897.61
969.782	15616.89
970.143	13191.33
970.504	13692.01
970.865	15563.83
971.225	15910.78
971.586	15556.36
971.946	22156.34
972.307	19231.18
972.667	25142.38
973.027	25905.02
973.388	31358.41
973.748	21337.28
974.108	23262.65
974.468	31400.88
974.828	24241.9
975.188	18658.8
975.548	17168.27
975.907	14417.15
976.267	16131.58
976.627	13564.1
976.986	14047.43
977.346	13387.23
977.705	12887.6
978.064	11726.12
978.424	9765.69
978.783	10075.53
979.142	11511.64
979.501	11016.68
979.86	11660.03
980.219	11246.43
980.578	14483.74
980.937	16204.69
981.296	14483.75
981.654	14880.46
982.013	23129.93
982.371	30025.29
982.73	28045.29
983.088	31744.98
983.447	33869.38
983.805	48474.51
984.163	101357.92
984.521	112477.61
984.879	165100.39
985.237	-268124.05
985.595	258886.75
985.953	64257.95
986.311	37089.86
986.669	21525.15
987.026	18542.9
987.384	24951.7
987.741	25764.45
988.099	18455.42
988.456	14718.12
988.814	13793.65
989.171	11990.55
989.528	11814.59
989.885	12477.62
990.242	9899.61
990.599	12332.94
990.956	10090.55
991.313	7056.24
991.67	5787.06
992.027	6151.55
992.383	5469.78
992.74	4791.52
993.096	5033.31
993.453	5222.63
993.809	5424.55
994.165	7214.23
994.522	6645.82
994.878	7333.11
995.234	9193.41
995.59	9069.89
995.946	8545.87
996.302	9753.62
996.658	11276.6
997.013	12404.41
997.369	14689.93
997.725	18830.31
998.08	12179.01
998.436	18691.34
998.791	25767.26
999.147	25768.29
999.502	28166.05
999.857	20467.93
1000.212	33423.24
1000.567	47640.21
1000.922	27482.71
1001.277	17510.51
1001.632	12950.38
1001.987	16740.89
1002.342	11978.74
1002.696	9583.02
1003.051	7662.88
1003.406	9282.55
1003.76	9246.84
1004.114	9095.04
1004.469	7624.61
1004.823	6323.33
1005.177	6813.04
1005.531	5412.6
1005.885	4801.8
1006.239	5429.8
1006.593	6833.55
1006.947	9159.8
1007.301	6839.2
1007.655	7448.87
1008.008	5494.87
1008.362	6189.71
1008.715	8852.58
1009.069	8054.13
1009.422	12144.51
1009.776	24257.18
1010.129	16122.39
1010.482	13454.51
1010.835	11338.59
1011.188	23682.92
1011.541	22331.54
1011.894	-135942.53
1012.247	400448.16
1012.6	27108.56
1012.952	17057.56
1013.305	8744.5
1013.657	6321.47
1014.01	5981.92
1014.362	4921.15
1014.715	4395.79
1015.067	3838.77
1015.419	3748.98
1015.771	3326.03
1016.123	2971.18
1016.475	3068.25
1016.827	3267.31
1017.179	3533.19
1017.531	3554.94
1017.883	3628.8
1018.234	3543.56
1018.586	4465.95
1018.938	4764.17
1019.289	6609.28
1019.64	7569.23
1019.992	7004.49
1020.343	6403.15
1020.694	5092
1021.045	4506.17
1021.396	5155.16
1021.747	5548.12
1022.098	6584.7
1022.449	4781.84
1022.8	4424.17
1023.151	3081.02
1023.501	2758.43
1023.852	3015.44
1024.202	3131.71
1024.553	3428.58
1024.903	3370.05
1025.253	2915.95
1025.604	2621.96
1025.954	3253.21
1026.304	3944.65
1026.654	4586.96
1027.004	6693.64
1027.354	10679.45
1027.703	10087.52
1028.053	13283.36
1028.403	19671.39
1028.753	28147.02
1029.102	37984
1029.452	196077.66
1029.801	8508.68
1030.15	5509.89
1030.499	4670.41
897.758	3222.48
901.051	3208.43
904.343	3244.26
907.636	3238.4
910.928	3304.25
914.22	3206.9
917.511	3219.48
920.803	3305.75
924.094	3351.54
927.384	3302.41
930.675	3266.29
933.965	3207.82
937.255	3199.22
940.544	3165.56
943.834	3025.78
947.123	2985.34
950.411	3090.35
953.7	3052.66
956.988	2999.89
960.276	2944.65
963.563	3066.97
966.851	3046.27
970.138	3122.86
973.424	3097.69
976.711	3048.54
979.997	3290.87
983.283	3306.8
986.568	3177.13
989.853	3225.35
993.138	3252.75
996.423	3332.12
999.708	3244.95
1002.992	3357.98
1006.275	3096.84
1009.559	3200.48
1012.842	3333.73
1016.125	3238.04
1019.408	3214.3
1022.69	3341.32
1025.972	3344.25
1029.254	3308.55
1032.536	3204.23
1035.817	3248.63
1039.098	3152.4
1042.379	3409.88
1045.659	3363.9
1048.939	3276.33
1052.219	3319.29
1055.498	3350.75
1058.778	3317.21
1062.057	3307.73
1065.335	3327.88
1068.614	3360.1
1071.892	3317.94
1075.17	3423.03
1078.447	3394.82
1081.724	3377.76
1085.001	3427.44
1088.278	3394.98
1091.554	3415.36
1094.83	3413.95
1098.106	3433.54
1101.382	3497.54
1104.657	3496.48
1107.932	3495.25
1111.206	3440.83
1114.481	3400.77
1117.755	3413.1
1121.029	3373.94
1124.302	3415.17
1127.575	3348.97
1130.848	3325.22
1134.121	3275.74
1137.393	3206.96
1140.665	3286.91
1143.937	3260.49
1147.208	3178.53
1150.48	3200.2
1153.75	3177.51
1157.021	3251.54
1160.291	3206.58
1163.561	3243.52
1166.831	3263.62
1170.101	3300.02
1173.37	3297.26
1176.639	3218.88
1179.907	3297.27
1183.176	3335.13
1186.444	3344.04
1189.711	3377.06
1192.979	3371.44
1196.246	3334.84
1199.513	3357.03
1202.78	3350.19
1206.046	3355.52
1209.312	3381.21
1212.578	3416.66
1215.843	3343.73
1219.108	3330.78
1222.373	3352.94
1225.638	3302.33
1228.902	3277.45
1232.166	3257.42
1235.43	3231.11
1238.693	3250.76
1241.956	3256.84
1245.219	3284.72
1248.482	3290.57
1251.744	3281.19
1255.006	3462.73
1258.268	3431.42
1261.529	3360.98
1264.79	3377.57
1268.051	3488.92
1271.312	3512.45
1274.572	3464.06
1277.832	3454.78
1281.092	3459
1284.351	3406.28
1287.61	3377.77
1290.869	3265.64
1294.128	3210.26
1297.386	3353.06
1300.644	3338.07
1303.902	3348.64
1307.159	3197.46
1310.416	3254.77
1313.673	3273.62
1316.93	3241.72
1320.186	3308.88
1323.442	3364.8
1326.697	3338.11
1329.953	3355.2
1333.208	3362.67
1336.463	3349.33
1339.717	3274.04
1342.972	3373.45
1346.226	3380.2
1349.479	3291.63
1352.733	3244.15
1355.986	3292.84
1359.238	3262.9
1362.491	3259.97
1365.743	3268.01
1368.995	3267.67
1372.247	3283.53
1375.498	3302.07
1378.749	3350.69
1382	3297.12
1385.251	3371.63
1388.501	3351.67
1391.751	3313.32
1395	3299.16
1398.25	3341.01
1401.499	3332.75
1404.748	3243.59
1407.996	3170.56
1411.244	3164.47
1414.492	3138.52
1417.74	3111.22
1420.987	3134.68
1424.234	3182.61
1427.481	3186.96
1430.728	3238.85
1433.974	3215.11
1437.22	3248.6
1440.465	3251.91
1443.711	3245.57
1446.956	3280.61
1450.201	3293.35
1453.445	3338.38
1456.689	3299.24
1459.933	3315.51
1463.177	3340.56
1466.42	3312.31
1469.663	3291.75
1472.906	3255.25
1476.148	3399.64
1479.391	3288.65
1482.633	3275.54
1485.874	3266.43
1489.115	3227.49
1492.356	3260.45
1495.597	3231.45
1498.838	3244.93
1502.078	3191.45
1505.318	3110.72
1508.557	3165.34
1511.797	3075.79
1515.036	3242.41
1518.274	3224.07
1521.513	3215.7
1524.751	3248.41
1527.989	3244.63
1531.227	3247.82
1534.464	3210.99
1537.701	3265.82
1540.938	3294.47
1544.174	3251.8
1547.41	3265.09
1550.646	3298.6
1553.882	3318.46
1557.117	3364.24
1560.352	3390.15
1563.587	3341.28
1566.821	3290.85
1570.055	3354.81
1573.289	3309.1
1576.523	3404.18
1579.756	3403.17
1582.989	3416.71
1586.222	3374.57
1589.454	3427.44
1592.686	3391.21
1595.918	3409.11
1599.15	3385.04
1602.381	3498.35
1605.612	3418.4
1608.843	3516.32
1612.073	3419.64
1615.303	3398.12
1618.533	3374.67
1621.762	3390.36
1624.992	3391.49
1628.221	3352.8
1631.449	3338.19
1634.678	3434.74
1637.906	3372.12
1641.134	3427.42
1644.361	3372.75
1647.588	3356.79
1650.815	3364.38
1654.042	3366.3
1657.269	3398.99
1660.495	3342.94
1663.72	3302.35
1666.946	3288.98
1670.171	3189.39
1673.396	3169.87
1676.621	3169.01
1679.845	3219.64
1683.069	3263.04
1686.293	3321.42
1689.517	3271.14
1692.74	3166.32
1695.963	3187.48
1699.185	3270.23
1702.408	3220.21
1705.63	3278.46
1708.852	3281.96
1712.073	3254.8
1715.294	3214.77
1718.515	3253.42
1721.736	3193.02
1724.956	3171.91
1728.176	3204.79
1731.396	3223.29
1734.616	3224.81
1737.835	3231.87
1741.054	3227.8
1744.272	3227.13
1747.491	3236.54
1750.709	3330.83
1753.927	3216.11
1757.144	3282.77
1760.361	3336.11
1763.578	3356
1766.795	3282.97
1770.011	3308.92
1773.227	3371.44
1776.443	3398.81
1779.658	3439.39
1782.874	3392.19
1786.089	3351.81
1789.303	3356.65
1792.518	3371.52
1795.732	3361.89
1798.945	3359.47
1802.159	3424.25
1805.372	3275.76
1808.585	3247.37
1811.797	3249.76
1815.01	3335.1
1818.222	3335.72
1821.434	3220.86
1824.645	3327.47
1827.856	3284.19
1831.067	3327.55
1834.278	3266.22
1837.488	3255.55
1840.698	3440.36
1843.908	3342.95
1847.117	3300.83
1850.326	3126.31
1853.535	3270.24
1856.744	3387.96
1859.952	3267.89
1863.16	3265.24
1866.368	3298.05
1869.575	3442.37
1872.782	3325.67
1875.989	3275.58
1879.196	3408.47
1882.402	3406.05
1885.608	3459.3
1888.814	3316.56
1892.019	3197.28
1895.224	3252.21
1898.429	3253.76
1901.634	3223.15
1904.838	3206.23
1908.042	3249.75
1911.246	3247.64
1914.449	3137.48
1917.652	3157.2
1920.855	3143.5
1924.058	3220.3
1927.26	3244.96
1930.462	3284.8
1933.664	3294.1
1936.865	3227.07
1940.066	3221.6
1943.267	3172.88
1946.467	3200.73
1949.668	3235.57
1952.868	3297.7
1956.067	3256.58
1959.267	3180.19
1962.466	3214.1
1965.665	3200.42
1968.863	3200.75
1972.061	3232.27
1975.259	3236.96
1978.457	3323.16
1981.654	3271.34
1984.852	3272.59
1988.048	3178.77
1991.245	3200.43
1994.441	3280.55
1997.637	3297.53
2000.833	3276.65
2004.028	3321.5
2007.223	3362.29
2010.418	3324.59
2013.613	3294.92
2016.807	3235.23
2020.001	3259.3
2023.194	3334.05
2026.388	3296.45
2029.581	3244.71
2032.774	3278.54
2035.966	3273.08
2039.158	3181.88
2042.35	3219.78
2045.542	3149.74
2048.733	3275.3
2051.924	3337.9
2055.115	3381.6
2058.306	3292.92
2061.496	3358.09
2064.686	3446.55
2067.875	3365.77
2071.065	3400.78
2074.254	3438.55
2077.442	3388
2080.631	3488.98
2083.819	3326.21
2087.007	3291.62
2090.195	3244.29
2093.382	3305.83
2096.569	3282.78
2099.756	3220.58
2102.942	3219.36
2106.128	3205.6
2109.314	3204.83
2112.5	3137.56
2115.685	3126.48
2118.87	3140.45
2122.055	3214.78
2125.239	3159.65
2128.424	3112.12
2131.608	3273.82
2134.791	3254.04
2137.974	3338.76
2141.157	3321.43
2144.34	3247.79
2147.523	3276.93
2150.705	3269.2
2153.887	3266.65
2157.068	3185.86
2160.25	3218.08
2163.431	3279.59
2166.611	3189.15
2169.792	3201.69
2172.972	3072.92
2176.152	3189.86
2179.331	3233.17
2182.511	3205.09
2185.69	3240.63
2188.868	3223.41
2192.047	3306.81
2195.225	3263.43
2198.403	3212.35
2201.58	3215.28
2204.758	3214.34
2207.935	3307.63
2211.111	3161.83
2214.288	3140.83
2217.464	3189.89
2220.64	3182.17
2223.815	3245.98
2226.991	3156.01
2230.166	3180.75
2233.34	3192.64
2236.515	3232.63
2239.689	3325.04
2242.863	3260.6
2246.036	3319.67
2249.209	3342.62
2252.382	3395.85
2255.555	3362.31
2258.727	3279.92
2261.9	3329.53
2265.071	3319.79
2268.243	3335.91
2271.414	3245.77
2274.585	3173.32
2277.756	3251.26
2280.926	3209.08
2284.096	3264.01
2287.266	3139.25
2290.436	3206.76
2293.605	3247.42
2296.774	3268.58
2299.942	3311.73
2303.111	3323.51
2306.279	3366.91
2309.447	3357.48
2312.614	3338.45
2315.781	3351.26
2318.948	3310.86
2322.115	3355.54
2325.281	3254.28
2328.447	3291.97
2331.613	3272.58
2334.779	3221.99
2337.944	3237.64
2341.109	3229.34
2344.274	3204.51
2347.438	3166.96
2350.602	3201.68
2353.766	3224.74
2356.929	3205.38
2360.092	3253.97
2363.255	3178.96
2366.418	3068.19
2369.58	3242.54
2372.742	2916.98
2375.904	2956.59
2379.066	2920.12
2382.227	2969.24
2385.388	2925.68
2388.548	2823.59
2391.709	2898.25
2394.869	2864.83
2398.029	3025
2401.188	3060.09
2404.347	2957.09
2407.506	3173.9
2410.665	3197.57
2413.823	3227.91
2416.981	3154.96
2420.139	3208.98
2423.296	3273.21
2426.453	3244.15
2429.61	3273.41
2432.767	3159.08
2435.923	3213.37
2439.079	3094.53
2442.235	3186.02
2445.391	3086.55
2448.546	3093.51
2451.701	3166.89
2454.855	3102.6
2458.009	3182.92
2461.163	3207.88
2464.317	3149.92
2467.471	3189.46
2470.624	3232.25
2473.777	3277.67
2476.929	3265.91
2480.082	3299.51
2483.234	3266.97
2486.385	3142.15
2489.537	3145.49
2492.688	3068.6
2495.839	3085.53
2498.989	3087.69
2502.14	3070.11
2505.29	3032.26
2508.439	3064.95
2511.589	2965.5
2514.738	2996.81
2517.887	3025.75
2521.035	3176.89
2524.183	3172.03
2527.331	3141.38
2530.479	3088.51
2533.627	3108.66
