Data from C_3_HIR_WI_4N_Splice17_13-10-31-239.txt Node
Date: Sat Mar 14 13:10:31 EDT 2020
User: sa697716
Spectrometer: FLMS03696
Trigger mode: 0
Integration Time (sec): 3.180400E-1
Scans to average: 20
Electric dark correction enabled: true
Nonlinearity correction enabled: true
Boxcar width: 5
XAxis mode: Wavelengths
Number of Pixels in Spectrum: 2048
>>>>>Begin Spectral Data<<<<<
187.83	-361667.95
188.298	2679.76
188.766	1407.05
189.233	1280.66
189.701	1807.74
190.169	2569.64
190.636	1004.61
191.104	817.19
191.571	159.06
192.039	-17.88
192.506	-44.03
192.974	435.91
193.441	-687.23
193.908	-129.84
194.375	-41.83
194.842	39.72
195.31	235.21
195.777	276.92
196.244	496.93
196.711	522.35
197.177	631.26
197.644	887.78
198.111	1513.12
198.578	2120.51
199.045	1669.12
199.511	2694.88
199.978	3138.56
200.445	2636.21
200.911	2868.43
201.378	3214.61
201.844	2934.73
202.31	5020.36
202.777	5201.07
203.243	2868.53
203.709	2722.54
204.176	3241.18
204.642	2705.39
205.108	2523.5
205.574	2068.24
206.04	1909.18
206.506	1776.83
206.972	1673.99
207.438	1619.8
207.903	1848.89
208.369	1611.12
208.835	1608.95
209.301	1706.29
209.766	1740.32
210.232	1713.8
210.697	2117.95
211.163	2581.85
211.628	3906.9
212.094	3299.33
212.559	4051.14
213.024	2534.79
213.49	3144.43
213.955	3066.38
214.42	2976.62
214.885	2762.62
215.35	2666.7
215.815	2569.16
216.28	2731.89
216.745	2220.56
217.21	2399.62
217.675	2204.27
218.14	2467.34
218.604	2753.2
219.069	3164.82
219.534	3342.29
219.998	3906.45
220.463	4747.66
220.927	5856.02
221.392	5514.21
221.856	5597.35
222.32	7052.94
222.785	8727.82
223.249	11001.08
223.713	12259.95
224.177	12215.79
224.642	15663.37
225.106	19262.25
225.57	21014.79
226.034	15623.99
226.497	23800.77
226.961	21440.1
227.425	24930.14
227.889	27643.55
228.353	27603.31
228.816	56890.98
229.28	54450.11
229.744	45854.42
230.207	27829.01
230.671	27389.77
231.134	45239.8
231.597	52063.05
232.061	52052.18
232.524	50831.19
232.987	34964.99
233.45	31477.2
233.914	28211.77
234.377	28891.95
234.84	26443
235.303	31172.56
235.766	34772.19
236.229	35924.55
236.691	22605.73
237.154	25423.15
237.617	19113.8
238.08	19575.91
238.542	22871.8
239.005	16384.41
239.468	16264.49
239.93	15316.44
240.393	13919.62
240.855	12206.22
241.317	12511.35
241.78	15226.49
242.242	15716.92
242.704	16956.4
243.166	14740.39
243.629	13398.25
244.091	15398.56
244.553	16863.54
245.015	18120.76
245.477	23430.71
245.939	34311.77
246.4	36356.27
246.862	35295.34
247.324	33277.87
247.786	37157.04
248.247	48740.83
248.709	50303.8
249.17	37627.24
249.632	35435.83
250.093	41075.71
250.555	35472.53
251.016	21613.07
251.477	20489.56
251.939	22131.84
252.4	23198.53
252.861	27579.92
253.322	25640.83
253.783	30478.64
254.244	39497.54
254.705	31140.51
255.166	27680.19
255.627	27221.54
256.088	38441.41
256.549	40856.39
257.009	35198.93
257.47	42687.65
257.931	34808.22
258.391	26062.84
258.852	26889.38
259.312	28216.13
259.773	34855.56
260.233	29472.27
260.694	24870.06
261.154	28205.05
261.614	22617.17
262.074	20221.14
262.534	21028.26
262.994	19820.61
263.455	26394.08
263.915	22243.37
264.374	20947.42
264.834	22869.18
265.294	25319.56
265.754	26217.26
266.214	24832.57
266.673	23270.69
267.133	29324.17
267.593	29078.51
268.052	35577.35
268.512	30955.71
268.971	37265.16
269.431	40826.38
269.89	36508.7
270.349	54773.18
270.809	61069.6
271.268	54832.18
271.727	122930.22
272.186	79609.25
272.645	59628.24
273.104	42970.93
273.563	62202.92
274.022	48929.01
274.481	41615.2
274.94	32077.27
275.399	23811.32
275.857	27713.54
276.316	37436.17
276.775	33275.4
277.233	32770.77
277.692	30673.61
278.15	34655.46
278.609	35639.7
279.067	32954.87
279.525	30584.95
279.984	39469.3
280.442	47369.16
280.9	46696.7
281.358	30737.1
281.816	28636.48
282.274	28028.51
282.732	28968.3
283.19	29110.92
283.648	25090.48
284.106	26691.49
284.564	27161.36
285.021	25157.6
285.479	18748.62
285.937	17003.19
286.394	14905.44
286.852	15337.24
287.309	16097.58
287.767	15542.71
288.224	14799.79
288.682	16235.75
289.139	17837.83
289.596	16306.61
290.053	16946.04
290.511	21352.04
290.968	25919.39
291.425	35184.59
291.882	29285.53
292.339	25475.69
292.796	25256.81
293.252	23768.86
293.709	18859.98
294.166	16893.85
294.623	18666.65
295.079	17899.84
295.536	17988.53
295.992	16320.73
296.449	16112.38
296.905	16737.51
297.362	16047.81
297.818	16868.45
298.274	17478.4
298.731	17809.59
299.187	17600.95
299.643	18893.26
300.099	22839.93
300.555	25038.09
301.011	20900.03
301.467	20184.52
301.923	23586.4
302.379	23038.91
302.835	22618.74
303.291	22634.95
303.746	25752.77
304.202	32579.75
304.658	32646
305.113	21947.62
305.569	21503.69
306.024	22925.53
306.479	21768.54
306.935	18331.97
307.39	19992.41
307.845	18460.17
308.301	18580.19
308.756	18114.53
309.211	17404.94
309.666	17851.93
310.121	22158.85
310.576	22476.71
311.031	22294.84
311.486	25503.6
311.94	25527.42
312.395	34124.39
312.85	64032.77
313.305	314270.98
313.759	1627198.65
314.214	118082.2
314.668	93558.14
315.123	78536.09
315.577	28165.16
316.032	25041.21
316.486	31403.21
316.94	24765.96
317.394	17260.38
317.849	13431.66
318.303	12715.25
318.757	11976.08
319.211	13239.14
319.665	11570.85
320.119	11736.25
320.572	16819.21
321.026	15715.26
321.48	13068.76
321.934	14227.44
322.387	14229.42
322.841	15343.29
323.295	13812.46
323.748	15898.07
324.202	16123.59
324.655	19396.73
325.108	27132.09
325.562	19130.76
326.015	22714.04
326.468	17160.8
326.921	19208.95
327.374	17953.93
327.827	18717.06
328.28	21166.4
328.733	14216.34
329.186	12487.38
329.639	11888.47
330.092	9994.12
330.545	9532.28
330.997	9621.36
331.45	10521.44
331.903	12320.62
332.355	21119.44
332.808	20520.04
333.26	16922.06
333.713	18331.48
334.165	18472.48
334.617	24651.28
335.069	19919.47
335.522	35980.34
335.974	39799.32
336.426	36372.83
336.878	25229.51
337.33	12830
337.782	12531.7
338.234	15727.84
338.686	18800.85
339.137	22234
339.589	20905.23
340.041	16396.82
340.493	14118.27
340.944	14470.47
341.396	15633.4
341.847	13130.98
342.299	15484.78
342.75	18890.56
343.201	16485.87
343.653	18970.11
344.104	23343.43
344.555	18396.68
345.006	28607.98
345.457	21935.48
345.908	17438.28
346.359	16345.23
346.81	13314.19
347.261	14036.66
347.712	13822.35
348.163	14779.29
348.613	14982.6
349.064	13967.98
349.515	12233.32
349.965	12545.32
350.416	15078.88
350.866	16526.34
351.317	18671.02
351.767	30911.69
352.217	39023.66
352.668	32368.84
353.118	29669.57
353.568	28520.78
354.018	22596.89
354.468	23804.92
354.918	17092.36
355.368	14947.45
355.818	21115.82
356.268	60812.7
356.718	254481
357.168	63394.71
357.617	31779.94
358.067	35308.6
358.517	33135.62
358.966	38853.3
359.416	43555.32
359.865	46998.57
360.315	55962.44
360.764	26151.54
361.213	14664.89
361.663	13885.26
362.112	17079.48
362.561	27585.16
363.01	20854.3
363.459	17517.97
363.908	18906.76
364.357	16083.79
364.806	27094.7
365.255	18630.25
365.703	17067.85
366.152	17097.19
366.601	13845.51
367.05	11260.51
367.498	10221.01
367.947	10650.9
368.395	11095.73
368.844	9846.95
369.292	11841.91
369.74	8185.78
370.189	12502.64
370.637	14627.12
371.085	12582.12
371.533	15329.26
371.981	14745.09
372.429	14088.52
372.877	14674.65
373.325	12259.94
373.773	12455.42
374.221	11061.43
374.669	13733.23
375.116	11883.95
375.564	11987.59
376.012	13403.54
376.459	11025.71
376.907	13148.26
377.354	15842.38
377.801	14743.76
378.249	16952.43
378.696	21651.21
379.143	26188.65
379.591	27886.96
380.038	47118.69
380.485	34063.94
380.932	36717.9
381.379	33583.54
381.826	24781.57
382.273	17611.94
382.72	15414.21
383.166	15005.8
383.613	9715.87
384.06	8781.7
384.506	10148.87
384.953	7442.99
385.4	7457.9
385.846	6524.1
386.292	6356.09
386.739	6199.27
387.185	6116.7
387.631	6117.44
388.078	5930.06
388.524	6344.3
388.97	5856.7
389.416	4894.63
389.862	5201.27
390.308	4923.72
390.754	5003.8
391.2	5429.11
391.645	5556.08
392.091	5337.87
392.537	5152.79
392.983	5166.33
393.428	5095.06
393.874	5454.08
394.319	5475.74
394.765	5209.15
395.21	5354.23
395.655	5013.01
396.101	4697.55
396.546	4243.11
396.991	4277.57
397.436	3968.08
397.881	3829.56
398.326	3623.16
398.771	3426.98
399.216	2993.11
399.661	2686.3
400.106	2686.54
400.551	2757.41
400.995	2470.19
401.44	2447.29
401.885	2299.77
402.329	2325.78
402.774	2228.41
403.218	2160.98
403.663	2078.74
404.107	2135.56
404.551	2156.27
404.995	1972.05
405.44	1896.74
405.884	1929.07
406.328	1862.7
406.772	1853.54
407.216	1692.91
407.66	1638.31
408.104	1550.15
408.547	1452.88
408.991	1406.29
409.435	1351.76
409.879	1335.58
410.322	1320.63
410.766	1273.01
411.209	1214.34
411.653	1166.36
412.096	1143.74
412.54	1143.24
412.983	1138.23
413.426	1144.71
413.869	1141.86
414.312	1120.46
414.756	1078.34
415.199	1026.48
415.642	999.22
416.085	999.34
416.527	992.59
416.97	1006.45
417.413	956.68
417.856	946.52
418.298	935.63
418.741	929.79
419.184	928.16
419.626	966.71
420.069	967.86
420.511	972.67
420.953	952.02
421.396	941.7
421.838	916.82
422.28	938.42
422.722	944.93
423.164	957.71
423.606	945.55
424.048	945.03
424.49	899.82
424.932	894.88
425.374	881.42
425.816	896.69
426.258	915.74
426.699	925.35
427.141	911.47
427.582	921.77
428.024	915.2
428.465	903.93
428.907	878.91
429.348	868.66
429.789	870.78
430.231	855.66
430.672	866.4
431.113	844.68
431.554	831.35
431.995	808.71
432.436	782.93
432.877	768.24
433.318	759.7
433.759	757.21
434.2	756.36
434.64	745.68
435.081	746.6
435.522	707.77
435.962	682.89
436.403	672.93
436.843	682.54
437.284	666.61
437.724	648.32
438.164	647.84
438.604	634.55
439.045	610.64
439.485	588.91
439.925	575.69
440.365	561.62
440.805	553.59
441.245	544.24
441.685	523.92
442.125	519.42
442.564	522.69
443.004	511.84
443.444	510.09
443.883	510.78
444.323	505.58
444.762	504.55
445.202	511.09
445.641	520.86
446.081	517.26
446.52	523.05
446.959	518.62
447.398	506.95
447.837	499.43
448.276	489.71
448.716	494.43
449.154	498.14
449.593	489.71
450.032	489.21
450.471	479.48
450.91	478.92
451.349	477.73
451.787	474.58
452.226	480.95
452.664	483.02
453.103	485.08
453.541	484.39
453.98	485.57
454.418	485.89
454.856	477.91
455.295	477.45
455.733	482.31
456.171	484.87
456.609	485.07
457.047	484.22
457.485	490.54
457.923	491.09
458.361	484.1
458.798	484.29
459.236	484.58
459.674	486.98
460.111	489.31
460.549	483.8
460.987	481.84
461.424	481.48
461.862	479.14
462.299	471.35
462.736	471.33
463.173	472.09
463.611	468.24
464.048	466.45
464.485	470.28
464.922	464.93
465.359	461.26
465.796	458.66
466.233	455.48
466.67	453.07
467.106	452.6
467.543	447.49
467.98	440.94
468.416	428
468.853	423.79
469.29	410.44
469.726	406.43
470.162	396.75
470.599	387.64
471.035	383.77
471.471	373.24
471.907	370.23
472.344	367.07
472.78	368.82
473.216	373.13
473.652	369.19
474.088	368.92
474.523	367.8
474.959	371.8
475.395	368.44
475.831	365.5
476.266	367.59
476.702	366.69
477.138	363.15
477.573	361.83
478.008	360.81
478.444	362.98
478.879	367.26
479.314	369.04
479.75	368.25
480.185	369.9
480.62	372.65
481.055	373.81
481.49	376.69
481.925	382.35
482.36	390.91
482.795	401.62
483.229	411.78
483.664	419.62
484.099	421.48
484.534	427.61
484.968	431.7
485.403	433.64
485.837	433.68
486.271	432.5
486.706	432.62
487.14	426.12
487.574	418.73
488.009	414.27
488.443	409.83
488.877	414.1
489.311	415.54
489.745	421.42
490.179	425.57
490.613	434.56
491.046	437.71
491.48	440.43
491.914	441.5
492.348	445.78
492.781	450.16
493.215	452.24
493.648	453
494.082	457.96
494.515	458.93
494.948	465.01
495.382	467.72
495.815	472.5
496.248	478.44
496.681	488.15
497.114	496.66
497.547	504.82
497.98	516.23
498.413	523.11
498.846	531.12
499.279	538.76
499.711	543.77
500.144	547.88
500.577	558.26
501.009	567.38
501.442	577.02
501.874	580.96
502.306	584.18
502.739	592.9
503.171	605.57
503.603	611.29
504.036	620.83
504.468	628.62
504.9	640.26
505.332	648.01
505.764	656.08
506.196	664.01
506.627	678.61
507.059	692.66
507.491	701.08
507.923	703.3
508.354	717.83
508.786	730.14
509.217	747.44
509.649	762.79
510.08	781.33
510.512	798.07
510.943	814.03
511.374	827.14
511.805	847.82
512.237	867.35
512.668	897.06
513.099	923.71
513.53	949.5
513.961	970.75
514.391	1001.04
514.822	1032.73
515.253	1066.67
515.684	1094.1
516.114	1123.15
516.545	1145.06
516.975	1172.37
517.406	1192.97
517.836	1199.61
518.267	1210.63
518.697	1231.46
519.127	1240.29
519.558	1251.05
519.988	1258.55
520.418	1271.03
520.848	1290.46
521.278	1302.59
521.708	1329.2
522.138	1344.72
522.567	1376.58
522.997	1403.18
523.427	1419.79
523.857	1438.78
524.286	1451.82
524.716	1468.74
525.145	1489.76
525.575	1503.02
526.004	1519.08
526.433	1510.39
526.863	1513.16
527.292	1506.6
527.721	1514.35
528.15	1522.55
528.579	1525.12
529.008	1537.74
529.437	1560.04
529.866	1573.5
530.295	1591.09
530.724	1605.16
531.152	1632.45
531.581	1647.23
532.01	1664.81
532.438	1673.14
532.867	1688.63
533.295	1707.24
533.723	1713.76
534.152	1713.69
534.58	1714.69
535.008	1701.47
535.436	1703.85
535.865	1711.04
536.293	1724.88
536.721	1740.27
537.149	1764.89
537.576	1767.17
538.004	1779.02
538.432	1787.13
538.86	1786.49
539.287	1793.54
539.715	1806.08
540.143	1808.13
540.57	1804.36
540.998	1801.11
541.425	1780.28
541.852	1760.06
542.28	1758.95
542.707	1744.16
543.134	1730.5
543.561	1726.18
543.988	1719.48
544.415	1719.03
544.842	1714.83
545.269	1709.28
545.696	1711.22
546.123	1724.4
546.549	1715.41
546.976	1703.07
547.403	1703.62
547.829	1706.36
548.256	1709.41
548.682	1706.36
549.108	1700.67
549.535	1702
549.961	1704.36
550.387	1693.1
550.813	1687.77
551.24	1694.38
551.666	1696.54
552.092	1688.11
552.518	1681.97
552.943	1676.3
553.369	1683.58
553.795	1689.16
554.221	1688.34
554.646	1685.77
555.072	1696.12
555.498	1700.61
555.923	1709.44
556.349	1723.67
556.774	1730.81
557.199	1732.51
557.625	1737.83
558.05	1732.56
558.475	1741.83
558.9	1740.82
559.325	1732.67
559.75	1726.91
560.175	1720.12
560.6	1713.19
561.025	1710.81
561.449	1711.24
561.874	1715.28
562.299	1718.56
562.723	1724.61
563.148	1713.56
563.572	1716.49
563.997	1723.86
564.421	1727.35
564.846	1725.53
565.27	1727.46
565.694	1722.1
566.118	1730.07
566.542	1734.74
566.966	1726.45
567.39	1719.02
567.814	1708.11
568.238	1706.17
568.662	1709.58
569.086	1708.75
569.509	1713.8
569.933	1697.05
570.357	1688.11
570.78	1667.58
571.204	1653.88
571.627	1642.75
572.05	1639.01
572.474	1635.52
572.897	1621.22
573.32	1610.67
573.743	1599.39
574.166	1580.45
574.589	1578.52
575.012	1569.5
575.435	1567.81
575.858	1557.45
576.281	1544.43
576.704	1528.72
577.126	1515.98
577.549	1504.37
577.972	1494.83
578.394	1485.39
578.817	1479.17
579.239	1461.07
579.661	1448.14
580.084	1432.46
580.506	1418.78
580.928	1414.88
581.35	1404.16
581.772	1400.29
582.194	1387.45
582.616	1374.97
583.038	1360.59
583.46	1348.62
583.882	1345.14
584.303	1347.79
584.725	1342.04
585.147	1345.19
585.568	1354
585.99	1364.62
586.411	1368.56
586.833	1380.88
587.254	1381.02
587.675	1393.02
588.096	1404.57
588.518	1399.99
588.939	1385.26
589.36	1382.64
589.781	1370.63
590.202	1345.13
590.623	1335.84
591.043	1332.32
591.464	1320.5
591.885	1317.45
592.305	1311.68
592.726	1298.01
593.147	1298.88
593.567	1292.85
593.987	1285.79
594.408	1280.62
594.828	1277.83
595.248	1272.59
595.669	1257.23
596.089	1251.6
596.509	1245.75
596.929	1232.66
597.349	1233.65
597.769	1223.87
598.189	1218.92
598.608	1219.2
599.028	1220.92
599.448	1220.49
599.867	1208.95
600.287	1204.76
600.706	1199.73
601.126	1190.75
601.545	1190.04
601.965	1187.76
602.384	1182.28
602.803	1183.82
603.222	1178.97
603.641	1172.42
604.061	1167.97
604.48	1163.33
604.898	1168.94
605.317	1172.38
605.736	1172.62
606.155	1168.73
606.574	1159.3
606.992	1162.31
607.411	1156.47
607.829	1147.93
608.248	1142.83
608.666	1139.56
609.085	1137.28
609.503	1128.48
609.921	1121.66
610.339	1122.09
610.758	1119.91
611.176	1115.31
611.594	1106.24
612.012	1101.83
612.43	1103.95
612.847	1107.77
613.265	1106.94
613.683	1109.1
614.101	1108.81
614.518	1104.3
614.936	1094.57
615.353	1080.77
615.771	1077.14
616.188	1076.24
616.606	1072.72
617.023	1065.66
617.44	1053.16
617.857	1046.25
618.274	1037.98
618.691	1030.66
619.108	1021.92
619.525	1015.02
619.942	1019.42
620.359	1019.74
620.776	1013.98
621.192	1009.55
621.609	1005.65
622.026	1010.17
622.442	1014.07
622.859	1015.71
623.275	1009.79
623.691	1013.09
624.108	1022.4
624.524	1032.59
624.94	1032.21
625.356	1040.46
625.772	1049.97
626.188	1060.16
626.604	1061.49
627.02	1057.75
627.436	1056.91
627.852	1062.53
628.268	1071.94
628.683	1065.01
629.099	1057.71
629.514	1053.32
629.93	1056.24
630.345	1058.74
630.761	1054.17
631.176	1055.37
631.591	1049.95
632.007	1043.2
632.422	1040.85
632.837	1030.52
633.252	1026.93
633.667	1018.32
634.082	1009.87
634.497	998.35
634.911	982.57
635.326	979.37
635.741	965.52
636.155	955.72
636.57	955.76
636.984	953.46
637.399	953.14
637.813	950.11
638.228	947.35
638.642	948.28
639.056	937.12
639.47	933.69
639.884	923.73
640.298	915.88
640.712	912.95
641.126	901.3
641.54	892.66
641.954	885.09
642.368	874.21
642.781	866.55
643.195	851.44
643.609	850.16
644.022	845.06
644.436	840.09
644.849	829.01
645.262	817.66
645.676	815.21
646.089	808.91
646.502	796.91
646.915	790.74
647.328	776.03
647.741	772.38
648.154	760.8
648.567	756.91
648.98	745.31
649.393	742.93
649.805	738.43
650.218	733.02
650.631	720.63
651.043	715.01
651.456	708.93
651.868	707.68
652.28	718.58
652.693	726.36
653.105	728.55
653.517	733.27
653.929	732.89
654.341	736.44
654.753	726.69
655.165	729.82
655.577	727.03
655.989	722.73
656.401	715.11
656.813	688.79
657.224	672.85
657.636	650.83
658.047	637.23
658.459	621.8
658.87	611.72
659.282	599.92
659.693	583.68
660.104	570.69
660.515	559.03
660.926	554.8
661.338	550.17
661.749	543.56
662.159	536.97
662.57	532.71
662.981	528.09
663.392	522.7
663.803	524.26
664.213	520.82
664.624	516.86
665.035	517.01
665.445	508.9
665.855	503.75
666.266	498.35
666.676	495.55
667.086	487.84
667.497	486.42
667.907	482.04
668.317	475.39
668.727	474
669.137	474.2
669.547	472.81
669.956	472.42
670.366	473.07
670.776	473.87
671.186	475.83
671.595	478.91
672.005	481.13
672.414	481.31
672.824	481.85
673.233	483.4
673.642	484.67
674.052	487.43
674.461	491.32
674.87	494.92
675.279	495.5
675.688	496.78
676.097	498.4
676.506	497.62
676.915	508.45
677.323	510.36
677.732	510.35
678.141	511.25
678.549	505
678.958	503.8
679.366	503.71
679.775	506.73
680.183	515.9
680.592	520.25
681	525.07
681.408	520.21
681.816	527.26
682.224	534.88
682.632	543.66
683.04	565.34
683.448	584.15
683.856	608.69
684.264	635.11
684.671	659.03
685.079	689.86
685.487	722.76
685.894	770.73
686.302	808.85
686.709	842.62
687.116	882.23
687.524	917.29
687.931	949.66
688.338	977.86
688.745	1003.18
689.152	1032.17
689.559	1070.81
689.966	1110.89
690.373	1133.05
690.78	1171.86
691.187	1228.7
691.593	1273.15
692	1313.09
692.407	1370.77
692.813	1438.4
693.22	1495.88
693.626	1554.22
694.032	1603.64
694.439	1673.84
694.845	1731.16
695.251	1802.74
695.657	1865.37
696.063	1959.56
696.469	2030.46
696.875	2097.67
697.281	2141.93
697.687	2191.58
698.093	2235.05
698.498	2309.05
698.904	2369.31
699.31	2455.47
699.715	2519.97
700.12	2610.58
700.526	2634.35
700.931	2706.32
701.337	2760.3
701.742	2796.96
702.147	2882.91
702.552	2920.16
702.957	2984.21
703.362	3010.54
703.767	3047.05
704.172	3091.85
704.577	3057.21
704.981	3110.4
705.386	3134.4
705.791	3134.03
706.195	3210.25
706.6	3225.78
707.004	3310.22
707.408	3288.22
707.813	3320.69
708.217	3315.16
708.621	3323.54
709.025	3421.72
709.43	3427.01
709.834	3489.35
710.237	3563.5
710.641	3555.26
711.045	3583.48
711.449	3581.97
711.853	3617.52
712.256	3663.12
712.66	3706.68
713.064	3784.48
713.467	3831.41
713.87	3946.24
714.274	3997.41
714.677	4109.59
715.08	4273.22
715.484	4440.43
715.887	4645.66
716.29	4841.35
716.693	5050.24
717.096	5289.32
717.499	5423.5
717.901	5451.74
718.304	5486.93
718.707	5517.14
719.109	5421.84
719.512	5395.89
719.915	5271.23
720.317	5218.41
720.719	5269.39
721.122	5247.42
721.524	5203.24
721.926	5166.53
722.328	5271.41
722.731	5264.66
723.133	5296.78
723.535	5491.21
723.937	5516.36
724.338	5569.95
724.74	5614.25
725.142	5555.16
725.544	5556.41
725.945	5585.95
726.347	5588.35
726.748	5584.12
727.15	5602.53
727.551	5571.45
727.952	5545.66
728.354	5519.97
728.755	5522.37
729.156	5481.88
729.557	5470.51
729.958	5350.15
730.359	5297.39
730.76	5279.83
731.161	5222.22
731.562	5197.96
731.962	5198.17
732.363	5139.05
732.763	5076.79
733.164	5110.48
733.564	5045.2
733.965	4952.36
734.365	4919.83
734.766	4949.48
735.166	4911.69
735.566	4858.75
735.966	4833.49
736.366	4829.36
736.766	4768.52
737.166	4800.52
737.566	4764.78
737.966	4739.41
738.365	4778.14
738.765	4771.92
739.165	4696.84
739.564	4671.92
739.964	4716.82
740.363	4669.25
740.763	4665.68
741.162	4653.84
741.561	4622.86
741.96	4577
742.36	4598.67
742.759	4604.58
743.158	4646.62
743.557	4661.71
743.955	4702.75
744.354	4659.53
744.753	4717.9
745.152	4678.38
745.55	4734.72
745.949	4730.48
746.348	4733.21
746.746	4748.59
747.144	4710.93
747.543	4685.6
747.941	4735.69
748.339	4665.82
748.737	4659.04
749.136	4651.43
749.534	4719.46
749.932	4691.64
750.33	4712.76
750.727	4766.41
751.125	4743.19
751.523	4727.54
751.921	4773.53
752.318	4741.34
752.716	4801.35
753.113	4813.14
753.511	4839.39
753.908	4837.48
754.305	4819.32
754.703	4882.07
755.1	4944.88
755.497	5005.88
755.894	5195.87
756.291	5373.75
756.688	5701.74
757.085	6135.49
757.482	6751.22
757.878	7421.8
758.275	8030.92
758.672	8866.96
759.068	9544.58
759.465	10515.11
759.861	11768.09
760.258	13224.15
760.654	13970.16
761.05	13854.81
761.447	13224.08
761.843	12312.08
762.239	11367.15
762.635	10939.12
763.031	10530.76
763.427	9945.95
763.822	9324.54
764.218	8711.73
764.614	7912
765.01	7381.86
765.405	7035.68
765.801	6773.09
766.196	6440.92
766.592	6254.65
766.987	5941.4
767.382	5729.61
767.778	5640.22
768.173	5510.01
768.568	5436.46
768.963	5313.37
769.358	5333.5
769.753	5288.41
770.148	5207.04
770.542	5206.4
770.937	5176.7
771.332	5270.77
771.726	5289.91
772.121	5227.47
772.515	5283.35
772.91	5271.91
773.304	5339.13
773.699	5270
774.093	5324.6
774.487	5380.29
774.881	5423.38
775.275	5419.01
775.669	5372.69
776.063	5418.32
776.457	5452.37
776.851	5375.14
777.245	5368.15
777.638	5402.94
778.032	5518.76
778.425	5481.56
778.819	5522.85
779.212	5478.34
779.606	5439.47
779.999	5462.02
780.392	5444.15
780.786	5527.82
781.179	5551.11
781.572	5591.01
781.965	5605.12
782.358	5549.82
782.751	5605.04
783.143	5556.89
783.536	5629.55
783.929	5671.26
784.322	5784.06
784.714	5814.07
785.107	5809.13
785.499	5884.1
785.891	5861.44
786.284	5843.49
786.676	5985.35
787.068	5968.06
787.46	6019.41
787.852	6044.1
788.245	6130.21
788.636	6158.96
789.028	6227.07
789.42	6267.15
789.812	6272.78
790.204	6372.45
790.595	6471.5
790.987	6271.18
791.378	6293.83
791.77	6423.94
792.161	6553.74
792.553	6611.21
792.944	6501.06
793.335	6433.79
793.726	6506.42
794.117	6599.32
794.508	6736.09
794.899	6707.26
795.29	6851.96
795.681	6910.69
796.072	6769.45
796.463	6592.59
796.853	6601.62
797.244	6760.06
797.634	6792.6
798.025	6795.14
798.415	6804.51
798.806	6891.04
799.196	6979.74
799.586	7031.74
799.976	6993.33
800.366	7223.65
800.756	7457.4
801.146	7416.51
801.536	7447.33
801.926	7517.67
802.316	7542.04
802.706	7615.17
803.095	7494.74
803.485	7593.18
803.874	7635.26
804.264	7894.71
804.653	7865.65
805.043	8017.1
805.432	8131.81
805.821	8133.72
806.21	8164.86
806.599	8285.69
806.988	8333.56
807.377	8440.66
807.766	8573.6
808.155	8858.69
808.544	8594.56
808.933	8617.21
809.321	8595.98
809.71	8891.66
810.098	9048.93
810.487	9511.19
810.875	9989.15
811.264	10009.03
811.652	10301.92
812.04	10450.77
812.428	10612.7
812.816	11378.15
813.204	11791.95
813.592	12340.96
813.98	12676.67
814.368	12592.11
814.756	13078.13
815.144	13002.43
815.531	13474.95
815.919	13403.2
816.306	13708.1
816.694	13402.55
817.081	13465.39
817.469	13817.16
817.856	13821.18
818.243	14092.85
818.63	14484.32
819.017	14062.5
819.404	14131.33
819.791	14515.11
820.178	15131.19
820.565	15384.15
820.952	16314.28
821.339	15815.41
821.725	16002.87
822.112	15256.94
822.498	15220.7
822.885	15352.23
823.271	15246.03
823.657	15656.97
824.044	15663.76
824.43	15734.88
824.816	15699.19
825.202	15264.4
825.588	16289.31
825.974	16307.09
826.36	16819.56
826.746	16849.35
827.132	17205.89
827.517	17183.81
827.903	16400.02
828.289	16430.5
828.674	15656.27
829.06	15557.75
829.445	15949.54
829.83	16302.7
830.216	16776.46
830.601	17144.92
830.986	16737.04
831.371	16594.47
831.756	17147.65
832.141	16718
832.526	16713.36
832.911	16986.5
833.295	16858.52
833.68	17324.88
834.065	16696.58
834.449	15776.76
834.834	15695.49
835.218	15685.44
835.603	16027.23
835.987	15813.73
836.371	16636.39
836.755	16522.63
837.139	16923.89
837.524	17163.68
837.908	16989.25
838.291	17045.24
838.675	17109.95
839.059	17315.66
839.443	17303.78
839.827	17067.8
840.21	17546.2
840.594	17393.27
840.977	17603.31
841.361	17572.63
841.744	17944.33
842.127	17789.93
842.511	18033.17
842.894	18629.25
843.277	19000.23
843.66	19534.73
844.043	19618.01
844.426	18822.42
844.809	18523.16
845.191	18552.9
845.574	18100.41
845.957	17738.24
846.339	17630.93
846.722	17110.8
847.104	17174.36
847.487	17009.27
847.869	17022.86
848.252	17297.23
848.634	17621.83
849.016	17874.64
849.398	17995.65
849.78	18833.88
850.162	18842.53
850.544	19251.88
850.926	19880.13
851.307	19791.32
851.689	20063.69
852.071	20505.16
852.452	20817.58
852.834	20795.45
853.215	21197.67
853.597	21352.74
853.978	21653.14
854.359	22106.9
854.741	21123.29
855.122	21017.49
855.503	20743.01
855.884	20881.48
856.265	20828.24
856.646	20947
857.026	20559.51
857.407	20496.24
857.788	20656.25
858.169	20937.55
858.549	20083.25
858.93	20690.9
859.31	20735.58
859.69	20943.01
860.071	20537.51
860.451	20324.75
860.831	19593.43
861.211	20739.78
861.591	21279.11
861.971	21249.03
862.351	21447.55
862.731	21834.29
863.111	22102.81
863.491	22431.27
863.87	23289.57
864.25	23644.75
864.629	23241.17
865.009	23750.16
865.388	24594.91
865.768	26355.65
866.147	26251.15
866.526	24785.26
866.905	25081.08
867.284	26485.4
867.663	25156.17
868.042	24093.33
868.421	24018.37
868.8	24411.51
869.179	24652.43
869.558	23216.03
869.936	21393.41
870.315	21764.68
870.693	22292.57
871.072	24033.38
871.45	22889.01
871.828	23183.7
872.207	24392.78
872.585	24016.31
872.963	24682.13
873.341	23829.69
873.719	23540.95
874.097	23257.32
874.475	23718.13
874.853	24266
875.23	23255.91
875.608	24233.29
875.986	26212.34
876.363	25063.82
876.741	25829.45
877.118	25176.01
877.495	26410.43
877.873	26852.07
878.25	28266.26
878.627	27103.4
879.004	27473.54
879.381	27353.51
879.758	26630.93
880.135	24786.13
880.512	26211.89
880.889	25510.22
881.265	25250.03
881.642	25054.65
882.019	25479.13
882.395	24955.7
882.772	25947.39
883.148	24825.97
883.524	24719.25
883.901	24581.04
884.277	24955.62
884.653	24792.89
885.029	25505.27
885.405	28243.07
885.781	28015.34
886.157	26859.65
886.532	27191.91
886.908	27168.06
887.284	30207.87
887.659	31194.46
888.035	32155.19
888.411	32984.01
888.786	33426.76
889.161	34585.85
889.537	33937.59
889.912	35007.68
890.287	34980.67
890.662	35883.17
891.037	35243.86
891.412	32862.91
891.787	32524.91
892.162	31394.41
892.536	32121.98
892.911	30907.69
893.286	30255.65
893.66	29030.55
894.035	29775.56
894.409	32418.33
894.784	31109.41
895.158	31614.76
895.532	33485.27
895.906	34388.42
896.281	35190.69
896.655	34627.94
897.029	39574.02
897.402	41204.89
897.776	45884.85
898.15	45711.6
898.524	45192.68
898.898	45747.36
899.271	51221.66
899.645	44370.77
900.018	42637.37
900.392	44219.38
900.765	44581.17
901.138	41247.89
901.511	40611.8
901.884	37276.44
902.258	34392.05
902.631	35549.63
903.003	40941.99
903.376	36938.45
903.749	41411.09
904.122	44338.06
904.495	48817.12
904.867	49390.73
905.24	42892.96
905.612	39929.97
905.985	40838.84
906.357	42697.89
906.729	40743.68
907.102	34807.03
907.474	33473.86
907.846	33699.32
908.218	33239.81
908.59	29385.42
908.962	28434.69
909.334	30611.42
909.705	32165.73
910.077	31224.43
910.449	32490
910.82	33409.11
911.192	36774.85
911.563	38215.13
911.935	40878.83
912.306	40926.94
912.677	42223.93
913.048	41803.28
913.419	45370.55
913.79	45628.95
914.161	48941.54
914.532	46791.28
914.903	42988.13
915.274	40799.27
915.645	40194.87
916.015	35387.91
916.386	33749.6
916.756	35950.81
917.127	37093.28
917.497	33119.58
917.868	36070.09
918.238	34270.43
918.608	35256.41
918.978	36004.63
919.348	38122.03
919.718	39420.29
920.088	37972.45
920.458	39474.76
920.828	41537.7
921.198	39357.48
921.567	42042.15
921.937	32538.8
922.306	32842.56
922.676	35421.74
923.045	29547.81
923.415	28090.52
923.784	25562.41
924.153	26281.79
924.522	26250.49
924.891	24659.41
925.26	26428.01
925.629	25820.46
925.998	29676.38
926.367	28976.19
926.736	27592.75
927.104	32857.67
927.473	35314.02
927.842	42679.98
928.21	42257.34
928.578	44432.55
928.947	42030.45
929.315	42296.75
929.683	49609.5
930.051	50003.81
930.42	58067.75
930.788	49686.68
931.156	49331.15
931.523	46271.1
931.891	42723.57
932.259	41074.46
932.627	47584.54
932.994	67338.66
933.362	55643.02
933.729	48289.75
934.097	46218.88
934.464	39106.03
934.831	45080.72
935.199	44444.28
935.566	43084.95
935.933	43642.11
936.3	52773.55
936.667	41077.13
937.034	37042
937.401	36620.67
937.767	31590.71
938.134	28120.32
938.501	39664.41
938.867	42300.23
939.234	71522.48
939.6	60967.08
939.967	67265.66
940.333	45084.3
940.699	38386.8
941.065	30822.15
941.431	40431.74
941.798	39068.63
942.163	51355.68
942.529	32071.7
942.895	29519.65
943.261	19090.23
943.627	25090.11
943.992	21981.35
944.358	22025.52
944.723	22110.92
945.089	21555.19
945.454	19921.59
945.82	21227.97
946.185	20420.72
946.55	23672.35
946.915	21248.3
947.28	24957.13
947.645	21985.37
948.01	20290.04
948.375	21146.76
948.74	25335.82
949.104	29562.26
949.469	42718.83
949.834	75589.57
950.198	71567.02
950.562	42884.28
950.927	35695.49
951.291	42890.69
951.655	36499.39
952.02	34241.84
952.384	25892.51
952.748	22554.79
953.112	22024.61
953.476	19148.54
953.839	17705.7
954.203	17528.28
954.567	21927.87
954.931	34549.11
955.294	29578.03
955.658	29753.89
956.021	50680.64
956.385	85943.74
956.748	126848.7
957.111	196526.3
957.474	220706.13
957.837	248438.95
958.2	188098.76
958.563	67568.09
958.926	45663.59
959.289	69271
959.652	77351.93
960.015	57948.32
960.377	83145.12
960.74	94883.91
961.102	163761.3
961.465	175653.2
961.827	94051.38
962.189	180319.6
962.552	125181.17
962.914	100218.2
963.276	65027.42
963.638	53766.45
964	53284.94
964.362	35987.61
964.724	34779.31
965.085	24789.17
965.447	20321.14
965.809	23157.73
966.17	23200.39
966.532	25098.77
966.893	23067.77
967.255	21001.33
967.616	24798.38
967.977	19861.65
968.338	21707.2
968.699	17844.32
969.061	17841.59
969.421	17956.31
969.782	20163.55
970.143	17028.67
970.504	17645.28
970.865	20053.36
971.225	20495.19
971.586	20033.06
971.946	28542.85
972.307	24784.46
972.667	32375.51
973.027	33352.59
973.388	40489.38
973.748	27516.93
974.108	29917.72
974.468	40474.42
974.828	31173.9
975.188	23972.44
975.548	22013.59
975.907	18474.75
976.267	20728.97
976.627	17412.84
976.986	18047.55
977.346	17195.06
977.705	16536.9
978.064	15074.24
978.424	12548.11
978.783	12973.59
979.142	14825.41
979.501	14195.53
979.86	15001.98
980.219	14442.68
980.578	18631.89
980.937	20876.97
981.296	18600.36
981.654	19130.51
982.013	29756.61
982.371	38611.67
982.73	36105.41
983.088	40810.51
983.447	43559.8
983.805	62301.19
984.163	130085.05
984.521	144348.42
984.879	211359.04
985.237	-343914.1
985.595	332260.69
985.953	82572.68
986.311	47696.87
986.669	27719.75
987.026	23921.82
987.384	32153.44
987.741	33215.83
988.099	23784.37
988.456	18953.2
988.814	17763.73
989.171	15435.35
989.528	15221.26
989.885	16081.17
990.242	12724.38
990.599	15825.73
990.956	12960.64
991.313	9067.13
991.67	7437.53
992.027	7870.27
992.383	6999.33
992.74	6142.43
993.096	6445
993.453	6675.56
993.809	6929.39
994.165	9229.22
994.522	8462.44
994.878	9319.37
995.234	11691.3
995.59	11546.7
995.946	10948.39
996.302	12481.32
996.658	14414.19
997.013	15912.86
997.369	18883.21
997.725	24154.59
998.08	15626.53
998.436	24098.62
998.791	33262.31
999.147	33222.56
999.502	36182.07
999.857	26259.98
1000.212	42874.79
1000.567	61061.85
1000.922	35128.05
1001.277	22304.62
1001.632	16533.74
1001.987	21322.75
1002.342	15290.23
1002.696	12237.47
1003.051	9770.25
1003.406	11874.13
1003.76	11810.93
1004.114	11631.83
1004.469	9774
1004.823	8097.36
1005.177	8755.29
1005.531	6945.9
1005.885	6149.66
1006.239	6934.71
1006.593	8689.55
1006.947	11626.18
1007.301	8704
1007.655	9520.45
1008.008	6994.96
1008.362	7865.46
1008.715	11252.45
1009.069	10203.58
1009.422	15326.12
1009.776	30864.68
1010.129	20475.69
1010.482	17128.83
1010.835	14500.09
1011.188	30224.1
1011.541	28439.12
1011.894	-174033.49
1012.247	512981.91
1012.6	34878.39
1012.952	22017.89
1013.305	11365.98
1013.657	8176.06
1014.01	7734.62
1014.362	6372.67
1014.715	5656.27
1015.067	4929.21
1015.419	4808.51
1015.771	4256.39
1016.123	3773.71
1016.475	3870.94
1016.827	4130.86
1017.179	4455.3
1017.531	4495.5
1017.883	4591.25
1018.234	4442.89
1018.586	5635.76
1018.938	5986.77
1019.289	8262.49
1019.64	9447.12
1019.992	8828.93
1020.343	8049.14
1020.694	6351.8
1021.045	5596.2
1021.396	6406.12
1021.747	6905.87
1022.098	8299.72
1022.449	5976.63
1022.8	5527.39
1023.151	3850.16
1023.501	3416.55
1023.852	3717.93
1024.202	3871.49
1024.553	4238.46
1024.903	4150.04
1025.253	3524.48
1025.604	3169.38
1025.954	3918.93
1026.304	4805.98
1026.654	5590.77
1027.004	8173.41
1027.354	13154.15
1027.703	12319.45
1028.053	16227.3
1028.403	23733.99
1028.753	34294.67
1029.102	46843.71
1029.452	240088.29
1029.801	10360.63
1030.15	6653.23
1030.499	5629.89
897.758	2745.48
901.051	2705.98
904.343	2739.82
907.636	2740.5
910.928	2803.49
914.22	2714.97
917.511	2721.45
920.803	2786.64
924.094	2810.95
927.384	2784.75
930.675	2749.07
933.965	2701.49
937.255	2705.99
940.544	2675.14
943.834	2604.56
947.123	2553.18
950.411	2646.22
953.7	2620.09
956.988	2590.27
960.276	2527.84
963.563	2613.48
966.851	2608.55
970.138	2669.73
973.424	2663.41
976.711	2611.22
979.997	2755.83
983.283	2788.13
986.568	2691.46
989.853	2711.73
993.138	2737.52
996.423	2823.17
999.708	2754.13
1002.992	2825.46
1006.275	2647.31
1009.559	2700.88
1012.842	2818.48
1016.125	2749.13
1019.408	2727.97
1022.69	2819.63
1025.972	2834.02
1029.254	2809.39
1032.536	2735.55
1035.817	2768.15
1039.098	2704.98
1042.379	2866.38
1045.659	2858.2
1048.939	2789.86
1052.219	2814.66
1055.498	2828.98
1058.778	2811.69
1062.057	2797.82
1065.335	2817.4
1068.614	2840.07
1071.892	2821.11
1075.17	2901.28
1078.447	2886.71
1081.724	2877.84
1085.001	2916.47
1088.278	2888.62
1091.554	2900.88
1094.83	2898.46
1098.106	2926.21
1101.382	2974.81
1104.657	2972.92
1107.932	2968.87
1111.206	2932.4
1114.481	2890.71
1117.755	2892.75
1121.029	2870.01
1124.302	2922.69
1127.575	2872.36
1130.848	2859.24
1134.121	2817.67
1137.393	2763.5
1140.665	2832.21
1143.937	2805.23
1147.208	2765.53
1150.48	2803.21
1153.75	2789.12
1157.021	2825.48
1160.291	2792.95
1163.561	2839.34
1166.831	2831.1
1170.101	2863.05
1173.37	2841.16
1176.639	2782.66
1179.907	2844
1183.176	2847.62
1186.444	2856.05
1189.711	2884.71
1192.979	2897
1196.246	2854.61
1199.513	2870.49
1202.78	2868.43
1206.046	2879.55
1209.312	2903.44
1212.578	2932.54
1215.843	2882
1219.108	2853.66
1222.373	2877.88
1225.638	2840.88
1228.902	2821.38
1232.166	2788.15
1235.43	2769.19
1238.693	2791.31
1241.956	2791.22
1245.219	2828.42
1248.482	2821.43
1251.744	2815.34
1255.006	2973.61
1258.268	2930.52
1261.529	2870.97
1264.79	2881.08
1268.051	2984.11
1271.312	3006.77
1274.572	2965.31
1277.832	2950.34
1281.092	2944.59
1284.351	2913.35
1287.61	2890.19
1290.869	2805.19
1294.128	2775.11
1297.386	2871.3
1300.644	2857.89
1303.902	2871.61
1307.159	2723.52
1310.416	2783.52
1313.673	2810.09
1316.93	2791.31
1320.186	2839.72
1323.442	2886.64
1326.697	2866.5
1329.953	2861.91
1333.208	2884.26
1336.463	2864.99
1339.717	2800.87
1342.972	2941.59
1346.226	2915.39
1349.479	2845.28
1352.733	2813.7
1355.986	2840.46
1359.238	2815.28
1362.491	2818.65
1365.743	2822.1
1368.995	2817.08
1372.247	2832.22
1375.498	2858.72
1378.749	2869.94
1382	2824.29
1385.251	2881.75
1388.501	2845.63
1391.751	2826.44
1395	2798.12
1398.25	2834.86
1401.499	2840.57
1404.748	2763.59
1407.996	2752.01
1411.244	2735.4
1414.492	2716.59
1417.74	2695.86
1420.987	2705.72
1424.234	2764.65
1427.481	2744.94
1430.728	2804.93
1433.974	2776.59
1437.22	2792.85
1440.465	2794.54
1443.711	2753.97
1446.956	2792.83
1450.201	2780.92
1453.445	2826.75
1456.689	2803.68
1459.933	2813.64
1463.177	2847.54
1466.42	2817.9
1469.663	2799.76
1472.906	2790.27
1476.148	2875.49
1479.391	2826.23
1482.633	2796.04
1485.874	2804.58
1489.115	2787.78
1492.356	2798.24
1495.597	2769.85
1498.838	2776.14
1502.078	2743.19
1505.318	2688.09
1508.557	2732.64
1511.797	2699.83
1515.036	2784.47
1518.274	2776.85
1521.513	2749.34
1524.751	2772.16
1527.989	2781.28
1531.227	2799.08
1534.464	2786.42
1537.701	2811.7
1540.938	2830.82
1544.174	2787.3
1547.41	2786.31
1550.646	2824.75
1553.882	2856.03
1557.117	2912.77
1560.352	2930.34
1563.587	2886.78
1566.821	2842.76
1570.055	2883.94
1573.289	2850.91
1576.523	2931.61
1579.756	2935.86
1582.989	2954.83
1586.222	2915.38
1589.454	2953.03
1592.686	2926.63
1595.918	2951.4
1599.15	2937.92
1602.381	3020.9
1605.612	2968.47
1608.843	3068.4
1612.073	2976.44
1615.303	2961.52
1618.533	2952.95
1621.762	2955.82
1624.992	2949
1628.221	2930.4
1631.449	2915.88
1634.678	2976.73
1637.906	2926.75
1641.134	2965.7
1644.361	2921.35
1647.588	2911.62
1650.815	2923.82
1654.042	2904.69
1657.269	2932.5
1660.495	2878.88
1663.72	2893.13
1666.946	2857.19
1670.171	2794.54
1673.396	2770.12
1676.621	2760.59
1679.845	2784.52
1683.069	2808.35
1686.293	2853.98
1689.517	2822.66
1692.74	2749.26
1695.963	2782.6
1699.185	2806.6
1702.408	2779.13
1705.63	2825.97
1708.852	2836.37
1712.073	2811.19
1715.294	2790.97
1718.515	2852.6
1721.736	2799.83
1724.956	2793.33
1728.176	2822.11
1731.396	2842.84
1734.616	2831.06
1737.835	2858.21
1741.054	2837.14
1744.272	2829.8
1747.491	2861
1750.709	2919.96
1753.927	2817.25
1757.144	2864.65
1760.361	2907.51
1763.578	2902
1766.795	2840.47
1770.011	2851.01
1773.227	2895.59
1776.443	2927.91
1779.658	2975.75
1782.874	2917.09
1786.089	2892.71
1789.303	2896.18
1792.518	2903.41
1795.732	2888.52
1798.945	2897.64
1802.159	2947.6
1805.372	2841.66
1808.585	2825.76
1811.797	2827.81
1815.01	2881.6
1818.222	2878.22
1821.434	2840.86
1824.645	2903.44
1827.856	2880.5
1831.067	2919.54
1834.278	2877.38
1837.488	2866.53
1840.698	3020.84
1843.908	2939.39
1847.117	2903.9
1850.326	2776.65
1853.535	2894.35
1856.744	2930.36
1859.952	2841.64
1863.16	2843.58
1866.368	2869.16
1869.575	2971.94
1872.782	2849.36
1875.989	2792.46
1879.196	2883.57
1882.402	2876.12
1885.608	2919.8
1888.814	2810.23
1892.019	2703.8
1895.224	2756.21
1898.429	2741.48
1901.634	2714.18
1904.838	2694.31
1908.042	2746.44
1911.246	2749.42
1914.449	2674.8
1917.652	2672.59
1920.855	2655.23
1924.058	2710.65
1927.26	2744.88
1930.462	2773.61
1933.664	2798.73
1936.865	2732.5
1940.066	2739.3
1943.267	2687.26
1946.467	2704.06
1949.668	2733.1
1952.868	2800.22
1956.067	2776.19
1959.267	2702.88
1962.466	2731.91
1965.665	2717.21
1968.863	2710.27
1972.061	2732.53
1975.259	2731.91
1978.457	2810.56
1981.654	2768.05
1984.852	2768.27
1988.048	2697.83
1991.245	2704.44
1994.441	2790.6
1997.637	2780.36
2000.833	2760.93
2004.028	2802.03
2007.223	2854.33
2010.418	2829.81
2013.613	2791.79
2016.807	2758.37
2020.001	2766.92
2023.194	2814.52
2026.388	2791.04
2029.581	2736.64
2032.774	2783.6
2035.966	2791.04
2039.158	2718.61
2042.35	2746.54
2045.542	2671.47
2048.733	2779.42
2051.924	2804.95
2055.115	2836.7
2058.306	2776.97
2061.496	2833.76
2064.686	2904.06
2067.875	2817.35
2071.065	2832.53
2074.254	2861.7
2077.442	2810.92
2080.631	2905.68
2083.819	2786.38
2087.007	2771.54
2090.195	2738.68
2093.382	2774.14
2096.569	2753.11
2099.756	2704.26
2102.942	2726.57
2106.128	2732.18
2109.314	2723.34
2112.5	2684.42
2115.685	2658.36
2118.87	2671.36
2122.055	2735.72
2125.239	2698.74
2128.424	2674.23
2131.608	2784.43
2134.791	2761.9
2137.974	2825.48
2141.157	2809.17
2144.34	2758.37
2147.523	2778.82
2150.705	2792.48
2153.887	2770.87
2157.068	2715.54
2160.25	2722.76
2163.431	2762.26
2166.611	2702.14
2169.792	2723.59
2172.972	2611.33
2176.152	2693.59
2179.331	2731.97
2182.511	2708.77
2185.69	2740.09
2188.868	2732.39
2192.047	2792.42
2195.225	2776.45
2198.403	2726.15
2201.58	2723.9
2204.758	2717.49
2207.935	2802.86
2211.111	2688.69
2214.288	2669.18
2217.464	2710.5
2220.64	2682.65
2223.815	2742.4
2226.991	2659.35
2230.166	2681.4
2233.34	2709.26
2236.515	2737.65
2239.689	2811.84
2242.863	2756.73
2246.036	2809.35
2249.209	2816.3
2252.382	2852.41
2255.555	2837.93
2258.727	2770.22
2261.9	2815.06
2265.071	2805.54
2268.243	2809.89
2271.414	2733.27
2274.585	2691.71
2277.756	2759.9
2280.926	2717.32
2284.096	2758.07
2287.266	2661.89
2290.436	2721.2
2293.605	2750.73
2296.774	2779.99
2299.942	2804.13
2303.111	2819.94
2306.279	2869.39
2309.447	2854.1
2312.614	2828.14
2315.781	2849.11
2318.948	2815.51
2322.115	2856.23
2325.281	2755.14
2328.447	2778.4
2331.613	2754.82
2334.779	2723.77
2337.944	2728.36
2341.109	2724.63
2344.274	2709.5
2347.438	2673.14
2350.602	2698.55
2353.766	2720.7
2356.929	2703.69
2360.092	2746.39
2363.255	2696.22
2366.418	2619.68
2369.58	2743.18
2372.742	2513.71
2375.904	2532.57
2379.066	2505.09
2382.227	2543.79
2385.388	2504.69
2388.548	2422.51
2391.709	2483.43
2394.869	2460.61
2398.029	2566.65
2401.188	2583.97
2404.347	2513.22
2407.506	2666.77
2410.665	2694.74
2413.823	2701.92
2416.981	2655.73
2420.139	2692.54
2423.296	2742.91
2426.453	2716.1
2429.61	2739.77
2432.767	2668.26
2435.923	2704.81
2439.079	2665.66
2442.235	2716.41
2445.391	2639.4
2448.546	2669.06
2451.701	2721.49
2454.855	2687.12
2458.009	2745.35
2461.163	2750.63
2464.317	2707.81
2467.471	2739.17
2470.624	2784.34
2473.777	2753.14
2476.929	2767.45
2480.082	2795.92
2483.234	2759.39
2486.385	2712
2489.537	2705.03
2492.688	2662.33
2495.839	2676.83
2498.989	2688.87
2502.14	2674.73
2505.29	2651.3
2508.439	2680.6
2511.589	2599.08
2514.738	2613.66
2517.887	2645.03
2521.035	2709.49
2524.183	2696.13
2527.331	2673.59
2530.479	2643.94
2533.627	2655.66
