Data from C_3_DIV_WI_4N_Splice17_12-56-43-855.txt Node
Date: Sat Mar 14 12:56:43 EDT 2020
User: sa697716
Spectrometer: FLMS03696
Trigger mode: 0
Integration Time (sec): 3.180400E-1
Scans to average: 20
Electric dark correction enabled: true
Nonlinearity correction enabled: true
Boxcar width: 5
XAxis mode: Wavelengths
Number of Pixels in Spectrum: 2048
>>>>>Begin Spectral Data<<<<<
187.83	-238023
188.298	1826.79
188.766	1014.08
189.233	937.04
189.701	1333.59
190.169	1857.09
190.636	696.64
191.104	602.86
191.571	95.76
192.039	-79.94
192.506	-62.71
192.974	550.59
193.441	-951.7
193.908	-249.19
194.375	-25.98
194.842	45.8
195.31	158.58
195.777	202.06
196.244	418.62
196.711	465.42
197.177	563.4
197.644	770.9
198.111	1376.46
198.578	1977.43
199.045	1554.21
199.511	2534.27
199.978	2920.56
200.445	2458.03
200.911	2716.35
201.378	3002.91
201.844	2712.3
202.31	4637.69
202.777	4821.41
203.243	2644.17
203.709	2489.76
204.176	2971.67
204.642	2451.68
205.108	2289.28
205.574	1860.68
206.04	1680.77
206.506	1596.23
206.972	1521.49
207.438	1464.19
207.903	1674.16
208.369	1480.02
208.835	1470.42
209.301	1528.03
209.766	1539.91
210.232	1531.88
210.697	1880.51
211.163	2307.3
211.628	3409.05
212.094	2814.83
212.559	3448.01
213.024	2137.71
213.49	2586.78
213.955	2509.8
214.42	2452.14
214.885	2290.97
215.35	2186.13
215.815	2125.02
216.28	2236.95
216.745	1812.16
217.21	1957.27
217.675	1771.19
218.14	1957.17
218.604	2135.83
219.069	2373.76
219.534	2458.43
219.998	2786.45
220.463	3293.32
220.927	3943.99
221.392	3641.52
221.856	3635.68
222.32	4486.06
222.785	5490.39
223.249	6830.29
223.713	7533.1
224.177	7504.61
224.642	9533.74
225.106	11647.47
225.57	12660.9
226.034	9431.15
226.497	14369.52
226.961	13002.63
227.425	15130.64
227.889	16727.7
228.353	16688.88
228.816	34453.59
229.28	32845.49
229.744	27575.8
230.207	16774.46
230.671	16498.29
231.134	27129.03
231.597	31215.66
232.061	31060.83
232.524	30228.67
232.987	20758.72
233.45	18680.68
233.914	16735.61
234.377	17115.37
234.84	15670.86
235.303	18464.52
235.766	20591.27
236.229	21240.47
236.691	13356.17
237.154	15000.16
237.617	11293.12
238.08	11555.32
238.542	13518.41
239.005	9661.5
239.468	9600.09
239.93	9051.32
240.393	8228.89
240.855	7212.16
241.317	7384.81
241.78	8969.34
242.242	9282.53
242.704	10050.55
243.166	8757.94
243.629	7971.84
244.091	9185.01
244.553	10057.63
245.015	10794.7
245.477	13947.43
245.939	20477.96
246.4	21716.43
246.862	21125.05
247.324	19896.94
247.786	22185.76
248.247	29031.16
248.709	29876.51
249.17	22341.38
249.632	21081.84
250.093	24486.65
250.555	21132.16
251.016	12899.9
251.477	12255.74
251.939	13222.2
252.4	13874.21
252.861	16477.08
253.322	15356.49
253.783	18266.57
254.244	23662.21
254.705	18637.07
255.166	16553.28
255.627	16316.54
256.088	22992.93
256.549	24393.17
257.009	20980.13
257.47	25436.14
257.931	20711.69
258.391	15519.94
258.852	16013.31
259.312	16784.07
259.773	20730.01
260.233	17552.06
260.694	14803.03
261.154	16774.71
261.614	13501.79
262.074	12066.32
262.534	12542.95
262.994	11809.98
263.455	15708.52
263.915	13212.14
264.374	12450.67
264.834	13580.27
265.294	15012.05
265.754	15526.71
266.214	14707.37
266.673	13754.48
267.133	17363.37
267.593	17203.8
268.052	21071.47
268.512	18349.05
268.971	22168.7
269.431	24281.33
269.89	21744.7
270.349	32594.28
270.809	36331.9
271.268	32649.67
271.727	73197.02
272.186	47372.57
272.645	35510.33
273.104	25574.17
273.563	36926.46
274.022	28948.47
274.481	24641.45
274.94	18984.99
275.399	14101.68
275.857	16421.3
276.316	22174.3
276.775	19720.14
277.233	19465.7
277.692	18258.68
278.15	20709.97
278.609	21376.71
279.067	19809.42
279.525	18420.99
279.984	23763.21
280.442	28594.58
280.9	28255.11
281.358	18615.77
281.816	17355.59
282.274	16957.7
282.732	17503.89
283.19	17549.36
283.648	15125.86
284.106	16132.71
284.564	16416.47
285.021	15256.81
285.479	11364.5
285.937	10314.31
286.394	9068.84
286.852	9337.91
287.309	9826.99
287.767	9513.15
288.224	9078.28
288.682	9966.99
289.139	10944.48
289.596	10007.26
290.053	10385.69
290.511	13097.57
290.968	15911.41
291.425	21496.9
291.882	17938.87
292.339	15621.39
292.796	15498.49
293.252	14578.99
293.709	11583.74
294.166	10359.83
294.623	11457.52
295.079	11002.17
295.536	11065.68
295.992	10043.17
296.449	9954.77
296.905	10352.87
297.362	9925.41
297.818	10408.48
298.274	10820.67
298.731	11018.4
299.187	10910.12
299.643	11690.6
300.099	14140.07
300.555	15506.48
301.011	12939.2
301.467	12518.42
301.923	14583.48
302.379	14241.87
302.835	14006.01
303.291	14021.11
303.746	15960.59
304.202	20190.06
304.658	20302.42
305.113	13657.94
305.569	13378.86
306.024	14280.36
306.479	13563.42
306.935	11462.93
307.39	12517.42
307.845	11572.4
308.301	11648.76
308.756	11342.92
309.211	10926.83
309.666	11190.56
310.121	13907.97
310.576	14120.96
311.031	14017.85
311.486	16026.82
311.94	16001.55
312.395	21456.8
312.85	40239.75
313.305	197204.76
313.759	1025575.4
314.214	74357.84
314.668	59071.08
315.123	49748.93
315.577	17853.9
316.032	15880.63
316.486	19889.61
316.94	15741.9
317.394	10939.35
317.849	8535.91
318.303	8083.15
318.757	7625.76
319.211	8432.66
319.665	7359.66
320.119	7444.55
320.572	10663.33
321.026	9969.67
321.48	8302.27
321.934	9043.15
322.387	9068.14
322.841	9787.21
323.295	8832.96
323.748	10122.29
324.202	10258.73
324.655	12336.82
325.108	17291.29
325.562	12228.16
326.015	14512.73
326.468	10984.53
326.921	12259.26
327.374	11441.3
327.827	11912.22
328.28	13468.56
328.733	9071.28
329.186	7988.39
329.639	7624.48
330.092	6415.51
330.545	6104.71
330.997	6168.13
331.45	6737.89
331.903	7935.55
332.355	13644.84
332.808	13271.62
333.26	10943.25
333.713	11870.26
334.165	11961.69
334.617	15944.26
335.069	12824.78
335.522	23175.52
335.974	25663.31
336.426	23460.65
336.878	16149.17
337.33	8191.01
337.782	7987.65
338.234	10027.92
338.686	11969.89
339.137	14187.67
339.589	13355.57
340.041	10502.02
340.493	9015.9
340.944	9249.46
341.396	9968.08
341.847	8439.98
342.299	9992.74
342.75	12211.26
343.201	10638.77
343.653	12285.88
344.104	15073.59
344.555	11888.78
345.006	18447.37
345.457	14217.23
345.908	11282.48
346.359	10618.65
346.81	8622.35
347.261	9041.67
347.712	8872.96
348.163	9488.02
348.613	9630.59
349.064	8997.44
349.515	7875.05
349.965	8088
350.416	9697.91
350.866	10637.05
351.317	12002.34
351.767	19864.33
352.217	25118.6
352.668	20918.49
353.118	19206.8
353.568	18404.08
354.018	14594
354.468	15379.83
354.918	11055.85
355.368	9680.58
355.818	13689.02
356.268	39408.78
356.718	165448.98
357.168	41235.81
357.617	20678.35
358.067	22984.9
358.517	21567.86
358.966	25303.63
359.416	28501.24
359.865	30735.44
360.315	36577.28
360.764	17035.53
361.213	9559.98
361.663	9002.57
362.112	11108.85
362.561	17987.06
363.01	13604.77
363.459	11421.16
363.908	12297.92
364.357	10451.9
364.806	17609.09
365.255	12159.52
365.703	11174.43
366.152	11192.53
366.601	9096.31
367.05	7425.85
367.498	6745.64
367.947	7033.75
368.395	7328.17
368.844	6511.71
369.292	7795.56
369.74	5418.17
370.189	8263.28
370.637	9641.99
371.085	8329.21
371.533	10175.25
371.981	9745.75
372.429	9317.51
372.877	9742.93
373.325	8187.11
373.773	8346.93
374.221	7453.5
374.669	9247.76
375.116	8021.24
375.564	8128.29
376.012	9092.79
376.459	7499.13
376.907	8942.91
377.354	10815.5
377.801	10112.15
378.249	11635.1
378.696	14844.99
379.143	18011.93
379.591	19170.48
380.038	32525.95
380.485	23572.95
380.932	25471.46
381.379	23517.56
381.826	17454.49
382.273	12404.48
382.72	10804.59
383.166	10528.24
383.613	6846.33
384.06	6197.18
384.506	7192.04
384.953	5258.38
385.4	5274.54
385.846	4611.68
386.292	4460.3
386.739	4356.86
387.185	4304.23
387.631	4303.94
388.078	4187.67
388.524	4487.22
388.97	4145.2
389.416	3468.67
389.862	3704.33
390.308	3517.25
390.754	3571.19
391.2	3874.62
391.645	3970.87
392.091	3821.19
392.537	3709.88
392.983	3718.79
393.428	3668.88
393.874	3925.69
394.319	3957.26
394.765	3769.71
395.21	3883.08
395.655	3649.27
396.101	3419.12
396.546	3080.25
396.991	3093.6
397.436	2869.55
397.881	2762.25
398.326	2605.02
398.771	2472.2
399.216	2152.42
399.661	1929.95
400.106	1922.3
400.551	1978
400.995	1776.59
401.44	1757.41
401.885	1651.41
402.329	1668.04
402.774	1604.27
403.218	1559.57
403.663	1495.36
404.107	1533.45
404.551	1548.15
404.995	1413.01
405.44	1353.06
405.884	1369.87
406.328	1319.19
406.772	1313.27
407.216	1193.6
407.66	1146.9
408.104	1084.04
408.547	1014.58
408.991	982.67
409.435	939.53
409.879	929.63
410.322	916.37
410.766	883.52
411.209	843.88
411.653	807.62
412.096	792.92
412.54	792.39
412.983	785.5
413.426	789.06
413.869	785.9
414.312	774.69
414.756	745.32
415.199	709.87
415.642	690.42
416.085	691.46
416.527	687.15
416.97	695.48
417.413	660.23
417.856	653.65
418.298	644.03
418.741	637.76
419.184	632.92
419.626	655.63
420.069	658.59
420.511	662.81
420.953	648.84
421.396	642.02
421.838	623.77
422.28	640.48
422.722	645.02
423.164	653.73
423.606	643.81
424.048	643.7
424.49	615.47
424.932	609.72
425.374	601.35
425.816	611.72
426.258	625.81
426.699	636.78
427.141	628.05
427.582	635.91
428.024	630.92
428.465	627.2
428.907	611.5
429.348	601.79
429.789	603.51
430.231	594
430.672	599.56
431.113	585.29
431.554	574.55
431.995	557.47
432.436	539.12
432.877	530.01
433.318	523.02
433.759	519.79
434.2	522.23
434.64	515.76
435.081	515.61
435.522	491.93
435.962	474.56
436.403	465.03
436.843	471.49
437.284	459.92
437.724	446.72
438.164	445.1
438.604	434.82
439.045	417.12
439.485	402.86
439.925	394.01
440.365	383.45
440.805	376.43
441.245	373.39
441.685	359.16
442.125	356.65
442.564	359.32
443.004	350.1
443.444	350.01
443.883	351.08
444.323	345.16
444.762	342.92
445.202	346.44
445.641	355.95
446.081	351.74
446.52	354.69
446.959	352.43
447.398	344.56
447.837	342.5
448.276	334.8
448.716	336.85
449.154	339.1
449.593	332.44
450.032	331.17
450.471	321.78
450.91	321.11
451.349	321.89
451.787	319.62
452.226	322.82
452.664	321.18
453.103	321.57
453.541	320.43
453.98	322.78
454.418	323.76
454.856	320.63
455.295	319.95
455.733	322.8
456.171	323.23
456.609	322.1
457.047	322.86
457.485	328.9
457.923	331.17
458.361	325.69
458.798	324.66
459.236	323.35
459.674	322.71
460.111	323.63
460.549	320.93
460.987	320.05
461.424	319.3
461.862	316.51
462.299	310.32
462.736	310.26
463.173	311.68
463.611	311.38
464.048	312.02
464.485	315.68
464.922	312.68
465.359	309.32
465.796	311.24
466.233	310.43
466.67	310.03
467.106	311.2
467.543	305.6
467.98	301.24
468.416	291.62
468.853	288.26
469.29	278.73
469.726	276.72
470.162	270.21
470.599	261.24
471.035	258.05
471.471	250.51
471.907	246.84
472.344	245.92
472.78	248.31
473.216	250.14
473.652	247.28
474.088	246.4
474.523	245.14
474.959	246.71
475.395	244.31
475.831	242.93
476.266	243.35
476.702	242.61
477.138	240.21
477.573	238.14
478.008	237.73
478.444	239.28
478.879	242.68
479.314	243.65
479.75	243.44
480.185	244.23
480.62	245.95
481.055	246.92
481.49	249.12
481.925	252
482.36	257.8
482.795	263.57
483.229	268.8
483.664	273.05
484.099	273.77
484.534	278.12
484.968	280.33
485.403	279.88
485.837	278.74
486.271	277.25
486.706	277
487.14	271.7
487.574	268.08
488.009	265.63
488.443	262.97
488.877	265.49
489.311	265.6
489.745	269.07
490.179	271.98
490.613	278.48
491.046	280.93
491.48	283.68
491.914	284.96
492.348	286.64
492.781	289.76
493.215	291.09
493.648	291.87
494.082	294.95
494.515	295.84
494.948	300.87
495.382	302.91
495.815	306.49
496.248	310.08
496.681	316.77
497.114	323
497.547	328.46
497.98	336.14
498.413	341.48
498.846	347.6
499.279	352.61
499.711	355.22
500.144	358.16
500.577	365.39
501.009	372.16
501.442	379.69
501.874	383.06
502.306	386.18
502.739	394.05
503.171	402.48
503.603	407.07
504.036	414.17
504.468	420.08
504.9	428.3
505.332	434.22
505.764	440.05
506.196	446.07
506.627	456.81
507.059	466.85
507.491	472.27
507.923	476.1
508.354	487.26
508.786	497.26
509.217	511.58
509.649	523.59
510.08	537.4
510.512	551
510.943	563.94
511.374	574.89
511.805	591.03
512.237	606.58
512.668	628.46
513.099	648.84
513.53	668.79
513.961	684.92
514.391	708.52
514.822	734.38
515.253	759.93
515.684	779.82
516.114	802.59
516.545	820.66
516.975	842.32
517.406	858.94
517.836	866.13
518.267	875.79
518.697	893.48
519.127	901.26
519.558	909.88
519.988	916.9
520.418	928.67
520.848	944.18
521.278	954.25
521.708	987.61
522.138	1000.65
522.567	1025.56
522.997	1046.56
523.427	1059.78
523.857	1076.15
524.286	1087.52
524.716	1102.96
525.145	1119.94
525.575	1131.61
526.004	1145.63
526.433	1128.51
526.863	1132.57
527.292	1129.52
527.721	1137.52
528.15	1144.9
528.579	1148.34
529.008	1159.01
529.437	1176.43
529.866	1188.07
530.295	1202.16
530.724	1213.54
531.152	1235.28
531.581	1247.6
532.01	1261.96
532.438	1268.46
532.867	1281.05
533.295	1295.75
533.723	1301.42
534.152	1302.06
534.58	1303.74
535.008	1294.51
535.436	1297.17
535.865	1303.2
536.293	1313.92
536.721	1325.1
537.149	1345.06
537.576	1347.2
538.004	1357.31
538.432	1362.34
538.86	1361.79
539.287	1366.67
539.715	1375.8
540.143	1377.17
540.57	1376.19
540.998	1374.06
541.425	1359.71
541.852	1344.66
542.28	1343.99
542.707	1331.6
543.134	1322.99
543.561	1319.5
543.988	1314.77
544.415	1315
544.842	1312.23
545.269	1306.91
545.696	1308.53
546.123	1317.16
546.549	1310.19
546.976	1301.61
547.403	1302.17
547.829	1303.54
548.256	1306.04
548.682	1303.39
549.108	1299.29
549.535	1298.64
549.961	1300.13
550.387	1290.97
550.813	1288.46
551.24	1293.36
551.666	1294.34
552.092	1287.78
552.518	1284.09
552.943	1280.12
553.369	1285.57
553.795	1288.96
554.221	1289.66
554.646	1287.53
555.072	1294.9
555.498	1297.58
555.923	1303.05
556.349	1312.78
556.774	1317.95
557.199	1317.21
557.625	1319.67
558.05	1314.12
558.475	1320.63
558.9	1319.88
559.325	1311.99
559.75	1306.1
560.175	1299.02
560.6	1292.94
561.025	1289.54
561.449	1287.95
561.874	1289.31
562.299	1290.94
562.723	1293.88
563.148	1284
563.572	1283.27
563.997	1288.06
564.421	1288.51
564.846	1285.62
565.27	1285.81
565.694	1280.8
566.118	1286.02
566.542	1288.7
566.966	1280.41
567.39	1274.66
567.814	1263.98
568.238	1260.06
568.662	1259.69
569.086	1258.12
569.509	1258.99
569.933	1244.31
570.357	1236.06
570.78	1217.72
571.204	1205.89
571.627	1195.09
572.05	1188.85
572.474	1185.97
572.897	1174.07
573.32	1165.98
573.743	1155.41
574.166	1139.77
574.589	1135.99
575.012	1127.23
575.435	1123.64
575.858	1114.4
576.281	1104.69
576.704	1092.13
577.126	1080.63
577.549	1069.73
577.972	1059.6
578.394	1051.12
578.817	1045.99
579.239	1032.53
579.661	1022.42
580.084	1010.38
580.506	1000.36
580.928	996.35
581.35	988.07
581.772	984.27
582.194	975.82
582.616	967.4
583.038	957.41
583.46	947.89
583.882	944.57
584.303	945.54
584.725	941.28
585.147	942.62
585.568	947.34
585.99	953.65
586.411	955.79
586.833	962.54
587.254	962.22
587.675	967.56
588.096	974.04
588.518	969.59
588.939	958.48
589.36	956.57
589.781	946.4
590.202	929.03
590.623	922.76
591.043	919.53
591.464	912.19
591.885	908.41
592.305	905.27
592.726	897.06
593.147	896.71
593.567	892.69
593.987	887.43
594.408	883.41
594.828	879.79
595.248	875.51
595.669	864.51
596.089	859.41
596.509	855.43
596.929	846.38
597.349	846
597.769	838.78
598.189	834.67
598.608	834.17
599.028	835.27
599.448	835.11
599.867	826.39
600.287	822.07
600.706	818.73
601.126	811.85
601.545	810.48
601.965	808.22
602.384	804.92
602.803	804.86
603.222	801.38
603.641	796.3
604.061	793.16
604.48	789.69
604.898	793.49
605.317	794.28
605.736	793.42
606.155	790.55
606.574	784.12
606.992	784.99
607.411	781.35
607.829	774.25
608.248	769.92
608.666	766.72
609.085	764.89
609.503	758.39
609.921	753.87
610.339	754.25
610.758	751.86
611.176	747.28
611.594	740.95
612.012	737.19
612.43	738.12
612.847	739.22
613.265	737.68
613.683	738.43
614.101	737.33
614.518	732.87
614.936	725.41
615.353	715.48
615.771	711.7
616.188	710.4
616.606	706.68
617.023	700.62
617.44	692.62
617.857	687.07
618.274	679.81
618.691	675.8
619.108	669.5
619.525	664.6
619.942	666.5
620.359	667.28
620.776	662.33
621.192	659.51
621.609	657.53
622.026	659.91
622.442	662.37
622.859	663.63
623.275	658.1
623.691	660.73
624.108	665.9
624.524	673.01
624.94	671.91
625.356	676.95
625.772	681.75
626.188	687.71
626.604	688.28
627.02	685.59
627.436	684.58
627.852	688.43
628.268	694.25
628.683	689.31
629.099	685.12
629.514	682.52
629.93	683.64
630.345	686.81
630.761	683.8
631.176	685.01
631.591	682.71
632.007	678.89
632.422	676.35
632.837	668.77
633.252	667.4
633.667	660.93
634.082	655.83
634.497	648.49
634.911	637.17
635.326	633.54
635.741	623.28
636.155	615.38
636.57	615.12
636.984	613.97
637.399	614.07
637.813	611.5
638.228	608.38
638.642	607.8
639.056	600.51
639.47	598.27
639.884	592.37
640.298	587.42
640.712	584.94
641.126	576
641.54	569.14
641.954	562.53
642.368	554.4
642.781	550.52
643.195	539.73
643.609	538.24
644.022	533.54
644.436	529.61
644.849	520.63
645.262	512.04
645.676	510.54
646.089	506.03
646.502	499.73
646.915	494.8
647.328	483.9
647.741	481.62
648.154	474.43
648.567	473
648.98	465.75
649.393	464.87
649.805	463.27
650.218	458.52
650.631	450.15
651.043	445.7
651.456	442.03
651.868	441.22
652.28	447.08
652.693	451.25
653.105	452.07
653.517	455.08
653.929	454.64
654.341	456.27
654.753	450.89
655.165	453.24
655.577	450.94
655.989	448.45
656.401	443.7
656.813	428.38
657.224	418.48
657.636	404.14
658.047	396.35
658.459	386.32
658.87	380.03
659.282	372.88
659.693	363.74
660.104	357.45
660.515	350.74
660.926	350.02
661.338	347
661.749	343.72
662.159	339.91
662.57	336.04
662.981	334.46
663.392	330.48
663.803	332.2
664.213	330.23
664.624	327.2
665.035	327.61
665.445	320.07
665.855	318.64
666.266	316.74
666.676	316
667.086	312.61
667.497	313.07
667.907	312.32
668.317	308.57
668.727	310.65
669.137	310.45
669.547	310.02
669.956	312
670.366	313.62
670.776	314.37
671.186	315.46
671.595	317.99
672.005	318.38
672.414	319.45
672.824	320.76
673.233	321.14
673.642	323.42
674.052	327.55
674.461	329.99
674.87	331.5
675.279	332.45
675.688	334.45
676.097	337.17
676.506	338.66
676.915	345.44
677.323	347.29
677.732	347.71
678.141	348.6
678.549	343.44
678.958	343.86
679.366	344.45
679.775	345.83
680.183	353.32
680.592	355.8
681	359.63
681.408	357.54
681.816	362.36
682.224	366.48
682.632	374.22
683.04	388.91
683.448	400.51
683.856	416.12
684.264	434.12
684.671	446.92
685.079	465.66
685.487	484.71
685.894	513.5
686.302	537.58
686.709	559.27
687.116	581.51
687.524	604.77
687.931	625.86
688.338	643.24
688.745	659.26
689.152	678.17
689.559	704.33
689.966	732.72
690.373	750
690.78	777.05
691.187	815.02
691.593	847.71
692	875.71
692.407	916.82
692.813	968.46
693.22	1011.37
693.626	1057.34
694.032	1098.65
694.439	1153.26
694.845	1200.47
695.251	1256.05
695.657	1308.84
696.063	1383.08
696.469	1442.67
696.875	1499.77
697.281	1538.6
697.687	1584.92
698.093	1626.1
698.498	1689.54
698.904	1743.59
699.31	1816.36
699.715	1877.45
700.12	1956.37
700.526	1986.1
700.931	2050.8
701.337	2104.14
701.742	2146.83
702.147	2222.35
702.552	2262.12
702.957	2321.8
703.362	2353.87
703.767	2392.92
704.172	2438.45
704.577	2421.83
704.981	2471.27
705.386	2499.42
705.791	2507.57
706.195	2577.34
706.6	2599.21
707.004	2674.79
707.408	2664.05
707.813	2698.75
708.217	2702.89
708.621	2717.65
709.025	2804.3
709.43	2818.57
709.834	2879.28
710.237	2949.42
710.641	2949.95
711.045	2981.6
711.449	2989.83
711.853	3030.33
712.256	3075.06
712.66	3116.56
713.064	3189.46
713.467	3237.23
713.87	3341.78
714.274	3391.32
714.677	3493.63
715.08	3639.5
715.484	3790.94
715.887	3972.41
716.29	4147.58
716.693	4335.57
717.096	4550.81
717.499	4674.81
717.901	4709.95
718.304	4743.29
718.707	4774.24
719.109	4699.51
719.512	4686
719.915	4581.6
720.317	4543.53
720.719	4589.6
721.122	4574.5
721.524	4544.33
721.926	4518.96
722.328	4615.19
722.731	4617.47
723.133	4653.48
723.535	4832.09
723.937	4859.87
724.338	4913.73
724.74	4958.3
725.142	4927.18
725.544	4935.8
725.945	4968.47
726.347	4973.11
726.748	4973.37
727.15	4995.91
727.551	4972.1
727.952	4951.29
728.354	4929.21
728.755	4937
729.156	4905.52
729.557	4888.18
729.958	4783.69
730.359	4737
730.76	4726.6
731.161	4678.85
731.562	4659.28
731.962	4666.52
732.363	4615.25
732.763	4562.43
733.164	4599.39
733.564	4544.02
733.965	4461.27
734.365	4436.01
734.766	4466.62
735.166	4433.32
735.566	4388.92
735.966	4369.07
736.366	4366.07
736.766	4311.97
737.166	4343.03
737.566	4309.44
737.966	4287.59
738.365	4325.55
738.765	4322.44
739.165	4256.73
739.564	4235.53
739.964	4275.43
740.363	4236.44
740.763	4236.68
741.162	4230.04
741.561	4203.31
741.96	4161.24
742.36	4180.97
742.759	4187.1
743.158	4222.23
743.557	4234.72
743.955	4273.01
744.354	4235.34
744.753	4287.25
745.152	4249.39
745.55	4299.7
745.949	4295.47
746.348	4298.97
746.746	4313.87
747.144	4282.52
747.543	4264.22
747.941	4308.46
748.339	4243.21
748.737	4236.83
749.136	4232.29
749.534	4292.79
749.932	4269.17
750.33	4293.2
750.727	4344.26
751.125	4326.47
751.523	4311.25
751.921	4351.11
752.318	4323.11
752.716	4379.45
753.113	4392.56
753.511	4414.68
753.908	4417.12
754.305	4400.21
754.703	4455.41
755.1	4512.06
755.497	4565.81
755.894	4738.69
756.291	4902.52
756.688	5202.51
757.085	5601.6
757.482	6164.32
757.878	6778.99
758.275	7330.64
758.672	8097.36
759.068	8719.48
759.465	9602.62
759.861	10749.37
760.258	12081.13
760.654	12764.6
761.05	12664.86
761.447	12087.08
761.843	11255.79
762.239	10393.45
762.635	10008.57
763.031	9635.02
763.427	9097.81
763.822	8533.58
764.218	7968.41
764.614	7240.42
765.01	6752.64
765.405	6441.28
765.801	6203.17
766.196	5893.55
766.592	5723.05
766.987	5435.31
767.382	5238.66
767.778	5156.37
768.173	5039.31
768.568	4975.53
768.963	4860.54
769.358	4878.33
769.753	4831.72
770.148	4754.83
770.542	4758.01
770.937	4727.48
771.332	4810.93
771.726	4832.14
772.121	4774.55
772.515	4824.72
772.91	4811.48
773.304	4875.89
773.699	4818.85
774.093	4869.86
774.487	4921.88
774.881	4958.56
775.275	4955.44
775.669	4916.55
776.063	4955.26
776.457	4988.38
776.851	4917.97
777.245	4911.08
777.638	4943.62
778.032	5045.71
778.425	5012.99
778.819	5053.49
779.212	5015.13
779.606	4982.82
779.999	4998.96
780.392	4983.57
780.786	5058.12
781.179	5076.98
781.572	5117.98
781.965	5127.82
782.358	5075.83
782.751	5129.24
783.143	5080.9
783.536	5149.13
783.929	5187.98
784.322	5297.79
784.714	5327.46
785.107	5325.75
785.499	5391.23
785.891	5368.89
786.284	5353
786.676	5479.09
787.068	5456.73
787.46	5503.55
787.852	5523.75
788.245	5600.25
788.636	5625.67
789.028	5685.85
789.42	5720.77
789.812	5731.07
790.204	5821.34
790.595	5909.04
790.987	5735.06
791.378	5759.38
791.77	5879.57
792.161	6001.16
792.553	6056.58
792.944	5955.79
793.335	5894.19
793.726	5959.59
794.117	6041.01
794.508	6162.57
794.899	6139.98
795.29	6270.06
795.681	6323.61
796.072	6196.25
796.463	6033.1
796.853	6040.86
797.244	6182.88
797.634	6214.02
798.025	6216.24
798.415	6231.38
798.806	6315.81
799.196	6392.47
799.586	6438.13
799.976	6404.26
800.366	6612.01
800.756	6825.67
801.146	6788.35
801.536	6816.5
801.926	6886.81
802.316	6908.64
802.706	6971.93
803.095	6859.06
803.485	6954.17
803.874	6992.72
804.264	7232.06
804.653	7211.86
805.043	7343.63
805.432	7448.34
805.821	7447.08
806.21	7468.29
806.599	7573.83
806.988	7613.34
807.377	7714.03
807.766	7832.84
808.155	8086.76
808.544	7844.4
808.933	7858.3
809.321	7840.3
809.71	8101.38
810.098	8249.52
810.487	8671.4
810.875	9116.48
811.264	9138.17
811.652	9400.98
812.04	9529.56
812.428	9680.89
812.816	10380.23
813.204	10762.2
813.592	11261.62
813.98	11572.62
814.368	11484.42
814.756	11923.26
815.144	11846.97
815.531	12277.7
815.919	12213.07
816.306	12497.31
816.694	12219.64
817.081	12266.35
817.469	12583.96
817.856	12584.17
818.243	12835.31
818.63	13193.96
819.017	12803.05
819.404	12865.45
819.791	13212.99
820.178	13769.21
820.565	13987.82
820.952	14835.45
821.339	14378.07
821.725	14549.87
822.112	13888.45
822.498	13851.26
822.885	13977.76
823.271	13896.36
823.657	14280.01
824.044	14281.17
824.43	14353.66
824.816	14339.47
825.202	13939.89
825.588	14878.66
825.974	14896.41
826.36	15355.16
826.746	15374.54
827.132	15699.63
827.517	15668.64
827.903	14953.24
828.289	14996.81
828.674	14286.31
829.06	14187.31
829.445	14553.6
829.83	14875.84
830.216	15305.46
830.601	15637.07
830.986	15277.26
831.371	15152.63
831.756	15670.46
832.141	15276.72
832.526	15263.31
832.911	15521.75
833.295	15415.48
833.68	15845.2
834.065	15278.96
834.449	14447.41
834.834	14382.48
835.218	14377.82
835.603	14686.24
835.987	14487.76
836.371	15244.63
836.755	15147.88
837.139	15502.82
837.524	15719.97
837.908	15552.4
838.291	15609.57
838.675	15660.66
839.059	15852.21
839.443	15839.06
839.827	15624.9
840.21	16061.98
840.594	15922.55
840.977	16112.2
841.361	16105.43
841.744	16439.79
842.127	16296.89
842.511	16513.1
842.894	17054.97
843.277	17397.13
843.66	17879.2
844.043	17953.9
844.426	17220.25
844.809	16940.6
845.191	16965.05
845.574	16541.19
845.957	16205.63
846.339	16104.94
846.722	15627.12
847.104	15685.49
847.487	15527.23
847.869	15544.55
848.252	15792.9
848.634	16087.76
849.016	16320.1
849.398	16431.4
849.78	17199.06
850.162	17211.76
850.544	17587.74
850.926	18162.9
851.307	18086.23
851.689	18334.5
852.071	18734.49
852.452	19029.55
852.834	19008.74
853.215	19370
853.597	19516.37
853.978	19783.06
854.359	20198.31
854.741	19293.64
855.122	19193.48
855.503	18933.9
855.884	19064.59
856.265	19016.2
856.646	19122.28
857.026	18774.92
857.407	18720.66
857.788	18860.6
858.169	19120.17
858.549	18347.61
858.93	18913.54
859.31	18961
859.69	19149.91
860.071	18769.06
860.451	18568.17
860.831	17896.86
861.211	18943.43
861.591	19428.54
861.971	19404.8
862.351	19578.98
862.731	19922.17
863.111	20168.19
863.491	20475.67
863.87	21273.1
864.25	21590.96
864.629	21232.77
865.009	21692.3
865.388	22468.8
865.768	24087.36
866.147	23990.31
866.526	22669.75
866.905	22957.12
867.284	24245.53
867.663	23016.28
868.042	22061.67
868.421	22002.76
868.8	22375.35
869.179	22612.86
869.558	21287.43
869.936	19624.17
870.315	19976.93
870.693	20458.89
871.072	22054.36
871.45	21008.17
871.828	21280.61
872.207	22365.95
872.585	22028.07
872.963	22620.8
873.341	21830.51
873.719	21579.75
874.097	21317.92
874.475	21729.95
874.853	22230.6
875.23	21302.51
875.608	22195.85
875.986	23997.29
876.363	22952.9
876.741	23654.7
877.118	23065.19
877.495	24202.02
877.873	24598.78
878.25	25884.38
878.627	24823.89
879.004	25163.64
879.381	25040.81
879.758	24382.08
880.135	22710.37
880.512	24007.66
880.889	23366.86
881.265	23129.16
881.642	22930.76
882.019	23311.38
882.395	22840.21
882.772	23740.94
883.148	22714.07
883.524	22629.9
883.901	22498.65
884.277	22829.5
884.653	22680.13
885.029	23326.98
885.405	25826.98
885.781	25625.53
886.157	24580
886.532	24860.93
886.908	24842.6
887.284	27622.16
887.659	28519.34
888.035	29383.71
888.411	30138.2
888.786	30542.87
889.161	31595.2
889.537	30998.17
889.912	31988.72
890.287	31964.12
890.662	32790.83
891.037	32193.95
891.412	30016.01
891.787	29717.52
892.162	28691.58
892.536	29360.71
892.911	28244.69
893.286	27656.61
893.66	26536.69
894.035	27203.23
894.409	29603.79
894.784	28416.42
895.158	28873.48
895.532	30574.42
895.906	31397.71
896.281	32127.98
896.655	31605.28
897.029	36117.88
897.402	37596.63
897.776	41858.99
898.15	41724.05
898.524	41258.62
898.898	41795.65
899.271	46795.97
899.645	40530.97
900.018	38946.55
900.392	40376.29
900.765	40703.95
901.138	37667.5
901.511	37093.39
901.884	34046.43
902.258	31405.34
902.631	32454.84
903.003	37357.75
903.376	33724.63
903.749	37809.28
904.122	40443.14
904.495	44556.74
904.867	45132.45
905.24	39181.46
905.612	36471.6
905.985	37302.91
906.357	38997.42
906.729	37223.85
907.102	31796.38
907.474	30567.48
907.846	30771.17
908.218	30376.06
908.59	26834.03
908.962	25940.51
909.334	27936.76
909.705	29348.93
910.077	28494.26
910.449	29658.25
910.82	30493.77
911.192	33559.59
911.563	34876.79
911.935	37324.11
912.306	37344.38
912.677	38546.67
913.048	38163.5
913.419	41408.65
913.79	41642.08
914.161	44655.58
914.532	42681.19
914.903	39229.54
915.274	37253.39
915.645	36715.09
916.015	32316.89
916.386	30852.04
916.756	32866.36
917.127	33906.85
917.497	30284.47
917.868	32960.28
918.238	31324.9
918.608	32220.39
918.978	32895.1
919.348	34838.85
919.718	36009.74
920.088	34679.2
920.458	36017.93
920.828	37879.07
921.198	35929.43
921.567	38410.48
921.937	29780.86
922.306	30085.5
922.676	32464.68
923.045	27065.75
923.415	25713.24
923.784	23417.01
924.153	24085.9
924.522	24061.3
924.891	22626.03
925.26	24220.95
925.629	23639.66
925.998	27153.85
926.367	26484.15
926.736	25220.61
927.104	30046.74
927.473	32304.56
927.842	39000.56
928.21	38626.16
928.578	40588.59
928.947	38379.99
929.315	38629.45
929.683	45324.03
930.051	45693.58
930.42	53070.07
930.788	45368.25
931.156	45043.27
931.523	42234.15
931.891	39016.83
932.259	37463.01
932.627	43413.9
932.994	61433.96
933.362	50779.02
933.729	44073.38
934.097	42163.17
934.464	35668.52
934.831	41144.94
935.199	40549.76
935.566	39320.77
935.933	39917.27
936.3	48377.85
936.667	37698.84
937.034	33993.95
937.401	33633.28
937.767	29048.66
938.134	25880.64
938.501	36526.22
938.867	38939.32
939.234	65877.29
939.6	56183.23
939.967	61752.21
940.333	41306.14
940.699	35140.61
941.065	28217.34
941.431	37007.71
941.798	35675.6
942.163	46845.36
942.529	29295.3
942.895	26983.16
943.261	17456.28
943.627	22920.81
943.992	20119.75
944.358	20170.81
944.723	20248.47
945.089	19765.57
945.454	18271.62
945.82	19521.65
946.185	18773.16
946.55	21738.87
946.915	19514.56
947.28	22872.28
947.645	20164.66
948.01	18602.81
948.375	19388.32
948.74	23275.74
949.104	27154.99
949.469	39195.24
949.834	69267.12
950.198	65714.02
950.562	39385.84
950.927	32778.07
951.291	39454.85
951.655	33585.06
952.02	31503.22
952.384	23830.24
952.748	20716.41
953.112	20174.35
953.476	17556.84
953.839	16227.34
954.203	16050.54
954.567	20054.53
954.931	31577.63
955.294	27000.91
955.658	27128.53
956.021	46142.71
956.385	78167.38
956.748	115299.56
957.111	178796.67
957.474	200421.79
957.837	225717.01
958.2	170825.57
958.563	61506.31
958.926	41580.59
959.289	63094.98
959.652	70486.12
960.015	52892.53
960.377	75951.21
960.74	86660.28
961.102	149588.83
961.465	160689.47
961.827	86126.76
962.189	165177.62
962.552	114529.58
962.914	91872.22
963.276	59618.82
963.638	49272.88
964	48787.14
964.362	32972.14
964.724	31893.17
965.085	22763.8
965.447	18668.32
965.809	21227.05
966.17	21268.75
966.532	23017.18
966.893	21114.43
967.255	19216.25
967.616	22705.52
967.977	18171.45
968.338	19843.16
968.699	16288.65
969.061	16263.95
969.421	16362.85
969.782	18396.52
970.143	15521.91
970.504	16070.43
970.865	18249.72
971.225	18646.73
971.586	18213.29
971.946	25960.46
972.307	22535.35
972.667	29475.72
973.027	30357.27
973.388	36749.24
973.748	24972.97
974.108	27180.5
974.468	36758.84
974.828	28359.7
975.188	21849.78
975.548	20087.36
975.907	16874.82
976.267	18921.34
976.627	15918.07
976.986	16487.1
977.346	15753.95
977.705	15153.64
978.064	13800.4
978.424	11482.25
978.783	11866.7
979.142	13532.79
979.501	12944.46
979.86	13685.89
980.219	13193.66
980.578	17003.7
980.937	19079.78
981.296	16998.93
981.654	17481.37
982.013	27218.92
982.371	35350.21
982.73	33022
983.088	37373.98
983.447	39911.51
983.805	56974.31
984.163	118913.14
984.521	131859.36
984.879	193232.17
985.237	-314196.27
985.595	303185.27
985.953	75370.64
986.311	43488.84
986.669	25249.82
987.026	21815.51
987.384	29338.54
987.741	30395.8
988.099	21751.65
988.456	17340.74
988.814	16235.4
989.171	14099.64
989.528	13914.9
989.885	14673.23
990.242	11621.31
990.599	14471.86
990.956	11839.65
991.313	8295.6
991.67	6793.02
992.027	7196.93
992.383	6396.89
992.74	5610.62
993.096	5889.38
993.453	6097.2
993.809	6333.99
994.165	8443.41
994.522	7745.48
994.878	8540.96
995.234	10695.57
995.59	10575.28
995.946	10005.32
996.302	11420.45
996.658	13187.42
997.013	14527.13
997.369	17228.58
997.725	22010.52
998.08	14259.86
998.436	21955.88
998.791	30233.57
999.147	30234.27
999.502	32934.21
999.857	23919.39
1000.212	38981.29
1000.567	55491.15
1000.922	32009.77
1001.277	20357.04
1001.632	15107.28
1001.987	19438.02
1002.342	13973.47
1002.696	11174.99
1003.051	8906.14
1003.406	10776.43
1003.76	10725.22
1004.114	10565.2
1004.469	8910.64
1004.823	7374.27
1005.177	7942.39
1005.531	6303.3
1005.885	5576.81
1006.239	6293.8
1006.593	7909.21
1006.947	10601.03
1007.301	7963.18
1007.655	8687.17
1008.008	6368.31
1008.362	7121.91
1008.715	10187.54
1009.069	9266.74
1009.422	13983.49
1009.776	28117.56
1010.129	18646.84
1010.482	15546.18
1010.835	13104.1
1011.188	27323
1011.541	25726.73
1011.894	-157705.83
1012.247	467150.68
1012.6	31713.12
1012.952	20029.72
1013.305	10272.28
1013.657	7406.27
1014.01	7007.99
1014.362	5792.91
1014.715	5161.33
1015.067	4492.98
1015.419	4400.38
1015.771	3909.85
1016.123	3466.77
1016.475	3575.45
1016.827	3809.95
1017.179	4110.32
1017.531	4133.97
1017.883	4224.85
1018.234	4085.27
1018.586	5154.94
1018.938	5456.55
1019.289	7532.68
1019.64	8604.6
1019.992	7989.61
1020.343	7312.67
1020.694	5800.44
1021.045	5123.01
1021.396	5883.46
1021.747	6312.52
1022.098	7581.32
1022.449	5476.22
1022.8	5113.89
1023.151	3560.11
1023.501	3144.26
1023.852	3437.58
1024.202	3556.75
1024.553	3880.74
1024.903	3798.54
1025.253	3238.24
1025.604	2919.33
1025.954	3598.28
1026.304	4406.09
1026.654	5107.54
1027.004	7515.91
1027.354	12184.91
1027.703	11481.41
1028.053	15072.26
1028.403	22233.75
1028.753	32082.8
1029.102	43670.96
1029.452	223835.12
1029.801	9701.04
1030.15	6273.46
1030.499	5312.24
897.758	2670.55
901.051	2623.69
904.343	2657.38
907.636	2659.39
910.928	2723.66
914.22	2633.12
917.511	2640.05
920.803	2701.58
924.094	2718.99
927.384	2699.81
930.675	2664.13
933.965	2616.74
937.255	2626.97
940.544	2594.22
943.834	2534.81
947.123	2477.94
950.411	2574.64
953.7	2547.38
956.988	2518.15
960.276	2458.23
963.563	2534.46
966.851	2531.18
970.138	2590
973.424	2585.97
976.711	2536.63
979.997	2665.01
983.283	2701.9
986.568	2606.52
989.853	2620.55
993.138	2644.6
996.423	2730.63
999.708	2671.06
1002.992	2733.59
1006.275	2569.45
1009.559	2610.28
1012.842	2725.09
1016.125	2658.05
1019.408	2637.29
1022.69	2723.46
1025.972	2742.64
1029.254	2721.03
1032.536	2652.07
1035.817	2679.86
1039.098	2623.61
1042.379	2763.75
1045.659	2764.47
1048.939	2697.8
1052.219	2719.37
1055.498	2727.64
1058.778	2716.07
1062.057	2699.55
1065.335	2719.04
1068.614	2736.97
1071.892	2718.38
1075.17	2793.93
1078.447	2786.1
1081.724	2777.39
1085.001	2812.13
1088.278	2784.43
1091.554	2798.66
1094.83	2792.08
1098.106	2820.96
1101.382	2866.02
1104.657	2867.8
1107.932	2862.72
1111.206	2825.32
1114.481	2781.99
1117.755	2783.91
1121.029	2763.89
1124.302	2821.1
1127.575	2771.73
1130.848	2758.46
1134.121	2720.36
1137.393	2670.05
1140.665	2737.35
1143.937	2713.16
1147.208	2672.83
1150.48	2713.21
1153.75	2699.61
1157.021	2731.61
1160.291	2699.12
1163.561	2743.61
1166.831	2733.84
1170.101	2765.58
1173.37	2737.46
1176.639	2681.05
1179.907	2739.07
1183.176	2746.59
1186.444	2754.84
1189.711	2784.46
1192.979	2795.91
1196.246	2753.57
1199.513	2771.67
1202.78	2771.51
1206.046	2781.51
1209.312	2805.16
1212.578	2832.19
1215.843	2786.11
1219.108	2760.31
1222.373	2782.56
1225.638	2745.09
1228.902	2728.88
1232.166	2690.22
1235.43	2677.51
1238.693	2697.73
1241.956	2694.01
1245.219	2738.24
1248.482	2727.63
1251.744	2723.6
1255.006	2871.72
1258.268	2824.85
1261.529	2767.79
1264.79	2773.47
1268.051	2878.75
1271.312	2893.99
1274.572	2856.86
1277.832	2844.9
1281.092	2833.92
1284.351	2808.38
1287.61	2785.51
1290.869	2701.52
1294.128	2679.65
1297.386	2768.88
1300.644	2758.64
1303.902	2774.55
1307.159	2626.31
1310.416	2682.8
1313.673	2710.79
1316.93	2697.72
1320.186	2742.23
1323.442	2784.76
1326.697	2773.57
1329.953	2766.22
1333.208	2792.2
1336.463	2770.04
1339.717	2707.32
1342.972	2844.42
1346.226	2820.62
1349.479	2752.23
1352.733	2723.4
1355.986	2745.12
1359.238	2722.57
1362.491	2725.14
1365.743	2726.56
1368.995	2718.33
1372.247	2734.71
1375.498	2758.61
1378.749	2775.89
1382	2730.46
1385.251	2784.36
1388.501	2742.58
1391.751	2726.7
1395	2700.47
1398.25	2733.64
1401.499	2739.58
1404.748	2668.47
1407.996	2657.5
1411.244	2644.22
1414.492	2626.57
1417.74	2603.48
1420.987	2614.41
1424.234	2674.85
1427.481	2652.45
1430.728	2710.05
1433.974	2685.1
1437.22	2699.5
1440.465	2701.29
1443.711	2665.28
1446.956	2701.76
1450.201	2685.68
1453.445	2731.88
1456.689	2708.76
1459.933	2720.28
1463.177	2756.95
1466.42	2725.96
1469.663	2707.38
1472.906	2704.26
1476.148	2776.24
1479.391	2740.72
1482.633	2706.52
1485.874	2720.46
1489.115	2708.71
1492.356	2712.64
1495.597	2687.27
1498.838	2686.13
1502.078	2657.81
1505.318	2605.89
1508.557	2649
1511.797	2627.63
1515.036	2694.87
1518.274	2681.26
1521.513	2654.3
1524.751	2675.18
1527.989	2687.32
1531.227	2700.42
1534.464	2698.87
1537.701	2717
1540.938	2735.72
1544.174	2686.6
1547.41	2684.17
1550.646	2722.41
1553.882	2765.11
1557.117	2814.96
1560.352	2831.37
1563.587	2789.68
1566.821	2751.52
1570.055	2781.33
1573.289	2753.27
1576.523	2828.45
1579.756	2835.56
1582.989	2854.09
1586.222	2815.51
1589.454	2851.43
1592.686	2823.47
1595.918	2848.94
1599.15	2837.35
1602.381	2909.38
1605.612	2867.43
1608.843	2963.77
1612.073	2878.97
1615.303	2861.33
1618.533	2853.69
1621.762	2857.5
1624.992	2842.62
1628.221	2831.84
1631.449	2813.77
1634.678	2870.15
1637.906	2823.03
1641.134	2863.87
1644.361	2819.54
1647.588	2806.68
1650.815	2825.78
1654.042	2802.07
1657.269	2832.33
1660.495	2786.11
1663.72	2807.83
1666.946	2774.86
1670.171	2718.21
1673.396	2695.5
1676.621	2682.98
1679.845	2699.63
1683.069	2719.29
1686.293	2762.52
1689.517	2734.35
1692.74	2664.53
1695.963	2695.43
1699.185	2711.23
1702.408	2684.84
1705.63	2727.12
1708.852	2738.42
1712.073	2708.74
1715.294	2698.27
1718.515	2759.35
1721.736	2705.06
1724.956	2699.43
1728.176	2724.9
1731.396	2747.63
1734.616	2733.29
1737.835	2761.6
1741.054	2744.07
1744.272	2735.95
1747.491	2769.07
1750.709	2821.48
1753.927	2727.01
1757.144	2771
1760.361	2815.76
1763.578	2804.43
1766.795	2745.89
1770.011	2754.75
1773.227	2794.48
1776.443	2826.59
1779.658	2875.8
1782.874	2814.79
1786.089	2793.71
1789.303	2797.6
1792.518	2801.26
1795.732	2787.81
1798.945	2803.32
1802.159	2851.36
1805.372	2754.65
1808.585	2739.96
1811.797	2741.01
1815.01	2786.73
1818.222	2792.29
1821.434	2768.73
1824.645	2824.7
1827.856	2814.82
1831.067	2849.42
1834.278	2802.81
1837.488	2788.69
1840.698	2938.72
1843.908	2862.97
1847.117	2825.41
1850.326	2712.17
1853.535	2813.04
1856.744	2834.97
1859.952	2750.95
1863.16	2751.76
1866.368	2776.55
1869.575	2878.77
1872.782	2762.67
1875.989	2699.45
1879.196	2785.8
1882.402	2778.22
1885.608	2819.56
1888.814	2725.15
1892.019	2617.94
1895.224	2670.91
1898.429	2648.68
1901.634	2626.18
1904.838	2605.33
1908.042	2655.66
1911.246	2664.81
1914.449	2594.93
1917.652	2592.33
1920.855	2574.97
1924.058	2621.34
1927.26	2659.54
1930.462	2687.8
1933.664	2717.72
1936.865	2654.23
1940.066	2663.34
1943.267	2607.24
1946.467	2623.54
1949.668	2650.62
1952.868	2720.02
1956.067	2696.35
1959.267	2630.55
1962.466	2659.05
1965.665	2641.89
1968.863	2636.24
1972.061	2649.79
1975.259	2648.37
1978.457	2729.58
1981.654	2687.93
1984.852	2686.47
1988.048	2619.14
1991.245	2623.32
1994.441	2707.64
1997.637	2690.93
2000.833	2675.48
2004.028	2712.95
2007.223	2772.28
2010.418	2747.75
2013.613	2710
2016.807	2678.99
2020.001	2689.76
2023.194	2730.3
2026.388	2706.24
2029.581	2651.44
2032.774	2703.86
2035.966	2705.86
2039.158	2640.68
2042.35	2664.63
2045.542	2592.22
2048.733	2689.28
2051.924	2710.77
2055.115	2738.55
2058.306	2684.03
2061.496	2743.18
2064.686	2806.51
2067.875	2717.62
2071.065	2733.65
2074.254	2760.14
2077.442	2712.3
2080.631	2803.37
2083.819	2697.5
2087.007	2681.46
2090.195	2650.06
2093.382	2682.87
2096.569	2662.94
2099.756	2616.68
2102.942	2643.98
2106.128	2651.54
2109.314	2642.69
2112.5	2605.47
2115.685	2578.74
2118.87	2590.28
2122.055	2652.5
2125.239	2620.72
2128.424	2596.11
2131.608	2697.72
2134.791	2679.23
2137.974	2736.11
2141.157	2719.51
2144.34	2672.19
2147.523	2687.9
2150.705	2704.2
2153.887	2681.88
2157.068	2634.46
2160.25	2633.93
2163.431	2673.77
2166.611	2618.13
2169.792	2637.94
2172.972	2530.2
2176.152	2607.89
2179.331	2644.04
2182.511	2625.09
2185.69	2654.37
2188.868	2651.8
2192.047	2704.69
2195.225	2696.85
2198.403	2643.63
2201.58	2638.09
2204.758	2630.18
2207.935	2715.73
2211.111	2607.56
2214.288	2590.91
2217.464	2631.88
2220.64	2600.43
2223.815	2654.19
2226.991	2576.93
2230.166	2596.51
2233.34	2628.39
2236.515	2653.4
2239.689	2728.18
2242.863	2668.85
2246.036	2724.07
2249.209	2722.99
2252.382	2757.56
2255.555	2746.6
2258.727	2683.05
2261.9	2725.19
2265.071	2716.15
2268.243	2717.24
2271.414	2645.93
2274.585	2610.2
2277.756	2679.91
2280.926	2637.18
2284.096	2675.16
2287.266	2581.8
2290.436	2637.06
2293.605	2665.5
2296.774	2696.38
2299.942	2717.58
2303.111	2734.69
2306.279	2787.64
2309.447	2773.98
2312.614	2747.98
2315.781	2764.46
2318.948	2735.44
2322.115	2774.2
2325.281	2676.04
2328.447	2696.82
2331.613	2669.21
2334.779	2642.44
2337.944	2645.29
2341.109	2644.98
2344.274	2624.94
2347.438	2589.94
2350.602	2614.69
2353.766	2633.61
2356.929	2619.53
2360.092	2660.91
2363.255	2613.43
2366.418	2548.47
2369.58	2663.3
2372.742	2449.23
2375.904	2461.63
2379.066	2438.14
2382.227	2476.6
2385.388	2437.23
2388.548	2362.39
2391.709	2419.09
2394.869	2399.99
2398.029	2495.28
2401.188	2505.63
2404.347	2438.92
2407.506	2582.04
2410.665	2612.59
2413.823	2616.54
2416.981	2572.35
2420.139	2604.48
2423.296	2653.04
2426.453	2626.15
2429.61	2648.99
2432.767	2586.27
2435.923	2628.08
2439.079	2588.15
2442.235	2635.08
2445.391	2560.83
2448.546	2593.87
2451.701	2642.83
2454.855	2619.28
2458.009	2669.75
2461.163	2668.21
2464.317	2628.86
2467.471	2662.5
2470.624	2701.32
2473.777	2673.58
2476.929	2687.55
2480.082	2711.81
2483.234	2675.38
2486.385	2627.1
2489.537	2619.03
2492.688	2581.88
2495.839	2604.02
2498.989	2615.43
2502.14	2597.98
2505.29	2576.62
2508.439	2606.83
2511.589	2531.8
2514.738	2541.3
2517.887	2571.95
2521.035	2640.75
2524.183	2620.55
2527.331	2601.72
2530.479	2573.05
2533.627	2582.63
