Data from C_3_HIR_IL_4N_Splice17_13-39-46-234.txt Node
Date: Sat Mar 14 13:39:46 EDT 2020
User: sa697716
Spectrometer: FLMS03696
Trigger mode: 0
Integration Time (sec): 3.180400E-1
Scans to average: 20
Electric dark correction enabled: true
Nonlinearity correction enabled: true
Boxcar width: 5
XAxis mode: Wavelengths
Number of Pixels in Spectrum: 2048
>>>>>Begin Spectral Data<<<<<
187.83	-462386.98
188.298	3456.32
188.766	1867.2
189.233	1683.33
189.701	2356.91
190.169	3241.64
190.636	1214.18
191.104	988.23
191.571	179.58
192.039	-96
192.506	-116.34
192.974	479.64
193.441	-570.87
193.908	45.54
194.375	21.72
194.842	80.47
195.31	160
195.777	198.83
196.244	345.82
196.711	240.97
197.177	224.7
197.644	229.57
198.111	395.2
198.578	538.07
199.045	397.33
199.511	627.1
199.978	656.42
200.445	628
200.911	646.42
201.378	655.02
201.844	651.36
202.31	1078.45
202.777	1113.46
203.243	594.43
203.709	547.11
204.176	676.57
204.642	548.82
205.108	525.3
205.574	377.26
206.04	298.04
206.506	287.68
206.972	207.15
207.438	204.04
207.903	218.07
208.369	216.8
208.835	234.87
209.301	259.28
209.766	247.93
210.232	244.82
210.697	292.97
211.163	355.91
211.628	500.87
212.094	499.44
212.559	758.14
213.024	521.82
213.49	675.14
213.955	648.24
214.42	585.97
214.885	563.64
215.35	581.02
215.815	699.58
216.28	786.06
216.745	642.04
217.21	728.5
217.675	628.94
218.14	728.35
218.604	798.23
219.069	949.31
219.534	1097.19
219.998	1290.19
220.463	1590.39
220.927	1886.9
221.392	1810.89
221.856	1910.05
222.32	2403.2
222.785	3036.59
223.249	3870.99
223.713	4398.11
224.177	4464.21
224.642	5646.46
225.106	6981.24
225.57	7693.44
226.034	5857.02
226.497	9009.08
226.961	8209.5
227.425	9709.2
227.889	10794.81
228.353	10824.36
228.816	22473.66
229.28	21689.09
229.744	18404.42
230.207	11341.21
230.671	11235.16
231.134	18491.45
231.597	21479.66
232.061	21442.47
232.524	20888.44
232.987	14441.42
233.45	13108.37
233.914	11790.82
234.377	12053.85
234.84	11051.34
235.303	13017.15
235.766	14543.71
236.229	15027.73
236.691	9445.38
237.154	10609.57
237.617	8013.33
238.08	8206.23
238.542	9583.19
239.005	6873.86
239.468	6833.93
239.93	6463.98
240.393	5882.09
240.855	5173.54
241.317	5304.28
241.78	6443.48
242.242	6712.73
242.704	7312.39
243.166	6397.76
243.629	5866.74
244.091	6767.28
244.553	7447.56
245.015	8038.62
245.477	10428.49
245.939	15298.94
246.4	16333.47
246.862	15916.9
247.324	15040.9
247.786	16789.44
248.247	22042.73
248.709	22646.88
249.17	17002.04
249.632	16139.78
250.093	18873.63
250.555	16377.14
251.016	10052.39
251.477	9579.38
251.939	10399.58
252.4	10924.05
252.861	12991.51
253.322	12139.72
253.783	14496.18
254.244	18864.09
254.705	14880.19
255.166	13179.97
255.627	12984.48
256.088	18380.51
256.549	19519.38
257.009	16807.71
257.47	20405.34
257.931	16655.94
258.391	12518.5
258.852	12939.91
259.312	13560.08
259.773	16771.05
260.233	14282.94
260.694	12123.39
261.154	13758.84
261.614	11139.34
262.074	9998.57
262.534	10448.16
262.994	9900.5
263.455	13192.67
263.915	11151.25
264.374	10540.35
264.834	11530.14
265.294	12772.69
265.754	13246.04
266.214	12553.2
266.673	11769.76
267.133	14888.92
267.593	14772.37
268.052	18141.64
268.512	15820.91
268.971	19199.99
269.431	21106
269.89	18975.09
270.349	28545.92
270.809	31940.6
271.268	28804.33
271.727	64554.23
272.186	41812.07
272.645	31442.37
273.104	22637.9
273.563	32857.08
274.022	25797.94
274.481	22058.21
274.94	17034.92
275.399	12683.62
275.857	14778.38
276.316	20025.35
276.775	17877.51
277.233	17681.74
277.692	16639.4
278.15	18897.14
278.609	19545.39
279.067	18135.11
279.525	16886.41
279.984	21824.61
280.442	26248.79
280.9	26020.21
281.358	17153.54
281.816	16044.64
282.274	15717.08
282.732	16202.83
283.19	16309.27
283.648	14059.51
284.106	14953.6
284.564	15199.53
285.021	14120.62
285.479	10540.24
285.937	9554.23
286.394	8401.71
286.852	8646.21
287.309	9119.95
287.767	8874.26
288.224	8470.68
288.682	9327.95
289.139	10315.49
289.596	9475.59
290.053	9886.33
290.511	12514.15
290.968	15262.75
291.425	20776.49
291.882	17426.64
292.339	15214.65
292.796	15108.35
293.252	14277.41
293.709	11429.78
294.166	10263.89
294.623	11372.96
295.079	10937.29
295.536	11028.39
295.992	10038.44
296.449	9970.72
296.905	10373.84
297.362	10004.9
297.818	10540.45
298.274	10964.15
298.731	11143.42
299.187	11042.89
299.643	11862.42
300.099	14350.39
300.555	15761.61
301.011	13160.88
301.467	12734.11
301.923	14863
302.379	14492.46
302.835	14254.39
303.291	14284.62
303.746	16254.14
304.202	20582.12
304.658	20651.12
305.113	13908.75
305.569	13637.07
306.024	14543.52
306.479	13788.3
306.935	11644.66
307.39	12689.85
307.845	11716.15
308.301	11781.02
308.756	11455.5
309.211	11019.71
309.666	11295.93
310.121	14042.92
310.576	14202.88
311.031	14073.81
311.486	16081.72
311.94	16004.33
312.395	21402.04
312.85	40194.49
313.305	196845.22
313.759	1024776.2
314.214	74052.79
314.668	58762.1
315.123	49438.28
315.577	17763.04
316.032	15806.18
316.486	19839.25
316.94	15741.56
317.394	11015.2
317.849	8553.2
318.303	8097.85
318.757	7655.63
319.211	8492
319.665	7430.63
320.119	7522.1
320.572	10786.82
321.026	10106.68
321.48	8417.91
321.934	9151.92
322.387	9159.02
322.841	9920.65
323.295	8986.63
323.748	10294.72
324.202	10439.35
324.655	12573.12
325.108	17624.95
325.562	12464.93
326.015	14821.61
326.468	11198.25
326.921	12536.05
327.374	11705.02
327.827	12227.49
328.28	13807.19
328.733	9274.61
329.186	8174.47
329.639	7762.22
330.092	6526.4
330.545	6217.49
330.997	6274.98
331.45	6869.79
331.903	8073.51
332.355	13829.32
332.808	13371.91
333.26	11002.21
333.713	11954.02
334.165	12022.59
334.617	16040.19
335.069	12883.4
335.522	23194.69
335.974	25656.18
336.426	23422.97
336.878	16086.02
337.33	8164.69
337.782	7988.24
338.234	10057.97
338.686	11977.14
339.137	14154.18
339.589	13367.11
340.041	10513.42
340.493	9051.55
340.944	9262.42
341.396	9981.71
341.847	8478.84
342.299	10079.17
342.75	12343.18
343.201	10767.3
343.653	12407.62
344.104	15273.4
344.555	12045.67
345.006	18792.1
345.457	14558.65
345.908	11570.23
346.359	10937.46
346.81	8904.55
347.261	9362.95
347.712	9199.28
348.163	9849.78
348.613	10044.21
349.064	9399.12
349.515	8235.14
349.965	8452.12
350.416	10136.88
350.866	11142.45
351.317	12567.7
351.767	20777.94
352.217	26252.17
352.668	21854.65
353.118	20055.85
353.568	19259.46
354.018	15262.34
354.468	16091.17
354.918	11560.58
355.368	10094.91
355.818	14289.06
356.268	41080.98
356.718	173173.62
357.168	43248.99
357.617	21650.52
358.067	24027.03
358.517	22491.4
358.966	26415.47
359.416	29737.59
359.865	32034.25
360.315	38194.31
360.764	17874.81
361.213	10052.57
361.663	9479.9
362.112	11677.61
362.561	18905.91
363.01	14285.67
363.459	12045.57
363.908	13020.13
364.357	11107.1
364.806	18784.34
365.255	12876.96
365.703	11826.96
366.152	11830.12
366.601	9612.61
367.05	7828.37
367.498	7130.22
367.947	7443.35
368.395	7737.92
368.844	6864.62
369.292	8205.74
369.74	5689.94
370.189	8733.57
370.637	10176.97
371.085	8765.18
371.533	10660.42
371.981	10235.15
372.429	9783.35
372.877	10212.38
373.325	8557.09
373.773	8698.04
374.221	7709.85
374.669	9512.58
375.116	8205.04
375.564	8283.43
376.012	9259.11
376.459	7626.09
376.907	9101.95
377.354	10940.97
377.801	10224.93
378.249	11745.47
378.696	14957.83
379.143	18171.92
379.591	19350.53
380.038	32752.21
380.485	23638.13
380.932	25507.72
381.379	23400.91
381.826	17263.92
382.273	12240.9
382.72	10630.31
383.166	10347.89
383.613	6715.86
384.06	6042.68
384.506	6992
384.953	5110.05
385.4	5124.79
385.846	4468.55
386.292	4325.92
386.739	4201.99
387.185	4133.44
387.631	4118.68
388.078	3998.64
388.524	4254.48
388.97	3911.14
389.416	3265.74
389.862	3474.99
390.308	3277.43
390.754	3315.39
391.2	3566.79
391.645	3640.18
392.091	3501.34
392.537	3376.34
392.983	3347.97
393.428	3311.7
393.874	3531.96
394.319	3538.17
394.765	3352.02
395.21	3430.97
395.655	3209.29
396.101	3004.18
396.546	2698.83
396.991	2686.18
397.436	2490.85
397.881	2396.95
398.326	2229.95
398.771	2116.4
399.216	1829.8
399.661	1631.93
400.106	1625.93
400.551	1664.47
400.995	1483.38
401.44	1457.73
401.885	1368.1
402.329	1369.94
402.774	1309.79
403.218	1287.11
403.663	1230.49
404.107	1264.9
404.551	1274.34
404.995	1158.35
405.44	1108.92
405.884	1119.88
406.328	1080.61
406.772	1073.36
407.216	977.48
407.66	938.45
408.104	872.7
408.547	813.04
408.991	780.66
409.435	746.51
409.879	736.91
410.322	722.36
410.766	701.16
411.209	669.22
411.653	639.39
412.096	629.56
412.54	626.5
412.983	623.69
413.426	628.55
413.869	624.07
414.312	612.68
414.756	587.94
415.199	558.74
415.642	541.2
416.085	537.46
416.527	530.62
416.97	532.28
417.413	506.11
417.856	498.46
418.298	489.66
418.741	484.88
419.184	479.32
419.626	492.91
420.069	493.1
420.511	495.8
420.953	486.56
421.396	485.71
421.838	471.05
422.28	481.23
422.722	485.57
423.164	488.29
423.606	479.81
424.048	475.73
424.49	454.47
424.932	448.82
425.374	437.55
425.816	441.97
426.258	447.42
426.699	453
427.141	449.76
427.582	452
428.024	449.03
428.465	441.8
428.907	433.28
429.348	427.84
429.789	430.02
430.231	425.37
430.672	432.59
431.113	421.49
431.554	415.02
431.995	399.37
432.436	389.79
432.877	382.54
433.318	382.54
433.759	376.46
434.2	374.81
434.64	369.58
435.081	368.06
435.522	347.38
435.962	331.95
436.403	325.99
436.843	328.9
437.284	315.15
437.724	301.51
438.164	293.8
438.604	287.02
439.045	277.18
439.485	267.67
439.925	260.25
440.365	249.73
440.805	246.1
441.245	243.84
441.685	235.04
442.125	232.09
442.564	234.13
443.004	230.71
443.444	230.6
443.883	230.5
444.323	222.22
444.762	215.53
445.202	218.49
445.641	223.83
446.081	216.22
446.52	217.05
446.959	215.52
447.398	209.61
447.837	205.35
448.276	199.29
448.716	199.21
449.154	200.41
449.593	200.35
450.032	199.57
450.471	191.65
450.91	190.84
451.349	191.43
451.787	188.44
452.226	190.79
452.664	190.82
453.103	191.12
453.541	189.19
453.98	192.46
454.418	192.67
454.856	191.85
455.295	192.04
455.733	195.74
456.171	195
456.609	196.75
457.047	195.87
457.485	201.05
457.923	203.39
458.361	201.34
458.798	200.75
459.236	200.2
459.674	198.57
460.111	199.41
460.549	196.61
460.987	194.73
461.424	192.96
461.862	192.6
462.299	189.24
462.736	189.09
463.173	188.46
463.611	191.3
464.048	191.57
464.485	193.99
464.922	191.81
465.359	190.29
465.796	200.13
466.233	200.33
466.67	201.33
467.106	201
467.543	197.57
467.98	194.43
468.416	184.77
468.853	180.99
469.29	173.4
469.726	171.02
470.162	165.33
470.599	152.61
471.035	148.56
471.471	143.68
471.907	140.95
472.344	138.81
472.78	140.13
473.216	139.37
473.652	138.33
474.088	138.35
474.523	139.24
474.959	140.88
475.395	139.58
475.831	140.04
476.266	140.41
476.702	139.42
477.138	138.35
477.573	137.97
478.008	139.19
478.444	142
478.879	145.31
479.314	146.48
479.75	147.24
480.185	147.26
480.62	147.4
481.055	147.69
481.49	149.69
481.925	152.6
482.36	158.01
482.795	161.19
483.229	162.99
483.664	165.51
484.099	164.66
484.534	167.15
484.968	169.75
485.403	170.56
485.837	168.79
486.271	167.52
486.706	166.54
487.14	160.96
487.574	158.54
488.009	156.47
488.443	153.6
488.877	156.7
489.311	155.47
489.745	156.57
490.179	157.51
490.613	163.18
491.046	163.3
491.48	163.94
491.914	164.14
492.348	164.3
492.781	164.83
493.215	164.43
493.648	161.32
494.082	161.12
494.515	160.14
494.948	161.46
495.382	158.31
495.815	157.97
496.248	157.36
496.681	157.93
497.114	157.79
497.547	158.31
497.98	161.37
498.413	162.93
498.846	163.78
499.279	162.56
499.711	160.01
500.144	158.34
500.577	160.02
501.009	160.05
501.442	161.13
501.874	160.37
502.306	158.15
502.739	159.96
503.171	159.27
503.603	157.74
504.036	157.34
504.468	156.37
504.9	155.89
505.332	153.12
505.764	151.9
506.196	150.05
506.627	149.07
507.059	148.94
507.491	142.27
507.923	139.43
508.354	139.45
508.786	138.02
509.217	138.25
509.649	138.71
510.08	138.43
510.512	139.38
510.943	138.38
511.374	137.18
511.805	136.58
512.237	136.68
512.668	137.37
513.099	136.61
513.53	137.12
513.961	137.23
514.391	136.92
514.822	140.54
515.253	141.35
515.684	141.06
516.114	142.16
516.545	142.98
516.975	143.25
517.406	142.08
517.836	139.54
518.267	138.56
518.697	139.47
519.127	137.92
519.558	134.1
519.988	130.78
520.418	129.18
520.848	127.79
521.278	125.06
521.708	177.33
522.138	178.37
522.567	179.17
522.997	179.23
523.427	176.23
523.857	176.44
524.286	175.25
524.716	175.85
525.145	177.04
525.575	177.3
526.004	176.73
526.433	122.79
526.863	119.27
527.292	119.37
527.721	119.42
528.15	118.71
528.579	117.74
529.008	118.38
529.437	117.36
529.866	116.79
530.295	116.16
530.724	118.75
531.152	120.2
531.581	121.97
532.01	122.05
532.438	120.51
532.867	120.81
533.295	121.65
533.723	121.44
534.152	121.82
534.58	122.13
535.008	121.45
535.436	121.47
535.865	121.13
536.293	120.43
536.721	119.36
537.149	121.49
537.576	122.76
538.004	123.71
538.432	122.58
538.86	122.64
539.287	121.47
539.715	122.31
540.143	119.83
540.57	119.19
540.998	119.07
541.425	120.88
541.852	119.02
542.28	117.99
542.707	116.06
543.134	115.64
543.561	115.23
543.988	115.12
544.415	114.44
544.842	113.65
545.269	113.45
545.696	114.74
546.123	114.52
546.549	113.53
546.976	112.52
547.403	112.33
547.829	111.87
548.256	111
548.682	110.94
549.108	111.83
549.535	112.28
549.961	111.45
550.387	109.54
550.813	110.14
551.24	111.46
551.666	111.34
552.092	110.74
552.518	110.43
552.943	111.44
553.369	111.18
553.795	110.72
554.221	111.16
554.646	111.32
555.072	113.99
555.498	112.62
555.923	112.39
556.349	113.66
556.774	114.19
557.199	114.34
557.625	112.95
558.05	114.04
558.475	115.42
558.9	116.15
559.325	116.95
559.75	116.1
560.175	115.5
560.6	115.25
561.025	114.27
561.449	114.98
561.874	115.94
562.299	118.66
562.723	118.66
563.148	117.75
563.572	117.3
563.997	118.73
564.421	118.03
564.846	118.2
565.27	119.88
565.694	121.13
566.118	121.86
566.542	124.36
566.966	123.95
567.39	125.49
567.814	125.88
568.238	127.89
568.662	128.24
569.086	130.31
569.509	131.4
569.933	132.5
570.357	132.33
570.78	131.74
571.204	132.49
571.627	132.34
572.05	132.45
572.474	134.72
572.897	133.81
573.32	135.16
573.743	134.34
574.166	134.79
574.589	133.4
575.012	134.03
575.435	134.89
575.858	134.09
576.281	134.23
576.704	132.99
577.126	130.21
577.549	129.27
577.972	127.83
578.394	127.97
578.817	131.2
579.239	130.49
579.661	130.86
580.084	132.12
580.506	132.07
580.928	131.7
581.35	131.54
581.772	132.71
582.194	132.8
582.616	131.67
583.038	130.01
583.46	125.93
583.882	126.94
584.303	125.69
584.725	123.83
585.147	130.57
585.568	132.85
585.99	135.26
586.411	136.89
586.833	139.51
587.254	140.7
587.675	142.65
588.096	145.12
588.518	144.9
588.939	145.48
589.36	146.36
589.781	137.25
590.202	139.14
590.623	138.91
591.043	138.05
591.464	136.65
591.885	137.44
592.305	137.19
592.726	136.04
593.147	136.72
593.567	136.45
593.987	135.54
594.408	135.22
594.828	130.69
595.248	130.99
595.669	130.65
596.089	129.76
596.509	128.34
596.929	126.99
597.349	128.28
597.769	126.94
598.189	125.95
598.608	126.5
599.028	128.06
599.448	127.44
599.867	124.93
600.287	123.57
600.706	125.04
601.126	125.44
601.545	127.12
601.965	126.44
602.384	126.52
602.803	126.97
603.222	127.96
603.641	126.9
604.061	128.93
604.48	129.49
604.898	131.2
605.317	131.25
605.736	131.47
606.155	132.37
606.574	131.24
606.992	132.21
607.411	133.01
607.829	130.46
608.248	130.51
608.666	128.83
609.085	129.66
609.503	129.49
609.921	130.82
610.339	131.7
610.758	130.95
611.176	132.12
611.594	132.76
612.012	132.91
612.43	136.63
612.847	138.03
613.265	141.55
613.683	142.7
614.101	143.58
614.518	141.97
614.936	141.52
615.353	141.71
615.771	142.53
616.188	143.21
616.606	143.9
617.023	142.8
617.44	142.21
617.857	139.72
618.274	138.48
618.691	139.45
619.108	138.95
619.525	138.53
619.942	140.07
620.359	140.36
620.776	139.59
621.192	140.71
621.609	141.09
622.026	143.21
622.442	145.34
622.859	145.84
623.275	143.72
623.691	144.65
624.108	146.55
624.524	147.03
624.94	147.25
625.356	148.21
625.772	147.8
626.188	148.75
626.604	148.65
627.02	147.92
627.436	148.4
627.852	151.12
628.268	153.02
628.683	151.39
629.099	150.78
629.514	149.62
629.93	150.68
630.345	151.88
630.761	150.36
631.176	150.61
631.591	152.57
632.007	153.08
632.422	150.95
632.837	149.49
633.252	151.33
633.667	150.03
634.082	149.84
634.497	149.77
634.911	150.87
635.326	151.33
635.741	150.26
636.155	147.33
636.57	149.04
636.984	151.2
637.399	154.67
637.813	154.36
638.228	155.71
638.642	156.79
639.056	155.54
639.47	154.99
639.884	156.31
640.298	156.7
640.712	159.07
641.126	158.68
641.54	157.97
641.954	155.23
642.368	155.92
642.781	160.8
643.195	159.8
643.609	162.54
644.022	162.92
644.436	163.13
644.849	161.79
645.262	160.56
645.676	160.36
646.089	161.55
646.502	164.31
646.915	164.53
647.328	160.86
647.741	163.45
648.154	162.83
648.567	167.47
648.98	167.97
649.393	169.12
649.805	170.67
650.218	171.8
650.631	170.88
651.043	170.06
651.456	170.75
651.868	170.81
652.28	172.76
652.693	174.72
653.105	173.67
653.517	174.86
653.929	177.2
654.341	179.35
654.753	178.24
655.165	179.53
655.577	180.3
655.989	179.43
656.401	178.13
656.813	175.94
657.224	174.18
657.636	169.01
658.047	169.02
658.459	167.4
658.87	165.32
659.282	163.94
659.693	163.19
660.104	162.54
660.515	161.27
660.926	161.55
661.338	160.95
661.749	160.23
662.159	161.78
662.57	160.62
662.981	161.05
663.392	161.29
663.803	164.46
664.213	165.04
664.624	164.45
665.035	166.94
665.445	166.57
665.855	167.59
666.266	168.97
666.676	169.49
667.086	167.98
667.497	169.74
667.907	169.68
668.317	167.61
668.727	172.16
669.137	171.57
669.547	171.66
669.956	171.54
670.366	172.2
670.776	173.11
671.186	173.06
671.595	174.78
672.005	173.71
672.414	174.7
672.824	175.66
673.233	170.93
673.642	172.39
674.052	174.59
674.461	177.21
674.87	177.12
675.279	177.12
675.688	175.78
676.097	177.78
676.506	177.26
676.915	179.34
677.323	178.52
677.732	177.72
678.141	176.79
678.549	171.08
678.958	167.44
679.366	165.1
679.775	162.39
680.183	167.52
680.592	165.62
681	165.19
681.408	162.4
681.816	162.1
682.224	161.51
682.632	163.46
683.04	168.13
683.448	171.53
683.856	177.06
684.264	182.46
684.671	181.74
685.079	184.5
685.487	188.59
685.894	194.37
686.302	196.94
686.709	199.63
687.116	200.86
687.524	203.42
687.931	205.25
688.338	202.5
688.745	197.89
689.152	194.51
689.559	194.36
689.966	194.7
690.373	191.02
690.78	190.62
691.187	189.55
691.593	187.79
692	182.43
692.407	180.32
692.813	185.04
693.22	185.51
693.626	184.19
694.032	183.31
694.439	183.4
694.845	182.1
695.251	181.34
695.657	181.28
696.063	181.23
696.469	181.54
696.875	180.6
697.281	173.91
697.687	170.83
698.093	170.49
698.498	171.23
698.904	168.15
699.31	169.42
699.715	173.19
700.12	175.34
700.526	174.24
700.931	174.68
701.337	175.67
701.742	176.36
702.147	178.26
702.552	176.43
702.957	174.74
703.362	173.25
703.767	169.95
704.172	165.28
704.577	159.39
704.981	158.2
705.386	157.17
705.791	154.78
706.195	154.4
706.6	153.99
707.004	153.55
707.408	149.65
707.813	152.3
708.217	152.34
708.621	151.34
709.025	155.22
709.43	156.49
709.834	158.21
710.237	159.08
710.641	157.51
711.045	157.19
711.449	158.5
711.853	165.96
712.256	163.56
712.66	162.86
713.064	164.48
713.467	165.8
713.87	168.08
714.274	169.01
714.677	172.47
715.08	177.94
715.484	183.22
715.887	194.9
716.29	193.5
716.693	203.04
717.096	212.46
717.499	216.81
717.901	214.14
718.304	212.84
718.707	211.69
719.109	206.65
719.512	201.05
719.915	198.61
720.317	190.55
720.719	190.15
721.122	185.8
721.524	183.87
721.926	189.33
722.328	192.71
722.731	190.11
723.133	189.94
723.535	196.23
723.937	197.18
724.338	197.96
724.74	201.24
725.142	287.29
725.544	292.75
725.945	313.64
726.347	305.16
726.748	305.57
727.15	306.95
727.551	311.89
727.952	306.24
728.354	303.55
728.755	300.87
729.156	295.17
729.557	209.11
729.958	197.8
730.359	174.78
730.76	173.72
731.161	170.7
731.562	168.36
731.962	161.13
732.363	161.2
732.763	159.43
733.164	157
733.564	155.53
733.965	154.23
734.365	154.41
734.766	155.58
735.166	154.01
735.566	153.19
735.966	153.49
736.366	154.67
736.766	152.91
737.166	153.18
737.566	153.18
737.966	152.63
738.365	152.37
738.765	153.19
739.165	149.75
739.564	148.19
739.964	148.25
740.363	145
740.763	142.01
741.162	142.94
741.561	141.24
741.96	139.43
742.36	137.03
742.759	137.85
743.158	135.89
743.557	135.83
743.955	137.06
744.354	134.83
744.753	136
745.152	137.84
745.55	136.7
745.949	136.94
746.348	137.56
746.746	137.8
747.144	140.47
747.543	138.47
747.941	139.29
748.339	137.91
748.737	138.83
749.136	140.31
749.534	139.22
749.932	141.76
750.33	142.63
750.727	142.26
751.125	144.49
751.523	141.31
751.921	150.13
752.318	150.08
752.716	154.02
753.113	153.58
753.511	153.73
753.908	155.68
754.305	160.89
754.703	162.85
755.1	167.23
755.497	167.92
755.894	170.7
756.291	171.54
756.688	181.75
757.085	190.76
757.482	211.5
757.878	235.41
758.275	255.79
758.672	266.81
759.068	287.09
759.465	312.71
759.861	347.47
760.258	391.42
760.654	409.46
761.05	408.71
761.447	389.06
761.843	360.66
762.239	331.3
762.635	312.67
763.031	299.25
763.427	281.74
763.822	264.77
764.218	246.35
764.614	224.23
765.01	207.76
765.405	196.49
765.801	191.61
766.196	181.8
766.592	174.38
766.987	167.47
767.382	162.05
767.778	160.08
768.173	156.12
768.568	155.87
768.963	153.58
769.358	156.14
769.753	157.01
770.148	156.67
770.542	156.02
770.937	155.34
771.332	160.39
771.726	161.63
772.121	165.81
772.515	167.97
772.91	166.94
773.304	169.06
773.699	165.91
774.093	165.9
774.487	165.82
774.881	167.8
775.275	167.81
775.669	163.31
776.063	164.11
776.457	161.13
776.851	159.23
777.245	159.51
777.638	159.73
778.032	161.52
778.425	162.68
778.819	168.81
779.212	170.97
779.606	174.17
779.999	174.72
780.392	177.54
780.786	177.44
781.179	178.54
781.572	181.22
781.965	183.04
782.358	185.44
782.751	184.76
783.143	177.72
783.536	178.19
783.929	174.84
784.322	179.09
784.714	176.49
785.107	178.95
785.499	182.2
785.891	183.85
786.284	181.49
786.676	182.69
787.068	185.52
787.46	189.23
787.852	187.56
788.245	189.93
788.636	187.71
789.028	193.09
789.42	194.23
789.812	194.57
790.204	193.89
790.595	202.78
790.987	198.47
791.378	198.19
791.77	200.08
792.161	202.87
792.553	206.1
792.944	203.71
793.335	198.35
793.726	199.75
794.117	204.39
794.508	206.15
794.899	199.2
795.29	200.85
795.681	202.63
796.072	198.27
796.463	231.11
796.853	239.39
797.244	248
797.634	251.12
798.025	251.04
798.415	246.32
798.806	254.43
799.196	261.9
799.586	270.2
799.976	270.15
800.366	277.73
800.756	242.35
801.146	233.23
801.536	231.89
801.926	231.71
802.316	235.23
802.706	239.81
803.095	236.13
803.485	235.2
803.874	233.18
804.264	238.4
804.653	237.98
805.043	251.44
805.432	259.08
805.821	263.83
806.21	267.22
806.599	268.01
806.988	272.13
807.377	268.37
807.766	273.52
808.155	282.15
808.544	272.98
808.933	275.01
809.321	274.32
809.71	274.33
810.098	275.67
810.487	282.76
810.875	296.32
811.264	293.6
811.652	327.87
812.04	332.23
812.428	338.56
812.816	358.56
813.204	370.01
813.592	375.53
813.98	390.23
814.368	397.47
814.756	419.09
815.144	418.48
815.531	439.93
815.919	411.22
816.306	419.4
816.694	407.57
817.081	415.06
817.469	431.35
817.856	433.31
818.243	437.33
818.63	438.62
819.017	428.76
819.404	433.44
819.791	438.67
820.178	452.9
820.565	465.43
820.952	508.57
821.339	495.24
821.725	498.08
822.112	483.29
822.498	487.45
822.885	489.45
823.271	481.97
823.657	489.63
824.044	493.73
824.43	499.22
824.816	514.14
825.202	491.65
825.588	520.14
825.974	522.06
826.36	534.12
826.746	532.96
827.132	544.22
827.517	552.17
827.903	529.89
828.289	537.78
828.674	508.88
829.06	490.59
829.445	496.88
829.83	508.15
830.216	519.12
830.601	536.21
830.986	540.64
831.371	539.35
831.756	558.75
832.141	549.88
832.526	547.33
832.911	565.79
833.295	560.8
833.68	577.6
834.065	564.98
834.449	532.4
834.834	528.86
835.218	518.29
835.603	533.44
835.987	516.92
836.371	538.38
836.755	534.58
837.139	537.58
837.524	538.46
837.908	527.59
838.291	529.61
838.675	530.59
839.059	532.36
839.443	525.62
839.827	510.53
840.21	522.21
840.594	523.68
840.977	528.13
841.361	532.42
841.744	543.89
842.127	541.81
842.511	541.56
842.894	557.44
843.277	569.06
843.66	587.86
844.043	592.59
844.426	577.8
844.809	555.19
845.191	557.03
845.574	541.67
845.957	531.67
846.339	534.62
846.722	520.39
847.104	522.03
847.487	508.95
847.869	510.67
848.252	524.83
848.634	534.14
849.016	546.97
849.398	540.03
849.78	560.02
850.162	564.33
850.544	571.1
850.926	580.44
851.307	575.94
851.689	593.53
852.071	596.74
852.452	597.77
852.834	589.57
853.215	606.52
853.597	619.35
853.978	639.25
854.359	654.35
854.741	628.64
855.122	628.83
855.503	623.63
855.884	626.17
856.265	631.72
856.646	629.81
857.026	625.67
857.407	622.57
857.788	624.83
858.169	620.38
858.549	607.05
858.93	626.22
859.31	628.82
859.69	644.03
860.071	630.86
860.451	623.57
860.831	603.17
861.211	629.99
861.591	637.98
861.971	633.18
862.351	644.02
862.731	641.41
863.111	647.14
863.491	665.65
863.87	685.54
864.25	689.31
864.629	688.05
865.009	700.15
865.388	726.65
865.768	772.58
866.147	774.68
866.526	735.83
866.905	744.73
867.284	775.37
867.663	723.38
868.042	688.06
868.421	685.08
868.8	683.77
869.179	701.44
869.558	665.55
869.936	623.97
870.315	632.09
870.693	655.78
871.072	704.54
871.45	673.46
871.828	692.63
872.207	736.29
872.585	728.69
872.963	746.6
873.341	728.85
873.719	730.68
874.097	716.02
874.475	729.45
874.853	739.18
875.23	710.27
875.608	746.02
875.986	805.35
876.363	773.35
876.741	820.89
877.118	818.29
877.495	858.8
877.873	865.1
878.25	912.43
878.627	872.94
879.004	878.58
879.381	865.74
879.758	854.24
880.135	791.58
880.512	829.19
880.889	780.5
881.265	761.71
881.642	740.88
882.019	739.61
882.395	736.14
882.772	781.83
883.148	750.56
883.524	759.23
883.901	746.78
884.277	754.18
884.653	749.07
885.029	790.29
885.405	892.65
885.781	888.57
886.157	853.72
886.532	854.5
886.908	835.53
887.284	921.87
887.659	951.04
888.035	974.31
888.411	1000.8
888.786	1013.98
889.161	1034.85
889.537	992.03
889.912	1020.09
890.287	1028.24
890.662	1049.11
891.037	1023.8
891.412	957.43
891.787	934.25
892.162	910.91
892.536	929.74
892.911	897.79
893.286	875.95
893.66	845.84
894.035	872.82
894.409	937.04
894.784	908.76
895.158	930.46
895.532	991.63
895.906	1029.69
896.281	1053.63
896.655	1050.22
897.029	1195.63
897.402	1242.82
897.776	1371.07
898.15	1365.08
898.524	1364.28
898.898	1382.37
899.271	1563.43
899.645	1360.95
900.018	1303.59
900.392	1353.23
900.765	1343.47
901.138	1248.37
901.511	1218.67
901.884	1147.99
902.258	1067.92
902.631	1120.63
903.003	1277.48
903.376	1143.52
903.749	1282.68
904.122	1368.75
904.495	1488.56
904.867	1501.69
905.24	1301.56
905.612	1218.79
905.985	1219.47
906.357	1263.17
906.729	1187.54
907.102	1026.97
907.474	998.73
907.846	1007.54
908.218	999.62
908.59	906.09
908.962	882.81
909.334	958.54
909.705	1015.3
910.077	984.73
910.449	1019.87
910.82	1052.73
911.192	1142.39
911.563	1188.14
911.935	1244.49
912.306	1237.97
912.677	1256.98
913.048	1263.38
913.419	1355.21
913.79	1346.79
914.161	1439.31
914.532	1406.38
914.903	1292.26
915.274	1233.53
915.645	1209.56
916.015	1063.36
916.386	1014.61
916.756	1078.17
917.127	1092.69
917.497	988.96
917.868	1092.23
918.238	1039.03
918.608	1044.03
918.978	1056.9
919.348	1110.42
919.718	1143.6
920.088	1120.28
920.458	1183.5
920.828	1226.39
921.198	1168.87
921.567	1228.78
921.937	954.14
922.306	951.37
922.676	1029.29
923.045	888.26
923.415	866.51
923.784	786.26
924.153	816.04
924.522	818.99
924.891	772.09
925.26	833.55
925.629	818.57
925.998	928.33
926.367	914.3
926.736	918.86
927.104	1066.13
927.473	1112.29
927.842	1336.99
928.21	1296.53
928.578	1328.69
928.947	1280.38
929.315	1305.81
929.683	1560.66
930.051	1594.02
930.42	1854.44
930.788	1529.92
931.156	1524.73
931.523	1500.58
931.891	1417.25
932.259	1385.8
932.627	1633.52
932.994	2280.19
933.362	1896.69
933.729	1626.57
934.097	1550.96
934.464	1321.74
934.831	1474.58
935.199	1432.45
935.566	1378.04
935.933	1386.41
936.3	1668.54
936.667	1280.76
937.034	1315.1
937.401	1270.73
937.767	1108.91
938.134	978.91
938.501	1377.74
938.867	1515.71
939.234	2608.3
939.6	2164.57
939.967	2382.68
940.333	1625.99
940.699	1377.12
941.065	932.91
941.431	1266.04
941.798	1293.05
942.163	1742.48
942.529	1078.55
942.895	998.16
943.261	647.43
943.627	872.54
943.992	789.18
944.358	785.83
944.723	842.32
945.089	825.36
945.454	759.02
945.82	761.24
946.185	724.7
946.55	854.94
946.915	761.88
947.28	891.39
947.645	797.18
948.01	754.05
948.375	786.71
948.74	874.37
949.104	1039.69
949.469	1386.51
949.834	2521.11
950.198	2622.29
950.562	1630.39
950.927	1387.37
951.291	1650.17
951.655	1356.38
952.02	1181.73
952.384	921.81
952.748	862.2
953.112	897.27
953.476	811.86
953.839	739.94
954.203	730.74
954.567	877.63
954.931	1311.06
955.294	1162.65
955.658	1176.06
956.021	2037.81
956.385	3338.86
956.748	4832.24
957.111	6887.33
957.474	7435.37
957.837	8058.59
958.2	5551.48
958.563	2025.45
958.926	1436.95
959.289	2130.15
959.652	2397.51
960.015	1781.81
960.377	2452.83
960.74	2753.16
961.102	4637.84
961.465	5430.76
961.827	3718.15
962.189	7305.64
962.552	5114.28
962.914	4032.91
963.276	2601.55
963.638	2119.54
964	2105.75
964.362	1494
964.724	1411.79
965.085	1040.85
965.447	846.73
965.809	790.14
966.17	762.27
966.532	785.29
966.893	728.11
967.255	650.39
967.616	760.49
967.977	621.32
968.338	658.12
968.699	571.39
969.061	557.63
969.421	555.89
969.782	616.7
970.143	554.54
970.504	645.42
970.865	756.26
971.225	826.61
971.586	827.04
971.946	1123.09
972.307	956.77
972.667	1159.52
973.027	1218.4
973.388	1431.65
973.748	994.93
974.108	1086.4
974.468	1319.42
974.828	1114.98
975.188	802.47
975.548	704.61
975.907	609.79
976.267	691.82
976.627	642.37
976.986	637.57
977.346	601.36
977.705	569.53
978.064	505.04
978.424	434.39
978.783	367.83
979.142	430.82
979.501	448.68
979.86	491.11
980.219	464.17
980.578	533.81
980.937	596.18
981.296	544.9
981.654	568.14
982.013	817.38
982.371	1079.44
982.73	1087.86
983.088	1201.33
983.447	1239.29
983.805	1811.4
984.163	3845.2
984.521	4507.7
984.879	6308.17
985.237	-10417.33
985.595	10680.44
985.953	2695.37
986.311	1483.31
986.669	839.43
987.026	709.32
987.384	859.73
987.741	811.62
988.099	699.02
988.456	578.72
988.814	599.29
989.171	522.05
989.528	439.71
989.885	457.04
990.242	384.41
990.599	454.86
990.956	382.34
991.313	294.76
991.67	255.4
992.027	330.89
992.383	296.32
992.74	275.2
993.096	303.7
993.453	324.65
993.809	337.96
994.165	445.72
994.522	500.15
994.878	548.16
995.234	677.28
995.59	653
995.946	457.77
996.302	524.25
996.658	549.97
997.013	597.6
997.369	773.84
997.725	1050.35
998.08	686.86
998.436	701.8
998.791	984.51
999.147	1013.52
999.502	1133.74
999.857	844.55
1000.212	1288.56
1000.567	2005.99
1000.922	1022.93
1001.277	643.05
1001.632	450.86
1001.987	595.32
1002.342	497.08
1002.696	404.88
1003.051	354.67
1003.406	452.21
1003.76	449.27
1004.114	467.3
1004.469	406.93
1004.823	363.35
1005.177	369.38
1005.531	300.01
1005.885	274.81
1006.239	336.32
1006.593	447.69
1006.947	594.24
1007.301	423.8
1007.655	465.79
1008.008	337.56
1008.362	383.78
1008.715	546.7
1009.069	505.79
1009.422	924.64
1009.776	1770.68
1010.129	1147.15
1010.482	861.12
1010.835	648.54
1011.188	1290.66
1011.541	1172.21
1011.894	-7034.73
1012.247	20258.96
1012.6	1274.61
1012.952	874.24
1013.305	274.47
1013.657	240.99
1014.01	229
1014.362	196.55
1014.715	264.01
1015.067	270.18
1015.419	291
1015.771	268.83
1016.123	260.7
1016.475	287.87
1016.827	307.32
1017.179	372.66
1017.531	347.15
1017.883	333.7
1018.234	427.88
1018.586	515.64
1018.938	614.58
1019.289	833.63
1019.64	907.29
1019.992	772.27
1020.343	679.53
1020.694	574.6
1021.045	494.51
1021.396	539.76
1021.747	625.65
1022.098	565.04
1022.449	387.88
1022.8	328.81
1023.151	242.26
1023.501	257.26
1023.852	262.51
1024.202	294.87
1024.553	276.39
1024.903	349.63
1025.253	356.69
1025.604	340.73
1025.954	408.86
1026.304	469.3
1026.654	528.52
1027.004	685.27
1027.354	941.65
1027.703	1023.48
1028.053	1206.74
1028.403	2084.3
1028.753	2092.38
1029.102	2019.84
1029.452	6164.97
1029.801	246.12
1030.15	150.84
1030.499	28.57
897.758	3327.01
901.051	3315.41
904.343	3356.99
907.636	3345.98
910.928	3415.7
914.22	3317.5
917.511	3328.46
920.803	3418.69
924.094	3467.65
927.384	3414.21
930.675	3378.03
933.965	3318.3
937.255	3306.35
940.544	3267.89
943.834	3116.09
947.123	3074.08
950.411	3177.52
953.7	3139.89
956.988	3078.62
960.276	3025.3
963.563	3149.33
966.851	3126.56
970.138	3204.46
973.424	3180.55
976.711	3127.3
979.997	3384.91
983.283	3398.85
986.568	3264.17
989.853	3314.6
993.138	3347.53
996.423	3426.48
999.708	3334.49
1002.992	3451.18
1006.275	3175.43
1009.559	3284.59
1012.842	3423.94
1016.125	3325.78
1019.408	3302.25
1022.69	3434.37
1025.972	3430.47
1029.254	3398.59
1032.536	3285.92
1035.817	3333.2
1039.098	3232.93
1042.379	3503.43
1045.659	3450.5
1048.939	3358.22
1052.219	3400.76
1055.498	3430.23
1058.778	3392.15
1062.057	3386.97
1065.335	3401.33
1068.614	3433.91
1071.892	3392.92
1075.17	3493.99
1078.447	3469.7
1081.724	3447.97
1085.001	3501.73
1088.278	3467.09
1091.554	3490.22
1094.83	3489.62
1098.106	3510.78
1101.382	3572.57
1104.657	3570.44
1107.932	3569.55
1111.206	3512.04
1114.481	3467.09
1117.755	3482.5
1121.029	3438.75
1124.302	3482.19
1127.575	3411.09
1130.848	3385.51
1134.121	3334.73
1137.393	3264.91
1140.665	3347.94
1143.937	3322.17
1147.208	3233.86
1150.48	3255.05
1153.75	3232.31
1157.021	3307.39
1160.291	3260.05
1163.561	3294.94
1166.831	3322.28
1170.101	3354.3
1173.37	3351.92
1176.639	3269.9
1179.907	3346.46
1183.176	3394.5
1186.444	3401.19
1189.711	3432.28
1192.979	3430.4
1196.246	3393.05
1199.513	3415.41
1202.78	3404.61
1206.046	3412.7
1209.312	3442.59
1212.578	3478.24
1215.843	3406.71
1219.108	3388.15
1222.373	3413.68
1225.638	3362.54
1228.902	3335.69
1232.166	3312.04
1235.43	3290.49
1238.693	3308.02
1241.956	3313.15
1245.219	3339.99
1248.482	3347.78
1251.744	3336.16
1255.006	3526.14
1258.268	3484.62
1261.529	3413.52
1264.79	3433
1268.051	3550.14
1271.312	3568.89
1274.572	3519.6
1277.832	3509.74
1281.092	3511.24
1284.351	3455.04
1287.61	3426.57
1290.869	3311.05
1294.128	3261.18
1297.386	3405.42
1300.644	3386.71
1303.902	3398.53
1307.159	3246.49
1310.416	3307.52
1313.673	3323.61
1316.93	3296.04
1320.186	3367.72
1323.442	3425
1326.697	3399.39
1329.953	3419.75
1333.208	3428.63
1336.463	3417.45
1339.717	3343.21
1342.972	3437.66
1346.226	3445.83
1349.479	3360.11
1352.733	3313.66
1355.986	3362.38
1359.238	3332.29
1362.491	3332.87
1365.743	3336.93
1368.995	3343.67
1372.247	3359.01
1375.498	3374.86
1378.749	3438.84
1382	3379.43
1385.251	3460.27
1388.501	3437.89
1391.751	3401.92
1395	3387.23
1398.25	3431.28
1401.499	3426.81
1404.748	3335.16
1407.996	3248.63
1411.244	3247.45
1414.492	3218.73
1417.74	3193.68
1420.987	3215.54
1424.234	3265.84
1427.481	3272.8
1430.728	3327.3
1433.974	3301
1437.22	3334.89
1440.465	3336.99
1443.711	3343.37
1446.956	3375.8
1450.201	3386.66
1453.445	3432.4
1456.689	3391.08
1459.933	3413.58
1463.177	3433.81
1466.42	3403.42
1469.663	3377.48
1472.906	3342.26
1476.148	3486.83
1479.391	3364.29
1482.633	3351.21
1485.874	3343.69
1489.115	3304.92
1492.356	3334.37
1495.597	3295.37
1498.838	3310.85
1502.078	3252.22
1505.318	3170.24
1508.557	3222.55
1511.797	3131.5
1515.036	3305.88
1518.274	3289.28
1521.513	3277.22
1524.751	3307.42
1527.989	3306.01
1531.227	3310.35
1534.464	3271.02
1537.701	3328.15
1540.938	3355.96
1544.174	3316.74
1547.41	3330.36
1550.646	3363.97
1553.882	3380.93
1557.117	3428.66
1560.352	3454.86
1563.587	3402.58
1566.821	3348.42
1570.055	3412.65
1573.289	3366.45
1576.523	3465.17
1579.756	3454.82
1582.989	3466.96
1586.222	3426.1
1589.454	3475.81
1592.686	3433.46
1595.918	3452.18
1599.15	3426.12
1602.381	3545.28
1605.612	3460.35
1608.843	3560.2
1612.073	3459.43
1615.303	3439.29
1618.533	3414.86
1621.762	3429.55
1624.992	3431.51
1628.221	3394.11
1631.449	3377.48
1634.678	3474.41
1637.906	3410.02
1641.134	3466.38
1644.361	3407.86
1647.588	3395.49
1650.815	3404.6
1654.042	3405.43
1657.269	3439.22
1660.495	3383.95
1663.72	3338.27
1666.946	3326.92
1670.171	3226.05
1673.396	3203.48
1676.621	3207.96
1679.845	3262.36
1683.069	3306.26
1686.293	3367.36
1689.517	3315.72
1692.74	3208.84
1695.963	3228.72
1699.185	3318.68
1702.408	3267.41
1705.63	3325.8
1708.852	3330.02
1712.073	3301.44
1715.294	3260.4
1718.515	3291.12
1721.736	3232.22
1724.956	3204.21
1728.176	3241.55
1731.396	3257.77
1734.616	3259.91
1737.835	3264.88
1741.054	3266.45
1744.272	3267.1
1747.491	3275.17
1750.709	3370.67
1753.927	3260.88
1757.144	3328.79
1760.361	3392.34
1763.578	3404.63
1766.795	3337.34
1770.011	3363.52
1773.227	3430.65
1776.443	3454.63
1779.658	3496.95
1782.874	3450.18
1786.089	3408.04
1789.303	3413.49
1792.518	3428.3
1795.732	3418.98
1798.945	3421.15
1802.159	3483.91
1805.372	3337
1808.585	3307.23
1811.797	3311.56
1815.01	3402.27
1818.222	3403.49
1821.434	3279.98
1824.645	3395
1827.856	3345.87
1831.067	3395.55
1834.278	3324.6
1837.488	3317.16
1840.698	3504.55
1843.908	3402.78
1847.117	3364.69
1850.326	3182.78
1853.535	3329.23
1856.744	3467.23
1859.952	3341.13
1863.16	3342.99
1866.368	3372.87
1869.575	3533.19
1872.782	3415.66
1875.989	3365.15
1879.196	3504.16
1882.402	3503.39
1885.608	3561.9
1888.814	3420.62
1892.019	3289.79
1895.224	3348.77
1898.429	3348.56
1901.634	3319.89
1904.838	3306.84
1908.042	3349.46
1911.246	3349.43
1914.449	3236.55
1917.652	3252.84
1920.855	3239.19
1924.058	3318.9
1927.26	3347.86
1930.462	3383.95
1933.664	3401.84
1936.865	3325.18
1940.066	3317.76
1943.267	3267.76
1946.467	3295.14
1949.668	3335.87
1952.868	3402.04
1956.067	3356.29
1959.267	3273.44
1962.466	3307.92
1965.665	3298.51
1968.863	3291.76
1972.061	3331.31
1975.259	3335.56
1978.457	3426.06
1981.654	3375.28
1984.852	3371.37
1988.048	3274.12
1991.245	3297.28
1994.441	3387.04
1997.637	3403.04
2000.833	3378.98
2004.028	3428.17
2007.223	3467.4
2010.418	3429.03
2013.613	3397.13
2016.807	3331.87
2020.001	3361.05
2023.194	3439.05
2026.388	3399.5
2029.581	3348.3
2032.774	3378.8
2035.966	3377.41
2039.158	3284.87
2042.35	3325.42
2045.542	3250.43
2048.733	3386.61
2051.924	3447.21
2055.115	3493.03
2058.306	3400.92
2061.496	3471.27
2064.686	3553.42
2067.875	3475.82
2071.065	3508.28
2074.254	3544.51
2077.442	3493.81
2080.631	3598.19
2083.819	3424.67
2087.007	3393.67
2090.195	3340.53
2093.382	3404.81
2096.569	3378.49
2099.756	3314.54
2102.942	3312.19
2106.128	3301.84
2109.314	3305.08
2112.5	3234.35
2115.685	3219.85
2118.87	3236.18
2122.055	3309.18
2125.239	3255.34
2128.424	3205.51
2131.608	3375.97
2134.791	3355.54
2137.974	3444.8
2141.157	3424.31
2144.34	3343.44
2147.523	3358.45
2150.705	3352.2
2153.887	3347.38
2157.068	3265.23
2160.25	3295.21
2163.431	3361.57
2166.611	3265.17
2169.792	3282.31
2172.972	3146.93
2176.152	3270.28
2179.331	3319.58
2182.511	3303.58
2185.69	3340.14
2188.868	3327.22
2192.047	3414.11
2195.225	3372.91
2198.403	3314.47
2201.58	3320.49
2204.758	3318.58
2207.935	3421.66
2211.111	3265.95
2214.288	3241.56
2217.464	3294.83
2220.64	3283.29
2223.815	3348.25
2226.991	3253.79
2230.166	3280.18
2233.34	3295.07
2236.515	3334.87
2239.689	3430.39
2242.863	3359.31
2246.036	3426.16
2249.209	3452.78
2252.382	3507.41
2255.555	3474.65
2258.727	3389
2261.9	3440.73
2265.071	3433.32
2268.243	3445.1
2271.414	3353.08
2274.585	3281.66
2277.756	3360.79
2280.926	3315.5
2284.096	3371.4
2287.266	3243.91
2290.436	3318.39
2293.605	3360.82
2296.774	3383.91
2299.942	3426.51
2303.111	3446.53
2306.279	3489.15
2309.447	3478.08
2312.614	3461.84
2315.781	3473.79
2318.948	3429.6
2322.115	3475.69
2325.281	3367.22
2328.447	3406.75
2331.613	3384.06
2334.779	3330.42
2337.944	3345.34
2341.109	3337.75
2344.274	3312.39
2347.438	3271.12
2350.602	3305.51
2353.766	3332
2356.929	3311.5
2360.092	3359.27
2363.255	3283.65
2366.418	3172.18
2369.58	3355.06
2372.742	3009.68
2375.904	3052.65
2379.066	3010.77
2382.227	3059.43
2385.388	3019.85
2388.548	2913.84
2391.709	2990.21
2394.869	2961.99
2398.029	3120.59
2401.188	3160.33
2404.347	3050.44
2407.506	3284.94
2410.665	3308.87
2413.823	3340.34
2416.981	3267.86
2420.139	3319.07
2423.296	3383.82
2426.453	3356.23
2429.61	3382.71
2432.767	3270.65
2435.923	3325.65
2439.079	3189.66
2442.235	3288.02
2445.391	3186.57
2448.546	3195.59
2451.701	3271.55
2454.855	3207.34
2458.009	3293.73
2461.163	3315.52
2464.317	3254.04
2467.471	3297.15
2470.624	3335
2473.777	3398.88
2476.929	3384.76
2480.082	3415.06
2483.234	3382.46
2486.385	3237.86
2489.537	3242.93
2492.688	3163.47
2495.839	3181.83
2498.989	3187.3
2502.14	3166.5
2505.29	3132.06
2508.439	3168.38
2511.589	3061.22
2514.738	3093.1
2517.887	3121.87
2521.035	3295.75
2524.183	3287.23
2527.331	3253.86
2530.479	3202.27
2533.627	3224.07
