Data from C_3_DIV_OH_2N_Splice17_12-47-57-792.txt Node
Date: Sat Mar 14 12:47:57 EDT 2020
User: sa697716
Spectrometer: FLMS03696
Trigger mode: 0
Integration Time (sec): 3.180400E-1
Scans to average: 20
Electric dark correction enabled: true
Nonlinearity correction enabled: true
Boxcar width: 5
XAxis mode: Wavelengths
Number of Pixels in Spectrum: 2048
>>>>>Begin Spectral Data<<<<<
187.83	-429453.97
188.298	3087.74
188.766	1617.39
189.233	1494.49
189.701	2064.69
190.169	2902.54
190.636	1149.86
191.104	891.11
191.571	171.83
192.039	-25.23
192.506	-57.22
192.974	548.36
193.441	-667.64
193.908	-176.07
194.375	-43.89
194.842	7.9
195.31	93.43
195.777	165.46
196.244	292.25
196.711	177.93
197.177	151.39
197.644	170.52
198.111	302.44
198.578	374.55
199.045	282.79
199.511	444.64
199.978	451.19
200.445	445.31
200.911	462.16
201.378	424.73
201.844	433.15
202.31	739.36
202.777	770.92
203.243	418.34
203.709	399.36
204.176	511.25
204.642	419.63
205.108	398.58
205.574	290.02
206.04	236.15
206.506	225.28
206.972	194.96
207.438	186.49
207.903	184.75
208.369	177.86
208.835	195.43
209.301	214.62
209.766	197.73
210.232	200.96
210.697	240.14
211.163	285.66
211.628	421.39
212.094	412.18
212.559	626.08
213.024	437.66
213.49	553.97
213.955	514.68
214.42	427.48
214.885	415.29
215.35	418.27
215.815	502.67
216.28	552.51
216.745	454.6
217.21	517.07
217.675	447.46
218.14	524.51
218.604	583.36
219.069	714.4
219.534	831.68
219.998	972.98
220.463	1212.44
220.927	1451.23
221.392	1414.67
221.856	1483.79
222.32	1826.58
222.785	2295.2
223.249	2915.74
223.713	3301.87
224.177	3355.74
224.642	4303.67
225.106	5382.6
225.57	5889.28
226.034	4499.45
226.497	6893.16
226.961	6354.83
227.425	7555.86
227.889	8474.2
228.353	8496.55
228.816	17633.55
229.28	16976.31
229.744	14366.67
230.207	8852.83
230.671	8787.58
231.134	14436.75
231.597	16830.84
232.061	16784.41
232.524	16368.91
232.987	11320.93
233.45	10288.14
233.914	9264.15
234.377	9495.53
234.84	8746.03
235.303	10277.09
235.766	11508.03
236.229	11942.61
236.691	7494.7
237.154	8403.28
237.617	6365.95
238.08	6518.9
238.542	7636.32
239.005	5493.74
239.468	5473.14
239.93	5171.8
240.393	4726.09
240.855	4165.31
241.317	4257.53
241.78	5198.4
242.242	5417.73
242.704	5904.69
243.166	5165.62
243.629	4750.01
244.091	5496.34
244.553	6045.84
245.015	6532.64
245.477	8475.79
245.939	12432.91
246.4	13270.54
246.862	12923.94
247.324	12226.03
247.786	13674.89
248.247	17965.84
248.709	18471.4
249.17	13846.6
249.632	13191.96
250.093	15412.27
250.555	13375.16
251.016	8217.85
251.477	7844.86
251.939	8534.53
252.4	8983.58
252.861	10685.16
253.322	10024.69
253.783	11934.76
254.244	15516.45
254.705	12223.64
255.166	10832.63
255.627	10694.35
256.088	15158.26
256.549	16122.97
257.009	13884.84
257.47	16854.31
257.931	13767.7
258.391	10316.03
258.852	10669.57
259.312	11201.81
259.773	13857.84
260.233	11803.39
260.694	10029.33
261.154	11400.81
261.614	9201.47
262.074	8235.34
262.534	8603.46
262.994	8136.81
263.455	10866.71
263.915	9204.35
264.374	8704.17
264.834	9520.96
265.294	10540.7
265.754	10892.33
266.214	10322.21
266.673	9692.22
267.133	12263.31
267.593	12160.9
268.052	14942.33
268.512	12997.52
268.971	15745.62
269.431	17308.65
269.89	15494.09
270.349	23326.96
270.809	26116.68
271.268	23511.23
271.727	52597.22
272.186	34105.8
272.645	25618.49
273.104	18437.69
273.563	26783.73
274.022	21022.79
274.481	17949.7
274.94	13894.85
275.399	10324.58
275.857	12027.3
276.316	16293.39
276.775	14568.31
277.233	14405.24
277.692	13580.44
278.15	15418.75
278.609	15943.34
279.067	14783.22
279.525	13764.42
279.984	17775.34
280.442	21376.12
280.9	21232.25
281.358	14002.48
281.816	13105.45
282.274	12829.81
282.732	13226.92
283.19	13314.9
283.648	11482.44
284.106	12258.94
284.564	12492.08
285.021	11641.45
285.479	8728.19
285.937	7898.48
286.394	6956.09
286.852	7170.98
287.309	7563.41
287.767	7371.78
288.224	7054.53
288.682	7754.97
289.139	8561.97
289.596	7870.63
290.053	8207.78
290.511	10369.76
290.968	12662.98
291.425	17278.09
291.882	14501.91
292.339	12716.94
292.796	12645.69
293.252	11960.05
293.709	9579.46
294.166	8605.03
294.623	9530.48
295.079	9168.16
295.536	9265.83
295.992	8454.47
296.449	8389.2
296.905	8725.78
297.362	8414.93
297.818	8844.6
298.274	9217.31
298.731	9382.27
299.187	9286.34
299.643	9974.7
300.099	12071.01
300.555	13242.67
301.011	11069.76
301.467	10722.49
301.923	12537.27
302.379	12227.44
302.835	12026.27
303.291	12020.03
303.746	13669.68
304.202	17339.54
304.658	17426.92
305.113	11720.57
305.569	11523.68
306.024	12278.32
306.479	11625.81
306.935	9818.06
307.39	10713.75
307.845	9914.48
308.301	10001.77
308.756	9765.28
309.211	9397.3
309.666	9617.2
310.121	11974
310.576	12094.33
311.031	11978.17
311.486	13714.61
311.94	13640.95
312.395	18214.16
312.85	34122.36
313.305	166608.6
313.759	867179.75
314.214	62787.03
314.668	49797.61
315.123	41927.8
315.577	15094.69
316.032	13445.39
316.486	16803.79
316.94	13347.69
317.394	9318.94
317.849	7273.37
318.303	6895.18
318.757	6508.84
319.211	7219.4
319.665	6337.72
320.119	6431.43
320.572	9210.77
321.026	8630.54
321.48	7200.6
321.934	7821.32
322.387	7810.1
322.841	8424.92
323.295	7637.41
323.748	8754.41
324.202	8883.27
324.655	10705.77
325.108	14993.42
325.562	10625.79
326.015	12607.36
326.468	9548.43
326.921	10702.1
327.374	10021.95
327.827	10492.09
328.28	11820.14
328.733	7935.63
329.186	6964.99
329.639	6621.44
330.092	5565.24
330.545	5290.84
330.997	5349.18
331.45	5862.07
331.903	6902.89
332.355	11823.28
332.808	11450.52
333.26	9449.82
333.713	10272.12
334.165	10365.01
334.617	13794.17
335.069	11107.9
335.522	20032.08
335.974	22171.81
336.426	20147.65
336.878	13840.56
337.33	7034.66
337.782	6849.6
338.234	8632.02
338.686	10313.78
339.137	12205.71
339.589	11518.33
340.041	9057.97
340.493	7806.48
340.944	7990.03
341.396	8673.76
341.847	7357.48
342.299	8747.1
342.75	10789.84
343.201	9422.33
343.653	10855.57
344.104	13379.69
344.555	10549.08
345.006	16452.68
345.457	12693.62
345.908	10121.25
346.359	9542.68
346.81	7788.69
347.261	8203.42
347.712	8075.78
348.163	8631.22
348.613	8787.16
349.064	8241.18
349.515	7246.29
349.965	7462.57
350.416	8974.12
350.866	9843.99
351.317	11107.5
351.767	18375.5
352.217	23207.34
352.668	19267.47
353.118	17748.97
353.568	17101.65
354.018	13554.91
354.468	14327.37
354.918	10264.21
355.368	8980.67
355.818	12671.98
356.268	36472.47
356.718	153131.98
357.168	38238.6
357.617	19149.12
358.067	21241.91
358.517	19895.62
358.966	23315.85
359.416	26144.98
359.865	28288.66
360.315	33772.79
360.764	15878.51
361.213	8918.26
361.663	8410.2
362.112	10356.68
362.561	16693.11
363.01	12653.74
363.459	10642.97
363.908	11517.4
364.357	9835.43
364.806	16604.66
365.255	11382.97
365.703	10444.38
366.152	10466.86
366.601	8523.11
367.05	6941.71
367.498	6330.61
367.947	6596.09
368.395	6849.19
368.844	6048.4
369.292	7225.76
369.74	4996.74
370.189	7668.24
370.637	8962.05
371.085	7734.7
371.533	9419.64
371.981	9063.32
372.429	8685.05
372.877	9041.44
373.325	7593.17
373.773	7725.8
374.221	6905.58
374.669	8563.62
375.116	7386.16
375.564	7439.12
376.012	8312.5
376.459	6829.27
376.907	8150.42
377.354	9845.05
377.801	9208.71
378.249	10600.07
378.696	13564.13
379.143	16417.02
379.591	17458.11
380.038	29609.54
380.485	21480.97
380.932	23086.28
381.379	21292.29
381.826	15752.88
382.273	11148.13
382.72	9705.09
383.166	9443.19
383.613	6135.71
384.06	5538.64
384.506	6410.19
384.953	4689.92
385.4	4697.08
385.846	4111.71
386.292	3971.46
386.739	3868.44
387.185	3812.33
387.631	3806.89
388.078	3711.84
388.524	3958.11
388.97	3641
389.416	3037.75
389.862	3230.97
390.308	3055.16
390.754	3111.51
391.2	3360.57
391.645	3422.99
392.091	3296.27
392.537	3175.27
392.983	3146.38
393.428	3113.87
393.874	3318.41
394.319	3338.44
394.765	3174.39
395.21	3248.43
395.655	3025.5
396.101	2832.49
396.546	2561.85
396.991	2557.38
397.436	2368.09
397.881	2283.08
398.326	2127.48
398.771	2012.47
399.216	1735.25
399.661	1542.43
400.106	1536.12
400.551	1569.37
400.995	1404.75
401.44	1382.97
401.885	1293.98
402.329	1307.23
402.774	1257.21
403.218	1234
403.663	1184.13
404.107	1222.4
404.551	1235.14
404.995	1127.14
405.44	1080.86
405.884	1090.2
406.328	1043.64
406.772	1036.54
407.216	940.32
407.66	901.41
408.104	840.11
408.547	781.96
408.991	753.03
409.435	720.52
409.879	711.67
410.322	702.56
410.766	682.51
411.209	650.18
411.653	624.56
412.096	613.4
412.54	612.11
412.983	610.07
413.426	617.47
413.869	614.81
414.312	603.8
414.756	578.15
415.199	547.45
415.642	528.23
416.085	527.53
416.527	520.22
416.97	523.83
417.413	495.28
417.856	485.85
418.298	476.77
418.741	469.12
419.184	463.7
419.626	478.33
420.069	479.43
420.511	483.2
420.953	475.05
421.396	472.02
421.838	457.24
422.28	466.52
422.722	470.88
423.164	473.7
423.606	466.22
424.048	464.08
424.49	442.68
424.932	437.19
425.374	426.68
425.816	429.74
426.258	435.74
426.699	443.29
427.141	439.58
427.582	443.92
428.024	442.29
428.465	437.92
428.907	425.01
429.348	419.15
429.789	421.19
430.231	416.78
430.672	424.82
431.113	416.6
431.554	408.66
431.995	393.23
432.436	380.57
432.877	372.79
433.318	369.07
433.759	367.7
434.2	367.3
434.64	362.09
435.081	361.12
435.522	340.72
435.962	324.32
436.403	317.93
436.843	322.74
437.284	312.95
437.724	301.14
438.164	296.6
438.604	288.07
439.045	278.88
439.485	270.13
439.925	262.37
440.365	253.36
440.805	248.81
441.245	247.23
441.685	235.2
442.125	232.27
442.564	231.65
443.004	228.37
443.444	228.62
443.883	226.34
444.323	220.41
444.762	217.04
445.202	218.14
445.641	224.66
446.081	217.32
446.52	220.22
446.959	218.59
447.398	215.13
447.837	211.63
448.276	205.12
448.716	206.04
449.154	205.83
449.593	202.7
450.032	201.79
450.471	193.01
450.91	193.67
451.349	195.45
451.787	192.28
452.226	193.45
452.664	193.17
453.103	194.39
453.541	193.15
453.98	196.06
454.418	195.93
454.856	194.14
455.295	196.03
455.733	197.69
456.171	196.52
456.609	197.12
457.047	198.09
457.485	202.13
457.923	204.18
458.361	201.37
458.798	200.59
459.236	201.12
459.674	201.42
460.111	201.36
460.549	200.91
460.987	199.13
461.424	197.7
461.862	196.21
462.299	192.7
462.736	192.73
463.173	193.5
463.611	195.64
464.048	195.49
464.485	198.92
464.922	197.27
465.359	194.65
465.796	202.56
466.233	203.78
466.67	204.46
467.106	205.38
467.543	201.18
467.98	197.38
468.416	188.28
468.853	185.33
469.29	178.21
469.726	176.05
470.162	170.57
470.599	158.99
471.035	155.64
471.471	150.02
471.907	146.12
472.344	144.82
472.78	146.52
473.216	147.93
473.652	146.68
474.088	145.92
474.523	146.43
474.959	148.56
475.395	147.77
475.831	147.15
476.266	147.54
476.702	147.19
477.138	146.34
477.573	144.72
478.008	144.01
478.444	145.81
478.879	149.13
479.314	149.87
479.75	149.79
480.185	150.31
480.62	150.45
481.055	151.76
481.49	153.26
481.925	155.71
482.36	161.48
482.795	165.45
483.229	168.14
483.664	170.56
484.099	170.52
484.534	173.7
484.968	175.94
485.403	177.35
485.837	176.25
486.271	175.86
486.706	175.09
487.14	170.93
487.574	168.2
488.009	166.58
488.443	164.3
488.877	166.7
489.311	166.07
489.745	167.86
490.179	169.33
490.613	174.15
491.046	174.35
491.48	175.66
491.914	175.76
492.348	176.63
492.781	177.8
493.215	176.9
493.648	174.94
494.082	175.57
494.515	175.03
494.948	176.85
495.382	175.02
495.815	175.97
496.248	176.35
496.681	177.91
497.114	178.53
497.547	179.56
497.98	183.57
498.413	185.94
498.846	187.56
499.279	187.41
499.711	185.66
500.144	184.31
500.577	186.47
501.009	187.34
501.442	189.61
501.874	189.41
502.306	188.1
502.739	191.39
503.171	192.25
503.603	191.11
504.036	191.58
504.468	191.99
504.9	193.19
505.332	191.67
505.764	191.55
506.196	190.47
506.627	191.54
507.059	191.98
507.491	186.95
507.923	185.47
508.354	187.53
508.786	188.14
509.217	189.32
509.649	190.88
510.08	192.58
510.512	194.1
510.943	194.91
511.374	195.9
511.805	197.63
512.237	199.39
512.668	200.91
513.099	202.22
513.53	204.21
513.961	206.15
514.391	208.77
514.822	214.06
515.253	217.11
515.684	218.86
516.114	221.17
516.545	223.88
516.975	226.66
517.406	227.99
517.836	225.89
518.267	225.81
518.697	227.83
519.127	227.04
519.558	224.6
519.988	222.86
520.418	222.09
520.848	222.07
521.278	220.48
521.708	248.44
522.138	249.61
522.567	252.26
522.997	254.11
523.427	253.21
523.857	253.7
524.286	253.68
524.716	255.4
525.145	258.33
525.575	259.96
526.004	260.3
526.433	230.85
526.863	228.55
527.292	228.26
527.721	228.81
528.15	229.05
528.579	228.81
529.008	230.24
529.437	231.51
529.866	231.01
530.295	231.62
530.724	234.02
531.152	237.1
531.581	239.82
532.01	240.91
532.438	240.4
532.867	240.92
533.295	243.26
533.723	242.78
534.152	242.89
534.58	243.48
535.008	241.45
535.436	242.55
535.865	242.99
536.293	243.6
536.721	244.3
537.149	248.04
537.576	250.45
538.004	251.68
538.432	252.31
538.86	251.94
539.287	252.07
539.715	253.66
540.143	251.51
540.57	250.99
540.998	250.35
541.425	249.28
541.852	245.57
542.28	243.54
542.707	240.66
543.134	238.57
543.561	237.93
543.988	237.28
544.415	236.49
544.842	236.03
545.269	235.23
545.696	236.66
546.123	237.7
546.549	236.67
546.976	235.21
547.403	235.7
547.829	235.1
548.256	235.09
548.682	234.73
549.108	235.61
549.535	235.16
549.961	234.56
550.387	231.9
550.813	232.45
551.24	233.32
551.666	232.75
552.092	231.11
552.518	231.06
552.943	230.75
553.369	230.93
553.795	230.63
554.221	230.42
554.646	230.77
555.072	233.57
555.498	232.23
555.923	232.74
556.349	235.27
556.774	236.45
557.199	236.61
557.625	236.88
558.05	237.07
558.475	238.2
558.9	239.34
559.325	238.81
559.75	238.33
560.175	237.92
560.6	237.79
561.025	237.11
561.449	238.47
561.874	238.8
562.299	240.58
562.723	240.74
563.148	239.82
563.572	239.94
563.997	241.63
564.421	240.67
564.846	240.84
565.27	241.96
565.694	242.97
566.118	244.03
566.542	247.33
566.966	246.66
567.39	247.48
567.814	247.02
568.238	248.17
568.662	249.16
569.086	251.31
569.509	252.25
569.933	252.69
570.357	252.11
570.78	250.31
571.204	250.24
571.627	248.95
572.05	248.89
572.474	250.28
572.897	249.52
573.32	250.56
573.743	249.08
574.166	248.38
574.589	247.23
575.012	246.39
575.435	246.06
575.858	244.77
576.281	243.87
576.704	242
577.126	240.57
577.549	238.58
577.972	236.17
578.394	235.47
578.817	237.28
579.239	234.97
579.661	234.62
580.084	234.99
580.506	233.64
580.928	233.42
581.35	232.52
581.772	231.67
582.194	230.4
582.616	228.87
583.038	226.53
583.46	223.08
583.882	222.72
584.303	222.05
584.725	219.96
585.147	225.7
585.568	228.36
585.99	231.76
586.411	233.48
586.833	237.4
587.254	238.07
587.675	240.77
588.096	243.53
588.518	243.86
588.939	242.84
589.36	243.74
589.781	235.33
590.202	234.14
590.623	232.87
591.043	231.7
591.464	229.42
591.885	229.64
592.305	228.61
592.726	226.05
593.147	226.1
593.567	225.25
593.987	223.84
594.408	223.27
594.828	219.25
595.248	219.61
595.669	218.01
596.089	217.18
596.509	215.96
596.929	214.1
597.349	215.04
597.769	213.33
598.189	212.81
598.608	213.31
599.028	214.68
599.448	215.16
599.867	211.81
600.287	210.59
600.706	210.95
601.126	210.16
601.545	211.46
601.965	210.91
602.384	210.63
602.803	210.85
603.222	210.74
603.641	209.55
604.061	209.87
604.48	209.38
604.898	211.13
605.317	211.4
605.736	211.48
606.155	211.64
606.574	210.61
606.992	211.81
607.411	212.64
607.829	210.06
608.248	209.14
608.666	208.45
609.085	209.61
609.503	209.14
609.921	209.25
610.339	210.12
610.758	209.35
611.176	208.99
611.594	208.52
612.012	207.73
612.43	210.8
612.847	212.56
613.265	214.59
613.683	215.5
614.101	216.09
614.518	214.98
614.936	214.03
615.353	212.65
615.771	213.04
616.188	213.62
616.606	213.57
617.023	212.65
617.44	211.41
617.857	209.29
618.274	207.89
618.691	208.05
619.108	207.35
619.525	206.55
619.942	209.1
620.359	209.42
620.776	208.82
621.192	209.28
621.609	209.36
622.026	211.13
622.442	213.24
622.859	213.39
623.275	211.52
623.691	212.53
624.108	214.35
624.524	215.74
624.94	216.77
625.356	218.01
625.772	218.66
626.188	220.37
626.604	220.78
627.02	219.18
627.436	220.24
627.852	223.21
628.268	225.61
628.683	224.16
629.099	222.33
629.514	219.97
629.93	220.61
630.345	222.23
630.761	220.46
631.176	221.15
631.591	223.07
632.007	222.27
632.422	219.55
632.837	216.29
633.252	218.3
633.667	217.12
634.082	216.73
634.497	216.12
634.911	215.13
635.326	216.52
635.741	213.98
636.155	210.57
636.57	212.78
636.984	214.14
637.399	218.72
637.813	217.03
638.228	217.39
638.642	218.23
639.056	216.41
639.47	215.93
639.884	214.83
640.298	214.41
640.712	216.7
641.126	214.28
641.54	213.42
641.954	209.54
642.368	209.54
642.781	212.98
643.195	211.86
643.609	214.32
644.022	214.19
644.436	214.19
644.849	211.59
645.262	207.89
645.676	207.89
646.089	207.68
646.502	208.62
646.915	207.5
647.328	203.06
647.741	203.69
648.154	201.13
648.567	204.73
648.98	202.31
649.393	204.5
649.805	205.53
650.218	204.98
650.631	202.95
651.043	201.67
651.456	202.41
651.868	201.7
652.28	204.35
652.693	206.65
653.105	205.1
653.517	208.2
653.929	208.43
654.341	210.93
654.753	210.4
655.165	212.8
655.577	212.91
655.989	211.17
656.401	209.22
656.813	204.98
657.224	202.76
657.636	196.55
658.047	194.68
658.459	192.31
658.87	189.86
659.282	187.45
659.693	185.29
660.104	183.78
660.515	182.49
660.926	185.16
661.338	184.65
661.749	182.71
662.159	183.16
662.57	181.3
662.981	180.61
663.392	180.07
663.803	181.56
664.213	180.06
664.624	178.95
665.035	180.18
665.445	176.47
665.855	176.94
666.266	177.69
666.676	177.69
667.086	176.25
667.497	177.87
667.907	178.2
668.317	176.45
668.727	180.49
669.137	180.81
669.547	180.13
669.956	180.63
670.366	180.23
670.776	180.03
671.186	181.73
671.595	183.3
672.005	182.1
672.414	182.72
672.824	183.51
673.233	181.06
673.642	181.94
674.052	184.59
674.461	186.46
674.87	186.75
675.279	188.31
675.688	185.98
676.097	187.89
676.506	187.94
676.915	189
677.323	188.54
677.732	186.42
678.141	184.46
678.549	179.47
678.958	177.07
679.366	176
679.775	173.75
680.183	178.84
680.592	178.45
681	178.51
681.408	176.4
681.816	177.29
682.224	177.72
682.632	181.45
683.04	188.33
683.448	192.51
683.856	197.46
684.264	204.08
684.671	205.25
685.079	209.51
685.487	214.79
685.894	224.38
686.302	229.33
686.709	235.06
687.116	240.04
687.524	244.73
687.931	248.54
688.338	250.68
688.745	249.64
689.152	251.16
689.559	254.7
689.966	260.49
690.373	259.07
690.78	262.53
691.187	267.28
691.593	268.91
692	267.34
692.407	271.42
692.813	280.03
693.22	284.56
693.626	287.13
694.032	289.91
694.439	294.93
694.845	298.04
695.251	302.45
695.657	307.8
696.063	315.2
696.469	319.95
696.875	324.61
697.281	323.5
697.687	325.78
698.093	328.57
698.498	335.26
698.904	336.59
699.31	343.43
699.715	351.61
700.12	358.99
700.526	359.47
700.931	365.79
701.337	369.07
701.742	371.01
702.147	377.56
702.552	378.42
702.957	380.32
703.362	381.09
703.767	382.37
704.172	381.92
704.577	373.9
704.981	375.72
705.386	376.23
705.791	373.81
706.195	378.87
706.6	377.23
707.004	381.95
707.408	376.74
707.813	380.05
708.217	377.44
708.621	375.72
709.025	385.37
709.43	386.63
709.834	391.85
710.237	397.11
710.641	394.64
711.045	397.19
711.449	398.82
711.853	407.06
712.256	407.95
712.66	410.92
713.064	417.51
713.467	420.86
713.87	431.17
714.274	435.74
714.677	447.33
715.08	462.48
715.484	478.72
715.887	501.59
716.29	513.57
716.693	535.05
717.096	558.74
717.499	572.47
717.901	572.97
718.304	571.73
718.707	570.34
719.109	557.43
719.512	551.93
719.915	542.93
720.317	531.92
720.719	534.67
721.122	529.4
721.524	523.68
721.926	523.81
722.328	533.03
722.731	530.71
723.133	532.74
723.535	552.21
723.937	554.91
724.338	556.48
724.74	562.42
725.142	629.43
725.544	634.17
725.945	653.56
726.347	645.76
726.748	644.52
727.15	647.95
727.551	650.35
727.952	643.57
728.354	638.24
728.755	635.55
729.156	627.7
729.557	555.99
729.958	537.65
730.359	515.59
730.76	514.14
731.161	508.79
731.562	502.63
731.962	497.05
732.363	492.15
732.763	486.01
733.164	487.49
733.564	481.05
733.965	472.13
734.365	469.95
734.766	473.93
735.166	469.95
735.566	465.64
735.966	465.46
736.366	465.39
736.766	459.5
737.166	461.84
737.566	459.12
737.966	457.24
738.365	461.59
738.765	462.77
739.165	453.38
739.564	450.67
739.964	452.86
740.363	447.19
740.763	445.4
741.162	446.69
741.561	443.68
741.96	438.55
742.36	437.97
742.759	437.91
743.158	439.15
743.557	439.73
743.955	443.08
744.354	438.72
744.753	443.72
745.152	441.26
745.55	442.21
745.949	441.09
746.348	441.55
746.746	442.48
747.144	442.64
747.543	440.67
747.941	445.8
748.339	438.94
748.737	439.16
749.136	439.55
749.534	443.51
749.932	444.19
750.33	446.57
750.727	450.5
751.125	450.18
751.523	444.61
751.921	452.53
752.318	449.54
752.716	457.09
753.113	457.23
753.511	458.57
753.908	460.61
754.305	464.01
754.703	470.27
755.1	478.57
755.497	483.67
755.894	501.39
756.291	514.93
756.688	547.69
757.085	586
757.482	645.33
757.878	713.91
758.275	771.65
758.672	837.92
759.068	900.95
759.465	987.3
759.861	1100.6
760.258	1232.73
760.654	1298.87
761.05	1285.54
761.447	1226.97
761.843	1141.56
762.239	1050.4
762.635	1005.81
763.031	969.07
763.427	914.97
763.822	859.19
764.218	804.68
764.614	731.56
765.01	680.85
765.405	648.97
765.801	627.34
766.196	597.29
766.592	579.58
766.987	552.44
767.382	532.84
767.778	524.96
768.173	512.18
768.568	506.6
768.963	496.56
769.358	500.61
769.753	496.82
770.148	489.18
770.542	487.79
770.937	482.97
771.332	492.72
771.726	493.72
772.121	493.08
772.515	499.2
772.91	496.78
773.304	504.69
773.699	498.63
774.093	502.44
774.487	506.64
774.881	511.41
775.275	511.45
775.669	505.04
776.063	510.21
776.457	510.92
776.851	504.61
777.245	504.73
777.638	506.68
778.032	515.46
778.425	514.65
778.819	524.42
779.212	524.44
779.606	525.53
779.999	526.82
780.392	526.91
780.786	532.16
781.179	534.55
781.572	540.3
781.965	541.39
782.358	537.18
782.751	539.85
783.143	530.01
783.536	533.88
783.929	531.97
784.322	544.79
784.714	546.8
785.107	548.38
785.499	554.74
785.891	553.14
786.284	551.83
786.676	563.25
787.068	566.29
787.46	572.19
787.852	573.13
788.245	582.06
788.636	583.23
789.028	592.37
789.42	596.17
789.812	595.95
790.204	603.56
790.595	615.52
790.987	599.25
791.378	598.51
791.77	607.53
792.161	619.16
792.553	625.89
792.944	615.02
793.335	604.6
793.726	611.17
794.117	621.42
794.508	630.86
794.899	625.51
795.29	635.88
795.681	639.8
796.072	628.02
796.463	640.96
796.853	648.65
797.244	663.37
797.634	668.1
798.025	666.96
798.415	663.94
798.806	678.56
799.196	688.16
799.586	698.85
799.976	696.24
800.366	718.19
800.756	707.63
801.146	697.13
801.536	701.18
801.926	706.24
802.316	709.85
802.706	720.75
803.095	707.51
803.485	715.08
803.874	713.97
804.264	738.8
804.653	738.15
805.043	759
805.432	770.09
805.821	774.28
806.21	778.7
806.599	787.56
806.988	791.21
807.377	796.85
807.766	808.61
808.155	835.48
808.544	809.18
808.933	808.75
809.321	805.1
809.71	830.09
810.098	842.36
810.487	879.34
810.875	923.27
811.264	924.37
811.652	969.3
812.04	982.24
812.428	998.01
812.816	1063.64
813.204	1106.76
813.592	1149.41
813.98	1178.75
814.368	1176.3
814.756	1223.44
815.144	1215.19
815.531	1264.17
815.919	1237.02
816.306	1266.48
816.694	1241.33
817.081	1253.66
817.469	1284.19
817.856	1284.59
818.243	1309.39
818.63	1338.71
819.017	1305.52
819.404	1317.02
819.791	1347.37
820.178	1402.15
820.565	1429.38
820.952	1527.14
821.339	1482.66
821.725	1500.52
822.112	1438.57
822.498	1438.57
822.885	1448.2
823.271	1433.68
823.657	1463.13
824.044	1464.41
824.43	1471.71
824.816	1479.09
825.202	1430
825.588	1524.3
825.974	1523.97
826.36	1570.41
826.746	1571.98
827.132	1605.05
827.517	1611.66
827.903	1543.38
828.289	1552.62
828.674	1481.71
829.06	1459.69
829.445	1492.38
829.83	1523.26
830.216	1566.22
830.601	1602.99
830.986	1577.26
831.371	1569.27
831.756	1626.16
832.141	1594.86
832.526	1590.24
832.911	1619.95
833.295	1608.44
833.68	1654.28
834.065	1597.39
834.449	1510.98
834.834	1505.12
835.218	1501.41
835.603	1536.68
835.987	1504.93
836.371	1574.8
836.755	1567.14
837.139	1596.58
837.524	1615.01
837.908	1590.82
838.291	1598.71
838.675	1600.82
839.059	1616.95
839.443	1606.09
839.827	1574.58
840.21	1616.82
840.594	1608.13
840.977	1630.39
841.361	1631.33
841.744	1664.58
842.127	1656.64
842.511	1676.05
842.894	1731.23
843.277	1763.29
843.66	1810.47
844.043	1823.72
844.426	1756.15
844.809	1717.44
845.191	1717.07
845.574	1677.11
845.957	1644.48
846.339	1635.25
846.722	1587.79
847.104	1592.24
847.487	1572.15
847.869	1577.47
848.252	1602.16
848.634	1630.7
849.016	1659.61
849.398	1663.42
849.78	1736.83
850.162	1740.75
850.544	1777.6
850.926	1828.15
851.307	1818.32
851.689	1848.33
852.071	1886.86
852.452	1921.08
852.834	1916.53
853.215	1958.58
853.597	1976.91
853.978	2016.6
854.359	2056.87
854.741	1971.63
855.122	1961.66
855.503	1937.07
855.884	1949.27
856.265	1944.62
856.646	1941.76
857.026	1910.39
857.407	1900.06
857.788	1918.67
858.169	1930.23
858.549	1865.58
858.93	1922.61
859.31	1931.58
859.69	1960.96
860.071	1920.8
860.451	1900.31
860.831	1837.24
861.211	1938.53
861.591	1986.08
861.971	1977.46
862.351	2001.3
862.731	2021.14
863.111	2038.91
863.491	2073.62
863.87	2148.33
864.25	2175.93
864.629	2146.29
865.009	2188.64
865.388	2270.83
865.768	2432.8
866.147	2428.72
866.526	2298.42
866.905	2330.96
867.284	2453.01
867.663	2327
868.042	2234.08
868.421	2227.07
868.8	2256.27
869.179	2288.45
869.558	2148.89
869.936	1981.46
870.315	2009.35
870.693	2062.83
871.072	2218.95
871.45	2116.81
871.828	2143.36
872.207	2249.18
872.585	2217.55
872.963	2275.63
873.341	2199.58
873.719	2185.1
874.097	2156.32
874.475	2200.26
874.853	2236.18
875.23	2150.81
875.608	2247.76
875.986	2435.41
876.363	2331.91
876.741	2420.83
877.118	2375.22
877.495	2492.45
877.873	2529.96
878.25	2661.03
878.627	2554.81
879.004	2593.04
879.381	2567.38
879.758	2504.81
880.135	2326.56
880.512	2456.46
880.889	2365.87
881.265	2328.87
881.642	2293.54
882.019	2326.12
882.395	2295.05
882.772	2391.32
883.148	2287.2
883.524	2282.93
883.901	2261.7
884.277	2290.11
884.653	2270.26
885.029	2354.78
885.405	2622.37
885.781	2607.81
886.157	2500.84
886.532	2519.55
886.908	2508.73
887.284	2787.35
887.659	2878.12
888.035	2963.49
888.411	3043.08
888.786	3089.52
889.161	3188.27
889.537	3113.78
889.912	3214.27
890.287	3214.21
890.662	3294.23
891.037	3224.3
891.412	3005.49
891.787	2973.81
892.162	2874.29
892.536	2937.33
892.911	2826.28
893.286	2760.76
893.66	2654.69
894.035	2726.4
894.409	2957.28
894.784	2845.03
895.158	2896.48
895.532	3072.74
895.906	3162.59
896.281	3239.21
896.655	3204.97
897.029	3656.62
897.402	3813.34
897.776	4230.64
898.15	4214.99
898.524	4184.32
898.898	4232.2
899.271	4763.98
899.645	4132.44
900.018	3959.91
900.392	4108.55
900.765	4125.69
901.138	3825.06
901.511	3760.9
901.884	3468.04
902.258	3203.64
902.631	3313.16
903.003	3805.59
903.376	3420.98
903.749	3832.84
904.122	4097.02
904.495	4493.56
904.867	4531.44
905.24	3938.84
905.612	3661.16
905.985	3721.93
906.357	3887.79
906.729	3709.95
907.102	3177.35
907.474	3061.8
907.846	3079.82
908.218	3050.46
908.59	2722.58
908.962	2645.24
909.334	2848.17
909.705	3003.49
910.077	2923.89
910.449	3036.82
910.82	3118.01
911.192	3432.38
911.563	3569.65
911.935	3801.18
912.306	3793.05
912.677	3891.34
913.048	3861.06
913.419	4180.8
913.79	4181.53
914.161	4477.77
914.532	4297.51
914.903	3942.05
915.274	3739.48
915.645	3674.66
916.015	3225.32
916.386	3079.63
916.756	3278.82
917.127	3359.71
917.497	3015
917.868	3306.39
918.238	3160.13
918.608	3244.98
918.978	3323.94
919.348	3507.49
919.718	3621.36
920.088	3508.8
920.458	3659.49
920.828	3837.69
921.198	3658.75
921.567	3900.02
921.937	3025.83
922.306	3025.37
922.676	3249.06
923.045	2726.58
923.415	2604.69
923.784	2367.9
924.153	2452.74
924.522	2456.12
924.891	2307.91
925.26	2467.64
925.629	2395.52
925.998	2724.34
926.367	2669.25
926.736	2582.79
927.104	3055.18
927.473	3267.96
927.842	3937.05
928.21	3860.2
928.578	4010.39
928.947	3812.16
929.315	3852.73
929.683	4561.24
930.051	4615.22
930.42	5348.22
930.788	4546.37
931.156	4508.42
931.523	4265.08
931.891	3964.42
932.259	3827.62
932.627	4478.19
932.994	6315.21
933.362	5235.51
933.729	4533.3
934.097	4332.39
934.464	3694.79
934.831	4207.15
935.199	4142.4
935.566	4006.2
935.933	4018.51
936.3	4857.19
936.667	3771.11
937.034	3524.74
937.401	3466.64
937.767	2997.05
938.134	2666.55
938.501	3742.25
938.867	4049.96
939.234	6861.59
939.6	5803.94
939.967	6452.08
940.333	4353.19
940.699	3668.66
941.065	2815.04
941.431	3726.6
941.798	3624.52
942.163	4800.04
942.529	3000.42
942.895	2731.21
943.261	1773.24
943.627	2342.05
943.992	2061.54
944.358	2040.66
944.723	2093.33
945.089	2022.88
945.454	1859.37
945.82	1969.1
946.185	1871.88
946.55	2156.9
946.915	1932.53
947.28	2264.15
947.645	2001.38
948.01	1883.74
948.375	2001.5
948.74	2360.78
949.104	2744.83
949.469	3871.05
949.834	6790.24
950.198	6620.05
950.562	4001.81
950.927	3344.74
951.291	4011.6
951.655	3378.41
952.02	3077.74
952.384	2329.94
952.748	2078.99
953.112	2090.49
953.476	1849.85
953.839	1719.12
954.203	1719.87
954.567	2137.2
954.931	3304.06
955.294	2856.81
955.658	2865.56
956.021	4959.77
956.385	8230.69
956.748	12066.48
957.111	18268.62
957.474	20250.18
957.837	22602.7
958.2	16681.24
958.563	5996.94
958.926	4118.25
959.289	6138.33
959.652	6939.59
960.015	5166.42
960.377	7440.75
960.74	8411.06
961.102	14365.89
961.465	15583.92
961.827	8945.52
962.189	17177.49
962.552	11984.77
962.914	9554.77
963.276	6244.76
963.638	5169.64
964	5119.81
964.362	3525.61
964.724	3382.05
965.085	2430.57
965.447	2003.37
965.809	2161.11
966.17	2131.73
966.532	2273.38
966.893	2096.48
967.255	1907.64
967.616	2220.34
967.977	1776.92
968.338	1903.93
968.699	1606.9
969.061	1614.75
969.421	1624.83
969.782	1807.87
970.143	1571.44
970.504	1681.86
970.865	1941.6
971.225	2014.56
971.586	1976.79
971.946	2805.7
972.307	2433.32
972.667	3087.45
973.027	3178.98
973.388	3802.88
973.748	2607.9
974.108	2825.37
974.468	3677.89
974.828	2893.89
975.188	2187.36
975.548	2015.41
975.907	1697.39
976.267	1906.54
976.627	1666.43
976.986	1708.5
977.346	1611.33
977.705	1555.83
978.064	1412.1
978.424	1191.56
978.783	1179.51
979.142	1352.66
979.501	1319.37
979.86	1421.2
980.219	1366.89
980.578	1684.41
980.937	1883.65
981.296	1704.4
981.654	1756.96
982.013	2690.46
982.371	3521.96
982.73	3304.57
983.088	3699.63
983.447	3890.98
983.805	5539.98
984.163	11585.13
984.521	12845.68
984.879	18643.49
985.237	-30738.84
985.595	29767.98
985.953	7350.9
986.311	4157.62
986.669	2417.8
987.026	2089.85
987.384	2753.92
987.741	2782.04
988.099	2095.72
988.456	1699.69
988.814	1639.14
989.171	1390.95
989.528	1294.05
989.885	1365.89
990.242	1124.46
990.599	1366.87
990.956	1120.31
991.313	794.28
991.67	655.66
992.027	733.9
992.383	659.19
992.74	584.3
993.096	641.2
993.453	680.26
993.809	700.99
994.165	907.14
994.522	917.74
994.878	1017.56
995.234	1264.77
995.59	1241.44
995.946	1064.36
996.302	1209.42
996.658	1354.07
997.013	1451.87
997.369	1774.67
997.725	2322.11
998.08	1520.15
998.436	2053.04
998.791	2800.63
999.147	2893.49
999.502	3202.74
999.857	2329.62
1000.212	3792.83
1000.567	5448.9
1000.922	3082.41
1001.277	1917.64
1001.632	1421.75
1001.987	1839.01
1002.342	1335.27
1002.696	1073.67
1003.051	870.82
1003.406	1062.87
1003.76	1060.9
1004.114	1071.69
1004.469	929.23
1004.823	785.48
1005.177	830
1005.531	652.19
1005.885	593.63
1006.239	691.36
1006.593	894.83
1006.947	1188.07
1007.301	860.85
1007.655	941.72
1008.008	681.79
1008.362	751.53
1008.715	1065.35
1009.069	966.31
1009.422	1591.46
1009.776	3140.22
1010.129	2058.92
1010.482	1644.37
1010.835	1303.06
1011.188	2671.57
1011.541	2423.34
1011.894	-14321.73
1012.247	42533.83
1012.6	2796.7
1012.952	1848.1
1013.305	801.18
1013.657	597.18
1014.01	580.18
1014.362	490.53
1014.715	528.33
1015.067	499.69
1015.419	494.59
1015.771	462.09
1016.123	430.31
1016.475	453.26
1016.827	478.24
1017.179	553.9
1017.531	520.8
1017.883	520.34
1018.234	573.38
1018.586	685.75
1018.938	774.22
1019.289	1080.82
1019.64	1171.56
1019.992	1045.48
1020.343	964.52
1020.694	800.26
1021.045	707.6
1021.396	844.03
1021.747	946.65
1022.098	1004.33
1022.449	713.03
1022.8	614.04
1023.151	447.23
1023.501	437.6
1023.852	470.07
1024.202	493.85
1024.553	505.84
1024.903	526.1
1025.253	469.51
1025.604	416.98
1025.954	501.38
1026.304	583.97
1026.654	689
1027.004	935.89
1027.354	1322.9
1027.703	1357.99
1028.053	1641.34
1028.403	2626.01
1028.753	3140.91
1029.102	3507.74
1029.452	14782.84
1029.801	580.24
1030.15	371.37
1030.499	226.69
897.758	2828.96
901.051	2794.3
904.343	2826.41
907.636	2822.11
910.928	2890.69
914.22	2795.73
917.511	2804.29
920.803	2872.2
924.094	2894.57
927.384	2866.5
930.675	2832.6
933.965	2781.53
937.255	2783.86
940.544	2753.66
943.834	2674.62
947.123	2619.33
950.411	2719.35
953.7	2689.04
956.988	2648.66
960.276	2588.96
963.563	2677.37
966.851	2667.01
970.138	2730.98
973.424	2718.59
976.711	2666.28
979.997	2822.15
983.283	2853.38
986.568	2748.8
989.853	2771.82
993.138	2798.85
996.423	2880.07
999.708	2806.75
1002.992	2882.7
1006.275	2693.6
1009.559	2751.39
1012.842	2869.53
1016.125	2794.61
1019.408	2770.02
1022.69	2865.74
1025.972	2877
1029.254	2850.4
1032.536	2773.88
1035.817	2807.31
1039.098	2739.83
1042.379	2907.15
1045.659	2893.47
1048.939	2820.63
1052.219	2842.9
1055.498	2860.03
1058.778	2836.84
1062.057	2825.14
1065.335	2843.76
1068.614	2862.68
1071.892	2840.18
1075.17	2919.41
1078.447	2904.8
1081.724	2893.15
1085.001	2930.32
1088.278	2903.96
1091.554	2915.24
1094.83	2912.81
1098.106	2932.82
1101.382	2981.81
1104.657	2981.56
1107.932	2975.74
1111.206	2937.35
1114.481	2892.68
1117.755	2898.01
1121.029	2872.41
1124.302	2922.1
1127.575	2867.53
1130.848	2851.72
1134.121	2810.72
1137.393	2756.15
1140.665	2825.9
1143.937	2798.92
1147.208	2763.43
1150.48	2797.25
1153.75	2780.37
1157.021	2820.92
1160.291	2788.24
1163.561	2829.78
1166.831	2827.85
1170.101	2860.17
1173.37	2838.91
1176.639	2779.37
1179.907	2840.77
1183.176	2837.15
1186.444	2850.37
1189.711	2878.52
1192.979	2885.31
1196.246	2843.45
1199.513	2862.41
1202.78	2857.28
1206.046	2865.38
1209.312	2891.3
1212.578	2917.82
1215.843	2865.56
1219.108	2846.85
1222.373	2867.4
1225.638	2828.69
1228.902	2813.08
1232.166	2785.01
1235.43	2767.35
1238.693	2790
1241.956	2790.16
1245.219	2827.16
1248.482	2825.17
1251.744	2819.32
1255.006	2975.06
1258.268	2930.61
1261.529	2873.22
1264.79	2879.91
1268.051	2982.41
1271.312	3000.61
1274.572	2957.86
1277.832	2948.69
1281.092	2939.12
1284.351	2904.72
1287.61	2883.26
1290.869	2788.89
1294.128	2758.52
1297.386	2857.88
1300.644	2844.64
1303.902	2854.81
1307.159	2714.78
1310.416	2771.91
1313.673	2793.38
1316.93	2778.05
1320.186	2827.08
1323.442	2874.24
1326.697	2864.66
1329.953	2862.88
1333.208	2884.37
1336.463	2870.86
1339.717	2806.91
1342.972	2950.36
1346.226	2931.8
1349.479	2861.29
1352.733	2830.4
1355.986	2863.69
1359.238	2837.03
1362.491	2839.06
1365.743	2846.17
1368.995	2845.57
1372.247	2856.38
1375.498	2884.32
1378.749	2895.02
1382	2853.93
1385.251	2916.86
1388.501	2880.68
1391.751	2860.28
1395	2836.95
1398.25	2874.87
1401.499	2880.52
1404.748	2801.24
1407.996	2801.06
1411.244	2785.73
1414.492	2764.61
1417.74	2741.63
1420.987	2753.08
1424.234	2813.84
1427.481	2797.5
1430.728	2861.03
1433.974	2831.18
1437.22	2851.46
1440.465	2853.9
1443.711	2808.08
1446.956	2846.2
1450.201	2835.81
1453.445	2882.57
1456.689	2855.17
1459.933	2868.31
1463.177	2897.02
1466.42	2864.96
1469.663	2843.93
1472.906	2829.42
1476.148	2916.74
1479.391	2863.11
1482.633	2834.91
1485.874	2840.12
1489.115	2820.26
1492.356	2829.47
1495.597	2799.56
1498.838	2801.73
1502.078	2765.78
1505.318	2708.69
1508.557	2751.55
1511.797	2712.41
1515.036	2794.58
1518.274	2779.86
1521.513	2756.83
1524.751	2778.24
1527.989	2785.08
1531.227	2795.69
1534.464	2781.45
1537.701	2805.12
1540.938	2824.53
1544.174	2778.14
1547.41	2777.52
1550.646	2817.47
1553.882	2848.86
1557.117	2897.54
1560.352	2911.83
1563.587	2866.16
1566.821	2823.41
1570.055	2861.4
1573.289	2828.78
1576.523	2908.52
1579.756	2908.78
1582.989	2924.67
1586.222	2883.04
1589.454	2922.57
1592.686	2891.98
1595.918	2913.97
1599.15	2900
1602.381	2981.83
1605.612	2927.43
1608.843	3022.52
1612.073	2934.29
1615.303	2917.14
1618.533	2905.25
1621.762	2910.71
1624.992	2901.13
1628.221	2877.92
1631.449	2863.82
1634.678	2929.29
1637.906	2877.63
1641.134	2924.09
1644.361	2875.91
1647.588	2863.31
1650.815	2880.72
1654.042	2863.54
1657.269	2892.49
1660.495	2836.6
1663.72	2860.79
1666.946	2826.21
1670.171	2759.29
1673.396	2739.87
1676.621	2728.01
1679.845	2756.33
1683.069	2779.14
1686.293	2823.4
1689.517	2791.83
1692.74	2715.87
1695.963	2747.6
1699.185	2766.32
1702.408	2743.42
1705.63	2787.33
1708.852	2795.05
1712.073	2771.99
1715.294	2751.09
1718.515	2819.43
1721.736	2765.45
1724.956	2764.41
1728.176	2792.62
1731.396	2814.71
1734.616	2803.35
1737.835	2827.47
1741.054	2811.45
1744.272	2810.53
1747.491	2835.2
1750.709	2898.41
1753.927	2792.36
1757.144	2842.73
1760.361	2879.94
1763.578	2878.91
1766.795	2821.7
1770.011	2835.34
1773.227	2881.01
1776.443	2914.42
1779.658	2957.09
1782.874	2906.14
1786.089	2878.61
1789.303	2882.58
1792.518	2892.34
1795.732	2879.2
1798.945	2890.29
1802.159	2942.81
1805.372	2835.85
1808.585	2820.55
1811.797	2824.75
1815.01	2882.81
1818.222	2879.39
1821.434	2843.6
1824.645	2908.07
1827.856	2887.17
1831.067	2926.93
1834.278	2888.93
1837.488	2873.34
1840.698	3031.75
1843.908	2949.96
1847.117	2916.73
1850.326	2788.31
1853.535	2905.19
1856.744	2948.73
1859.952	2861.4
1863.16	2866.17
1866.368	2896.16
1869.575	3004.35
1872.782	2891.8
1875.989	2832.95
1879.196	2935.74
1882.402	2930.82
1885.608	2979.54
1888.814	2877.2
1892.019	2771.39
1895.224	2829.4
1898.429	2815.4
1901.634	2791.28
1904.838	2768.5
1908.042	2824.45
1911.246	2834.94
1914.449	2753.77
1917.652	2755.57
1920.855	2734.45
1924.058	2790.73
1927.26	2824.89
1930.462	2858.57
1933.664	2881.4
1936.865	2816.88
1940.066	2823.8
1943.267	2767.89
1946.467	2785.42
1949.668	2815.22
1952.868	2882.8
1956.067	2859.08
1959.267	2787.41
1962.466	2816.73
1965.665	2797
1968.863	2793.76
1972.061	2812.56
1975.259	2814.6
1978.457	2895.79
1981.654	2848.62
1984.852	2847.49
1988.048	2774.25
1991.245	2783.44
1994.441	2868.41
1997.637	2859.93
2000.833	2838.39
2004.028	2881.97
2007.223	2929.98
2010.418	2904.23
2013.613	2866.56
2016.807	2831.01
2020.001	2846.08
2023.194	2893.99
2026.388	2864.86
2029.581	2811
2032.774	2856.74
2035.966	2862.41
2039.158	2787.09
2042.35	2821.01
2045.542	2745.05
2048.733	2852.55
2051.924	2883.02
2055.115	2912.29
2058.306	2849.25
2061.496	2912.28
2064.686	2978.88
2067.875	2892.7
2071.065	2908.37
2074.254	2938.62
2077.442	2887.17
2080.631	2981.96
2083.819	2861.1
2087.007	2840.22
2090.195	2806.77
2093.382	2846.34
2096.569	2823.15
2099.756	2774.76
2102.942	2793.78
2106.128	2801.2
2109.314	2791.43
2112.5	2749.45
2115.685	2725.48
2118.87	2736.93
2122.055	2805.44
2125.239	2766.52
2128.424	2736.95
2131.608	2851.89
2134.791	2831.89
2137.974	2897.95
2141.157	2881.01
2144.34	2827.46
2147.523	2849.06
2150.705	2859.97
2153.887	2840.77
2157.068	2783.74
2160.25	2791.54
2163.431	2834.48
2166.611	2772.53
2169.792	2788.87
2172.972	2675.96
2176.152	2764.23
2179.331	2803.73
2182.511	2780.55
2185.69	2809.46
2188.868	2803.14
2192.047	2865.46
2195.225	2849.09
2198.403	2799.62
2201.58	2795.45
2204.758	2791.79
2207.935	2882.6
2211.111	2758.46
2214.288	2740.89
2217.464	2783.07
2220.64	2760.17
2223.815	2818.67
2226.991	2735.35
2230.166	2757.75
2233.34	2784.21
2236.515	2812.9
2239.689	2892.56
2242.863	2828.45
2246.036	2888.69
2249.209	2893.92
2252.382	2932.99
2255.555	2915.72
2258.727	2848.19
2261.9	2892.15
2265.071	2882.36
2268.243	2887.23
2271.414	2813.15
2274.585	2769.44
2277.756	2842.49
2280.926	2795.95
2284.096	2840.7
2287.266	2740.11
2290.436	2798.01
2293.605	2829.54
2296.774	2861.67
2299.942	2885.91
2303.111	2904.47
2306.279	2951.43
2309.447	2936.63
2312.614	2912.46
2315.781	2934.93
2318.948	2902.82
2322.115	2942.44
2325.281	2841.89
2328.447	2868.16
2331.613	2840.69
2334.779	2810.26
2337.944	2814.87
2341.109	2815.34
2344.274	2796.19
2347.438	2759.23
2350.602	2786.23
2353.766	2803.02
2356.929	2788.69
2360.092	2835.65
2363.255	2779.97
2366.418	2703.55
2369.58	2833.41
2372.742	2587.97
2375.904	2608.8
2379.066	2581.34
2382.227	2620.23
2385.388	2581.35
2388.548	2499.89
2391.709	2561.26
2394.869	2535.86
2398.029	2647.4
2401.188	2665.39
2404.347	2588.6
2407.506	2755.15
2410.665	2782.89
2413.823	2793.93
2416.981	2744.92
2420.139	2782.46
2423.296	2836.05
2426.453	2806.59
2429.61	2831.47
2432.767	2758.07
2435.923	2795.17
2439.079	2742.79
2442.235	2798.6
2445.391	2716.88
2448.546	2744.42
2451.701	2799.76
2454.855	2761.5
2458.009	2822.77
2461.163	2826.65
2464.317	2783.41
2467.471	2818.81
2470.624	2864.24
2473.777	2847.87
2476.929	2858.66
2480.082	2885.24
2483.234	2846.27
2486.385	2795.97
2489.537	2790.6
2492.688	2740.85
2495.839	2762.33
2498.989	2772.12
2502.14	2755.55
2505.29	2734.99
2508.439	2763.81
2511.589	2680.05
2514.738	2693.13
2517.887	2725.46
2521.035	2797.34
2524.183	2784.63
2527.331	2763.12
2530.479	2730.97
2533.627	2743.75
