Data from C_3_DIV_WI_4N_Splice17_12-56-07-534.txt Node
Date: Sat Mar 14 12:56:07 EDT 2020
User: sa697716
Spectrometer: FLMS03696
Trigger mode: 0
Integration Time (sec): 3.180400E-1
Scans to average: 20
Electric dark correction enabled: true
Nonlinearity correction enabled: true
Boxcar width: 5
XAxis mode: Wavelengths
Number of Pixels in Spectrum: 2048
>>>>>Begin Spectral Data<<<<<
187.83	-317373.88
188.298	2302.74
188.766	1331.68
189.233	1190.65
189.701	1733.08
190.169	2468.04
190.636	949.75
191.104	788.98
191.571	167.24
192.039	-16.45
192.506	55.04
192.974	506.15
193.441	-573.88
193.908	32.92
194.375	38.41
194.842	161.69
195.31	330.97
195.777	238.47
196.244	460.58
196.711	480.35
197.177	567.06
197.644	793.93
198.111	1351.05
198.578	1866.12
199.045	1522.94
199.511	2487.31
199.978	2916.98
200.445	2487.72
200.911	2744.23
201.378	3052.66
201.844	2796.42
202.31	4791.05
202.777	5021.25
203.243	2783.71
203.709	2640.43
204.176	3118.55
204.642	2568.19
205.108	2379.28
205.574	1926.96
206.04	1768.83
206.506	1651.86
206.972	1545.35
207.438	1474.62
207.903	1677.43
208.369	1486.39
208.835	1494.07
209.301	1565.62
209.766	1590.61
210.232	1575.69
210.697	1976.03
211.163	2417.65
211.628	3635.72
212.094	3057.13
212.559	3787.93
213.024	2331.92
213.49	2839.2
213.955	2730.13
214.42	2648.11
214.885	2477.38
215.35	2377.92
215.815	2272.09
216.28	2412.58
216.745	1958.6
217.21	2102.9
217.675	1906.92
218.14	2134.41
218.604	2351.27
219.069	2660.75
219.534	2780.19
219.998	3199.44
220.463	3829.56
220.927	4637.87
221.392	4310.59
221.856	4331.03
222.32	5417.7
222.785	6677.22
223.249	8358.4
223.713	9282.7
224.177	9233.01
224.642	11770.75
225.106	14427.5
225.57	15756.85
226.034	11718.09
226.497	17879.08
226.961	16146.67
227.425	18777.82
227.889	20756.07
228.353	20747.58
228.816	42721.2
229.28	40823.37
229.744	34402.98
230.207	20910.57
230.671	20528.23
231.134	33990.23
231.597	39072.09
232.061	39084.53
232.524	38130.19
232.987	26288.9
233.45	23663.32
233.914	21242.46
234.377	21783.02
234.84	19937.53
235.303	23459.27
235.766	26163.74
236.229	26936.23
236.691	16978.04
237.154	19020.89
237.617	14284.17
238.08	14610.13
238.542	17069.5
239.005	12198.83
239.468	12102.46
239.93	11413.61
240.393	10378.27
240.855	9112.01
241.317	9331.2
241.78	11324.81
242.242	11713.65
242.704	12673.87
243.166	11030.04
243.629	10037.84
244.091	11564.66
244.553	12672.92
245.015	13606.43
245.477	17603.38
245.939	25769.13
246.4	27363.86
246.862	26605.29
247.324	25079.1
247.786	28016.04
248.247	36701.79
248.709	37780.99
249.17	28252.2
249.632	26666.61
250.093	30930.57
250.555	26694.84
251.016	16314.24
251.477	15456.89
251.939	16689.52
252.4	17475.28
252.861	20741.17
253.322	19308.86
253.783	22979.07
254.244	29770.5
254.705	23432.19
255.166	20814.5
255.627	20510.85
256.088	28906.33
256.549	30752.04
257.009	26459.56
257.47	32123.46
257.931	26181.74
258.391	19599.71
258.852	20217.97
259.312	21199.18
259.773	26161.66
260.233	22111.97
260.694	18628.98
261.154	21077.96
261.614	16920.87
262.074	15131.99
262.534	15730.16
262.994	14829.87
263.455	19743.92
263.915	16621.34
264.374	15642.31
264.834	17064.56
265.294	18905.65
265.754	19572.55
266.214	18522.97
266.673	17309.39
267.133	21819.65
267.593	21651.52
268.052	26496.79
268.512	23030.94
268.971	27785.84
269.431	30449.53
269.89	27262.06
270.349	40856.4
270.809	45573.28
271.268	40962.3
271.727	91886.73
272.186	59482.52
272.645	44555.52
273.104	32057.63
273.563	46385.72
274.022	36419.54
274.481	30987.3
274.94	23885.43
275.399	17747.54
275.857	20638.98
276.316	27900.82
276.775	24827.56
277.233	24452.74
277.692	22902.36
278.15	25967.1
278.609	26749.9
279.067	24771.24
279.525	23040.3
279.984	29725.53
280.442	35733.89
280.9	35292.07
281.358	23257.25
281.816	21682.85
282.274	21244.65
282.732	21938.3
283.19	22027.26
283.648	19025.26
284.106	20253.55
284.564	20599.1
285.021	19112.95
285.479	14210.45
285.937	12900.49
286.394	11320.23
286.852	11654.98
287.309	12258.68
287.767	11865.08
288.224	11290.36
288.682	12367.85
289.139	13597.85
289.596	12439.35
290.053	12933.7
290.511	16341.04
290.968	19824.76
291.425	26858.33
291.882	22380.3
292.339	19457.19
292.796	19254.9
293.252	18133.2
293.709	14426.22
294.166	12923.73
294.623	14258.94
295.079	13650.17
295.536	13700.69
295.992	12440.66
296.449	12304.76
296.905	12748.99
297.362	12227.28
297.818	12840.16
298.274	13330.72
298.731	13560.3
299.187	13406.32
299.643	14380.05
300.099	17416.84
300.555	19086.22
301.011	15926.11
301.467	15389.02
301.923	18008.03
302.379	17583.23
302.835	17306.52
303.291	17298.79
303.746	19678.05
304.202	24844.08
304.658	24954.21
305.113	16744.45
305.569	16431.99
306.024	17505.56
306.479	16618.86
306.935	14027.92
307.39	15299.36
307.845	14134.83
308.301	14208.17
308.756	13832.62
309.211	13333.63
309.666	13652.71
310.121	17015.41
310.576	17266.29
311.031	17124.11
311.486	19611.94
311.94	19605.92
312.395	26229.85
312.85	49264.6
313.305	242287
313.759	1258430.44
314.214	91235.3
314.668	72506.04
315.123	61046.17
315.577	21926.16
316.032	19569.83
316.486	24508.88
316.94	19333.25
317.394	13471.79
317.849	10474.53
318.303	9908.46
318.757	9346.03
319.211	10320.1
319.665	9037.61
320.119	9132.05
320.572	13070.09
321.026	12195.78
321.48	10157.76
321.934	11057.39
322.387	11074.55
322.841	11943.54
323.295	10759.01
323.748	12373.53
324.202	12551.56
324.655	15067.02
325.108	21069.2
325.562	14896.61
326.015	17682
326.468	13371.98
326.921	14960.93
327.374	13967.18
327.827	14577.74
328.28	16497.24
328.733	11072.36
329.186	9752.15
329.639	9279.36
330.092	7818.2
330.545	7445.66
330.997	7524.96
331.45	8246.94
331.903	9695.15
332.355	16660.26
332.808	16177.23
333.26	13366.9
333.713	14511.62
334.165	14598.09
334.617	19513.81
335.069	15766.14
335.522	28481.89
335.974	31495.31
336.426	28676.56
336.878	19821.74
337.33	10072.08
337.782	9839.09
338.234	12303.76
338.686	14692.09
339.137	17431.19
339.589	16419.99
340.041	12862.39
340.493	11076.55
340.944	11353.23
341.396	12247.82
341.847	10315.11
342.299	12180.88
342.75	14892.74
343.201	13008.94
343.653	14976.98
344.104	18382.01
344.555	14457.61
345.006	22452.56
345.457	17196.94
345.908	13652.57
346.359	12847.99
346.81	10430.31
347.261	10951.36
347.712	10767.73
348.163	11528.09
348.613	11686.77
349.064	10903.11
349.515	9524.64
349.965	9767.58
350.416	11769.67
350.866	12919.49
351.317	14590.64
351.767	24218.71
352.217	30601.85
352.668	25357.52
353.118	23262.99
353.568	22394.05
354.018	17771.31
354.468	18807.63
354.918	13513.5
355.368	11813.22
355.818	16645.03
356.268	47760.05
356.718	199771.96
357.168	50019.87
357.617	25075.68
358.067	27907.84
358.517	26104.37
358.966	30586.75
359.416	34317.04
359.865	37095.19
360.315	44068.92
360.764	20668.08
361.213	11616.48
361.663	11017.6
362.112	13555.26
362.561	21920.19
363.01	16533.86
363.459	13928.71
363.908	15059.47
364.357	12792.47
364.806	21571.59
365.255	14826.68
365.703	13574.61
366.152	13576.42
366.601	11023.13
367.05	8955.41
367.498	8139.21
367.947	8493.77
368.395	8830.65
368.844	7817.42
369.292	9388.08
369.74	6500.84
370.189	9961.39
370.637	11657.56
371.085	10040.49
371.533	12207.37
371.981	11741.75
372.429	11204.04
372.877	11671.36
373.325	9750.95
373.773	9907.32
374.221	8817.43
374.669	10915.91
375.116	9438.54
375.564	9529.3
376.012	10677.85
376.459	8809.94
376.907	10538.06
377.354	12746.55
377.801	11899.74
378.249	13697.24
378.696	17530.9
379.143	21292.97
379.591	22685.23
380.038	38423.67
380.485	27754.18
380.932	29997.67
381.379	27458.16
381.826	20266.28
382.273	14447.33
382.72	12643.18
383.166	12342.64
383.613	8024.73
384.06	7232.82
384.506	8379.9
384.953	6149.09
385.4	6184.39
385.846	5403.68
386.292	5257.04
386.739	5126.71
387.185	5044.3
387.631	5045.41
388.078	4922.67
388.524	5269.33
388.97	4865.94
389.416	4066.59
389.862	4329.74
390.308	4101.09
390.754	4168.86
391.2	4531.25
391.645	4640.87
392.091	4475.93
392.537	4333.07
392.983	4319.68
393.428	4263.85
393.874	4570.79
394.319	4608.42
394.765	4384.81
395.21	4524.93
395.655	4249.39
396.101	3975.98
396.546	3601.61
396.991	3621.67
397.436	3371.24
397.881	3269.37
398.326	3089.64
398.771	2929.09
399.216	2557.74
399.661	2303.67
400.106	2303.3
400.551	2367.38
400.995	2128.84
401.44	2106.15
401.885	1979.37
402.329	1999.39
402.774	1918.41
403.218	1869.32
403.663	1802.68
404.107	1854.3
404.551	1873.55
404.995	1715.49
405.44	1652.17
405.884	1682.12
406.328	1623.6
406.772	1621.56
407.216	1476.87
407.66	1428.51
408.104	1349.18
408.547	1264.81
408.991	1223.36
409.435	1176.84
409.879	1162.03
410.322	1149.01
410.766	1109.84
411.209	1060.16
411.653	1017.84
412.096	1001.39
412.54	1000.81
412.983	998.19
413.426	1006.92
413.869	1007.57
414.312	992.11
414.756	957.17
415.199	913.45
415.642	890.45
416.085	894.02
416.527	888.91
416.97	901.77
417.413	859.54
417.856	850.33
418.298	837.75
418.741	832.25
419.184	828.94
419.626	860.64
420.069	859.76
420.511	865.33
420.953	847.93
421.396	841.14
421.838	820.16
422.28	839.51
422.722	845.8
423.164	856.56
423.606	845.78
424.048	843.02
424.49	805.47
424.932	804.42
425.374	791.84
425.816	803.43
426.258	819.88
426.699	829.32
427.141	813.73
427.582	822.05
428.024	817.37
428.465	809.47
428.907	792.51
429.348	786.71
429.789	790.01
430.231	776.37
430.672	791.78
431.113	774.76
431.554	765.73
431.995	750.84
432.436	730.87
432.877	720.37
433.318	712.93
433.759	710.86
434.2	708.93
434.64	700.15
435.081	702.78
435.522	666.02
435.962	643.83
436.403	633.44
436.843	642.33
437.284	629.04
437.724	612.18
438.164	612.21
438.604	600.79
439.045	581.15
439.485	560.87
439.925	550.76
440.365	535.97
440.805	529.54
441.245	522.86
441.685	505.17
442.125	499.94
442.564	503.7
443.004	493.64
443.444	490.99
443.883	493
444.323	486.76
444.762	485.24
445.202	493.68
445.641	504.68
446.081	502.51
446.52	507.44
446.959	505.19
447.398	495.1
447.837	491.21
448.276	485.26
448.716	489.09
449.154	493.75
449.593	484.18
450.032	482.03
450.471	470.92
450.91	468.45
451.349	467.27
451.787	464.37
452.226	469.09
452.664	468.02
453.103	467.16
453.541	464.82
453.98	465.48
454.418	467.1
454.856	461.24
455.295	460.04
455.733	465.19
456.171	466.59
456.609	466.36
457.047	466.11
457.485	473.75
457.923	475.35
458.361	468.68
458.798	469.05
459.236	468.39
459.674	470.08
460.111	472.51
460.549	467.47
460.987	465.93
461.424	465.19
461.862	463.46
462.299	454.88
462.736	454.99
463.173	457.33
463.611	456.12
464.048	456
464.485	460.5
464.922	457.33
465.359	454.48
465.796	454.41
466.233	452.66
466.67	450.19
467.106	451.3
467.543	446.91
467.98	441.32
468.416	428.52
468.853	425.65
469.29	413.74
469.726	410.35
470.162	401.14
470.599	392.37
471.035	388.2
471.471	379.18
471.907	376.49
472.344	373.1
472.78	374.97
473.216	378.3
473.652	374.18
474.088	373.15
474.523	371.7
474.959	374.65
475.395	371.65
475.831	370.27
476.266	372.17
476.702	370.95
477.138	367.77
477.573	366.65
478.008	366.58
478.444	367.96
478.879	371.81
479.314	373.41
479.75	372.85
480.185	374.06
480.62	375.58
481.055	376.44
481.49	378.72
481.925	383.02
482.36	388.75
482.795	396.59
483.229	403.49
483.664	408.73
484.099	406.95
484.534	412.16
484.968	414.39
485.403	414.02
485.837	411.32
486.271	409.48
486.706	409.85
487.14	404.85
487.574	399.26
488.009	396.38
488.443	393.07
488.877	398.1
489.311	398.8
489.745	403.09
490.179	407.23
490.613	415.68
491.046	418.18
491.48	420.49
491.914	420.6
492.348	422.87
492.781	425.89
493.215	427.73
493.648	428.96
494.082	432.88
494.515	433.67
494.948	438.86
495.382	441.56
495.815	444.86
496.248	448.58
496.681	455.84
497.114	463.58
497.547	470.45
497.98	478.61
498.413	482.68
498.846	488.48
499.279	494.52
499.711	497.38
500.144	499.85
500.577	507.79
501.009	515.46
501.442	523.49
501.874	525.48
502.306	527.58
502.739	535.85
503.171	547.48
503.603	551.94
504.036	559.67
504.468	565.99
504.9	576.14
505.332	582.83
505.764	588.38
506.196	595.57
506.627	607.96
507.059	619.18
507.491	625.37
507.923	625.84
508.354	638.9
508.786	648.6
509.217	663.32
509.649	675.33
510.08	690.62
510.512	705.56
510.943	718.5
511.374	729.78
511.805	747.41
512.237	763.9
512.668	789.93
513.099	810.71
513.53	832.56
513.961	850.77
514.391	876.32
514.822	903.46
515.253	930.3
515.684	951.88
516.114	975.79
516.545	994.95
516.975	1018.14
517.406	1034.78
517.836	1042.79
518.267	1052.96
518.697	1070.83
519.127	1079.22
519.558	1089.19
519.988	1098.04
520.418	1110.4
520.848	1128.42
521.278	1139.89
521.708	1170.88
522.138	1186.47
522.567	1214.27
522.997	1237.52
523.427	1253.16
523.857	1270.17
524.286	1281.58
524.716	1297.66
525.145	1316.76
525.575	1330.72
526.004	1345.42
526.433	1332.25
526.863	1334.7
527.292	1331.6
527.721	1340.59
528.15	1349.63
528.579	1353.45
529.008	1366.11
529.437	1386.38
529.866	1400.2
530.295	1414.09
530.724	1426.3
531.152	1450.39
531.581	1463.58
532.01	1478.29
532.438	1486.46
532.867	1499.27
533.295	1516.09
533.723	1522.52
534.152	1521.83
534.58	1523.56
535.008	1512.39
535.436	1517.05
535.865	1524.22
536.293	1537.51
536.721	1551.59
537.149	1572.42
537.576	1574.85
538.004	1585.43
538.432	1593.27
538.86	1592.72
539.287	1597.68
539.715	1610.82
540.143	1611.79
540.57	1609.47
540.998	1606.67
541.425	1588.59
541.852	1572.4
542.28	1572.43
542.707	1560.12
543.134	1548.68
543.561	1546.65
543.988	1541.83
544.415	1541.58
544.842	1537.65
545.269	1532.4
545.696	1535.12
546.123	1546.1
546.549	1538.96
546.976	1529.14
547.403	1529.27
547.829	1531.29
548.256	1533.96
548.682	1531.64
549.108	1525.8
549.535	1526.38
549.961	1528.71
550.387	1518.9
550.813	1515.29
551.24	1521.18
551.666	1522.49
552.092	1515.75
552.518	1509.85
552.943	1505.01
553.369	1510.97
553.795	1516.11
554.221	1517.01
554.646	1514.46
555.072	1522.59
555.498	1525.45
555.923	1531.14
556.349	1541.49
556.774	1547.57
557.199	1548.82
557.625	1552.31
558.05	1547.34
558.475	1554.01
558.9	1552.36
559.325	1544.27
559.75	1537.97
560.175	1531.57
560.6	1525.74
561.025	1521.77
561.449	1519.81
561.874	1521.22
562.299	1523.13
562.723	1525.14
563.148	1514.01
563.572	1513.25
563.997	1518.3
564.421	1519.08
564.846	1516.23
565.27	1515.99
565.694	1511.36
566.118	1517.23
566.542	1520.31
566.966	1511.43
567.39	1504.58
567.814	1492.92
568.238	1488.97
568.662	1488.87
569.086	1487.39
569.509	1489.13
569.933	1474.18
570.357	1465.26
570.78	1446.14
571.204	1433.34
571.627	1421.38
572.05	1416.97
572.474	1414.05
572.897	1402.47
573.32	1394.6
573.743	1384.53
574.166	1367.76
574.589	1363.69
575.012	1355.63
575.435	1351.57
575.858	1341.94
576.281	1331.4
576.704	1316.38
577.126	1304.43
577.549	1293.54
577.972	1282.64
578.394	1272.51
578.817	1265.89
579.239	1249.45
579.661	1238.07
580.084	1225.31
580.506	1213.69
580.928	1208.77
581.35	1199.51
581.772	1195.08
582.194	1183.35
582.616	1172.92
583.038	1159.95
583.46	1149.74
583.882	1146.07
584.303	1146.36
584.725	1140.21
585.147	1141.58
585.568	1147.31
585.99	1154.38
586.411	1155.69
586.833	1164.12
587.254	1162.08
587.675	1170.17
588.096	1177.97
588.518	1171.88
588.939	1157.83
589.36	1155.09
589.781	1142.12
590.202	1121.11
590.623	1113.6
591.043	1110.58
591.464	1100.67
591.885	1097.61
592.305	1092.24
592.726	1080.2
593.147	1080.57
593.567	1075.51
593.987	1069.15
594.408	1065.73
594.828	1061.9
595.248	1056.52
595.669	1044.01
596.089	1038.38
596.509	1033.55
596.929	1023.07
597.349	1023.45
597.769	1015.09
598.189	1009.97
598.608	1009.69
599.028	1009.53
599.448	1008.93
599.867	998.84
600.287	995.6
600.706	991.57
601.126	984.77
601.545	983.51
601.965	980.6
602.384	975.29
602.803	975.63
603.222	971.79
603.641	965.65
604.061	962.03
604.48	958.86
604.898	961.94
605.317	963.6
605.736	961.94
606.155	958.53
606.574	950.7
606.992	952.53
607.411	947.79
607.829	939.74
608.248	935.83
608.666	932.12
609.085	929.66
609.503	922.11
609.921	916.39
610.339	916.4
610.758	913.55
611.176	909.41
611.594	902.12
612.012	898.08
612.43	899.1
612.847	901.87
613.265	901.5
613.683	902.01
614.101	900.39
614.518	895.29
614.936	887.14
615.353	876.86
615.771	873
616.188	872.55
616.606	868.94
617.023	863.07
617.44	852.92
617.857	847.14
618.274	840.99
618.691	836.73
619.108	829.88
619.525	824.08
619.942	826.87
620.359	827.25
620.776	821.53
621.192	818.18
621.609	815.18
622.026	818.24
622.442	820.81
622.859	821.05
623.275	815.41
623.691	817.61
624.108	824.45
624.524	832.04
624.94	831.28
625.356	837.27
625.772	844.6
626.188	851.64
626.604	852.51
627.02	848.44
627.436	847.7
627.852	852.3
628.268	860.95
628.683	854.36
629.099	848.68
629.514	845.69
629.93	847.99
630.345	850.7
630.761	847.62
631.176	848.06
631.591	845.13
632.007	840.29
632.422	836.03
632.837	826.63
633.252	824.22
633.667	816.1
634.082	808.55
634.497	799.05
634.911	785.48
635.326	780.69
635.741	768.85
636.155	759.94
636.57	758.61
636.984	757.39
637.399	756.89
637.813	754.59
638.228	752.05
638.642	753.12
639.056	744.15
639.47	742.34
639.884	735.3
640.298	730.09
640.712	727.8
641.126	717.71
641.54	709.62
641.954	703.35
642.368	694.35
642.781	688.94
643.195	676.06
643.609	675.03
644.022	669.4
644.436	665.2
644.849	654.63
645.262	644.4
645.676	642.36
646.089	638.81
646.502	630.05
646.915	624.35
647.328	612.93
647.741	610.55
648.154	601.61
648.567	599.94
648.98	592.39
649.393	592.23
649.805	590.26
650.218	587.6
650.631	578.4
651.043	574.3
651.456	571.18
651.868	570.62
652.28	579.88
652.693	586.76
653.105	588.53
653.517	592.36
653.929	591.26
654.341	594.69
654.753	586.85
655.165	590.3
655.577	588.35
655.989	585.47
656.401	580.33
656.813	560.96
657.224	549.95
657.636	534.02
658.047	526.06
658.459	516.48
658.87	510.27
659.282	503.05
659.693	492.51
660.104	484.97
660.515	477.18
660.926	477.23
661.338	474.68
661.749	470.16
662.159	465.76
662.57	462
662.981	459.03
663.392	455.25
663.803	457.87
664.213	455.64
664.624	451.7
665.035	453.43
665.445	444.43
665.855	442.03
666.266	439.01
666.676	437.14
667.086	432.39
667.497	433.75
667.907	431.3
668.317	425.99
668.727	426.7
669.137	428.26
669.547	428.18
669.956	430.35
670.366	431.8
670.776	434.09
671.186	437.55
671.595	440.95
672.005	443.54
672.414	444.56
672.824	445.28
673.233	446.56
673.642	448.88
674.052	452.09
674.461	456.29
674.87	459.23
675.279	459.1
675.688	460.34
676.097	462.57
676.506	460.78
676.915	469.38
677.323	472.39
677.732	471.74
678.141	472.8
678.549	467.32
678.958	466.89
679.366	467.32
679.775	470.16
680.183	478.73
680.592	483.2
681	488.12
681.408	485.36
681.816	490.73
682.224	497.06
682.632	503.76
683.04	521.33
683.448	535.29
683.856	553.61
684.264	575.12
684.671	593.05
685.079	614.33
685.487	639.44
685.894	675.64
686.302	704.09
686.709	729.27
687.116	758.95
687.524	784.41
687.931	807.8
688.338	829.36
688.745	845.71
689.152	865.02
689.559	894.39
689.966	925.32
690.373	941.99
690.78	972.33
691.187	1015.67
691.593	1051.21
692	1083.11
692.407	1128.59
692.813	1186.55
693.22	1234.75
693.626	1287.03
694.032	1331.1
694.439	1391.7
694.845	1442.63
695.251	1504.05
695.657	1562.12
696.063	1644.61
696.469	1711.13
696.875	1774.33
697.281	1812.16
697.687	1860.97
698.093	1903.71
698.498	1972.86
698.904	2029.34
699.31	2108.65
699.715	2172.44
700.12	2258.07
700.526	2286.35
700.931	2353.72
701.337	2407.56
701.742	2450.51
702.147	2532.55
702.552	2570.32
702.957	2632.58
703.362	2664
703.767	2704.29
704.172	2751.13
704.577	2725.61
704.981	2778.49
705.386	2806.45
705.791	2814.44
706.195	2890.31
706.6	2909.95
707.004	2990.31
707.408	2977.47
707.813	3015.74
708.217	3016.74
708.621	3033.1
709.025	3128.22
709.43	3141.08
709.834	3205.93
710.237	3278.6
710.641	3276.31
711.045	3308.65
711.449	3315.56
711.853	3352.64
712.256	3398.81
712.66	3442.15
713.064	3516.85
713.467	3566.43
713.87	3676.48
714.274	3724.99
714.677	3832.68
715.08	3987.59
715.484	4146.56
715.887	4339.43
716.29	4528.42
716.693	4725.62
717.096	4953.42
717.499	5082.92
717.901	5116.83
718.304	5153.53
718.707	5190.47
719.109	5108.17
719.512	5089.08
719.915	4978.38
720.317	4940.79
720.719	4992.48
721.122	4975.44
721.524	4939.35
721.926	4912.63
722.328	5014.02
722.731	5011.97
723.133	5045.88
723.535	5237.57
723.937	5266.64
724.338	5320.03
724.74	5362.95
725.142	5315.47
725.544	5321.6
725.945	5356.41
726.347	5357.55
726.748	5359.69
727.15	5381.39
727.551	5353.13
727.952	5330.64
728.354	5307.33
728.755	5314.25
729.156	5279.9
729.557	5271.12
729.958	5163.18
730.359	5116.06
730.76	5106.95
731.161	5055.34
731.562	5037.49
731.962	5045.55
732.363	4989.73
732.763	4935.14
733.164	4976.33
733.564	4915.64
733.965	4827.84
734.365	4796.76
734.766	4826.71
735.166	4790.28
735.566	4738.64
735.966	4716.24
736.366	4714.02
736.766	4657.98
737.166	4691.37
737.566	4653.72
737.966	4630.97
738.365	4671.97
738.765	4669.41
739.165	4600.24
739.564	4578.01
739.964	4625.71
740.363	4583.31
740.763	4583.05
741.162	4575.73
741.561	4545.54
741.96	4503.39
742.36	4524.71
742.759	4531.33
743.158	4570.5
743.557	4586.81
743.955	4628.15
744.354	4584.06
744.753	4639.52
745.152	4600.44
745.55	4652.28
745.949	4649.25
746.348	4650.97
746.746	4668.36
747.144	4629.14
747.543	4607.75
747.941	4654.45
748.339	4584.1
748.737	4577.06
749.136	4571.67
749.534	4637.79
749.932	4611.31
750.33	4635.44
750.727	4690.52
751.125	4666.39
751.523	4650.57
751.921	4694.27
752.318	4662.59
752.716	4722.33
753.113	4736.1
753.511	4758.6
753.908	4758.28
754.305	4741.97
754.703	4800.38
755.1	4860.92
755.497	4920.5
755.894	5107.92
756.291	5281.48
756.688	5598.08
757.085	6018.28
757.482	6608.97
757.878	7251.69
758.275	7826.74
758.672	8622.4
759.068	9269
759.465	10191.79
759.861	11390.31
760.258	12777.23
760.654	13484.09
761.05	13363.05
761.447	12749.73
761.843	11875.54
762.239	10973.46
762.635	10568.87
763.031	10185.09
763.427	9624.92
763.822	9032.96
764.218	8450.48
764.614	7689.9
765.01	7181.53
765.405	6858.97
765.801	6615.27
766.196	6300.67
766.592	6128.76
766.987	5832.4
767.382	5630.07
767.778	5547.42
768.173	5425.01
768.568	5352.75
768.963	5233.62
769.358	5251.86
769.753	5206.96
770.148	5123.89
770.542	5122.08
770.937	5089.23
771.332	5173.25
771.726	5192.43
772.121	5131.49
772.515	5185.99
772.91	5173.17
773.304	5239.77
773.699	5172.64
774.093	5225.09
774.487	5276.52
774.881	5318.28
775.275	5314.62
775.669	5277.11
776.063	5319.72
776.457	5352.05
776.851	5275.62
777.245	5266.48
777.638	5296.9
778.032	5410.39
778.425	5374.93
778.819	5420.09
779.212	5377.78
779.606	5340.89
779.999	5356.92
780.392	5337.76
780.786	5416.69
781.179	5440.38
781.572	5481.31
781.965	5495.37
782.358	5441.72
782.751	5494.29
783.143	5447.53
783.536	5516.93
783.929	5554.54
784.322	5667.92
784.714	5697.97
785.107	5695.57
785.499	5762.68
785.891	5743.04
786.284	5721.1
786.676	5853.34
787.068	5833.82
787.46	5879.27
787.852	5898.26
788.245	5979.22
788.636	6004.41
789.028	6071.9
789.42	6106.93
789.812	6113.29
790.204	6206.16
790.595	6302.85
790.987	6116.33
791.378	6138.3
791.77	6264.24
792.161	6392.51
792.553	6447.45
792.944	6341.54
793.335	6273.2
793.726	6343.77
794.117	6432.78
794.508	6564.85
794.899	6534.48
795.29	6671.45
795.681	6727.56
796.072	6588.31
796.463	6414.99
796.853	6426.99
797.244	6579.39
797.634	6608.57
798.025	6603.45
798.415	6613.21
798.806	6698.13
799.196	6781.21
799.586	6827.03
799.976	6790.82
800.366	7016.22
800.756	7244.78
801.146	7204.23
801.536	7231.74
801.926	7306.5
802.316	7334.38
802.706	7403.35
803.095	7285.28
803.485	7382.81
803.874	7421.67
804.264	7667.77
804.653	7638.43
805.043	7780.78
805.432	7887.64
805.821	7885.68
806.21	7906.52
806.599	8020.1
806.988	8058.89
807.377	8160.14
807.766	8283.14
808.155	8554.49
808.544	8298.56
808.933	8310.42
809.321	8288.25
809.71	8566.84
810.098	8715.31
810.487	9150.06
810.875	9608.07
811.264	9625.98
811.652	9897.78
812.04	10036.51
812.428	10191.21
812.816	10921.93
813.204	11320.28
813.592	11831.92
813.98	12153.92
814.368	12064.88
814.756	12527.48
815.144	12446.58
815.531	12895.42
815.919	12821.16
816.306	13114.55
816.694	12807.27
817.081	12865.85
817.469	13193.54
817.856	13202.66
818.243	13456
818.63	13830.76
819.017	13427.51
819.404	13490.85
819.791	13853.19
820.178	14445.46
820.565	14678.91
820.952	15586.75
821.339	15105
821.725	15287.49
822.112	14570.66
822.498	14536.03
822.885	14659.12
823.271	14567.45
823.657	14960.84
824.044	14965.17
824.43	15030.78
824.816	14999.44
825.202	14570.74
825.588	15548.68
825.974	15567.53
826.36	16055.04
826.746	16081.19
827.132	16424.56
827.517	16397.28
827.903	15649.68
828.289	15687.97
828.674	14946.87
829.06	14841.64
829.445	15229.34
829.83	15559.99
830.216	16010.27
830.601	16363.57
830.986	15971.47
831.371	15837.94
831.756	16368.54
832.141	15957.05
832.526	15944.98
832.911	16204.42
833.295	16098.3
833.68	16536.2
834.065	15948.6
834.449	15070.44
834.834	14998.62
835.218	14999.12
835.603	15318.4
835.987	15117.73
836.371	15908.42
836.755	15814.95
837.139	16207.06
837.524	16438.26
837.908	16268.59
838.291	16318.6
838.675	16384.18
839.059	16577.89
839.443	16563.41
839.827	16343.78
840.21	16796.49
840.594	16655.41
840.977	16841.67
841.361	16814.64
841.744	17159.82
842.127	17003.65
842.511	17234.18
842.894	17790.72
843.277	18148.89
843.66	18656.71
844.043	18731.22
844.426	17957.34
844.809	17662.25
845.191	17695.21
845.574	17251.65
845.957	16901.25
846.339	16800.97
846.722	16303.31
847.104	16369.39
847.487	16203.81
847.869	16214.84
848.252	16474.03
848.634	16788.85
849.016	17032.84
849.398	17146.35
849.78	17953.01
850.162	17965.25
850.544	18355.01
850.926	18943.13
851.307	18857.96
851.689	19128.69
852.071	19545
852.452	19852.78
852.834	19834.89
853.215	20207.64
853.597	20350.53
853.978	20629.69
854.359	21047.8
854.741	20102.32
855.122	20010.14
855.503	19742.81
855.884	19868.48
856.265	19818.16
856.646	19919.98
857.026	19538.73
857.407	19474.71
857.788	19620.78
858.169	19876.64
858.549	19087.67
858.93	19679.21
859.31	19728.71
859.69	19913.04
860.071	19519.14
860.451	19320.11
860.831	18629.5
861.211	19729.66
861.591	20244.36
861.971	20223.87
862.351	20406.04
862.731	20764.42
863.111	21013.71
863.491	21320.05
863.87	22152.83
864.25	22488.97
864.629	22108.82
865.009	22588.53
865.388	23386.55
865.768	25066.26
866.147	24956.03
866.526	23587
866.905	23873.58
867.284	25215.1
867.663	23936.59
868.042	22955.3
868.421	22871.85
868.8	23247.78
869.179	23477.71
869.558	22116.96
869.936	20382.84
870.315	20754.17
870.693	21266.73
871.072	22922.3
871.45	21828.82
871.828	22121.51
872.207	23238.56
872.585	22897.24
872.963	23529.33
873.341	22719.58
873.719	22452.85
874.097	22180.85
874.475	22597.46
874.853	23100.05
875.23	22146.19
875.608	23078.82
875.986	24959.45
876.363	23875.75
876.741	24599.76
877.118	23970.38
877.495	25141.67
877.873	25556.05
878.25	26906.99
878.627	25808.26
879.004	26172.56
879.381	26039.93
879.758	25351.02
880.135	23589.49
880.512	24947.68
880.889	24286.84
881.265	24040.01
881.642	23834.52
882.019	24228.89
882.395	23730.46
882.772	24670.74
883.148	23593.25
883.524	23500.56
883.901	23371.27
884.277	23722.13
884.653	23561.86
885.029	24232.35
885.405	26835.1
885.781	26625.72
886.157	25532.67
886.532	25841.11
886.908	25821.14
887.284	28704.92
887.659	29632.56
888.035	30537.61
888.411	31322.25
888.786	31726.29
889.161	32832.46
889.537	32209.16
889.912	33239.3
890.287	33197.57
890.662	34044.78
891.037	33440.15
891.412	31176.75
891.787	30855.66
892.162	29782.46
892.536	30470
892.911	29325.37
893.286	28698.17
893.66	27524.66
894.035	28224.24
894.409	30727.27
894.784	29487.86
895.158	29960.9
895.532	31733.38
895.906	32599.58
896.281	33346.72
896.655	32815.43
897.029	37480.17
897.402	39024.98
897.776	43443.96
898.15	43284.36
898.524	42806.75
898.898	43362.34
899.271	48538.44
899.645	42053.6
900.018	40389.49
900.392	41887.77
900.765	42223.28
901.138	39077
901.511	38485.68
901.884	35357.26
902.258	32607.84
902.631	33706.14
903.003	38801.61
903.376	35017.27
903.749	39254.22
904.122	42015.84
904.495	46264.26
904.867	46829.4
905.24	40671.97
905.612	37869.57
905.985	38717.14
906.357	40483.91
906.729	38643.9
907.102	33000.76
907.474	31737.18
907.846	31944.42
908.218	31525.1
908.59	27862.6
908.962	26947.18
909.334	29007.01
909.705	30450.19
910.077	29572.66
910.449	30782.58
910.82	31628.23
911.192	34786.32
911.563	36150.57
911.935	38677.12
912.306	38719.32
912.677	39980.2
913.048	39596.23
913.419	42979.61
913.79	43228.4
914.161	46334
914.532	44286.59
914.903	40688.95
915.274	38651.34
915.645	38070.01
916.015	33495.58
916.386	31945.78
916.756	33995.64
917.127	35068.69
917.497	31329.64
917.868	34117.82
918.238	32421.83
918.608	33360.29
918.978	34065.55
919.348	36108.3
919.718	37324.8
920.088	35999.43
920.458	37400.67
920.828	39372.89
921.198	37325.69
921.567	39888.36
921.937	30899.51
922.306	31185.36
922.676	33647.2
923.045	28081.17
923.415	26670.7
923.784	24282.78
924.153	24956.94
924.522	24940.46
924.891	23432.86
925.26	25103.84
925.629	24511.66
925.998	28175.79
926.367	27513.72
926.736	26189.61
927.104	31177.01
927.473	33497.47
927.842	40459.93
928.21	40060.08
928.578	42119.1
928.947	39854.64
929.315	40098.2
929.683	47021.08
930.051	47371.95
930.42	55029.42
930.788	47013.51
931.156	46680.48
931.523	43742.71
931.891	40415.78
932.259	38815.96
932.627	44952.54
932.994	63592.61
933.362	52538.48
933.729	45608.91
934.097	43646.22
934.464	36905.16
934.831	42601.11
935.199	41982.34
935.566	40743.9
935.933	41374.92
936.3	50122.6
936.667	39051.72
937.034	35210.71
937.401	34846.26
937.767	30072.27
938.134	26763.24
938.501	37751.05
938.867	40210.18
939.234	68015.03
939.6	58042.1
939.967	63752.1
940.333	42609.58
940.699	36234.32
941.065	29079.94
941.431	38117.42
941.798	36754.11
942.163	48315.26
942.529	30230.2
942.895	27818.79
943.261	18002.16
943.627	23636.03
943.992	20699.92
944.358	20743.75
944.723	20840.19
945.089	20312.91
945.454	18759.69
945.82	20042.73
946.185	19260.57
946.55	22296.2
946.915	20022.92
947.28	23479.27
947.645	20665.74
948.01	19084.04
948.375	19917.24
948.74	23881.98
949.104	27890.08
949.469	40308.01
949.834	71260.5
950.198	67545.62
950.562	40481.42
950.927	33727.41
951.291	40629.11
951.655	34621.37
952.02	32493.44
952.384	24566.06
952.748	21375.38
953.112	20855.02
953.476	18132.81
953.839	16749.3
954.203	16585.04
954.567	20740.88
954.931	32656.09
955.294	27872.53
955.658	28005.53
956.021	47648.18
956.385	80812.63
956.748	119234.68
957.111	184730.63
957.474	207317.35
957.837	233446.06
958.2	176507.52
958.563	63535.82
958.926	42951.38
959.289	65286.41
959.652	72881.55
960.015	54705.3
960.377	78466.31
960.74	89573.61
961.102	154582.97
961.465	166079.47
961.827	89070.98
962.189	170992.78
962.552	118480.16
962.914	95034.17
963.276	61619.75
963.638	50956.85
964	50477.45
964.362	34130.88
964.724	32996.57
965.085	23517.8
965.447	19262.93
965.809	21926.88
966.17	21954.07
966.532	23764.11
966.893	21789.8
967.255	19838.14
967.616	23427.21
967.977	18765.5
968.338	20495.24
968.699	16837.59
969.061	16848.91
969.421	16979
969.782	19034.24
970.143	16060.63
970.504	16620.86
970.865	18914.04
971.225	19332.77
971.586	18898.72
971.946	26882.88
972.307	23306.09
972.667	30430.86
973.027	31335.59
973.388	37998.29
973.748	25863.11
974.108	28191.07
974.468	38126.38
974.828	29398.84
975.188	22604.47
975.548	20789.95
975.907	17473.08
976.267	19609.26
976.627	16494.81
976.986	17103.91
977.346	16295.07
977.705	15705.33
978.064	14304.3
978.424	11925.18
978.783	12330.29
979.142	14087.5
979.501	13455.62
979.86	14212.91
980.219	13705.49
980.578	17684.38
980.937	19807.82
981.296	17637.4
981.654	18150.34
982.013	28221.35
982.371	36587.14
982.73	34136.39
983.088	38620.36
983.447	41283.99
983.805	59038.36
984.163	123382.4
984.521	136847.18
984.879	200778.87
985.237	-327652.08
985.595	315253.56
985.953	78316.25
986.311	45220.93
986.669	26247.26
987.026	22661.72
987.384	30464.39
987.741	31507.3
988.099	22491.27
988.456	17938.78
988.814	16775.39
989.171	14521.46
989.528	14335.14
989.885	15150.11
990.242	12014.07
990.599	14951.48
990.956	12228.48
991.313	8547.62
991.67	7020.18
992.027	7457.5
992.383	6626.24
992.74	5821.92
993.096	6122.76
993.453	6343.28
993.809	6570.8
994.165	8732.6
994.522	8028.55
994.878	8850.76
995.234	11102.11
995.59	10938.76
995.946	10344
996.302	11789.96
996.658	13594.53
997.013	14979.27
997.369	17763.16
997.725	22775.34
998.08	14758.5
998.436	22672.32
998.791	31290.53
999.147	31330.49
999.502	34181.44
999.857	24858.93
1000.212	40518.71
1000.567	57700.98
1000.922	33285.74
1001.277	21119.7
1001.632	15671.32
1001.987	20189.6
1002.342	14497.83
1002.696	11589.33
1003.051	9238.72
1003.406	11215.34
1003.76	11149.61
1004.114	11011.27
1004.469	9248.86
1004.823	7639.75
1005.177	8244.54
1005.531	6528.05
1005.885	5785.72
1006.239	6531.63
1006.593	8193.11
1006.947	10955.32
1007.301	8197.62
1007.655	8948.63
1008.008	6559.38
1008.362	7400.03
1008.715	10598.35
1009.069	9640.49
1009.422	14463.07
1009.776	29009.45
1010.129	19302.34
1010.482	16149.84
1010.835	13690.97
1011.188	28521.82
1011.541	26846.97
1011.894	-163999.29
1012.247	482200.85
1012.6	32785.62
1012.952	20665.45
1013.305	10705.1
1013.657	7718.11
1014.01	7300.15
1014.362	6017.32
1014.715	5341.09
1015.067	4647.29
1015.419	4542.39
1015.771	4036.2
1016.123	3598.21
1016.475	3700.04
1016.827	3957.72
1017.179	4260.25
1017.531	4283.77
1017.883	4366.98
1018.234	4214.02
1018.586	5316
1018.938	5630.75
1019.289	7769.22
1019.64	8875.03
1019.992	8215.3
1020.343	7524.49
1020.694	5950.44
1021.045	5239.47
1021.396	5991.6
1021.747	6450.42
1022.098	7728.48
1022.449	5632.17
1022.8	5238.82
1023.151	3651.34
1023.501	3240.77
1023.852	3536.04
1024.202	3667.01
1024.553	4028.14
1024.903	3949.2
1025.253	3392.07
1025.604	3050.4
1025.954	3789.05
1026.304	4581.81
1026.654	5312.19
1027.004	7763.42
1027.354	12515.05
1027.703	11740.57
1028.053	15364.03
1028.403	22410.56
1028.753	32360.03
1029.102	43972.12
1029.452	225655.86
1029.801	9739.05
1030.15	6304.69
1030.499	5362.59
897.758	2676.57
901.051	2636.15
904.343	2672.37
907.636	2673.87
910.928	2738.22
914.22	2644.81
917.511	2654.07
920.803	2714.41
924.094	2733.53
927.384	2714.66
930.675	2680.82
933.965	2635.31
937.255	2642.82
940.544	2609.07
943.834	2547.82
947.123	2491.89
950.411	2591.4
953.7	2563.17
956.988	2531.12
960.276	2470.53
963.563	2551.55
966.851	2545.99
970.138	2605.7
973.424	2599.87
976.711	2550.66
979.997	2686.45
983.283	2720.73
986.568	2625.76
989.853	2639.72
993.138	2668.06
996.423	2754.7
999.708	2688.94
1002.992	2755.58
1006.275	2588.1
1009.559	2633.13
1012.842	2748.56
1016.125	2676.21
1019.408	2657.52
1022.69	2745.16
1025.972	2763.64
1029.254	2741.65
1032.536	2671.5
1035.817	2701.46
1039.098	2644.25
1042.379	2787.75
1045.659	2786.11
1048.939	2719.01
1052.219	2740.8
1055.498	2751.54
1058.778	2736.03
1062.057	2721.58
1065.335	2740.26
1068.614	2758.42
1071.892	2741.75
1075.17	2815.42
1078.447	2808.66
1081.724	2799.23
1085.001	2832.9
1088.278	2809.14
1091.554	2819.83
1094.83	2816.65
1098.106	2846.81
1101.382	2892.39
1104.657	2893.91
1107.932	2890.21
1111.206	2852.19
1114.481	2808.23
1117.755	2812.37
1121.029	2795.97
1124.302	2849.79
1127.575	2799.74
1130.848	2786.95
1134.121	2746.42
1137.393	2696.25
1140.665	2765.54
1143.937	2739.2
1147.208	2701.61
1150.48	2742.61
1153.75	2730.06
1157.021	2758.66
1160.291	2726.89
1163.561	2776.02
1166.831	2764.5
1170.101	2797.42
1173.37	2768.9
1176.639	2712.12
1179.907	2770.06
1183.176	2777.16
1186.444	2785.25
1189.711	2812.97
1192.979	2825.12
1196.246	2783.26
1199.513	2800.5
1202.78	2800.33
1206.046	2810.1
1209.312	2835.23
1212.578	2862.16
1215.843	2814.73
1219.108	2787.78
1222.373	2812.29
1225.638	2774.17
1228.902	2758.69
1232.166	2720.17
1235.43	2703.13
1238.693	2724.8
1241.956	2722.02
1245.219	2765.66
1248.482	2754.53
1251.744	2750.69
1255.006	2901.93
1258.268	2854.46
1261.529	2797.87
1264.79	2802.17
1268.051	2908.1
1271.312	2927.39
1274.572	2889.31
1277.832	2878.27
1281.092	2866.26
1284.351	2839.62
1287.61	2818.49
1290.869	2731.15
1294.128	2707.61
1297.386	2799.21
1300.644	2789.08
1303.902	2801.77
1307.159	2654.02
1310.416	2712.52
1313.673	2737.15
1316.93	2723.37
1320.186	2770.93
1323.442	2811.95
1326.697	2802.31
1329.953	2793.22
1333.208	2813.99
1336.463	2796.52
1339.717	2734.82
1342.972	2870.92
1346.226	2845.32
1349.479	2777.75
1352.733	2747.01
1355.986	2770.16
1359.238	2747.55
1362.491	2751.06
1365.743	2751.53
1368.995	2747.51
1372.247	2760.85
1375.498	2787.28
1378.749	2802.67
1382	2756.88
1385.251	2810.18
1388.501	2770.39
1391.751	2753.87
1395	2725.18
1398.25	2757.67
1401.499	2764.43
1404.748	2692.75
1407.996	2679.88
1411.244	2664.66
1414.492	2646.11
1417.74	2623.96
1420.987	2636.14
1424.234	2695.59
1427.481	2672.32
1430.728	2731.04
1433.974	2705.67
1437.22	2722.69
1440.465	2722.75
1443.711	2688.05
1446.956	2724.5
1450.201	2710.5
1453.445	2757.27
1456.689	2734.63
1459.933	2746.99
1463.177	2781.74
1466.42	2753.35
1469.663	2735.71
1472.906	2730.75
1476.148	2806.23
1479.391	2766.15
1482.633	2734.23
1485.874	2748.04
1489.115	2735.15
1492.356	2738.15
1495.597	2713.63
1498.838	2715.23
1502.078	2684.93
1505.318	2631.34
1508.557	2674.96
1511.797	2650.67
1515.036	2723.99
1518.274	2710.08
1521.513	2680.41
1524.751	2704.08
1527.989	2717.93
1531.227	2730.65
1534.464	2727.69
1537.701	2745.15
1540.938	2765.45
1544.174	2718.48
1547.41	2717.81
1550.646	2754.93
1553.882	2795.45
1557.117	2854.35
1560.352	2866.32
1563.587	2823.06
1566.821	2784.09
1570.055	2816.71
1573.289	2790.6
1576.523	2867.77
1579.756	2872.54
1582.989	2892.06
1586.222	2854.09
1589.454	2894.79
1592.686	2861.56
1595.918	2888.02
1599.15	2877.79
1602.381	2952.02
1605.612	2906.64
1608.843	3005.44
1612.073	2916.02
1615.303	2900.47
1618.533	2891.25
1621.762	2895.74
1624.992	2878.1
1628.221	2867.97
1631.449	2852.87
1634.678	2908.78
1637.906	2861.16
1641.134	2903.62
1644.361	2856.89
1647.588	2846.58
1650.815	2864.89
1654.042	2841.06
1657.269	2868.67
1660.495	2821.77
1663.72	2843.6
1666.946	2807.56
1670.171	2750.23
1673.396	2727.42
1676.621	2713.15
1679.845	2732.95
1683.069	2748.55
1686.293	2793.03
1689.517	2764.04
1692.74	2695.31
1695.963	2723.23
1699.185	2740.26
1702.408	2712.78
1705.63	2756.03
1708.852	2766.8
1712.073	2740.3
1715.294	2725.54
1718.515	2790.83
1721.736	2736.78
1724.956	2730.03
1728.176	2755.43
1731.396	2781.76
1734.616	2766.31
1737.835	2796.63
1741.054	2776.33
1744.272	2768.67
1747.491	2799.97
1750.709	2853.58
1753.927	2757
1757.144	2801.65
1760.361	2847.65
1763.578	2838.18
1766.795	2779.04
1770.011	2788.1
1773.227	2827.34
1776.443	2864.02
1779.658	2909.14
1782.874	2849.54
1786.089	2827.81
1789.303	2832.16
1792.518	2835.74
1795.732	2823.2
1798.945	2834.66
1802.159	2883.48
1805.372	2783.57
1808.585	2770.32
1811.797	2769.2
1815.01	2820.13
1818.222	2823.61
1821.434	2796.13
1824.645	2855.83
1827.856	2840.93
1831.067	2876.2
1834.278	2831.73
1837.488	2815.28
1840.698	2968.1
1843.908	2889.52
1847.117	2852.46
1850.326	2734.33
1853.535	2839.51
1856.744	2867.6
1859.952	2777.15
1863.16	2779.78
1866.368	2803.55
1869.575	2906.14
1872.782	2789.15
1875.989	2724.37
1879.196	2809.3
1882.402	2801.82
1885.608	2843.67
1888.814	2744.09
1892.019	2632.61
1895.224	2686.04
1898.429	2665.91
1901.634	2641.66
1904.838	2619.53
1908.042	2669.57
1911.246	2678.85
1914.449	2610.16
1917.652	2605.18
1920.855	2587.07
1924.058	2635.75
1927.26	2675.12
1930.462	2704.28
1933.664	2733.21
1936.865	2670.19
1940.066	2678.97
1943.267	2624.55
1946.467	2639.04
1949.668	2668.36
1952.868	2737.42
1956.067	2713.83
1959.267	2645.73
1962.466	2674.39
1965.665	2659.14
1968.863	2652.01
1972.061	2667.54
1975.259	2667.05
1978.457	2748.26
1981.654	2704.9
1984.852	2702.83
1988.048	2635.46
1991.245	2640.65
1994.441	2728.05
1997.637	2712.3
2000.833	2693.2
2004.028	2732.66
2007.223	2789.42
2010.418	2765.52
2013.613	2726.58
2016.807	2698.96
2020.001	2707.15
2023.194	2749.91
2026.388	2724.8
2029.581	2668.75
2032.774	2720.85
2035.966	2725.06
2039.158	2658.1
2042.35	2679.56
2045.542	2609.77
2048.733	2706.75
2051.924	2732.29
2055.115	2760.06
2058.306	2703.87
2061.496	2764.39
2064.686	2826.95
2067.875	2739.61
2071.065	2753.28
2074.254	2781.05
2077.442	2734.22
2080.631	2823.57
2083.819	2717.52
2087.007	2696.48
2090.195	2666.45
2093.382	2701.18
2096.569	2680.64
2099.756	2636.11
2102.942	2660.05
2106.128	2670.44
2109.314	2659.71
2112.5	2623.15
2115.685	2596.08
2118.87	2607.46
2122.055	2671.67
2125.239	2639.14
2128.424	2611.38
2131.608	2714.12
2134.791	2695.99
2137.974	2753.92
2141.157	2737.46
2144.34	2690.39
2147.523	2706.08
2150.705	2721.68
2153.887	2700.4
2157.068	2652.14
2160.25	2652.52
2163.431	2693.62
2166.611	2639.4
2169.792	2654.73
2172.972	2546.57
2176.152	2626.5
2179.331	2662.14
2182.511	2644.9
2185.69	2673.95
2188.868	2669.87
2192.047	2724.74
2195.225	2715.9
2198.403	2663.81
2201.58	2657.35
2204.758	2652.74
2207.935	2736.52
2211.111	2625.28
2214.288	2608.46
2217.464	2648.25
2220.64	2618.19
2223.815	2674.59
2226.991	2593.04
2230.166	2613.47
2233.34	2644.8
2236.515	2670.34
2239.689	2742.33
2242.863	2687.32
2246.036	2742.76
2249.209	2742.65
2252.382	2775.89
2255.555	2763.62
2258.727	2698.64
2261.9	2739.06
2265.071	2731.56
2268.243	2733
2271.414	2660.78
2274.585	2624.88
2277.756	2692.97
2280.926	2648.04
2284.096	2689.27
2287.266	2596.01
2290.436	2651.61
2293.605	2680.1
2296.774	2712.37
2299.942	2734.29
2303.111	2750.85
2306.279	2800.88
2309.447	2787.15
2312.614	2760.72
2315.781	2778.14
2318.948	2748.93
2322.115	2788.11
2325.281	2689.39
2328.447	2710.28
2331.613	2683.22
2334.779	2653.85
2337.944	2657.55
2341.109	2657.72
2344.274	2638.92
2347.438	2605.03
2350.602	2629.73
2353.766	2645.23
2356.929	2631.38
2360.092	2672.18
2363.255	2625.27
2366.418	2560.59
2369.58	2674.52
2372.742	2457.35
2375.904	2470.32
2379.066	2446.57
2382.227	2484.12
2385.388	2446.88
2388.548	2370.71
2391.709	2427.51
2394.869	2408.11
2398.029	2506.66
2401.188	2518.22
2404.347	2452.2
2407.506	2597.3
2410.665	2626.97
2413.823	2633.04
2416.981	2588.5
2420.139	2619.78
2423.296	2670.96
2426.453	2643.58
2429.61	2668.84
2432.767	2601.56
2435.923	2642.33
2439.079	2603.93
2442.235	2652.91
2445.391	2578.46
2448.546	2609.98
2451.701	2659.57
2454.855	2634.26
2458.009	2686.18
2461.163	2688.94
2464.317	2645.26
2467.471	2679.34
2470.624	2719.09
2473.777	2688.04
2476.929	2700.03
2480.082	2727.62
2483.234	2690.99
2486.385	2642.4
2489.537	2634.5
2492.688	2595.97
2495.839	2612.39
2498.989	2626.37
2502.14	2608.83
2505.29	2591.18
2508.439	2619.66
2511.589	2543.06
2514.738	2551.58
2517.887	2581.83
2521.035	2649.31
2524.183	2632.54
2527.331	2611.16
2530.479	2584.47
2533.627	2593.45
