Data from C_3_DIV_IL_4N_Splice17_13-19-44-092.txt Node
Date: Sat Mar 14 13:19:44 EDT 2020
User: sa697716
Spectrometer: FLMS03696
Trigger mode: 0
Integration Time (sec): 3.180400E-1
Scans to average: 20
Electric dark correction enabled: true
Nonlinearity correction enabled: true
Boxcar width: 5
XAxis mode: Wavelengths
Number of Pixels in Spectrum: 2048
>>>>>Begin Spectral Data<<<<<
187.83	-374007.75
188.298	2631.62
188.766	1447.34
189.233	1307.83
189.701	1920.16
190.169	2567.51
190.636	929.64
191.104	771.13
191.571	132.66
192.039	-64.17
192.506	-90.25
192.974	553.55
193.441	-914.71
193.908	-154.49
194.375	-43.07
194.842	45.88
195.31	40.23
195.777	115.86
196.244	346.95
196.711	413.12
197.177	509.86
197.644	721.99
198.111	1248.41
198.578	1774.59
199.045	1426.98
199.511	2387.18
199.978	2794.31
200.445	2400.2
200.911	2658.93
201.378	2951.3
201.844	2706.19
202.31	4666.72
202.777	4853.92
203.243	2704.69
203.709	2551.89
204.176	3062.82
204.642	2476.38
205.108	2299.51
205.574	1854.39
206.04	1686.13
206.506	1572.36
206.972	1460.57
207.438	1403.72
207.903	1590.53
208.369	1397.45
208.835	1411.44
209.301	1458.88
209.766	1486.27
210.232	1465.43
210.697	1820.83
211.163	2214.26
211.628	3284.64
212.094	2751.38
212.559	3404.4
213.024	2103.34
213.49	2558.46
213.955	2461.99
214.42	2399.45
214.885	2220.23
215.35	2135.93
215.815	2065.72
216.28	2171.54
216.745	1746.38
217.21	1862.12
217.675	1634.46
218.14	1772.6
218.604	1877.95
219.069	2054.43
219.534	2078.5
219.998	2305.62
220.463	2653.28
220.927	3086.21
221.392	2820.29
221.856	2804.88
222.32	3405.56
222.785	4114.95
223.249	5081.01
223.713	5591.08
224.177	5514.67
224.642	6910.97
225.106	8404.98
225.57	9109.88
226.034	6755.85
226.497	10181.4
226.961	9148.58
227.425	10605.36
227.889	11647.27
228.353	11546.47
228.816	23642.54
229.28	22526.98
229.744	18854.41
230.207	11454.51
230.671	11209.29
231.134	18279.74
231.597	21054.66
232.061	20862.62
232.524	20130.58
232.987	13809.92
233.45	12434.4
233.914	11153.86
234.377	11302.09
234.84	10337.86
235.303	12097.47
235.766	13467.13
236.229	13908.97
236.691	8687.59
237.154	9703.11
237.617	7331.35
238.08	7522.16
238.542	8769.56
239.005	6254.2
239.468	6236
239.93	5873.41
240.393	5352.9
240.855	4708.15
241.317	4816.86
241.78	5844.1
242.242	6051.21
242.704	6525.51
243.166	5654.44
243.629	5153.95
244.091	5930.28
244.553	6445.44
245.015	6924.41
245.477	8916.18
245.939	13007.97
246.4	13764.92
246.862	13346.38
247.324	12549.63
247.786	14016.85
248.247	18301.57
248.709	18724.05
249.17	13940.41
249.632	13220.03
250.093	15332.34
250.555	13227.7
251.016	8066.88
251.477	7643.59
251.939	8245.19
252.4	8647.63
252.861	10201.31
253.322	9515.02
253.783	11269.05
254.244	14617.81
254.705	11473.18
255.166	10124.16
255.627	9935.39
256.088	13986.9
256.549	14835.03
257.009	12739.27
257.47	15363.18
257.931	12488.01
258.391	9320.43
258.852	9592.53
259.312	9977.83
259.773	12250.45
260.233	10386.38
260.694	8749.95
261.154	9874.39
261.614	7934.05
262.074	7066.56
262.534	7334.72
262.994	6898.63
263.455	9119.16
263.915	7676.48
264.374	7197.22
264.834	7811.56
265.294	8577.2
265.754	8848.5
266.214	8335.31
266.673	7747.78
267.133	9723.48
267.593	9605.15
268.052	11705.34
268.512	10126.2
268.971	12234.31
269.431	13403.4
269.89	11998.14
270.349	17975.74
270.809	20057.34
271.268	17969.12
271.727	40147.51
272.186	26001.53
272.645	19432.37
273.104	13969.91
273.563	20242.79
274.022	15773.33
274.481	13479.18
274.94	10371.63
275.399	7694.39
275.857	8902.47
276.316	12040.03
276.775	10716.34
277.233	10544.75
277.692	9921.83
278.15	11249.8
278.609	11623.91
279.067	10770.18
279.525	10006.27
279.984	12929.48
280.442	15557.89
280.9	15488.31
281.358	10212.62
281.816	9534.55
282.274	9339.79
282.732	9611.5
283.19	9664.19
283.648	8326.47
284.106	8886.95
284.564	9029.36
285.021	8421.75
285.479	6285.76
285.937	5672.77
286.394	5015.56
286.852	5174.51
287.309	5456.6
287.767	5314.57
288.224	5079.01
288.682	5600.95
289.139	6189.87
289.596	5683.44
290.053	5875.93
290.511	7397.96
290.968	8988.19
291.425	12123.7
291.882	10113.71
292.339	8818.95
292.796	8697.92
293.252	8154.48
293.709	6483.92
294.166	5785.24
294.623	6367.61
295.079	6081.32
295.536	6122.82
295.992	5555.88
296.449	5497.23
296.905	5721.33
297.362	5491.48
297.818	5783.94
298.274	6024.61
298.731	6099.48
299.187	6017.43
299.643	6453.05
300.099	7828.46
300.555	8551.53
301.011	7138.83
301.467	6939.39
301.923	8057.51
302.379	7854.16
302.835	7695.03
303.291	7698.46
303.746	8749.2
304.202	11087.29
304.658	11141.1
305.113	7514.05
305.569	7401.83
306.024	7871.25
306.479	7423.12
306.935	6273.12
307.39	6839.94
307.845	6318.39
308.301	6375.99
308.756	6238.79
309.211	6010.69
309.666	6171.37
310.121	7698.4
310.576	7794.52
311.031	7759.49
311.486	8871.36
311.94	8864.51
312.395	11887.83
312.85	22335.69
313.305	109446.26
313.759	571136.19
314.214	41696.22
314.668	33128.91
315.123	27890.36
315.577	10063.89
316.032	9019.22
316.486	11332.27
316.94	9027
317.394	6322.89
317.849	4942.5
318.303	4670.95
318.757	4415.92
319.211	4882.12
319.665	4264.73
320.119	4313.2
320.572	6136.73
321.026	5724.66
321.48	4772.46
321.934	5166.77
322.387	5137.55
322.841	5556.63
323.295	5055.36
323.748	5780.13
324.202	5850.88
324.655	7065.89
325.108	9959.38
325.562	7065.98
326.015	8415.04
326.468	6376.88
326.921	7115.98
327.374	6679.46
327.827	6986.31
328.28	7893.31
328.733	5322.32
329.186	4668.89
329.639	4456.71
330.092	3735.12
330.545	3572.73
330.997	3599.14
331.45	3952.52
331.903	4697.39
332.355	8025.36
332.808	7758.13
333.26	6387.39
333.713	6939.79
334.165	7010.73
334.617	9304.7
335.069	7478.37
335.522	13479.56
335.974	14975.43
336.426	13621.09
336.878	9347.93
337.33	4780
337.782	4691.54
338.234	5921.77
338.686	7076.46
339.137	8374.7
339.589	7941.26
340.041	6258.5
340.493	5375.82
340.944	5496
341.396	5921.59
341.847	5022.4
342.299	5975.93
342.75	7306.02
343.201	6315.22
343.653	7256.28
344.104	8915
344.555	6990.27
345.006	10804.52
345.457	8368.11
345.908	6604.51
346.359	6251.23
346.81	5059.71
347.261	5280.86
347.712	5172.02
348.163	5543.54
348.613	5656.59
349.064	5288.82
349.515	4642.08
349.965	4798.68
350.416	5730.95
350.866	6297.35
351.317	7081.85
351.767	11744.26
352.217	14848.31
352.668	12329.74
353.118	11306.63
353.568	10815.34
354.018	8582.96
354.468	9077.98
354.918	6519.88
355.368	5718.96
355.818	8106.91
356.268	23266.78
356.718	97801.68
357.168	24444.76
357.617	12258.28
358.067	13626.46
358.517	12835.98
358.966	15098.61
359.416	16990.74
359.865	18291.54
360.315	21654.17
360.764	10161.73
361.213	5697.52
361.663	5353.62
362.112	6575.99
362.561	10693.4
363.01	8086.92
363.459	6800.37
363.908	7334.31
364.357	6246.62
364.806	10479.19
365.255	7229.15
365.703	6648.6
366.152	6708.46
366.601	5468.59
367.05	4475.88
367.498	4080.95
367.947	4245.82
368.395	4395.64
368.844	3906.65
369.292	4657.91
369.74	3259.56
370.189	5009.42
370.637	5844.41
371.085	5018.12
371.533	6137.99
371.981	5870.69
372.429	5626.48
372.877	5883.14
373.325	4930.6
373.773	5022.6
374.221	4466.8
374.669	5521.29
375.116	4760.91
375.564	4797.03
376.012	5367.9
376.459	4411.18
376.907	5277.14
377.354	6331.51
377.801	5941.98
378.249	6881.06
378.696	8749.08
379.143	10614.23
379.591	11297.19
380.038	19190.42
380.485	13881.28
380.932	14959.33
381.379	13775.68
381.826	10226.63
382.273	7234.4
382.72	6276.19
383.166	6095.28
383.613	3968.18
384.06	3572.99
384.506	4142.53
384.953	3023.26
385.4	3031.57
385.846	2659.16
386.292	2564.37
386.739	2491.09
387.185	2457.31
387.631	2469.86
388.078	2432.11
388.524	2597.27
388.97	2406.72
389.416	2014.03
389.862	2148.57
390.308	2042.61
390.754	2084.31
391.2	2273.63
391.645	2327.21
392.091	2276.09
392.537	2209.18
392.983	2196.71
393.428	2201.57
393.874	2365.64
394.319	2406.53
394.765	2319.41
395.21	2382.65
395.655	2245.88
396.101	2112.55
396.546	1924.83
396.991	1931.15
397.436	1794.17
397.881	1742.17
398.326	1643.09
398.771	1572.83
399.216	1367.58
399.661	1228.36
400.106	1247.27
400.551	1289.64
400.995	1164.23
401.44	1161.69
401.885	1092.26
402.329	1115.67
402.774	1073.52
403.218	1056.8
403.663	1020.1
404.107	1059.42
404.551	1076.98
404.995	989.5
405.44	950.07
405.884	968.03
406.328	934.84
406.772	941.41
407.216	862.62
407.66	837.28
408.104	789.38
408.547	743.91
408.991	722.83
409.435	697.51
409.879	694.08
410.322	692.53
410.766	676.44
411.209	649.66
411.653	628.78
412.096	622.13
412.54	626.18
412.983	627.94
413.426	637.36
413.869	639.32
414.312	633.5
414.756	613.32
415.199	588.3
415.642	576.22
416.085	582.12
416.527	577.69
416.97	587.88
417.413	562.31
417.856	556.78
418.298	550.37
418.741	546.71
419.184	545.21
419.626	566.82
420.069	567.56
420.511	571.76
420.953	561.43
421.396	560.66
421.838	545.2
422.28	559.24
422.722	565.97
423.164	574.14
423.606	568.3
424.048	566.01
424.49	539.83
424.932	537.65
425.374	528.31
425.816	536.04
426.258	544.74
426.699	552.14
427.141	546.48
427.582	552.63
428.024	548.81
428.465	546.13
428.907	535.06
429.348	529.49
429.789	533.83
430.231	527.24
430.672	537.52
431.113	528.03
431.554	520.97
431.995	507.22
432.436	494.85
432.877	488.39
433.318	484.1
433.759	484.94
434.2	485.94
434.64	480.36
435.081	484.74
435.522	461.32
435.962	444.92
436.403	441.31
436.843	448.38
437.284	437.4
437.724	425.44
438.164	424.4
438.604	414.35
439.045	403.01
439.485	390.6
439.925	382.38
440.365	373.29
440.805	370.22
441.245	366.91
441.685	354.89
442.125	353.65
442.564	358.27
443.004	353.32
443.444	355.83
443.883	358.11
444.323	355.37
444.762	356.53
445.202	363.85
445.641	373.81
446.081	373.82
446.52	380.65
446.959	382.56
447.398	378.82
447.837	377.85
448.276	373.55
448.716	379.8
449.154	385.42
449.593	379.97
450.032	381.81
450.471	376.99
450.91	378.41
451.349	381.75
451.787	379.88
452.226	385.51
452.664	386.72
453.103	389.15
453.541	389.71
453.98	393.4
454.418	396.81
454.856	392.55
455.295	392.67
455.733	397.41
456.171	398.96
456.609	401.05
457.047	402.16
457.485	410.33
457.923	412.52
458.361	406.08
458.798	405.98
459.236	405.68
459.674	407.9
460.111	409.88
460.549	406.35
460.987	404.29
461.424	403.08
461.862	400.38
462.299	392.89
462.736	392.84
463.173	396.08
463.611	394.4
464.048	394.57
464.485	397.48
464.922	394.81
465.359	391.56
465.796	392.71
466.233	390.22
466.67	388.41
467.106	389.29
467.543	385.25
467.98	377.84
468.416	366.77
468.853	362.99
469.29	351.69
469.726	347.07
470.162	339.22
470.599	331.39
471.035	328.21
471.471	319.96
471.907	316.6
472.344	314.99
472.78	318.64
473.216	322.11
473.652	318.94
474.088	319.66
474.523	320.14
474.959	323.12
475.395	319.62
475.831	319.62
476.266	321.73
476.702	321.99
477.138	318.75
477.573	317.61
478.008	317.33
478.444	320.31
478.879	324.86
479.314	327.27
479.75	328.29
480.185	330.81
480.62	333.88
481.055	336.78
481.49	339.64
481.925	346.11
482.36	354.22
482.795	364.84
483.229	374.55
483.664	382.86
484.099	384.24
484.534	391.19
484.968	396.69
485.403	397.37
485.837	396.72
486.271	397.64
486.706	398.96
487.14	395.4
487.574	390.72
488.009	388.06
488.443	385.89
488.877	391.68
489.311	393.62
489.745	399.28
490.179	406.07
490.613	417.75
491.046	422.36
491.48	427.53
491.914	430.03
492.348	435.21
492.781	441.29
493.215	445.32
493.648	448.63
494.082	455.71
494.515	459.85
494.948	468.77
495.382	474.43
495.815	482.73
496.248	490.5
496.681	503.27
497.114	516.22
497.547	528.09
497.98	542.75
498.413	552.7
498.846	565.15
499.279	576.86
499.711	585.43
500.144	592.09
500.577	606.26
501.009	621.15
501.442	635.78
501.874	642.45
502.306	649.65
502.739	663.64
503.171	682.48
503.603	692.43
504.036	706.35
504.468	717.55
504.9	734.25
505.332	746.01
505.764	755.46
506.196	767.13
506.627	787.37
507.059	806.05
507.491	817.85
507.923	822.49
508.354	841.25
508.786	857.02
509.217	878.87
509.649	898.48
510.08	921.46
510.512	943.29
510.943	963.3
511.374	978.99
511.805	1003.42
512.237	1027.68
512.668	1062.69
513.099	1093.3
513.53	1124.94
513.961	1150.82
514.391	1185.7
514.822	1222.98
515.253	1261.33
515.684	1290.46
516.114	1323.67
516.545	1348.61
516.975	1377.32
517.406	1399.79
517.836	1406.51
518.267	1415.81
518.697	1435.53
519.127	1442.54
519.558	1451.31
519.988	1458.42
520.418	1471.96
520.848	1491.49
521.278	1502.82
521.708	1531.86
522.138	1546.54
522.567	1579.5
522.997	1606.27
523.427	1624.03
523.857	1642.39
524.286	1655.24
524.716	1671.84
525.145	1691.57
525.575	1704.19
526.004	1719.32
526.433	1705.32
526.863	1705.86
527.292	1696.98
527.721	1703.86
528.15	1710.45
528.579	1712.24
529.008	1723.38
529.437	1747.2
529.866	1761.33
530.295	1778.83
530.724	1791.91
531.152	1820.2
531.581	1834.8
532.01	1852.37
532.438	1862.82
532.867	1878.49
533.295	1898.3
533.723	1905.53
534.152	1903.74
534.58	1904.07
535.008	1888.48
535.436	1890.28
535.865	1897.73
536.293	1912.1
536.721	1929.12
537.149	1954.34
537.576	1956.45
538.004	1968.79
538.432	1975.41
538.86	1974.06
539.287	1981.87
539.715	1996.43
540.143	1999.58
540.57	1995.41
540.998	1991.83
541.425	1968.09
541.852	1944.94
542.28	1944.21
542.707	1929.23
543.134	1915.41
543.561	1910.21
543.988	1902.61
544.415	1901.04
544.842	1895.68
545.269	1889.77
545.696	1893.04
546.123	1906.51
546.549	1896.6
546.976	1882.45
547.403	1880.44
547.829	1883.2
548.256	1886.48
548.682	1882.65
549.108	1876.46
549.535	1876.99
549.961	1878.66
550.387	1866.19
550.813	1861.35
551.24	1869.02
551.666	1870.97
552.092	1862.14
552.518	1856.34
552.943	1850.73
553.369	1859.09
553.795	1864.84
554.221	1866.74
554.646	1863.95
555.072	1876.07
555.498	1881.9
555.923	1892.43
556.349	1909.71
556.774	1919.9
557.199	1921.97
557.625	1928.81
558.05	1923.57
558.475	1936.21
558.9	1935.8
559.325	1929.21
559.75	1922.97
560.175	1917.11
560.6	1911.99
561.025	1910.96
561.449	1913.52
561.874	1920.86
562.299	1927.03
562.723	1936.77
563.148	1926.61
563.572	1930.77
563.997	1941.83
564.421	1948.33
564.846	1949.23
565.27	1952.79
565.694	1949.89
566.118	1962.54
566.542	1971.88
566.966	1966.19
567.39	1962.25
567.814	1951.38
568.238	1952.48
568.662	1958.28
569.086	1960.32
569.509	1968.3
569.933	1952.38
570.357	1944.71
570.78	1922.8
571.204	1907.58
571.627	1895.68
572.05	1892.47
572.474	1892.31
572.897	1878.37
573.32	1871
573.743	1861.66
574.166	1843.89
574.589	1844.55
575.012	1837.43
575.435	1836.22
575.858	1827.48
576.281	1816.12
576.704	1800.95
577.126	1787.94
577.549	1777.83
577.972	1766.9
578.394	1756.86
578.817	1749.7
579.239	1730.41
579.661	1716.69
580.084	1699.78
580.506	1686.98
580.928	1683.02
581.35	1670.99
581.772	1667.4
582.194	1653.72
582.616	1641.84
583.038	1625.57
583.46	1614.77
583.882	1610.71
584.303	1616.01
584.725	1611.94
585.147	1613.66
585.568	1625.18
585.99	1638.72
586.411	1646.47
586.833	1662.73
587.254	1664.35
587.675	1682.05
588.096	1695.46
588.518	1692.62
588.939	1675.01
589.36	1673.34
589.781	1661.67
590.202	1631.6
590.623	1622.58
591.043	1620.82
591.464	1606.91
591.885	1602.16
592.305	1595.53
592.726	1580.89
593.147	1580.8
593.567	1575.55
593.987	1569.05
594.408	1563.98
594.828	1562.54
595.248	1555.22
595.669	1533.92
596.089	1526.11
596.509	1519.82
596.929	1504.34
597.349	1504.85
597.769	1494.15
598.189	1486.91
598.608	1486.52
599.028	1489.04
599.448	1488.74
599.867	1474.39
600.287	1470.94
600.706	1466.53
601.126	1455.78
601.545	1455.26
601.965	1452.96
602.384	1447.27
602.803	1449.69
603.222	1444.87
603.641	1437.2
604.061	1433.16
604.48	1429.87
604.898	1438.2
605.317	1443.39
605.736	1445.08
606.155	1441.27
606.574	1432.05
606.992	1437.29
607.411	1431.44
607.829	1422.69
608.248	1419.38
608.666	1415.98
609.085	1414.38
609.503	1403.62
609.921	1396.67
610.339	1398.3
610.758	1397.35
611.176	1392.45
611.594	1381.85
612.012	1377.77
612.43	1380.87
612.847	1386.69
613.265	1387.31
613.683	1391.95
614.101	1393.3
614.518	1388.26
614.936	1377.03
615.353	1360.58
615.771	1355.61
616.188	1355.36
616.606	1350.75
617.023	1342.29
617.44	1325.88
617.857	1317.73
618.274	1307.3
618.691	1298.95
619.108	1287.8
619.525	1281.17
619.942	1287.62
620.359	1289.66
620.776	1283.49
621.192	1279.52
621.609	1275.8
622.026	1282.59
622.442	1288.15
622.859	1290.17
623.275	1283.2
623.691	1289.16
624.108	1300.18
624.524	1313.68
624.94	1313.55
625.356	1322.97
625.772	1335.33
626.188	1347.24
626.604	1347.5
627.02	1342.73
627.436	1340.94
627.852	1346.77
628.268	1356.67
628.683	1346.77
629.099	1337.9
629.514	1332.25
629.93	1335.77
630.345	1340.25
630.761	1336.01
631.176	1339.67
631.591	1333.02
632.007	1326.94
632.422	1324.51
632.837	1313.3
633.252	1310.36
633.667	1298.36
634.082	1287.25
634.497	1273.41
634.911	1251.93
635.326	1246.66
635.741	1227.39
636.155	1214.75
636.57	1214.06
636.984	1212.21
637.399	1211.82
637.813	1208.6
638.228	1206
638.642	1207.95
639.056	1194.32
639.47	1191.84
639.884	1180.89
640.298	1172.82
640.712	1169.13
641.126	1153.32
641.54	1140.99
641.954	1132.89
642.368	1117.93
642.781	1106.95
643.195	1086.99
643.609	1084.31
644.022	1075.6
644.436	1067.26
644.849	1051.55
645.262	1037.77
645.676	1035.97
646.089	1028.67
646.502	1010.78
646.915	1002.69
647.328	982.21
647.741	977.63
648.154	963.21
648.567	958.23
648.98	943.63
649.393	940.84
649.805	934.15
650.218	923.77
650.631	906.44
651.043	898.54
651.456	889.64
651.868	888.6
652.28	900.59
652.693	910.7
653.105	911.95
653.517	917.91
653.929	915.24
654.341	917.4
654.753	904.37
655.165	906.38
655.577	900.4
655.989	893.45
656.401	882.19
656.813	847.47
657.224	823.85
657.636	795.39
658.047	775.41
658.459	754.1
658.87	740.62
659.282	724.39
659.693	701.91
660.104	684.45
660.515	666.83
660.926	657.77
661.338	648.66
661.749	637.94
662.159	624.06
662.57	614.23
662.981	603.88
663.392	591.58
663.803	587.94
664.213	579.5
664.624	568.79
665.035	565.2
665.445	549.47
665.855	539
666.266	527.56
666.676	520.2
667.086	507.84
667.497	501.82
667.907	492.44
668.317	481.57
668.727	477.17
669.137	473.87
669.547	467.38
669.956	465.63
670.366	462.98
670.776	460.77
671.186	459.91
671.595	458.89
672.005	458.2
672.414	456.97
672.824	454.93
673.233	451.87
673.642	451.51
674.052	453.1
674.461	454.3
674.87	455.67
675.279	454.13
675.688	453.69
676.097	455.88
676.506	454.25
676.915	461.3
677.323	463.4
677.732	464.36
678.141	464.85
678.549	458.85
678.958	459.33
679.366	460.18
679.775	464.6
680.183	475.85
680.592	481.82
681	489.23
681.408	490.3
681.816	500.33
682.224	512.08
682.632	526.98
683.04	555.3
683.448	580.19
683.856	611.93
684.264	647.99
684.671	681.68
685.079	724.12
685.487	772.3
685.894	833.81
686.302	889.23
686.709	941.03
687.116	999.65
687.524	1051.11
687.931	1100.16
688.338	1142.93
688.745	1182.99
689.152	1228.16
689.559	1281.46
689.966	1334.88
690.373	1369.13
690.78	1419.21
691.187	1486.32
691.593	1538.9
692	1589.18
692.407	1656.44
692.813	1738.01
693.22	1801.62
693.626	1866.17
694.032	1919.49
694.439	1994.03
694.845	2053.86
695.251	2128.96
695.657	2197.38
696.063	2296.42
696.469	2367.39
696.875	2434.72
697.281	2470.79
697.687	2514.54
698.093	2550.56
698.498	2620.63
698.904	2676.22
699.31	2760.63
699.715	2818.82
700.12	2905.18
700.526	2919.41
700.931	2983.52
701.337	3029.53
701.742	3058.11
702.147	3136.61
702.552	3164.21
702.957	3220.4
703.362	3236.54
703.767	3261.14
704.172	3294.02
704.577	3242.49
704.981	3282.85
705.386	3296.98
705.791	3285.44
706.195	3354.84
706.6	3361.96
707.004	3434.88
707.408	3402.74
707.813	3426.19
708.217	3409.56
708.621	3409.26
709.025	3500.23
709.43	3498.77
709.834	3553.15
710.237	3616.09
710.641	3597.1
711.045	3614.74
711.449	3605.34
711.853	3629.12
712.256	3663.68
712.66	3696.3
713.064	3764.42
713.467	3799.6
713.87	3903.81
714.274	3942
714.677	4041.97
715.08	4190.12
715.484	4343.87
715.887	4531.86
716.29	4712.29
716.693	4903.9
717.096	5122.26
717.499	5242.18
717.901	5261.26
718.304	5279.71
718.707	5296.03
719.109	5196.22
719.512	5163.19
719.915	5033.06
720.317	4974.64
720.719	5014.45
721.122	4985.33
721.524	4936.07
721.926	4893.78
722.328	4983.85
722.731	4969.42
723.133	4991.77
723.535	5165.91
723.937	5182.27
724.338	5226.86
724.74	5261.25
725.142	5212.74
725.544	5208.76
725.945	5234.24
726.347	5226.31
726.748	5218.81
727.15	5232.99
727.551	5200.85
727.952	5174.24
728.354	5145.48
728.755	5143.68
729.156	5102.72
729.557	5075.22
729.958	4959.46
730.359	4904.24
730.76	4884.52
731.161	4826.77
731.562	4801
731.962	4795.55
732.363	4734.95
732.763	4677.34
733.164	4710.16
733.564	4652.29
733.965	4561.04
734.365	4527.76
734.766	4552.24
735.166	4517.4
735.566	4466.06
735.966	4440.77
736.366	4438.39
736.766	4382.09
737.166	4408.05
737.566	4370.25
737.966	4341.58
738.365	4378.3
738.765	4371.71
739.165	4303.91
739.564	4280.37
739.964	4322.81
740.363	4281.23
740.763	4278.62
741.162	4265.27
741.561	4234.66
741.96	4191
742.36	4207.1
742.759	4209.86
743.158	4244.28
743.557	4254.83
743.955	4287.97
744.354	4242.79
744.753	4292.02
745.152	4251.37
745.55	4301.93
745.949	4296.18
746.348	4294.03
746.746	4308.45
747.144	4273.04
747.543	4253.55
747.941	4297.55
748.339	4234.94
748.737	4229.18
749.136	4219.99
749.534	4281
749.932	4254.66
750.33	4274.79
750.727	4323.9
751.125	4304.66
751.523	4291.5
751.921	4330.89
752.318	4299.23
752.716	4351.78
753.113	4363.07
753.511	4390.33
753.908	4390.56
754.305	4376.95
754.703	4431.13
755.1	4488.85
755.497	4542.9
755.894	4713.55
756.291	4877.22
756.688	5177.98
757.085	5576.32
757.482	6138.34
757.878	6748.67
758.275	7306.04
758.672	8066.44
759.068	8689.61
759.465	9575.94
759.861	10718.51
760.258	12045.62
760.654	12727.62
761.05	12627.32
761.447	12049.57
761.843	11216.65
762.239	10355.95
762.635	9960.67
763.031	9589.29
763.427	9051.73
763.822	8492.22
764.218	7930.5
764.614	7204.9
765.01	6719.47
765.405	6404.35
765.801	6168.38
766.196	5865.11
766.592	5698.06
766.987	5409.64
767.382	5214.75
767.778	5137.43
768.173	5016.41
768.568	4952.99
768.963	4841.58
769.358	4857.69
769.753	4818.58
770.148	4743.76
770.542	4743.4
770.937	4711.64
771.332	4796
771.726	4814.21
772.121	4756.77
772.515	4809.11
772.91	4794.52
773.304	4856.94
773.699	4795.92
774.093	4841.17
774.487	4890.78
774.881	4927.01
775.275	4922.71
775.669	4885.25
776.063	4924.57
776.457	4954.23
776.851	4885.55
777.245	4880.6
777.638	4910.49
778.032	5015.59
778.425	4984.03
778.819	5019.71
779.212	4983.17
779.606	4946.32
779.999	4962.55
780.392	4948.21
780.786	5022.62
781.179	5039.55
781.572	5076.93
781.965	5091.73
782.358	5038.75
782.751	5089.91
783.143	5047.33
783.536	5115.17
783.929	5155.29
784.322	5262.43
784.714	5289.62
785.107	5286.65
785.499	5351.5
785.891	5332.24
786.284	5313.21
786.676	5439.57
787.068	5423.53
787.46	5469.59
787.852	5486.69
788.245	5567.71
788.636	5592.84
789.028	5654.08
789.42	5691.71
789.812	5699.78
790.204	5786.15
790.595	5879.57
790.987	5710.06
791.378	5729.48
791.77	5848.85
792.161	5972.26
792.553	6021.74
792.944	5922.59
793.335	5864.44
793.726	5929.17
794.117	6015.78
794.508	6147.72
794.899	6117.24
795.29	6240.78
795.681	6295.13
796.072	6168.28
796.463	6006.03
796.853	6017.9
797.244	6163.3
797.634	6195.1
798.025	6194.77
798.415	6203.66
798.806	6281.31
799.196	6361.54
799.586	6410.28
799.976	6375.57
800.366	6585.73
800.756	6799.42
801.146	6762.6
801.536	6787.98
801.926	6852.51
802.316	6880.68
802.706	6948.82
803.095	6841.05
803.485	6934.85
803.874	6972.56
804.264	7213.38
804.653	7189.31
805.043	7323.79
805.432	7424.79
805.821	7430.13
806.21	7453.96
806.599	7563.82
806.988	7604.85
807.377	7698.73
807.766	7817.52
808.155	8077.72
808.544	7834.01
808.933	7849.19
809.321	7831.39
809.71	8100.84
810.098	8242.42
810.487	8662.28
810.875	9098.62
811.264	9118.23
811.652	9385.42
812.04	9515.17
812.428	9665.67
812.816	10360.52
813.204	10733.32
813.592	11237.35
813.98	11545.14
814.368	11457.08
814.756	11894.29
815.144	11812.47
815.531	12245.05
815.919	12171.06
816.306	12454.57
816.694	12174.3
817.081	12226.53
817.469	12552.69
817.856	12550.78
818.243	12788.38
818.63	13155.2
819.017	12772.55
819.404	12842.22
819.791	13177.61
820.178	13736.15
820.565	13970.43
820.952	14816.73
821.339	14363.66
821.725	14539.64
822.112	13861.05
822.498	13836.39
822.885	13953.24
823.271	13868.27
823.657	14249.51
824.044	14266.61
824.43	14342.49
824.816	14307.59
825.202	13912.53
825.588	14851.88
825.974	14862.75
826.36	15334.78
826.746	15359.6
827.132	15674.15
827.517	15651.69
827.903	14932.55
828.289	14967.97
828.674	14260.79
829.06	14167.65
829.445	14531.69
829.83	14849.07
830.216	15275.89
830.601	15612.88
830.986	15242.02
831.371	15126.79
831.756	15631.34
832.141	15236.65
832.526	15223.43
832.911	15483.27
833.295	15373.78
833.68	15793.26
834.065	15227.05
834.449	14395.83
834.834	14320.6
835.218	14316.28
835.603	14619.01
835.987	14423.45
836.371	15175.65
836.755	15077.31
837.139	15429.85
837.524	15646.39
837.908	15486.88
838.291	15542.7
838.675	15595.34
839.059	15787.87
839.443	15767.32
839.827	15554.39
840.21	15985.07
840.594	15850.69
840.977	16033.2
841.361	16011.34
841.744	16346.77
842.127	16194.49
842.511	16405.71
842.894	16942.54
843.277	17276.5
843.66	17765.86
844.043	17841.83
844.426	17116.06
844.809	16827.45
845.191	16859.33
845.574	16439.28
845.957	16107.94
846.339	16009.42
846.722	15537.26
847.104	15592.82
847.487	15434.56
847.869	15445.94
848.252	15693.9
848.634	15987.78
849.016	16227.71
849.398	16333.14
849.78	17102.55
850.162	17099.05
850.544	17475.8
850.926	18036.86
851.307	17963.75
851.689	18222.35
852.071	18631.77
852.452	18919.54
852.834	18907.53
853.215	19255.27
853.597	19395.03
853.978	19656.62
854.359	20080.87
854.741	19182.74
855.122	19101.67
855.503	18844.22
855.884	18957.31
856.265	18896.63
856.646	19009.64
857.026	18645.6
857.407	18601.12
857.788	18748.24
858.169	19006.68
858.549	18235.66
858.93	18800.12
859.31	18841.37
859.69	19035.65
860.071	18668.02
860.451	18482.11
860.831	17814.1
861.211	18860.98
861.591	19356.82
861.971	19331.27
862.351	19502.41
862.731	19861.55
863.111	20095.24
863.491	20396.45
863.87	21177.8
864.25	21507.24
864.629	21146.98
865.009	21607.35
865.388	22389.6
865.768	23997.4
866.147	23914.45
866.526	22597.71
866.905	22863.55
867.284	24154.7
867.663	22934.17
868.042	21992.78
868.421	21915.62
868.8	22274.12
869.179	22496.52
869.558	21184.81
869.936	19522.44
870.315	19868.13
870.693	20359.22
871.072	21950.64
871.45	20915.07
871.828	21189.76
872.207	22274.66
872.585	21950.82
872.963	22551.28
873.341	21775.67
873.719	21510.77
874.097	21249.54
874.475	21658.35
874.853	22157.81
875.23	21235.33
875.608	22114.91
875.986	23911.84
876.363	22863.17
876.741	23554.61
877.118	22965.77
877.495	24095.73
877.873	24495.29
878.25	25770.72
878.627	24708.47
879.004	25037.96
879.381	24923.25
879.758	24274.74
880.135	22601.79
880.512	23887.42
880.889	23245.63
881.265	22993.67
881.642	22797.53
882.019	23171.9
882.395	22704.64
882.772	23608.49
883.148	22583.52
883.524	22488.16
883.901	22353.13
884.277	22692.18
884.653	22556.96
885.029	23208.21
885.405	25699.4
885.781	25494.42
886.157	24452.75
886.532	24736.77
886.908	24717.58
887.284	27472.17
887.659	28358.07
888.035	29233.82
888.411	29977.38
888.786	30362.82
889.161	31407.6
889.537	30833.81
889.912	31820.61
890.287	31785.12
890.662	32610.03
891.037	32002.49
891.412	29851.57
891.787	29553.06
892.162	28502.51
892.536	29147.03
892.911	28047.9
893.286	27440.63
893.66	26320.69
894.035	26973.53
894.409	29367.94
894.784	28182.1
895.158	28656.78
895.532	30343.66
895.906	31164.94
896.281	31915.8
896.655	31420.78
897.029	35915.39
897.402	37407.92
897.776	41645.19
898.15	41519.9
898.524	41067.82
898.898	41613.93
899.271	46580.37
899.645	40335
900.018	38746.68
900.392	40185.34
900.765	40519.5
901.138	37479.59
901.511	36925.91
901.884	33924.81
902.258	31299.31
902.631	32344.54
903.003	37221.97
903.376	33572.2
903.749	37665.26
904.122	40307.57
904.495	44366.15
904.867	44923.98
905.24	39010.24
905.612	36312.78
905.985	37130.55
906.357	38813.79
906.729	37040.31
907.102	31650.53
907.474	30465.31
907.846	30668
908.218	30280.52
908.59	26772.42
908.962	25892.34
909.334	27880.65
909.705	29297.04
910.077	28440.26
910.449	29611.9
910.82	30455.16
911.192	33533.56
911.563	34851.65
911.935	37305.16
912.306	37361.36
912.677	38580.96
913.048	38213.74
913.419	41496.39
913.79	41717.51
914.161	44738.49
914.532	42789.38
914.903	39340.46
915.274	37370.55
915.645	36836.12
916.015	32411.97
916.386	30914.58
916.756	32918.85
917.127	33961.48
917.497	30356.3
917.868	33037.51
918.238	31404.38
918.608	32299.08
918.978	32975.52
919.348	34898.48
919.718	36055.29
920.088	34733.08
920.458	36091.48
920.828	37956.18
921.198	35966.79
921.567	38402.94
921.937	29768.57
922.306	30045.02
922.676	32390.09
923.045	27010.21
923.415	25680.48
923.784	23381.46
924.153	24056.59
924.522	24030.88
924.891	22594.88
925.26	24212.23
925.629	23649.8
925.998	27188.13
926.367	26544.27
926.736	25292.48
927.104	30127.37
927.473	32386.62
927.842	39105.89
928.21	38702.91
928.578	40661.81
928.947	38457.95
929.315	38678.83
929.683	45315.23
930.051	45636.18
930.42	52977.73
930.788	45303.63
931.156	44971.96
931.523	42140.08
931.891	38936.17
932.259	37399
932.627	43342.87
932.994	61270.97
933.362	50582.41
933.729	43934.34
934.097	42032.14
934.464	35538.51
934.831	40950.08
935.199	40324.21
935.566	39104.21
935.933	39574.15
936.3	47859.47
936.667	37233.17
937.034	33607.52
937.401	33250.81
937.767	28683.88
938.134	25544.62
938.501	36036.32
938.867	38396.27
939.234	64863.27
939.6	55230.64
939.967	60885.51
940.333	40814.5
940.699	34745.46
941.065	27872.57
941.431	36556.36
941.798	35288.4
942.163	46329.31
942.529	28933.12
942.895	26605.69
943.261	17221.29
943.627	22594.51
943.992	19778.92
944.358	19782.13
944.723	19867.92
945.089	19355.01
945.454	17897.69
945.82	19089.4
946.185	18345.13
946.55	21273.39
946.915	19110.86
947.28	22428.85
947.645	19755.02
948.01	18255.14
948.375	19026.66
948.74	22780.94
949.104	26583.47
949.469	38377.42
949.834	67828.39
950.198	64317.5
950.562	38499.36
950.927	32053.95
951.291	38592.29
951.655	32890.85
952.02	30911.36
952.384	23419.89
952.748	20415.66
953.112	19915.76
953.476	17319.38
953.839	16013.45
954.203	15863.24
954.567	19877.62
954.931	31313.16
955.294	26766.8
955.658	26936.47
956.021	45802.11
956.385	77629.59
956.748	114538.87
957.111	177682.35
957.474	199403.61
957.837	224611.56
958.2	169879.38
958.563	61038.73
958.926	41282.8
959.289	62738.27
959.652	70069.04
960.015	52599.96
960.377	75503.78
960.74	86151.66
961.102	148692.96
961.465	159741.59
961.827	85592.89
962.189	164222.9
962.552	114027.69
962.914	91501
963.276	59380.95
963.638	49119.12
964	48665.71
964.362	32909.72
964.724	31858.42
965.085	22734.51
965.447	18657.22
965.809	21262.65
966.17	21303.87
966.532	23043.3
966.893	21134.42
967.255	19219.12
967.616	22678.53
967.977	18149.76
968.338	19844.44
968.699	16279.75
969.061	16268.73
969.421	16373.15
969.782	18381.1
970.143	15534.17
970.504	16101.45
970.865	18306.91
971.225	18731.97
971.586	18337.26
971.946	26143.17
972.307	22674.47
972.667	29671.82
973.027	30555.81
973.388	37058.74
973.748	25233.44
974.108	27471.07
974.468	37119.24
974.828	28642.68
975.188	22045.83
975.548	20247.2
975.907	16988.21
976.267	19054.99
976.627	16023.95
976.986	16618.61
977.346	15833.46
977.705	15216.22
978.064	13858.4
978.424	11538.39
978.783	11911.69
979.142	13594.53
979.501	13001.38
979.86	13763.02
980.219	13255.65
980.578	17087.35
980.937	19125.35
981.296	17061.49
981.654	17536.82
982.013	27337.28
982.371	35463.86
982.73	33176.86
983.088	37563.96
983.447	40141.22
983.805	57401.49
984.163	119980.28
984.521	133157.75
984.879	195435.04
985.237	-317881.33
985.595	307224.25
985.953	76295.57
986.311	44072.67
986.669	25612.43
987.026	22108.45
987.384	29703.15
987.741	30656.37
988.099	21935.17
988.456	17486.31
988.814	16386.85
989.171	14221.77
989.528	14008.19
989.885	14763.43
990.242	11686.19
990.599	14518.05
990.956	11886.15
991.313	8310.29
991.67	6819.86
992.027	7242.26
992.383	6435.21
992.74	5640.16
993.096	5933.48
993.453	6158.07
993.809	6395.67
994.165	8541.19
994.522	7852.42
994.878	8652.18
995.234	10870.06
995.59	10730.89
995.946	10137.52
996.302	11585.29
996.658	13374.07
997.013	14737.64
997.369	17490.96
997.725	22386.27
998.08	14466.3
998.436	22265.03
998.791	30691
999.147	30623.59
999.502	33433.03
999.857	24265.29
1000.212	39482.2
1000.567	56267.79
1000.922	32407.61
1001.277	20528.46
1001.632	15214.93
1001.987	19670.56
1002.342	14124.27
1002.696	11291.2
1003.051	9034.83
1003.406	10949.52
1003.76	10933.13
1004.114	10782.61
1004.469	9065.12
1004.823	7500.08
1005.177	8112.74
1005.531	6420.07
1005.885	5686.68
1006.239	6427.78
1006.593	8083.75
1006.947	10820.3
1007.301	8111.12
1007.655	8804.24
1008.008	6463.43
1008.362	7261
1008.715	10403.13
1009.069	9434.62
1009.422	14272.54
1009.776	28578.15
1010.129	18959.85
1010.482	15834.97
1010.835	13380.83
1011.188	27860.78
1011.541	26287.92
1011.894	-160485.02
1012.247	472555.9
1012.6	32094.99
1012.952	20346.19
1013.305	10442.49
1013.657	7527.4
1014.01	7127.17
1014.362	5864.16
1014.715	5218.6
1015.067	4543.99
1015.419	4443.98
1015.771	3957.28
1016.123	3521.19
1016.475	3627.18
1016.827	3847.3
1017.179	4144.68
1017.531	4193.35
1017.883	4260.44
1018.234	4140.68
1018.586	5220.9
1018.938	5548.29
1019.289	7673.85
1019.64	8753.48
1019.992	8139.58
1020.343	7454.93
1020.694	5898.63
1021.045	5223.13
1021.396	5925.06
1021.747	6400.09
1022.098	7628.13
1022.449	5526.92
1022.8	5143.98
1023.151	3584.14
1023.501	3177.13
1023.852	3462.13
1024.202	3588.46
1024.553	3944.87
1024.903	3845.05
1025.253	3304.63
1025.604	2956.22
1025.954	3679.69
1026.304	4485.73
1026.654	5211.46
1027.004	7596.24
1027.354	12293.41
1027.703	11621.32
1028.053	15233.69
1028.403	22412.33
1028.753	32628.81
1029.102	44305.99
1029.452	228200.72
1029.801	9823.29
1030.15	6347.08
1030.499	5363.47
897.758	2842.79
901.051	2811.6
904.343	2845.51
907.636	2845
910.928	2909.52
914.22	2816.81
917.511	2826.4
920.803	2897.47
924.094	2924.32
927.384	2894.07
930.675	2859.48
933.965	2808.71
937.255	2809.38
940.544	2779.15
943.834	2693.82
947.123	2644.58
950.411	2744.31
953.7	2713.05
956.988	2675.6
960.276	2616.36
963.563	2708.95
966.851	2700.21
970.138	2764.33
973.424	2753.83
976.711	2702.55
979.997	2868.3
983.283	2892.88
986.568	2786.19
989.853	2815.86
993.138	2841.28
996.423	2925.73
999.708	2853.34
1002.992	2933.65
1006.275	2738.92
1009.559	2801.81
1012.842	2923.13
1016.125	2846.65
1019.408	2828.89
1022.69	2927.99
1025.972	2941.49
1029.254	2914.58
1032.536	2834.52
1035.817	2869.11
1039.098	2798.48
1042.379	2981.24
1045.659	2965.95
1048.939	2890.13
1052.219	2918.57
1055.498	2937.51
1058.778	2917.21
1062.057	2905.21
1065.335	2926.48
1068.614	2948.27
1071.892	2925.7
1075.17	3010.21
1078.447	2990.69
1081.724	2981.27
1085.001	3025.08
1088.278	2996.37
1091.554	3010.44
1094.83	3008.36
1098.106	3032.67
1101.382	3085.8
1104.657	3083.61
1107.932	3077.87
1111.206	3037.89
1114.481	2996.31
1117.755	2999.82
1121.029	2972.74
1124.302	3023.43
1127.575	2968.76
1130.848	2953.98
1134.121	2906.51
1137.393	2847.33
1140.665	2924.56
1143.937	2895.12
1147.208	2860.5
1150.48	2894.66
1153.75	2881.35
1157.021	2922.84
1160.291	2888.01
1163.561	2932.8
1166.831	2929.53
1170.101	2968.13
1173.37	2947.09
1176.639	2881.7
1179.907	2950.21
1183.176	2948.76
1186.444	2960.98
1189.711	2986.62
1192.979	2996.72
1196.246	2955.54
1199.513	2972.92
1202.78	2967.26
1206.046	2975.65
1209.312	2999.94
1212.578	3030.85
1215.843	2975.55
1219.108	2952.32
1222.373	2972.53
1225.638	2935.06
1228.902	2914.52
1232.166	2885.57
1235.43	2864.48
1238.693	2885.9
1241.956	2887.16
1245.219	2926.15
1248.482	2920.82
1251.744	2914.38
1255.006	3075.18
1258.268	3036.12
1261.529	2973.76
1264.79	2984.79
1268.051	3090.26
1271.312	3110.18
1274.572	3069.35
1277.832	3057.35
1281.092	3050.91
1284.351	3015.78
1287.61	2991.74
1290.869	2901.28
1294.128	2867.06
1297.386	2972.28
1300.644	2957.63
1303.902	2970.97
1307.159	2825.18
1310.416	2883.34
1313.673	2907.91
1316.93	2887.95
1320.186	2941.1
1323.442	2987.69
1326.697	2968.78
1329.953	2966.93
1333.208	2986.48
1336.463	2967.3
1339.717	2896.51
1342.972	3042.48
1346.226	3024.4
1349.479	2948.19
1352.733	2913.06
1355.986	2943.34
1359.238	2919.16
1362.491	2920.06
1365.743	2926.36
1368.995	2922.44
1372.247	2934.27
1375.498	2958.87
1378.749	2966.3
1382	2919.4
1385.251	2979.27
1388.501	2945.53
1391.751	2921.26
1395	2895.42
1398.25	2930.24
1401.499	2929.19
1404.748	2848.24
1407.996	2845.84
1411.244	2830.12
1414.492	2806.21
1417.74	2785.16
1420.987	2798.42
1424.234	2854.44
1427.481	2839.74
1430.728	2897.88
1433.974	2874.12
1437.22	2894.76
1440.465	2897.46
1443.711	2847.84
1446.956	2888.68
1450.201	2883.38
1453.445	2924.68
1456.689	2899.82
1459.933	2910.85
1463.177	2940.41
1466.42	2912.47
1469.663	2890.19
1472.906	2875.7
1476.148	2971.45
1479.391	2911.42
1482.633	2886.49
1485.874	2890.58
1489.115	2871.87
1492.356	2881.46
1495.597	2859.37
1498.838	2866.25
1502.078	2828.6
1505.318	2769.85
1508.557	2817.4
1511.797	2773.97
1515.036	2871.57
1518.274	2860.93
1521.513	2839.41
1524.751	2864.74
1527.989	2877.46
1531.227	2886.33
1534.464	2873.25
1537.701	2902.74
1540.938	2924.36
1544.174	2880.37
1547.41	2883.41
1550.646	2923.56
1553.882	2952.96
1557.117	3009.96
1560.352	3027.48
1563.587	2981.33
1566.821	2938.37
1570.055	2980.56
1573.289	2947.97
1576.523	3029.83
1579.756	3031.2
1582.989	3050.19
1586.222	3009.55
1589.454	3053.42
1592.686	3021.57
1595.918	3044.1
1599.15	3029.97
1602.381	3117
1605.612	3061.05
1608.843	3161.09
1612.073	3069.87
1615.303	3052.93
1618.533	3039.13
1621.762	3045.57
1624.992	3035.88
1628.221	3014.2
1631.449	3000.7
1634.678	3067.31
1637.906	3017.64
1641.134	3062.63
1644.361	3011.17
1647.588	3002.38
1650.815	3016.26
1654.042	3000.6
1657.269	3032.9
1660.495	2976.74
1663.72	2978.46
1666.946	2945.02
1670.171	2874.6
1673.396	2851.16
1676.621	2842.03
1679.845	2873.94
1683.069	2897.1
1686.293	2948.09
1689.517	2909.52
1692.74	2826.84
1695.963	2861.1
1699.185	2896.5
1702.408	2869.59
1705.63	2915.99
1708.852	2925.33
1712.073	2896.65
1715.294	2873.19
1718.515	2942.01
1721.736	2881.95
1724.956	2884.51
1728.176	2913.49
1731.396	2932.08
1734.616	2925.08
1737.835	2948.11
1741.054	2930.42
1744.272	2924.36
1747.491	2953.34
1750.709	3017.79
1753.927	2903
1757.144	2957.78
1760.361	2992.14
1763.578	2992.26
1766.795	2930.48
1770.011	2941.58
1773.227	2988.1
1776.443	3023.68
1779.658	3067.01
1782.874	3009
1786.089	2982.62
1789.303	2987.11
1792.518	2992.96
1795.732	2983.42
1798.945	2988.96
1802.159	3042.19
1805.372	2927.46
1808.585	2908.07
1811.797	2907.84
1815.01	2968.85
1818.222	2969.27
1821.434	2914.94
1824.645	2986.12
1827.856	2961.24
1831.067	2994.82
1834.278	2961.53
1837.488	2947.27
1840.698	3107.93
1843.908	3025.24
1847.117	2987.68
1850.326	2852.04
1853.535	2970.77
1856.744	3022.54
1859.952	2928.85
1863.16	2927.91
1866.368	2957.32
1869.575	3057.95
1872.782	2940.58
1875.989	2882.11
1879.196	2981.95
1882.402	2973.88
1885.608	3019.35
1888.814	2905.76
1892.019	2796.67
1895.224	2847.83
1898.429	2834.87
1901.634	2808.99
1904.838	2789.83
1908.042	2836.58
1911.246	2842.59
1914.449	2760.36
1917.652	2766.95
1920.855	2749.29
1924.058	2809.94
1927.26	2844.26
1930.462	2873.54
1933.664	2897.84
1936.865	2830.41
1940.066	2832.56
1943.267	2782.34
1946.467	2800.26
1949.668	2830.15
1952.868	2896.35
1956.067	2868.14
1959.267	2794.62
1962.466	2823.35
1965.665	2810.66
1968.863	2807.07
1972.061	2830
1975.259	2829.39
1978.457	2911.94
1981.654	2868.33
1984.852	2867.89
1988.048	2790.39
1991.245	2798.28
1994.441	2884.99
1997.637	2881.37
2000.833	2864.16
2004.028	2904.34
2007.223	2951.68
2010.418	2926.83
2013.613	2893.79
2016.807	2852.86
2020.001	2865.59
2023.194	2916.58
2026.388	2894.29
2029.581	2840.51
2032.774	2884.8
2035.966	2886.31
2039.158	2809.94
2042.35	2842.75
2045.542	2771.02
2048.733	2877.49
2051.924	2913.49
2055.115	2945.94
2058.306	2881.9
2061.496	2941.57
2064.686	3012.01
2067.875	2926.28
2071.065	2947.39
2074.254	2980.02
2077.442	2930.79
2080.631	3024.12
2083.819	2898.4
2087.007	2875.5
2090.195	2840.73
2093.382	2886.16
2096.569	2863.19
2099.756	2811.46
2102.942	2829.56
2106.128	2829.26
2109.314	2821.6
2112.5	2774.71
2115.685	2755.03
2118.87	2766.54
2122.055	2835.72
2125.239	2796.36
2128.424	2761.67
2131.608	2884.19
2134.791	2863.77
2137.974	2930.31
2141.157	2916.08
2144.34	2859.92
2147.523	2883.87
2150.705	2890.56
2153.887	2875.33
2157.068	2813.76
2160.25	2827.49
2163.431	2869.09
2166.611	2805.67
2169.792	2819.88
2172.972	2705.86
2176.152	2795.73
2179.331	2834.47
2182.511	2810.31
2185.69	2841.97
2188.868	2829.14
2192.047	2895.81
2195.225	2873.2
2198.403	2827.95
2201.58	2817.99
2204.758	2820.41
2207.935	2907.06
2211.111	2782.99
2214.288	2765.05
2217.464	2806.92
2220.64	2784.02
2223.815	2845.52
2226.991	2759.42
2230.166	2780.96
2233.34	2802.96
2236.515	2836.85
2239.689	2913.56
2242.863	2854.97
2246.036	2910.49
2249.209	2920.94
2252.382	2961.67
2255.555	2940.57
2258.727	2871.08
2261.9	2917.63
2265.071	2908.37
2268.243	2915.86
2271.414	2838.46
2274.585	2788.21
2277.756	2858.27
2280.926	2818.78
2284.096	2862.72
2287.266	2758.84
2290.436	2820.99
2293.605	2852.69
2296.774	2877.86
2299.942	2909.17
2303.111	2923.56
2306.279	2972.88
2309.447	2958.2
2312.614	2937.66
2315.781	2953.61
2318.948	2915.99
2322.115	2958.44
2325.281	2858.36
2328.447	2885.06
2331.613	2864.74
2334.779	2826.51
2337.944	2834.51
2341.109	2828.57
2344.274	2811.58
2347.438	2773.15
2350.602	2801.85
2353.766	2823.99
2356.929	2806.56
2360.092	2852.91
2363.255	2795.85
2366.418	2713.56
2369.58	2846.83
2372.742	2596.69
2375.904	2621.29
2379.066	2593.2
2382.227	2636.12
2385.388	2597.61
2388.548	2512.9
2391.709	2574.22
2394.869	2549.6
2398.029	2667.5
2401.188	2688.2
2404.347	2608.77
2407.506	2776.47
2410.665	2802.8
2413.823	2816.1
2416.981	2762.46
2420.139	2798.63
2423.296	2852.12
2426.453	2825.52
2429.61	2851.03
2432.767	2769.16
2435.923	2804.64
2439.079	2752.51
2442.235	2808.69
2445.391	2728.72
2448.546	2751.4
2451.701	2808.91
2454.855	2769.93
2458.009	2834.26
2461.163	2843.24
2464.317	2792.82
2467.471	2831.76
2470.624	2877.59
2473.777	2863.89
2476.929	2876.57
2480.082	2898.67
2483.234	2859.75
2486.385	2805.88
2489.537	2796.97
2492.688	2745.84
2495.839	2760.86
2498.989	2773.49
2502.14	2752.37
2505.29	2729.52
2508.439	2759.65
2511.589	2672.83
2514.738	2693
2517.887	2727.38
2521.035	2800.67
2524.183	2793.18
2527.331	2772.44
2530.479	2740.25
2533.627	2752.37
