Data from C_3_DIV_PA_2N_Splice17_13-15-31-005.txt Node
Date: Sat Mar 14 13:15:31 EDT 2020
User: sa697716
Spectrometer: FLMS03696
Trigger mode: 0
Integration Time (sec): 3.180400E-1
Scans to average: 20
Electric dark correction enabled: true
Nonlinearity correction enabled: true
Boxcar width: 5
XAxis mode: Wavelengths
Number of Pixels in Spectrum: 2048
>>>>>Begin Spectral Data<<<<<
187.83	-381132.17
188.298	2742.77
188.766	1487.32
189.233	1346.35
189.701	1922.29
190.169	2599.37
190.636	1004.05
191.104	832.54
191.571	190.31
192.039	-12.48
192.506	16.85
192.974	583.86
193.441	-831.89
193.908	-82.55
194.375	4.26
194.842	114.87
195.31	178.53
195.777	196.08
196.244	346.53
196.711	192.28
197.177	166.63
197.644	154.67
198.111	251.33
198.578	294.58
199.045	196.9
199.511	292.88
199.978	224.09
200.445	244.55
200.911	224.1
201.378	153.14
201.844	204.96
202.31	316.33
202.777	316.5
203.243	181
203.709	199.4
204.176	246.05
204.642	186.19
205.108	198.24
205.574	122.81
206.04	66.63
206.506	68.02
206.972	47.28
207.438	37.4
207.903	40.55
208.369	63.37
208.835	64.74
209.301	71.43
209.766	57.61
210.232	72.38
210.697	88.93
211.163	98.12
211.628	98.2
212.094	96.49
212.559	252.8
213.024	171.81
213.49	220.85
213.955	182.53
214.42	125.77
214.885	125.51
215.35	144.89
215.815	249.72
216.28	294.04
216.745	250.72
217.21	298.28
217.675	222.94
218.14	247.37
218.604	237.59
219.069	277.94
219.534	326.79
219.998	348.83
220.463	390.9
220.927	335.9
221.392	306.61
221.856	314.76
222.32	321.34
222.785	410.81
223.249	508.65
223.713	566.68
224.177	550.66
224.642	612.5
225.106	738.05
225.57	752.6
226.034	666.26
226.497	1039.06
226.961	1014.54
227.425	1262.67
227.889	1340.05
228.353	1305.53
228.816	2666.82
229.28	2727.71
229.744	2382.6
230.207	1553.86
230.671	1598
231.134	2487.34
231.597	2963.52
232.061	2838.95
232.524	2654.51
232.987	1907.67
233.45	1805.58
233.914	1631.4
234.377	1580.66
234.84	1451.86
235.303	1642.25
235.766	1769.38
236.229	1829.08
236.691	1102.32
237.154	1218.89
237.617	953.28
238.08	944.47
238.542	1073.18
239.005	783.52
239.468	805.92
239.93	778.49
240.393	718.37
240.855	653.48
241.317	654.87
241.78	780.07
242.242	835.61
242.704	957.44
243.166	850.18
243.629	816.82
244.091	941.16
244.553	1035.71
245.015	1128.43
245.477	1462.06
245.939	2074.05
246.4	2243.18
246.862	2212.54
247.324	2094.75
247.786	2282.71
248.247	2977.9
248.709	2879.68
249.17	2188.56
249.632	2178.64
250.093	2598.42
250.555	2281.65
251.016	1464.26
251.477	1399.14
251.939	1536.13
252.4	1605.36
252.861	1869.21
253.322	1771.45
253.783	2136.95
254.244	2759.03
254.705	2109.63
255.166	1827.19
255.627	1795.02
256.088	2549.63
256.549	2742.76
257.009	2309.54
257.47	2782.51
257.931	2279.91
258.391	1735.3
258.852	1784.19
259.312	1863.21
259.773	2302.51
260.233	2009.94
260.694	1731.3
261.154	1948.18
261.614	1623.64
262.074	1481.66
262.534	1579.91
262.994	1534.9
263.455	2019.39
263.915	1743.36
264.374	1641.32
264.834	1794.91
265.294	1967.66
265.754	2046.53
266.214	1934.45
266.673	1809.14
267.133	2271.03
267.593	2219.63
268.052	2731.11
268.512	2383.62
268.971	2966.75
269.431	3300.36
269.89	2962.23
270.349	4485.91
270.809	5042.4
271.268	4584.51
271.727	10104.59
272.186	6635.47
272.645	5037.35
273.104	3580.51
273.563	5204.86
274.022	3978.87
274.481	3454.73
274.94	2710.49
275.399	1996.72
275.857	2292.74
276.316	3089.18
276.775	2772.39
277.233	2750.6
277.692	2629.91
278.15	3027.74
278.609	3186.38
279.067	2956.44
279.525	2784.31
279.984	3561.93
280.442	4324.15
280.9	4411.73
281.358	2894.94
281.816	2732.27
282.274	2674.96
282.732	2700.51
283.19	2682.04
283.648	2298.2
284.106	2447.68
284.564	2430.76
285.021	2295.08
285.479	1703.45
285.937	1503.62
286.394	1356.19
286.852	1373.38
287.309	1444.73
287.767	1465.85
288.224	1421.31
288.682	1556.07
289.139	1754.81
289.596	1648.29
290.053	1704
290.511	2155.43
290.968	2652.53
291.425	3602.57
291.882	3124.99
292.339	2790.87
292.796	2726.82
293.252	2573.22
293.709	2120.18
294.166	1911.46
294.623	2117.97
295.079	2037
295.536	2085.02
295.992	1919.04
296.449	1911.4
296.905	2002.37
297.362	1950.31
297.818	2060.42
298.274	2178.86
298.731	2184.76
299.187	2149.08
299.643	2299.72
300.099	2791.58
300.555	3055.06
301.011	2564.34
301.467	2556.25
301.923	2916.73
302.379	2836.63
302.835	2794.96
303.291	2787.08
303.746	3182.52
304.202	4043.69
304.658	4067.77
305.113	2758.05
305.569	2712.37
306.024	2861.3
306.479	2635.33
306.935	2256.43
307.39	2425.98
307.845	2237.4
308.301	2274.39
308.756	2195.25
309.211	2104.03
309.666	2133.65
310.121	2690.23
310.576	2713.05
311.031	2686.07
311.486	3047.3
311.94	3034.92
312.395	4013.66
312.85	7466.31
313.305	35419.39
313.759	191083.08
314.214	14078.47
314.668	11339.31
315.123	9584.53
315.577	3495.29
316.032	3148.05
316.486	3959.41
316.94	3175.86
317.394	2287.45
317.849	1803.9
318.303	1718.83
318.757	1602.93
319.211	1773.44
319.665	1562.41
320.119	1585.06
320.572	2245.85
321.026	2111.99
321.48	1770.76
321.934	1887.89
322.387	1863.38
322.841	2030.39
323.295	1902.2
323.748	2143.1
324.202	2178.07
324.655	2637.25
325.108	3755.82
325.562	2677.86
326.015	3156.99
326.468	2382.79
326.921	2711.72
327.374	2567.59
327.827	2695.89
328.28	3017.04
328.733	2065.02
329.186	1820.97
329.639	1744.28
330.092	1461.06
330.545	1408.26
330.997	1443.46
331.45	1623.16
331.903	1922.3
332.355	3254.26
332.808	3128.15
333.26	2572.92
333.713	2803.17
334.165	2825.72
334.617	3700.78
335.069	2896.07
335.522	5132.56
335.974	5637.01
336.426	4982.2
336.878	3364.47
337.33	1741.57
337.782	1697.19
338.234	2160.72
338.686	2553.5
339.137	2999.35
339.589	2829.8
340.041	2239.13
340.493	1933.8
340.944	1999.41
341.396	2199.55
341.847	1892.76
342.299	2281.44
342.75	2837.42
343.201	2423.67
343.653	2802.76
344.104	3455.55
344.555	2727.48
345.006	4188.88
345.457	3347.09
345.908	2648.51
346.359	2519.11
346.81	2043.07
347.261	2095.62
347.712	2031.54
348.163	2177.8
348.613	2297.02
349.064	2153.89
349.515	1909.71
349.965	1993.93
350.416	2354.98
350.866	2573.75
351.317	2875.49
351.767	4819.82
352.217	6080.72
352.668	5080.09
353.118	4670.78
353.568	4330.24
354.018	3464.83
354.468	3647.45
354.918	2648.03
355.368	2306.44
355.818	3239.94
356.268	9214.28
356.718	39005.6
357.168	9784.75
357.617	4895.66
358.067	5378.24
358.517	5038.61
358.966	5993.96
359.416	6797.35
359.865	7310.99
360.315	8618.75
360.764	4126.47
361.213	2328.94
361.663	2159.25
362.112	2669.76
362.561	4359.68
363.01	3328.73
363.459	2843.65
363.908	3017.5
364.357	2604.86
364.806	4301.09
365.255	2955.52
365.703	2739.02
366.152	2769.81
366.601	2260.83
367.05	1876.55
367.498	1713.2
367.947	1763.32
368.395	1814.06
368.844	1626.87
369.292	1892.19
369.74	1330.37
370.189	2024.8
370.637	2358.24
371.085	2005.34
371.533	2416.39
371.981	2286.08
372.429	2229.18
372.877	2346.24
373.325	1972.98
373.773	1977.66
374.221	1768.38
374.669	2182.94
375.116	1878.77
375.564	1888.22
376.012	2137.67
376.459	1794.44
376.907	2114.96
377.354	2485.46
377.801	2380.35
378.249	2790.91
378.696	3546.84
379.143	4294.47
379.591	4582.1
380.038	7970.13
380.485	5799.42
380.932	6248.53
381.379	5888.03
381.826	4432.26
382.273	3135.89
382.72	2684.24
383.166	2596.55
383.613	1705.18
384.06	1536.81
384.506	1793.1
384.953	1305.3
385.4	1300.59
385.846	1137.15
386.292	1048.78
386.739	1009.45
387.185	985.67
387.631	984.93
388.078	974.79
388.524	1033.6
388.97	964.08
389.416	815.85
389.862	869.28
390.308	821.24
390.754	834.19
391.2	912.7
391.645	923.33
392.091	927.41
392.537	899.04
392.983	879.73
393.428	908.91
393.874	960.28
394.319	980.4
394.765	949.76
395.21	964.46
395.655	896.74
396.101	841.34
396.546	762.48
396.991	742.32
397.436	686.84
397.881	656.75
398.326	587.79
398.771	567.77
399.216	479.56
399.661	411.36
400.106	416.33
400.551	435.09
400.995	389.18
401.44	384.88
401.885	358.94
402.329	363.12
402.774	351.68
403.218	361.06
403.663	339.59
404.107	352.97
404.551	370.06
404.995	334.87
405.44	315.41
405.884	316.6
406.328	298.46
406.772	301.12
407.216	273.75
407.66	258.42
408.104	230.28
408.547	213.69
408.991	203.21
409.435	188.41
409.879	189.92
410.322	190.09
410.766	188.95
411.209	184.4
411.653	175.04
412.096	175.71
412.54	175.82
412.983	175.69
413.426	181.04
413.869	180.43
414.312	182.08
414.756	172.23
415.199	160.25
415.642	153.72
416.085	153.76
416.527	151.66
416.97	150.67
417.413	144.21
417.856	141.78
418.298	138.54
418.741	132.48
419.184	128.41
419.626	128.4
420.069	129.61
420.511	131.33
420.953	131.66
421.396	132.9
421.838	126.03
422.28	130.89
422.722	134.51
423.164	133.87
423.606	133.55
424.048	131.64
424.49	130.17
424.932	129.04
425.374	123.85
425.816	121.78
426.258	119.72
426.699	124.31
427.141	123.41
427.582	122.44
428.024	119.31
428.465	117.66
428.907	115.13
429.348	109.77
429.789	113.39
430.231	116.32
430.672	120.98
431.113	120.82
431.554	117.29
431.995	110.07
432.436	109.86
432.877	111.53
433.318	114.31
433.759	111.14
434.2	112.99
434.64	108.33
435.081	108.34
435.522	102.26
435.962	97.06
436.403	98.03
436.843	97.83
437.284	92.52
437.724	85.09
438.164	78.75
438.604	78.94
439.045	78.75
439.485	78.73
439.925	73.9
440.365	70.14
440.805	69.5
441.245	70.21
441.685	69.35
442.125	66.34
442.564	67.49
443.004	67.92
443.444	66.91
443.883	66.49
444.323	62.22
444.762	58.56
445.202	58.33
445.641	60.61
446.081	55.17
446.52	55.24
446.959	56.61
447.398	57.59
447.837	57.86
448.276	56.19
448.716	54.48
449.154	52.3
449.593	54.59
450.032	54.64
450.471	50.34
450.91	49.79
451.349	51.15
451.787	49.59
452.226	47.72
452.664	46.85
453.103	47.2
453.541	46.87
453.98	51.98
454.418	51.59
454.856	54.61
455.295	55.77
455.733	58.1
456.171	57.18
456.609	58.3
457.047	59.79
457.485	63.72
457.923	65.45
458.361	64.59
458.798	63.22
459.236	63.85
459.674	61.02
460.111	61.31
460.549	61.42
460.987	61.05
461.424	60.13
461.862	60.32
462.299	58.21
462.736	59.75
463.173	60.51
463.611	64.13
464.048	65.18
464.485	67.12
464.922	66.54
465.359	65.4
465.796	75.82
466.233	77.2
466.67	80.26
467.106	82.57
467.543	80.01
467.98	78.45
468.416	72.79
468.853	69.43
469.29	65.61
469.726	64.74
470.162	62.79
470.599	52.74
471.035	50.7
471.471	46.95
471.907	43.31
472.344	42.11
472.78	43.35
473.216	43.74
473.652	43.88
474.088	44.18
474.523	45.11
474.959	44.85
475.395	44.41
475.831	45.33
476.266	45.06
476.702	44.47
477.138	44.08
477.573	43.11
478.008	43.9
478.444	45.83
478.879	48.2
479.314	48.31
479.75	49.1
480.185	48.61
480.62	47.67
481.055	48.19
481.49	49.76
481.925	50.96
482.36	55.53
482.795	55.65
483.229	54.91
483.664	55.33
484.099	55.3
484.534	56.49
484.968	58.22
485.403	59.07
485.837	58
486.271	56.95
486.706	56.92
487.14	53.01
487.574	53.01
488.009	52.9
488.443	51.4
488.877	52.55
489.311	51.65
489.745	52.09
490.179	52.56
490.613	55.83
491.046	56.49
491.48	56.5
491.914	56.7
492.348	56.77
492.781	57.62
493.215	57.46
493.648	55.89
494.082	56.44
494.515	56.3
494.948	57.74
495.382	55.69
495.815	55.51
496.248	56.25
496.681	56.72
497.114	55.78
497.547	56.15
497.98	57.97
498.413	60.18
498.846	61.37
499.279	61.09
499.711	59.59
500.144	59.21
500.577	60.6
501.009	60.46
501.442	61.7
501.874	62.7
502.306	61.49
502.739	65.42
503.171	64.55
503.603	63.48
504.036	63.08
504.468	63.41
504.9	64.01
505.332	62.82
505.764	62.96
506.196	61.9
506.627	62.03
507.059	62.3
507.491	57.11
507.923	57.05
508.354	57.33
508.786	57.31
509.217	58.04
509.649	57.78
510.08	57.99
510.512	57.92
510.943	57.95
511.374	58.13
511.805	58.32
512.237	58.05
512.668	57.49
513.099	57.18
513.53	57.47
513.961	56.99
514.391	57.93
514.822	60.31
515.253	61.66
515.684	61.99
516.114	61.95
516.545	62.84
516.975	63.73
517.406	63.91
517.836	62.65
518.267	63.09
518.697	64.24
519.127	63.3
519.558	61.26
519.988	59.5
520.418	58.58
520.848	57.13
521.278	55.91
521.708	98.52
522.138	99.22
522.567	99.95
522.997	99.89
523.427	98.51
523.857	98.97
524.286	98.64
524.716	99.27
525.145	100.26
525.575	101.87
526.004	101.77
526.433	58.98
526.863	57.66
527.292	58.84
527.721	59.78
528.15	59.64
528.579	59.46
529.008	59.78
529.437	58.96
529.866	58.31
530.295	57.7
530.724	59.41
531.152	60.21
531.581	61.9
532.01	61.49
532.438	59.92
532.867	60.04
533.295	61.13
533.723	61.37
534.152	62.47
534.58	63.36
535.008	63.21
535.436	64.25
535.865	64.46
536.293	63.55
536.721	63.78
537.149	66.05
537.576	67.56
538.004	67.72
538.432	67.45
538.86	67.94
539.287	67.39
539.715	68.09
540.143	66.16
540.57	65.89
540.998	65.95
541.425	67.43
541.852	66.36
542.28	65.94
542.707	65.41
543.134	66.09
543.561	66.29
543.988	66.96
544.415	66.76
544.842	66.67
545.269	67.58
545.696	68.96
546.123	68.68
546.549	68.91
546.976	68.83
547.403	69.4
547.829	68.19
548.256	67.75
548.682	68.17
549.108	69.83
549.535	69.74
549.961	68.56
550.387	67.59
550.813	69.02
551.24	69.27
551.666	69.18
552.092	69.21
552.518	69.7
552.943	70.58
553.369	70.58
553.795	70.07
554.221	70.99
554.646	72.08
555.072	74.49
555.498	72.44
555.923	72.02
556.349	72.54
556.774	72.11
557.199	72.8
557.625	71.77
558.05	72.21
558.475	72.5
558.9	72.73
559.325	73.41
559.75	73.27
560.175	73.36
560.6	73.86
561.025	73.43
561.449	74.33
561.874	74.41
562.299	76.47
562.723	76.47
563.148	75.82
563.572	75.89
563.997	75.83
564.421	74.74
564.846	74.79
565.27	75.38
565.694	75.98
566.118	76.28
566.542	78.35
566.966	77.77
567.39	78.38
567.814	79.44
568.238	80.54
568.662	80.91
569.086	82.12
569.509	83.05
569.933	84.49
570.357	84.66
570.78	84.17
571.204	85.09
571.627	84.82
572.05	85.36
572.474	86.81
572.897	86.78
573.32	88.4
573.743	87.63
574.166	88.23
574.589	87.25
575.012	87.4
575.435	87.34
575.858	86.01
576.281	86.16
576.704	85.17
577.126	83.88
577.549	82.81
577.972	81.33
578.394	81.31
578.817	84.08
579.239	83.13
579.661	83.44
580.084	85.59
580.506	85.99
580.928	86.05
581.35	86.44
581.772	86.18
582.194	86.66
582.616	85.97
583.038	84.39
583.46	80.92
583.882	81.59
584.303	80.01
584.725	78
585.147	83.21
585.568	83.96
585.99	85.02
586.411	86.14
586.833	86.59
587.254	87.48
587.675	89.16
588.096	90
588.518	89.58
588.939	89.95
589.36	90.62
589.781	83.16
590.202	85.44
590.623	84.18
591.043	83.01
591.464	82.17
591.885	82.46
592.305	81.59
592.726	81.45
593.147	81.42
593.567	81.65
593.987	80.18
594.408	79.52
594.828	75.17
595.248	76.09
595.669	76.7
596.089	76.42
596.509	74.89
596.929	74.02
597.349	74.09
597.769	74.06
598.189	73.29
598.608	73.87
599.028	74.38
599.448	74.26
599.867	72.53
600.287	70.9
600.706	71.74
601.126	72.32
601.545	73.57
601.965	73.1
602.384	72.39
602.803	72.47
603.222	72.42
603.641	72.13
604.061	73.04
604.48	72.71
604.898	73.32
605.317	73.12
605.736	72.67
606.155	72.91
606.574	72
606.992	72.01
607.411	71.98
607.829	70.78
608.248	70.05
608.666	69.03
609.085	69.67
609.503	69.32
609.921	70.25
610.339	71.32
610.758	70.14
611.176	70.49
611.594	71.66
612.012	71.5
612.43	73.63
612.847	74.56
613.265	76.2
613.683	76.04
614.101	76.44
614.518	74.75
614.936	73.36
615.353	74.15
615.771	74.64
616.188	74.21
616.606	74.52
617.023	74
617.44	73.74
617.857	72.13
618.274	71.87
618.691	72.75
619.108	72.41
619.525	72.61
619.942	73.05
620.359	73.37
620.776	72.85
621.192	73.81
621.609	73.89
622.026	74.77
622.442	76.12
622.859	75.83
623.275	74.79
623.691	75.23
624.108	76.33
624.524	76.88
624.94	76.76
625.356	76.79
625.772	76.84
626.188	77.15
626.604	77.43
627.02	76.43
627.436	77.31
627.852	79.14
628.268	80.4
628.683	78.8
629.099	78.25
629.514	76.83
629.93	77.66
630.345	77.9
630.761	76.77
631.176	76.8
631.591	79.17
632.007	79.72
632.422	78.04
632.837	76.38
633.252	78.18
633.667	77.99
634.082	78.13
634.497	78.84
634.911	80.15
635.326	80.86
635.741	80.21
636.155	78.25
636.57	80.21
636.984	81.31
637.399	84.75
637.813	83.69
638.228	84.44
638.642	85.82
639.056	85.43
639.47	85.4
639.884	85.88
640.298	86.32
640.712	88.51
641.126	87.97
641.54	87.63
641.954	84.96
642.368	86.44
642.781	90.94
643.195	90.62
643.609	91.98
644.022	91.99
644.436	91.94
644.849	91.15
645.262	88.93
645.676	88.46
646.089	89.22
646.502	90.72
646.915	90.41
647.328	86.69
647.741	87.82
648.154	87.14
648.567	91.11
648.98	92.45
649.393	93.2
649.805	94.93
650.218	94.88
650.631	94.52
651.043	94.66
651.456	95.38
651.868	95.38
652.28	96.35
652.693	96.7
653.105	94.53
653.517	93.76
653.929	94.28
654.341	94.19
654.753	93.94
655.165	94.24
655.577	94.4
655.989	93.71
656.401	91.71
656.813	91.08
657.224	89.91
657.636	86.29
658.047	87.59
658.459	86.96
658.87	86.35
659.282	84.94
659.693	84.98
660.104	84.35
660.515	83.3
660.926	83.68
661.338	82.3
661.749	81.56
662.159	82.78
662.57	81.2
662.981	81.08
663.392	80.81
663.803	81.44
664.213	80.47
664.624	79.88
665.035	79.75
665.445	78.26
665.855	79.44
666.266	81.62
666.676	80.6
667.086	78.7
667.497	78.76
667.907	77.77
668.317	76.97
668.727	80.34
669.137	78.72
669.547	78.77
669.956	78.21
670.366	77.47
670.776	76.4
671.186	76.52
671.595	77.19
672.005	76.15
672.414	77.74
672.824	78.78
673.233	74.9
673.642	75.28
674.052	76.13
674.461	78.48
674.87	77.78
675.279	78.36
675.688	76.21
676.097	78.18
676.506	78.44
676.915	78.03
677.323	77.62
677.732	76.8
678.141	77.04
678.549	75.15
678.958	73.5
679.366	73.02
679.775	71.28
680.183	75.67
680.592	75.12
681	74.68
681.408	74.03
681.816	74.35
682.224	74.06
682.632	76.51
683.04	78.42
683.448	79.53
683.856	82.69
684.264	85.76
684.671	85.38
685.079	85.94
685.487	88.84
685.894	91.94
686.302	92.78
686.709	95.82
687.116	96.83
687.524	99.91
687.931	102.66
688.338	103.42
688.745	101.82
689.152	102.11
689.559	103.94
689.966	106.58
690.373	106.08
690.78	107.66
691.187	109.26
691.593	109.43
692	108.52
692.407	109.74
692.813	114.57
693.22	117.31
693.626	116.88
694.032	118.83
694.439	119.68
694.845	120.86
695.251	121.93
695.657	123.53
696.063	125.64
696.469	125.7
696.875	127.21
697.281	123.97
697.687	122.41
698.093	123.04
698.498	124.07
698.904	123.36
699.31	125.58
699.715	130.08
700.12	131.97
700.526	131.81
700.931	133.65
701.337	134.74
701.742	135.92
702.147	138.64
702.552	139.64
702.957	140.18
703.362	141.4
703.767	140.77
704.172	138.05
704.577	135.04
704.981	135.23
705.386	136.73
705.791	135.35
706.195	135.07
706.6	135.63
707.004	136.65
707.408	133.32
707.813	134.89
708.217	136.12
708.621	136.04
709.025	139.07
709.43	140.61
709.834	142.45
710.237	143.96
710.641	143.49
711.045	144.42
711.449	145.75
711.853	152.86
712.256	152.75
712.66	151.92
713.064	153.87
713.467	156.99
713.87	159.88
714.274	160.48
714.677	164.32
715.08	170.33
715.484	175.41
715.887	185.02
716.29	184.13
716.693	191.51
717.096	199.12
717.499	204.21
717.901	201.64
718.304	200.97
718.707	200.59
719.109	196.77
719.512	193.07
719.915	191.3
720.317	185.65
720.719	185.96
721.122	183.12
721.524	181.65
721.926	184.72
722.328	188.25
722.731	186.72
723.133	187.58
723.535	192.84
723.937	194.13
724.338	194.86
724.74	197.25
725.142	269.33
725.544	274.7
725.945	292.72
726.347	286.58
726.748	287.18
727.15	289.28
727.551	292.63
727.952	289.96
728.354	287.35
728.755	285.98
729.156	282.82
729.557	212.12
729.958	202.48
730.359	183.88
730.76	184.1
731.161	181.69
731.562	178.93
731.962	174.35
732.363	173.28
732.763	172.21
733.164	170.59
733.564	168.07
733.965	165.78
734.365	165.27
734.766	167.24
735.166	166.92
735.566	166.05
735.966	167.35
736.366	168.25
736.766	166.68
737.166	167.74
737.566	168.41
737.966	167.77
738.365	170.05
738.765	171.77
739.165	168.21
739.564	165.8
739.964	165.4
740.363	162.68
740.763	160.87
741.162	163.12
741.561	161.89
741.96	160.51
742.36	160.24
742.759	160.76
743.158	160.3
743.557	161.26
743.955	162.93
744.354	162.13
744.753	163.42
745.152	164.36
745.55	164.04
745.949	164.02
746.348	163.8
746.746	163.53
747.144	164.78
747.543	163.38
747.941	163.8
748.339	161.87
748.737	163.28
749.136	165.29
749.534	164.98
749.932	166.2
750.33	167.6
750.727	168.65
751.125	170.17
751.523	165.71
751.921	172.57
752.318	172.58
752.716	177.04
753.113	175.9
753.511	175.02
753.908	177.4
754.305	181.7
754.703	184.71
755.1	188.5
755.497	190.05
755.894	196.68
756.291	198.5
756.688	209.92
757.085	220.14
757.482	240.81
757.878	264.36
758.275	280.85
758.672	292.76
759.068	307.97
759.465	331.46
759.861	363.85
760.258	401.65
760.654	417.73
761.05	413.12
761.447	394.52
761.843	370.31
762.239	343.06
762.635	330.62
763.031	319.91
763.427	306.23
763.822	290.56
764.218	274.8
764.614	253.68
765.01	239.55
765.405	230.29
765.801	225.94
766.196	215.06
766.592	209.8
766.987	203.04
767.382	198.44
767.778	197.06
768.173	193.45
768.568	192.19
768.963	191.22
769.358	193.9
769.753	194.43
770.148	193.09
770.542	194.25
770.937	193.72
771.332	198.21
771.726	198.65
772.121	201.58
772.515	204.9
772.91	204.38
773.304	206.4
773.699	202.82
774.093	203.29
774.487	204.9
774.881	206.53
775.275	206.59
775.669	202.88
776.063	203.77
776.457	201.74
776.851	199.19
777.245	199.78
777.638	200.16
778.032	203.79
778.425	204.6
778.819	210.14
779.212	212.7
779.606	214.86
779.999	216.32
780.392	219.65
780.786	219.33
781.179	219.98
781.572	223.22
781.965	224.86
782.358	223.58
782.751	224.92
783.143	216.98
783.536	215.66
783.929	212.33
784.322	217.74
784.714	215.58
785.107	217.01
785.499	222.15
785.891	222.2
786.284	221.05
786.676	224.94
787.068	226.02
787.46	230.29
787.852	230.48
788.245	233.48
788.636	231.18
789.028	236.56
789.42	239.68
789.812	238.24
790.204	239.25
790.595	245.04
790.987	239.89
791.378	238.6
791.77	240.46
792.161	244.74
792.553	248.16
792.944	244.48
793.335	237.59
793.726	239.28
794.117	244.33
794.508	245.34
794.899	240.51
795.29	244.09
795.681	245.71
796.072	241.4
796.463	263.14
796.853	268.32
797.244	275.76
797.634	279.78
798.025	277.7
798.415	272.21
798.806	281.32
799.196	287.61
799.586	293.97
799.976	294.72
800.366	302.25
800.756	278.91
801.146	272.67
801.536	271.24
801.926	271.16
802.316	274.36
802.706	279.25
803.095	273.17
803.485	273.98
803.874	270.78
804.264	276.09
804.653	276.82
805.043	287.4
805.432	293.24
805.821	296.89
806.21	300.25
806.599	303.14
806.988	305.24
807.377	304.11
807.766	304.99
808.155	313.19
808.544	303.84
808.933	302.56
809.321	301.82
809.71	304.65
810.098	309.09
810.487	317.04
810.875	328
811.264	326.02
811.652	351.92
812.04	359.94
812.428	367.22
812.816	387.43
813.204	400.64
813.592	407.85
813.98	416.89
814.368	415.07
814.756	432.08
815.144	430.64
815.531	449.7
815.919	427.32
816.306	431.58
816.694	417.23
817.081	420.3
817.469	436.37
817.856	434.03
818.243	443.28
818.63	446.08
819.017	434.2
819.404	437.75
819.791	446.73
820.178	460.65
820.565	472.69
820.952	511.41
821.339	500.83
821.725	501.42
822.112	484.87
822.498	482.5
822.885	485.4
823.271	480
823.657	485.12
824.044	484.97
824.43	489.55
824.816	501.19
825.202	483.2
825.588	510.49
825.974	511.66
826.36	526.77
826.746	527.69
827.132	540.33
827.517	547.77
827.903	525.14
828.289	530.74
828.674	507.82
829.06	489.52
829.445	495.35
829.83	503.1
830.216	513.48
830.601	527.25
830.986	527.97
831.371	524.07
831.756	542.61
832.141	542.23
832.526	538.11
832.911	546.91
833.295	542.29
833.68	554.01
834.065	538.42
834.449	507.9
834.834	504.06
835.218	499.73
835.603	511.65
835.987	496.63
836.371	515.21
836.755	512.27
837.139	517.59
837.524	521.37
837.908	516.99
838.291	518.44
838.675	520
839.059	522.67
839.443	513.19
839.827	500.18
840.21	509.88
840.594	508.84
840.977	516.73
841.361	518.04
841.744	528.55
842.127	526.95
842.511	534.04
842.894	550.44
843.277	561.84
843.66	577.43
844.043	586.69
844.426	572.43
844.809	551.13
845.191	548.02
845.574	535.76
845.957	524.48
846.339	523.01
846.722	508.1
847.104	507.02
847.487	494.25
847.869	496.69
848.252	502.95
848.634	511.11
849.016	517.88
849.398	517.57
849.78	537.93
850.162	540.22
850.544	549.97
850.926	560
851.307	559.5
851.689	574.83
852.071	578.87
852.452	584.82
852.834	580.66
853.215	602.88
853.597	608.42
853.978	624.26
854.359	637.47
854.741	608.57
855.122	606.14
855.503	596.13
855.884	600.3
856.265	605.61
856.646	604.01
857.026	593.81
857.407	590.41
857.788	594.55
858.169	593.81
858.549	578.61
858.93	597.79
859.31	602.43
859.69	615.82
860.071	603.86
860.451	598.86
860.831	579.26
861.211	605.91
861.591	609.55
861.971	603.14
862.351	609.44
862.731	607.52
863.111	611.05
863.491	620.05
863.87	635.2
864.25	635.49
864.629	632.44
865.009	646.32
865.388	674.1
865.768	722.84
866.147	733.4
866.526	693.9
866.905	708.9
867.284	739.48
867.663	699.67
868.042	669.73
868.421	671.99
868.8	673.04
869.179	683.54
869.558	641.94
869.936	597.34
870.315	600.7
870.693	624.33
871.072	668.82
871.45	642.33
871.828	654.44
872.207	688.94
872.585	681.16
872.963	693.14
873.341	682.62
873.719	687.49
874.097	677.2
874.475	686.91
874.853	691.87
875.23	665.62
875.608	693.69
875.986	750.92
876.363	727.73
876.741	766.43
877.118	759.49
877.495	790.6
877.873	791.89
878.25	833.92
878.627	797.64
879.004	814.83
879.381	806.96
879.758	793.4
880.135	733.71
880.512	769.95
880.889	725.24
881.265	712.36
881.642	696.3
882.019	710.41
882.395	708.42
882.772	754.99
883.148	721.15
883.524	724
883.901	717.3
884.277	726.84
884.653	717.35
885.029	754.48
885.405	850.56
885.781	843.87
886.157	803.48
886.532	802.63
886.908	786.96
887.284	869.84
887.659	900.68
888.035	924.76
888.411	948.66
888.786	968.3
889.161	995.33
889.537	954.97
889.912	984.32
890.287	990.8
890.662	1009.69
891.037	980.79
891.412	915.56
891.787	891.73
892.162	863.14
892.536	886.43
892.911	851.29
893.286	823.92
893.66	796.4
894.035	818.4
894.409	874.89
894.784	843.87
895.158	864
895.532	919.34
895.906	957.97
896.281	980.84
896.655	968.58
897.029	1100.66
897.402	1147.11
897.776	1270.41
898.15	1271.33
898.524	1266.91
898.898	1283.28
899.271	1453.55
899.645	1263.66
900.018	1197.05
900.392	1231.03
900.765	1220.49
901.138	1132.93
901.511	1106.81
901.884	1028.9
902.258	949.37
902.631	991.71
903.003	1139.92
903.376	1013.95
903.749	1136.03
904.122	1219
904.495	1340.53
904.867	1364.41
905.24	1192.18
905.612	1111.18
905.985	1119.16
906.357	1162.86
906.729	1107.18
907.102	946.62
907.474	926.66
907.846	933.83
908.218	922.44
908.59	831.57
908.962	803.67
909.334	861.42
909.705	913.4
910.077	889.18
910.449	920.87
910.82	953.71
911.192	1045.53
911.563	1091.35
911.935	1138.96
912.306	1135.97
912.677	1159.1
913.048	1161.72
913.419	1254.97
913.79	1249.97
914.161	1331.61
914.532	1299.79
914.903	1175.61
915.274	1117.89
915.645	1074.39
916.015	950.05
916.386	907.14
916.756	959.72
917.127	971.57
917.497	877.85
917.868	967.34
918.238	930.27
918.608	939.23
918.978	968.07
919.348	1027.27
919.718	1076.7
920.088	1049.1
920.458	1103.42
920.828	1150.07
921.198	1100.3
921.567	1163.73
921.937	906.38
922.306	897.11
922.676	965.23
923.045	826.93
923.415	803.28
923.784	735.43
924.153	770.95
924.522	781.26
924.891	738.22
925.26	782.83
925.629	757.59
925.998	859.48
926.367	849.32
926.736	849.11
927.104	988.92
927.473	1034.48
927.842	1224.62
928.21	1176.21
928.578	1201.42
928.947	1155.24
929.315	1187.45
929.683	1432.29
930.051	1459.38
930.42	1699.08
930.788	1419.34
931.156	1412.98
931.523	1375.33
931.891	1285.1
932.259	1252.71
932.627	1480.1
932.994	2074.53
933.362	1762.75
933.729	1519.83
934.097	1448.69
934.464	1230.86
934.831	1379.49
935.199	1351.93
935.566	1298.04
935.933	1278.64
936.3	1560.8
936.667	1192.46
937.034	1191.14
937.401	1143.5
937.767	993.14
938.134	871.15
938.501	1207.56
938.867	1322.53
939.234	2215.24
939.6	1820.16
939.967	2046.58
940.333	1371.65
940.699	1170.83
941.065	812.53
941.431	1097.05
941.798	1134.84
942.163	1558.3
942.529	960.53
942.895	865.49
943.261	568.16
943.627	758.25
943.992	688.87
944.358	689.87
944.723	722.19
945.089	705.54
945.454	651.36
945.82	650.84
946.185	614.99
946.55	744.48
946.915	663.61
947.28	787.75
947.645	697.91
948.01	666.38
948.375	728.05
948.74	835.16
949.104	946.32
949.469	1266.46
949.834	2230.73
950.198	2261.69
950.562	1375.12
950.927	1181.7
951.291	1413.48
951.655	1176.07
952.02	1042.62
952.384	750.71
952.748	698.78
953.112	753.35
953.476	668.63
953.839	606.88
954.203	609.54
954.567	741.31
954.931	1099.48
955.294	951.98
955.658	975.06
956.021	1702.57
956.385	2872.16
956.748	4155.46
957.111	5920.61
957.474	6490.83
957.837	7199.25
958.2	5050.28
958.563	1804.2
958.926	1269.26
959.289	1843.2
959.652	2057.59
960.015	1551.87
960.377	2227.34
960.74	2496.86
961.102	4266.13
961.465	4887.48
961.827	3315.59
962.189	6326.1
962.552	4493.9
962.914	3589.68
963.276	2369.01
963.638	1945.84
964	1856.02
964.362	1270.96
964.724	1168.87
965.085	857.65
965.447	708.47
965.809	657.29
966.17	644.58
966.532	660.6
966.893	610.56
967.255	546.71
967.616	630.11
967.977	534.51
968.338	563.94
968.699	514.42
969.061	498.04
969.421	503.98
969.782	560.53
970.143	512.06
970.504	595.18
970.865	690.18
971.225	750.99
971.586	740.47
971.946	1000.68
972.307	866.17
972.667	1070.24
973.027	1133.81
973.388	1307.86
973.748	910.89
974.108	991.06
974.468	1177.42
974.828	1003.18
975.188	717.25
975.548	652.9
975.907	584.7
976.267	652.8
976.627	584.01
976.986	588.85
977.346	563.1
977.705	544.34
978.064	479.61
978.424	422.21
978.783	371.93
979.142	433.1
979.501	445.12
979.86	468.1
980.219	452.11
980.578	530.91
980.937	586.23
981.296	549.04
981.654	562.69
982.013	855.23
982.371	1179.64
982.73	1152.37
983.088	1305.33
983.447	1407.42
983.805	2030.2
984.163	4252.21
984.521	4852.45
984.879	6955.04
985.237	-11151.77
985.595	11114.01
985.953	2727.77
986.311	1390.96
986.669	814.69
987.026	682.78
987.384	782.36
987.741	739.53
988.099	611.4
988.456	485.71
988.814	492.66
989.171	439.73
989.528	391.84
989.885	385.48
990.242	358.24
990.599	417.19
990.956	342.13
991.313	258.99
991.67	226.04
992.027	289.71
992.383	270.63
992.74	245.97
993.096	264.92
993.453	279.97
993.809	289.88
994.165	367.3
994.522	404.83
994.878	451.11
995.234	572.78
995.59	559.11
995.946	422.06
996.302	478.12
996.658	504.61
997.013	531.62
997.369	675.01
997.725	960.23
998.08	595.63
998.436	659
998.791	923.75
999.147	928.41
999.502	943.38
999.857	665.52
1000.212	1071.56
1000.567	1633.36
1000.922	938.65
1001.277	565.37
1001.632	404.78
1001.987	524.53
1002.342	409.43
1002.696	330.14
1003.051	280.7
1003.406	387.5
1003.76	379.58
1004.114	377.54
1004.469	334.24
1004.823	266.1
1005.177	269.17
1005.531	209.22
1005.885	204.1
1006.239	261.05
1006.593	340.53
1006.947	462.54
1007.301	319.99
1007.655	345.99
1008.008	253.58
1008.362	284.03
1008.715	414.42
1009.069	386.05
1009.422	685.42
1009.776	1267.93
1010.129	767.66
1010.482	604.09
1010.835	454.06
1011.188	893.47
1011.541	887.34
1011.894	-5355.23
1012.247	15741.99
1012.6	1066.49
1012.952	750.82
1013.305	263.62
1013.657	248.18
1014.01	232.45
1014.362	185.8
1014.715	235.18
1015.067	237.84
1015.419	233.87
1015.771	209.75
1016.123	199.67
1016.475	218.99
1016.827	213.29
1017.179	278.59
1017.531	243.82
1017.883	237.58
1018.234	310.16
1018.586	355.07
1018.938	447.13
1019.289	603.83
1019.64	653.81
1019.992	576.44
1020.343	493.05
1020.694	445.16
1021.045	373.62
1021.396	437.18
1021.747	495.26
1022.098	428.65
1022.449	302.74
1022.8	237.42
1023.151	191.88
1023.501	196.03
1023.852	188.23
1024.202	226.6
1024.553	202.8
1024.903	247.71
1025.253	251.73
1025.604	247.25
1025.954	306.18
1026.304	347.99
1026.654	402.71
1027.004	528.38
1027.354	766.34
1027.703	854.28
1028.053	906.97
1028.403	1477.87
1028.753	1392.76
1029.102	915.1
1029.452	287.87
1029.801	-63.14
1030.15	-53.81
1030.499	-161.52
897.758	2771.4
901.051	2725.24
904.343	2761.4
907.636	2760.95
910.928	2826.52
914.22	2731.24
917.511	2739.64
920.803	2802.93
924.094	2826.16
927.384	2799.54
930.675	2764.34
933.965	2713.32
937.255	2720.53
940.544	2686.72
943.834	2614.62
947.123	2560.21
950.411	2657.89
953.7	2628.8
956.988	2591.81
960.276	2530.43
963.563	2616.04
966.851	2606.78
970.138	2667.28
973.424	2658.44
976.711	2606.32
979.997	2751.42
983.283	2781.58
986.568	2682.35
989.853	2703.27
993.138	2729.49
996.423	2812.55
999.708	2740.19
1002.992	2812.2
1006.275	2635.92
1009.559	2685.6
1012.842	2802.18
1016.125	2729.94
1019.408	2709.82
1022.69	2798.88
1025.972	2810.82
1029.254	2784.72
1032.536	2708.41
1035.817	2741.49
1039.098	2677.4
1042.379	2834.28
1045.659	2828.76
1048.939	2757.61
1052.219	2778.24
1055.498	2792.09
1058.778	2773.12
1062.057	2761.69
1065.335	2777.81
1068.614	2796.86
1071.892	2774.63
1075.17	2853.72
1078.447	2834.22
1081.724	2823.96
1085.001	2865.04
1088.278	2837.29
1091.554	2848.57
1094.83	2848.31
1098.106	2870.52
1101.382	2916.87
1104.657	2914.57
1107.932	2911.47
1111.206	2872.9
1114.481	2832.56
1117.755	2833.72
1121.029	2805.15
1124.302	2855.37
1127.575	2802.93
1130.848	2786.24
1134.121	2746.04
1137.393	2694.23
1140.665	2764.65
1143.937	2734.6
1147.208	2699.56
1150.48	2733.48
1153.75	2716.6
1157.021	2755.9
1160.291	2722.84
1163.561	2764.43
1166.831	2759.95
1170.101	2790.98
1173.37	2768.84
1176.639	2709.37
1179.907	2771.8
1183.176	2772.73
1186.444	2782.36
1189.711	2811.09
1192.979	2817.24
1196.246	2779.81
1199.513	2795.88
1202.78	2791.87
1206.046	2799.41
1209.312	2825.17
1212.578	2850.6
1215.843	2801.51
1219.108	2776.5
1222.373	2798.87
1225.638	2762.3
1228.902	2747.08
1232.166	2718.25
1235.43	2701.56
1238.693	2724.16
1241.956	2723.78
1245.219	2760.99
1248.482	2755.62
1251.744	2749.09
1255.006	2901.06
1258.268	2858.49
1261.529	2801.26
1264.79	2807.74
1268.051	2903.63
1271.312	2922.86
1274.572	2881.69
1277.832	2871.68
1281.092	2864.14
1284.351	2832.76
1287.61	2808.33
1290.869	2720.28
1294.128	2690.87
1297.386	2792.58
1300.644	2778.62
1303.902	2794.07
1307.159	2653.6
1310.416	2709.7
1313.673	2733.64
1316.93	2716.05
1320.186	2764.79
1323.442	2809.34
1326.697	2797.87
1329.953	2796.28
1333.208	2813.64
1336.463	2800.6
1339.717	2734.85
1342.972	2877.48
1346.226	2856.41
1349.479	2787.42
1352.733	2758.3
1355.986	2788.55
1359.238	2768.56
1362.491	2772.19
1365.743	2777.32
1368.995	2773.35
1372.247	2789.82
1375.498	2815.87
1378.749	2825.26
1382	2788.22
1385.251	2843.83
1388.501	2811.93
1391.751	2792.85
1395	2769.16
1398.25	2804.65
1401.499	2810.03
1404.748	2736.45
1407.996	2730.35
1411.244	2715.85
1414.492	2696.13
1417.74	2675.05
1420.987	2688.63
1424.234	2744.73
1427.481	2728.47
1430.728	2787.66
1433.974	2759.79
1437.22	2780.89
1440.465	2780.32
1443.711	2737.5
1446.956	2775.18
1450.201	2765.26
1453.445	2808.1
1456.689	2784.49
1459.933	2795.72
1463.177	2826.14
1466.42	2794.69
1469.663	2778.17
1472.906	2764.17
1476.148	2845.75
1479.391	2801.01
1482.633	2770.64
1485.874	2777.11
1489.115	2757.63
1492.356	2764.32
1495.597	2738.34
1498.838	2739.05
1502.078	2704.91
1505.318	2647.08
1508.557	2690.14
1511.797	2657.16
1515.036	2730.41
1518.274	2718.97
1521.513	2692.09
1524.751	2715.3
1527.989	2721.86
1531.227	2729.23
1534.464	2715.17
1537.701	2741.24
1540.938	2758.96
1544.174	2711.51
1547.41	2710.21
1550.646	2746.38
1553.882	2777.66
1557.117	2828.19
1560.352	2839.33
1563.587	2796.9
1566.821	2756.03
1570.055	2795.83
1573.289	2759.3
1576.523	2836.24
1579.756	2836.14
1582.989	2853.12
1586.222	2811.11
1589.454	2852.04
1592.686	2822.63
1595.918	2845.11
1599.15	2828.35
1602.381	2912.4
1605.612	2859.27
1608.843	2952.93
1612.073	2862.85
1615.303	2849.93
1618.533	2836.44
1621.762	2846.41
1624.992	2833.05
1628.221	2812.69
1631.449	2798.79
1634.678	2860.23
1637.906	2807.87
1641.134	2848.84
1644.361	2802.13
1647.588	2797.58
1650.815	2810.3
1654.042	2797.16
1657.269	2820.36
1660.495	2767.67
1663.72	2799.31
1666.946	2765.13
1670.171	2705.13
1673.396	2682.34
1676.621	2673.52
1679.845	2699.49
1683.069	2721.51
1686.293	2767.74
1689.517	2732.7
1692.74	2661.68
1695.963	2693.1
1699.185	2699.39
1702.408	2679.22
1705.63	2721.63
1708.852	2732.11
1712.073	2705.39
1715.294	2687.05
1718.515	2749.91
1721.736	2694.06
1724.956	2696.14
1728.176	2725.39
1731.396	2745.97
1734.616	2738.07
1737.835	2760.36
1741.054	2743.71
1744.272	2740.28
1747.491	2768.68
1750.709	2828.8
1753.927	2726.66
1757.144	2778.9
1760.361	2814.88
1763.578	2812.67
1766.795	2755.09
1770.011	2765.62
1773.227	2810.72
1776.443	2846.76
1779.658	2888.04
1782.874	2837.01
1786.089	2812.71
1789.303	2815.22
1792.518	2824.36
1795.732	2813.8
1798.945	2820.87
1802.159	2873.02
1805.372	2769.5
1808.585	2752.08
1811.797	2752.04
1815.01	2809.47
1818.222	2806.92
1821.434	2781.29
1824.645	2843.38
1827.856	2823.4
1831.067	2859.34
1834.278	2827
1837.488	2812.11
1840.698	2968.19
1843.908	2891.9
1847.117	2856.04
1850.326	2731.18
1853.535	2846.8
1856.744	2880.26
1859.952	2795.31
1863.16	2798.91
1866.368	2828.2
1869.575	2931.68
1872.782	2821.48
1875.989	2767.15
1879.196	2863.51
1882.402	2860.96
1885.608	2909.44
1888.814	2809
1892.019	2701.68
1895.224	2760.09
1898.429	2744.82
1901.634	2722.25
1904.838	2701.62
1908.042	2758.38
1911.246	2762.78
1914.449	2687.2
1917.652	2692.21
1920.855	2672.72
1924.058	2728.42
1927.26	2766.61
1930.462	2793.86
1933.664	2819.04
1936.865	2753.62
1940.066	2759.86
1943.267	2703.39
1946.467	2723.86
1949.668	2751.85
1952.868	2817.93
1956.067	2794.58
1959.267	2719.82
1962.466	2748.23
1965.665	2732.55
1968.863	2729.94
1972.061	2747.39
1975.259	2747.55
1978.457	2828.02
1981.654	2784.02
1984.852	2784.68
1988.048	2711.08
1991.245	2714.61
1994.441	2798.99
1997.637	2790.61
2000.833	2773.31
2004.028	2812.36
2007.223	2866.51
2010.418	2840.88
2013.613	2803.36
2016.807	2767.99
2020.001	2777.47
2023.194	2825.33
2026.388	2802.69
2029.581	2749.64
2032.774	2793.86
2035.966	2798.36
2039.158	2725.26
2042.35	2754.38
2045.542	2680.4
2048.733	2784.91
2051.924	2811.3
2055.115	2842.23
2058.306	2781.02
2061.496	2842.5
2064.686	2907.67
2067.875	2820.61
2071.065	2840.2
2074.254	2870.42
2077.442	2820.61
2080.631	2912.76
2083.819	2795.36
2087.007	2777.36
2090.195	2743.86
2093.382	2783.41
2096.569	2760.43
2099.756	2714.37
2102.942	2736.62
2106.128	2739.85
2109.314	2729.4
2112.5	2688.73
2115.685	2666.1
2118.87	2677.12
2122.055	2742.93
2125.239	2706.09
2128.424	2674.87
2131.608	2786.9
2134.791	2765.4
2137.974	2828.2
2141.157	2811.58
2144.34	2761.34
2147.523	2778.91
2150.705	2790.96
2153.887	2772.05
2157.068	2717.47
2160.25	2724.98
2163.431	2767.06
2166.611	2707.97
2169.792	2724.59
2172.972	2615.27
2176.152	2699.29
2179.331	2735.61
2182.511	2716.9
2185.69	2747.24
2188.868	2740.84
2192.047	2802.9
2195.225	2788.15
2198.403	2738.22
2201.58	2731.49
2204.758	2726.82
2207.935	2814.51
2211.111	2696.89
2214.288	2681.39
2217.464	2721.63
2220.64	2694.23
2223.815	2751.17
2226.991	2669.36
2230.166	2689.3
2233.34	2716.45
2236.515	2744.76
2239.689	2823.46
2242.863	2765.47
2246.036	2823.95
2249.209	2826.15
2252.382	2862.66
2255.555	2849.5
2258.727	2782.88
2261.9	2824.6
2265.071	2816.46
2268.243	2821.89
2271.414	2750.17
2274.585	2705.14
2277.756	2774.06
2280.926	2728.69
2284.096	2771.82
2287.266	2675.4
2290.436	2733.75
2293.605	2765.49
2296.774	2795.5
2299.942	2821.58
2303.111	2837.25
2306.279	2886.23
2309.447	2871.67
2312.614	2845.78
2315.781	2866.3
2318.948	2834.66
2322.115	2875.84
2325.281	2775.72
2328.447	2797.33
2331.613	2772.21
2334.779	2740.88
2337.944	2749.18
2341.109	2746.24
2344.274	2729.62
2347.438	2694.97
2350.602	2721.31
2353.766	2739.63
2356.929	2723.09
2360.092	2767.04
2363.255	2716.48
2366.418	2642.13
2369.58	2766.4
2372.742	2529.92
2375.904	2549.41
2379.066	2524.08
2382.227	2562.26
2385.388	2523.89
2388.548	2444.86
2391.709	2505.91
2394.869	2481.8
2398.029	2589.02
2401.188	2608.33
2404.347	2535.23
2407.506	2693.76
2410.665	2718.31
2413.823	2729.36
2416.981	2682.85
2420.139	2716.57
2423.296	2769.7
2426.453	2742.18
2429.61	2767.58
2432.767	2695.63
2435.923	2732.52
2439.079	2690.73
2442.235	2742.23
2445.391	2667.6
2448.546	2694.42
2451.701	2749.83
2454.855	2717.92
2458.009	2774.49
2461.163	2780.31
2464.317	2733.83
2467.471	2769.08
2470.624	2811.84
2473.777	2788.77
2476.929	2800.24
2480.082	2826.84
2483.234	2789.18
2486.385	2741.06
2489.537	2732.52
2492.688	2690.23
2495.839	2706.37
2498.989	2718.98
2502.14	2701.9
2505.29	2681.18
2508.439	2707.63
2511.589	2626.94
2514.738	2641.54
2517.887	2677.36
2521.035	2739.78
2524.183	2726.44
2527.331	2704.32
2530.479	2673.03
2533.627	2686.8
