Data from C_3_DEC_ON_6N_Splice17_13-36-29-469.txt Node
Date: Sat Mar 14 13:36:29 EDT 2020
User: sa697716
Spectrometer: FLMS03696
Trigger mode: 0
Integration Time (sec): 3.180400E-1
Scans to average: 20
Electric dark correction enabled: true
Nonlinearity correction enabled: true
Boxcar width: 5
XAxis mode: Wavelengths
Number of Pixels in Spectrum: 2048
>>>>>Begin Spectral Data<<<<<
187.83	-392452.48
188.298	2908.69
188.766	1524.26
189.233	1348.99
189.701	1890.84
190.169	2599.94
190.636	979.61
191.104	770.33
191.571	107.1
192.039	-118.73
192.506	-130.38
192.974	613.11
193.441	-912.35
193.908	-284.3
194.375	-125.75
194.842	-55.66
195.31	32.62
195.777	181.61
196.244	422.87
196.711	426.96
197.177	518.04
197.644	737.1
198.111	1253.7
198.578	1751.88
199.045	1378.99
199.511	2273.64
199.978	2585.39
200.445	2197.35
200.911	2395.42
201.378	2628.29
201.844	2398.07
202.31	4066.47
202.777	4190.06
203.243	2327.1
203.709	2215.89
204.176	2651.06
204.642	2177.22
205.108	2047.36
205.574	1666.31
206.04	1518.48
206.506	1435.75
206.972	1346.63
207.438	1315.7
207.903	1496.04
208.369	1321.46
208.835	1319.89
209.301	1384.87
209.766	1405.56
210.232	1420.21
210.697	1753.44
211.163	2142.77
211.628	3217.32
212.094	2750.56
212.559	3406.23
213.024	2123.07
213.49	2615.11
213.955	2552.96
214.42	2460.78
214.885	2293.67
215.35	2176.46
215.815	2140.74
216.28	2281.56
216.745	1835.36
217.21	1969.81
217.675	1784.76
218.14	1993.68
218.604	2191.53
219.069	2500.25
219.534	2657.18
219.998	3064.34
220.463	3701.11
220.927	4486.75
221.392	4209.36
221.856	4289.99
222.32	5386.88
222.785	6655.54
223.249	8405.65
223.713	9366.57
224.177	9344.44
224.642	11930.22
225.106	14664.47
225.57	15989.03
226.034	11965.68
226.497	18287.86
226.961	16534.2
227.425	19300.92
227.889	21419.59
228.353	21377.32
228.816	44232.92
229.28	42456.57
229.744	35895.62
230.207	21948.87
230.671	21659.38
231.134	35757.71
231.597	41261.34
232.061	41282.12
232.524	40311.5
232.987	27815.17
233.45	25141.7
233.914	22634.75
234.377	23195.67
234.84	21233.08
235.303	25051.28
235.766	27988.12
236.229	28936.68
236.691	18237.45
237.154	20526.09
237.617	15463.37
238.08	15859.02
238.542	18577.16
239.005	13309.52
239.468	13237.54
239.93	12510.41
240.393	11395.48
240.855	10026.23
241.317	10295.16
241.78	12527.42
242.242	12960.46
242.704	14042.08
243.166	12240.97
243.629	11143.54
244.091	12834.67
244.553	14079.7
245.015	15166.05
245.477	19599.82
245.939	28754.08
246.4	30598.01
246.862	29789.18
247.324	28162.17
247.786	31523.36
248.247	41291.1
248.709	42571.07
249.17	31904.31
249.632	30161.39
250.093	34999.43
250.555	30264.33
251.016	18482.92
251.477	17503.35
251.939	18885.81
252.4	19800.44
252.861	23506.3
253.322	21891.34
253.783	26069.59
254.244	33776.89
254.705	26548
255.166	23572.27
255.627	23207.54
256.088	32735.48
256.549	34788.59
257.009	29980.86
257.47	36350.01
257.931	29608.79
258.391	22198.04
258.852	22873.5
259.312	23976.13
259.773	29628.84
260.233	25043.57
260.694	21104.43
261.154	23925.72
261.614	19214.37
262.074	17174.07
262.534	17829.35
262.994	16810.64
263.455	22370.7
263.915	18834.98
264.374	17719.64
264.834	19338.41
265.294	21430.11
265.754	22206.31
266.214	20975.51
266.673	19615.68
267.133	24703.5
267.593	24489.83
268.052	29921.13
268.512	25993.64
268.971	31372.86
269.431	34368.32
269.89	30730.28
270.349	45994.4
270.809	51248.63
271.268	46074.28
271.727	103194.73
272.186	66872.88
272.645	50121.27
273.104	36118.02
273.563	52276.36
274.022	40991.95
274.481	34871.06
274.94	26882.53
275.399	19964.94
275.857	23203.03
276.316	31342.6
276.775	27908.69
277.233	27488.63
277.692	25728.27
278.15	29089.8
278.609	29928.95
279.067	27714.55
279.525	25764.51
279.984	33235.81
280.442	39948.87
280.9	39471.48
281.358	25978.55
281.816	24204.78
282.274	23673.33
282.732	24424.98
283.19	24575.88
283.648	21218.51
284.106	22564.58
284.564	22922.41
285.021	21273.52
285.479	15849.88
285.937	14386.3
286.394	12639.86
286.852	13027.96
287.309	13702.15
287.767	13306.64
288.224	12652.75
288.682	13906.85
289.139	15313.38
289.596	14042.32
290.053	14592.45
290.511	18443.4
290.968	22416.77
291.425	30464.95
291.882	25387.41
292.339	22107.01
292.796	21893.64
293.252	20640.08
293.709	16399.33
294.166	14707.47
294.623	16244.77
295.079	15589.1
295.536	15676.78
295.992	14225.5
296.449	14069.72
296.905	14606.27
297.362	14029.96
297.818	14767.28
298.274	15353.04
298.731	15651.54
299.187	15495.47
299.643	16635.35
300.099	20147.2
300.555	22108.56
301.011	18501.56
301.467	17861.16
301.923	20904.29
302.379	20396.34
302.835	20025.81
303.291	20012.69
303.746	22770.92
304.202	28766.93
304.658	28905.81
305.113	19439.49
305.569	19050.7
306.024	20303.08
306.479	19308.99
306.935	16301.39
307.39	17812.93
307.845	16470.23
308.301	16636.94
308.756	16209.89
309.211	15624.01
309.666	16042.16
310.121	19966.74
310.576	20263.15
311.031	20119.59
311.486	23014.83
311.94	23014.46
312.395	30857.84
312.85	58057.14
313.305	284780.3
313.759	1480660.72
314.214	107612.36
314.668	85383.23
315.123	71837.4
315.577	25805.13
316.032	22965.82
316.486	28851.57
316.94	22811.29
317.394	15892.69
317.849	12355.68
318.303	11706.3
318.757	11047.68
319.211	12219.63
319.665	10693.01
320.119	10836.78
320.572	15526.94
321.026	14538.97
321.48	12108.37
321.934	13167.47
322.387	13196.57
322.841	14281.27
323.295	12868.98
323.748	14801.22
324.202	15021.77
324.655	18056.6
325.108	25296
325.562	17873.97
326.015	21201.83
326.468	16023.18
326.921	17971.03
327.374	16785.97
327.827	17496.2
328.28	19840.68
328.733	13319.43
329.186	11713.21
329.639	11179.41
330.092	9396.98
330.545	8982.2
330.997	9087.92
331.45	9960.98
331.903	11690.05
332.355	20099.37
332.808	19530.09
333.26	16103.08
333.713	17502.38
334.165	17645.05
334.617	23562.09
335.069	19053.56
335.522	34425.63
335.974	38155.35
336.426	34820.1
336.878	24106.33
337.33	12247.71
337.782	11953.28
338.234	15021.59
338.686	17978.53
339.137	21296.88
339.589	20058.83
340.041	15768.73
340.493	13543
340.944	13860.84
341.396	14956.49
341.847	12620.49
342.299	14906.45
342.75	18225.21
343.201	15845.55
343.653	18207.5
344.104	22380.67
344.555	17603.65
345.006	27376.24
345.457	21078.49
345.908	16758.98
346.359	15804.01
346.81	12863.03
347.261	13543.28
347.712	13355.9
348.163	14345.03
348.613	14587.16
349.064	13623.64
349.515	11951.51
349.965	12255.16
350.416	14717.12
350.866	16167.86
351.317	18236.1
351.767	30247.72
352.217	38316.41
352.668	31801.01
353.118	29218.36
353.568	28087.77
354.018	22306.2
354.468	23566.4
354.918	16936.85
355.368	14842.44
355.818	20991.06
356.268	60558.05
356.718	253780.54
357.168	63165.52
357.617	31712.85
358.067	35284.38
358.517	33090.9
358.966	38864.22
359.416	43706.86
359.865	47217.3
360.315	56250.2
360.764	26315.26
361.213	14764.86
361.663	13981.02
362.112	17288.54
362.561	27991.26
363.01	21129.8
363.459	17843.99
363.908	19321.83
364.357	16418.17
364.806	27759.95
365.255	19093.3
365.703	17503.18
366.152	17528.17
366.601	14220.53
367.05	11532.09
367.498	10463.51
367.947	10947.58
368.395	11369.79
368.844	10053.21
369.292	12120.51
369.74	8389.04
370.189	12872.01
370.637	15078.66
371.085	13008.51
371.533	15836.39
371.981	15272.63
372.429	14641.21
372.877	15240.82
373.325	12779.84
373.773	13016.68
374.221	11576.49
374.669	14354
375.116	12379.33
375.564	12464.62
376.012	13944.9
376.459	11490.08
376.907	13721.67
377.354	16539.93
377.801	15427.86
378.249	17735.26
378.696	22672.59
379.143	27411.85
379.591	29200.72
380.038	49366.75
380.485	35730.22
380.932	38503.03
381.379	35319.97
381.826	26053.56
382.273	18480.76
382.72	16155.42
383.166	15742.39
383.613	10187.74
384.06	9192.05
384.506	10658.03
384.953	7837.85
385.4	7881.74
385.846	6897.63
386.292	6681.65
386.739	6529.28
387.185	6445.91
387.631	6433.91
388.078	6237.22
388.524	6673.18
388.97	6165.78
389.416	5136.16
389.862	5467.93
390.308	5182.39
390.754	5271.15
391.2	5735.11
391.645	5862.5
392.091	5636.86
392.537	5457.18
392.983	5463.77
393.428	5405.98
393.874	5789.33
394.319	5829.47
394.765	5533.79
395.21	5693.11
395.655	5334.53
396.101	4994.78
396.546	4512.54
396.991	4547.21
397.436	4214.06
397.881	4077.11
398.326	3850.63
398.771	3649.82
399.216	3180.83
399.661	2868.46
400.106	2864.53
400.551	2949.92
400.995	2653.66
401.44	2628.55
401.885	2470.3
402.329	2505.42
402.774	2405.3
403.218	2339.61
403.663	2253.5
404.107	2325.6
404.551	2347.57
404.995	2154.53
405.44	2071.98
405.884	2102.1
406.328	2037.52
406.772	2036.67
407.216	1860.1
407.66	1799.8
408.104	1707.81
408.547	1603.9
408.991	1553.9
409.435	1493.3
409.879	1474.27
410.322	1461.37
410.766	1421.94
411.209	1357.68
411.653	1306.28
412.096	1283.81
412.54	1285.91
412.983	1280.13
413.426	1289.42
413.869	1288.88
414.312	1270.4
414.756	1227.91
415.199	1170.68
415.642	1137.92
416.085	1142.41
416.527	1136.38
416.97	1153.76
417.413	1099.64
417.856	1089.24
418.298	1076.71
418.741	1070.6
419.184	1069.41
419.626	1113.93
420.069	1119
420.511	1125.72
420.953	1102
421.396	1093.02
421.838	1065.99
422.28	1089.3
422.722	1096.65
423.164	1112.48
423.606	1096.19
424.048	1093.16
424.49	1040.39
424.932	1033.79
425.374	1018.45
425.816	1034.42
426.258	1053.91
426.699	1066.58
427.141	1057.29
427.582	1072.63
428.024	1066.16
428.465	1058.14
428.907	1034.81
429.348	1022.93
429.789	1025.05
430.231	1007.51
430.672	1022.77
431.113	997.78
431.554	984.62
431.995	954.34
432.436	922.35
432.877	905.82
433.318	894.83
433.759	889.92
434.2	888.41
434.64	877.44
435.081	878.45
435.522	833.9
435.962	804.73
436.403	787.35
436.843	799.62
437.284	783.09
437.724	760.86
438.164	759.84
438.604	742.67
439.045	717.48
439.485	691.25
439.925	676.96
440.365	658.55
440.805	650.39
441.245	644.91
441.685	623.06
442.125	617.26
442.564	621.94
443.004	609.87
443.444	611.08
443.883	612.56
444.323	607.2
444.762	607.74
445.202	618.95
445.641	632.89
446.081	628.97
446.52	636.01
446.959	631.96
447.398	619.34
447.837	612.63
448.276	600.48
448.716	606.81
449.154	611.78
449.593	601.16
450.032	598.94
450.471	586.01
450.91	585.76
451.349	584.84
451.787	584.03
452.226	594.05
452.664	595.18
453.103	597.4
453.541	597.67
453.98	599.61
454.418	602.03
454.856	593.4
455.295	593.33
455.733	599.71
456.171	600.91
456.609	599.37
457.047	597.75
457.485	607.27
457.923	608.14
458.361	599.86
458.798	600.51
459.236	598.75
459.674	601.97
460.111	604.84
460.549	598.86
460.987	597.79
461.424	596.84
461.862	593.72
462.299	582.83
462.736	581.89
463.173	582.49
463.611	577.79
464.048	576.48
464.485	581.35
464.922	575.4
465.359	570.51
465.796	567.58
466.233	563.51
466.67	559.4
467.106	559.96
467.543	555.3
467.98	547.53
468.416	531.19
468.853	526.03
469.29	510.2
469.726	504.79
470.162	491.8
470.599	481.16
471.035	476
471.471	464.13
471.907	460.32
472.344	457.43
472.78	460.05
473.216	466.81
473.652	462.46
474.088	462.31
474.523	462.3
474.959	466.88
475.395	463.7
475.831	463.42
476.266	466.25
476.702	465.49
477.138	461.59
477.573	460.69
478.008	459.44
478.444	462.8
478.879	467.53
479.314	470.05
479.75	470.45
480.185	472.35
480.62	475.94
481.055	478.96
481.49	483.34
481.925	490.37
482.36	500.4
482.795	513.88
483.229	526.46
483.664	537.28
484.099	539.31
484.534	547.67
484.968	553.93
485.403	554.73
485.837	553.59
486.271	551.73
486.706	552.12
487.14	544.91
487.574	536.91
488.009	532.62
488.443	527.69
488.877	533.61
489.311	535.66
489.745	541.25
490.179	546.29
490.613	557.57
491.046	562.22
491.48	566.36
491.914	567.38
492.348	571.61
492.781	576.11
493.215	578.32
493.648	578.84
494.082	584.09
494.515	585.92
494.948	594.21
495.382	598.2
495.815	603.11
496.248	608.92
496.681	620.29
497.114	631.77
497.547	641.19
497.98	654.65
498.413	662.76
498.846	672.83
499.279	681.04
499.711	686.18
500.144	689.54
500.577	701.62
501.009	713.38
501.442	725.15
501.874	727.96
502.306	732.27
502.739	741.47
503.171	755.37
503.603	759.95
504.036	770.53
504.468	778.35
504.9	790.87
505.332	797.93
505.764	803.93
506.196	812.29
506.627	827.48
507.059	841.77
507.491	850.63
507.923	851.76
508.354	868.64
508.786	881.63
509.217	900.2
509.649	916.64
510.08	937.24
510.512	956.32
510.943	972.5
511.374	986.32
511.805	1007.79
512.237	1028.79
512.668	1061.22
513.099	1089.7
513.53	1117.88
513.961	1140.68
514.391	1174.57
514.822	1209.9
515.253	1245.6
515.684	1273.62
516.114	1304.65
516.545	1328.36
516.975	1357.12
517.406	1378.89
517.836	1384.39
518.267	1394.07
518.697	1414.96
519.127	1422.01
519.558	1431.2
519.988	1438.37
520.418	1450.76
520.848	1470.3
521.278	1481.6
521.708	1516.81
522.138	1532.17
522.567	1564.97
522.997	1592.08
523.427	1608.87
523.857	1627.87
524.286	1640.3
524.716	1657.24
525.145	1677.82
525.575	1690.97
526.004	1707.1
526.433	1687.54
526.863	1687.86
527.292	1679.65
527.721	1687.02
528.15	1694.51
528.579	1696.81
529.008	1709.2
529.437	1732.98
529.866	1748.46
530.295	1766.94
530.724	1781.44
531.152	1809.98
531.581	1826.09
532.01	1845.43
532.438	1855.32
532.867	1869.88
533.295	1889.37
533.723	1896.51
534.152	1895.94
534.58	1896.51
535.008	1881.02
535.436	1883.1
535.865	1890.84
536.293	1904.93
536.721	1921.57
537.149	1947.68
537.576	1952.29
538.004	1965.1
538.432	1972.71
538.86	1970.64
539.287	1977.59
539.715	1992.65
540.143	1996.26
540.57	1993.33
540.998	1991.04
541.425	1966.73
541.852	1944.97
542.28	1943.01
542.707	1927.63
543.134	1913.95
543.561	1910.4
543.988	1903.58
544.415	1903.14
544.842	1896.59
545.269	1890.07
545.696	1893.11
546.123	1907.73
546.549	1898.41
546.976	1887.27
547.403	1886.72
547.829	1889.78
548.256	1893.51
548.682	1890.49
549.108	1883.26
549.535	1884.48
549.961	1886.67
550.387	1873.27
550.813	1868.73
551.24	1875.84
551.666	1877.28
552.092	1869.08
552.518	1863.08
552.943	1856.9
553.369	1865.74
553.795	1872.47
554.221	1874.63
554.646	1873
555.072	1886.57
555.498	1892.27
555.923	1903.14
556.349	1920
556.774	1929.86
557.199	1933.29
557.625	1940.95
558.05	1936.74
558.475	1948.78
558.9	1948.68
559.325	1940.63
559.75	1934.18
560.175	1929.45
560.6	1923.15
561.025	1921.81
561.449	1922.36
561.874	1929.02
562.299	1934.92
562.723	1942.99
563.148	1932.94
563.572	1938.08
563.997	1949.77
564.421	1956.63
564.846	1955.45
565.27	1960.36
565.694	1958.16
566.118	1972.09
566.542	1979.06
566.966	1972.07
567.39	1966.01
567.814	1954.1
568.238	1952.58
568.662	1957.75
569.086	1958.97
569.509	1968.37
569.933	1951.47
570.357	1943.66
570.78	1921.58
571.204	1909.32
571.627	1897.65
572.05	1895.74
572.474	1895.97
572.897	1882.85
573.32	1875.6
573.743	1865.58
574.166	1846.14
574.589	1847.35
575.012	1839.46
575.435	1838.53
575.858	1828.26
576.281	1817.05
576.704	1801
577.126	1788.55
577.549	1778.08
577.972	1766.4
578.394	1756.86
578.817	1749.74
579.239	1729.64
579.661	1715.4
580.084	1699.32
580.506	1686.12
580.928	1683.4
581.35	1672.74
581.772	1669.21
582.194	1654.74
582.616	1642.94
583.038	1627.63
583.46	1616.58
583.882	1614.25
584.303	1618.52
584.725	1614.42
585.147	1617.97
585.568	1629.72
585.99	1642.82
586.411	1649.79
586.833	1665.93
587.254	1667.78
587.675	1683.63
588.096	1697.54
588.518	1691.27
588.939	1674.25
589.36	1671.07
589.781	1658.04
590.202	1627.98
590.623	1619.25
591.043	1616.42
591.464	1603.61
591.885	1598.77
592.305	1592.02
592.726	1577.11
593.147	1579.67
593.567	1574.09
593.987	1565.85
594.408	1560.26
594.828	1556.57
595.248	1550.28
595.669	1530.26
596.089	1523.08
596.509	1516.58
596.929	1502.39
597.349	1504.53
597.769	1492.75
598.189	1485.21
598.608	1487.76
599.028	1490.44
599.448	1491
599.867	1477.22
600.287	1473.19
600.706	1467.55
601.126	1457.66
601.545	1456.64
601.965	1454.04
602.384	1448.26
602.803	1451.05
603.222	1444.79
603.641	1437.19
604.061	1432.79
604.48	1428.67
604.898	1437.15
605.317	1442.62
605.736	1444.58
606.155	1442.15
606.574	1432.59
606.992	1438.4
607.411	1434.09
607.829	1425.77
608.248	1422.42
608.666	1420.52
609.085	1419.36
609.503	1410.53
609.921	1404.23
610.339	1405.81
610.758	1404.31
611.176	1398.72
611.594	1389.78
612.012	1385.72
612.43	1389.2
612.847	1395.75
613.265	1396.33
613.683	1400.83
614.101	1402.39
614.518	1398.58
614.936	1386.93
615.353	1370.45
615.771	1367.25
616.188	1366.6
616.606	1362.96
617.023	1355.77
617.44	1340.29
617.857	1332.73
618.274	1322.98
618.691	1316.29
619.108	1304.9
619.525	1299.79
619.942	1307.48
620.359	1309.69
620.776	1303.92
621.192	1300.03
621.609	1296.6
622.026	1303.3
622.442	1309.07
622.859	1313.39
623.275	1305.8
623.691	1312.2
624.108	1323.88
624.524	1337.95
624.94	1337.84
625.356	1348.09
625.772	1361.94
626.188	1374.78
626.604	1376.89
627.02	1371.74
627.436	1368.45
627.852	1374.83
628.268	1388.28
628.683	1378.31
629.099	1368.85
629.514	1363.82
629.93	1368.18
630.345	1371.53
630.761	1366.14
631.176	1368.14
631.591	1362.84
632.007	1356.97
632.422	1354.65
632.837	1340.77
633.252	1338.08
633.667	1327.52
634.082	1316.74
634.497	1301.89
634.911	1281.2
635.326	1275.92
635.741	1258.48
636.155	1245.02
636.57	1245
636.984	1242.05
637.399	1242.42
637.813	1240.13
638.228	1236.56
638.642	1239.1
639.056	1226.1
639.47	1224.83
639.884	1215.68
640.298	1205.65
640.712	1204.27
641.126	1188.22
641.54	1177.45
641.954	1169.59
642.368	1154.67
642.781	1145.61
643.195	1125.59
643.609	1125.38
644.022	1115.28
644.436	1107.67
644.849	1092.75
645.262	1077.24
645.676	1076.44
646.089	1069.45
646.502	1053.27
646.915	1046.33
647.328	1027.75
647.741	1024.47
648.154	1008.27
648.567	1004.9
648.98	990.48
649.393	990.68
649.805	985.29
650.218	976.6
650.631	959.59
651.043	952.88
651.456	946.09
651.868	944.69
652.28	959.86
652.693	971.13
653.105	976.97
653.517	985.98
653.929	986.03
654.341	992.55
654.753	981.02
655.165	986.49
655.577	983.07
655.989	976.61
656.401	966.88
656.813	931.92
657.224	912.02
657.636	882.38
658.047	864.35
658.459	843.46
658.87	831.49
659.282	818.19
659.693	798.15
660.104	783.21
660.515	769.57
660.926	765.8
661.338	761.47
661.749	753.56
662.159	742.76
662.57	736.07
662.981	730.19
663.392	722.25
663.803	723.81
664.213	718.57
664.624	710.66
665.035	710.93
665.445	697.54
665.855	689.12
666.266	681.51
666.676	678.54
667.086	669.41
667.497	667.6
667.907	661.43
668.317	652.52
668.727	650.64
669.137	650.63
669.547	647.32
669.956	648
670.366	648.4
670.776	649.07
671.186	651.84
671.595	655.22
672.005	656.83
672.414	655.68
672.824	654.52
673.233	656.05
673.642	658.45
674.052	662.17
674.461	664.53
674.87	667.79
675.279	665.81
675.688	666.91
676.097	667.31
676.506	665.21
676.915	678.03
677.323	680.67
677.732	679.43
678.141	679.4
678.549	670.03
678.958	671.18
679.366	671.58
679.775	676.99
680.183	688.1
680.592	695.42
681	702.75
681.408	698.79
681.816	707.45
682.224	718.74
682.632	731.64
683.04	761.83
683.448	786.08
683.856	818.74
684.264	856.38
684.671	890.85
685.079	931.75
685.487	977.64
685.894	1041.27
686.302	1095.38
686.709	1141.79
687.116	1194.5
687.524	1239.56
687.931	1282.65
688.338	1319.62
688.745	1350.64
689.152	1384.29
689.559	1430.94
689.966	1479.49
690.373	1504.75
690.78	1549.15
691.187	1615.58
691.593	1666.25
692	1712.35
692.407	1776.2
692.813	1855.4
693.22	1918.56
693.626	1983.65
694.032	2035.44
694.439	2114.3
694.845	2174.42
695.251	2252.61
695.657	2320.17
696.063	2423.08
696.469	2499.15
696.875	2569.74
697.281	2607.97
697.687	2656.99
698.093	2699.54
698.498	2780.16
698.904	2839.83
699.31	2932.14
699.715	2997.4
700.12	3094.46
700.526	3113.08
700.931	3182.93
701.337	3238.05
701.742	3272.78
702.147	3360.32
702.552	3389.12
702.957	3449.38
703.362	3471.4
703.767	3499.81
704.172	3539.38
704.577	3488.39
704.981	3536.02
705.386	3552.28
705.791	3542.93
706.195	3619.77
706.6	3627.34
707.004	3709.18
707.408	3676.25
707.813	3700.79
708.217	3685.41
708.621	3685.28
709.025	3784.28
709.43	3785.81
709.834	3848.45
710.237	3918.34
710.641	3900.09
711.045	3921.91
711.449	3917.1
711.853	3947.03
712.256	3989.92
712.66	4030.71
713.064	4108.06
713.467	4148.35
713.87	4264.05
714.274	4309.35
714.677	4420.83
715.08	4587.93
715.484	4761.33
715.887	4970.84
716.29	5174.2
716.693	5386.14
717.096	5629.34
717.499	5761.98
717.901	5789.24
718.304	5809.1
718.707	5834.4
719.109	5723.93
719.512	5685.97
719.915	5540.39
720.317	5478.41
720.719	5517.32
721.122	5484.17
721.524	5430.02
721.926	5384.03
722.328	5482.7
722.731	5473.14
723.133	5496.66
723.535	5693.62
723.937	5713.73
724.338	5766.31
724.74	5805.42
725.142	5758.78
725.544	5755.13
725.945	5786.5
726.347	5781.21
726.748	5771.49
727.15	5784.92
727.551	5747.88
727.952	5717.87
728.354	5685.28
728.755	5683.11
729.156	5636.47
729.557	5603.44
729.958	5476
730.359	5411.33
730.76	5391.26
731.161	5329.41
731.562	5302.54
731.962	5303.51
732.363	5238.7
732.763	5172.51
733.164	5207.52
733.564	5139.18
733.965	5040.98
734.365	5006.32
734.766	5035.85
735.166	4996.51
735.566	4940.09
735.966	4910.39
736.366	4904.05
736.766	4840.85
737.166	4872.08
737.566	4831.56
737.966	4803.45
738.365	4842.36
738.765	4837.01
739.165	4760.76
739.564	4734.07
739.964	4778.59
740.363	4732.64
740.763	4728.62
741.162	4714.67
741.561	4685.95
741.96	4639.98
742.36	4660.89
742.759	4666.29
743.158	4702
743.557	4715.7
743.955	4755.14
744.354	4708.54
744.753	4765.17
745.152	4724.1
745.55	4780.19
745.949	4769.37
746.348	4768.72
746.746	4785.4
747.144	4745.49
747.543	4723.52
747.941	4773.07
748.339	4700.93
748.737	4696.2
749.136	4689.08
749.534	4753.65
749.932	4727.6
750.33	4752.7
750.727	4807.79
751.125	4783.92
751.523	4765.86
751.921	4810
752.318	4775.36
752.716	4835.65
753.113	4848.34
753.511	4871.48
753.908	4873.46
754.305	4856.86
754.703	4918.9
755.1	4982.99
755.497	5043.77
755.894	5235.21
756.291	5416
756.688	5750.09
757.085	6194.64
757.482	6818.28
757.878	7501.85
758.275	8116.33
758.672	8958.16
759.068	9650.48
759.465	10630.66
759.861	11894.68
760.258	13367.56
760.654	14129.23
761.05	14013.14
761.447	13364.65
761.843	12438.7
762.239	11485.07
762.635	11048.25
763.031	10633.54
763.427	10036.71
763.822	9409.6
764.218	8789.34
764.614	7988.58
765.01	7450.44
765.405	7103.58
765.801	6844.53
766.196	6511.17
766.592	6322.96
766.987	6008.38
767.382	5797.37
767.778	5705.81
768.173	5573.79
768.568	5504
768.963	5379.44
769.358	5396.98
769.753	5347.56
770.148	5262.28
770.542	5259.65
770.937	5228.75
771.332	5319.46
771.726	5336.72
772.121	5278.74
772.515	5333.52
772.91	5315.48
773.304	5385.59
773.699	5319.29
774.093	5374.53
774.487	5429.41
774.881	5468.25
775.275	5463.33
775.669	5422.43
776.063	5466.39
776.457	5497.54
776.851	5422.67
777.245	5418.11
777.638	5452.65
778.032	5567.73
778.425	5533.69
778.819	5578.07
779.212	5538.95
779.606	5498.06
779.999	5518.79
780.392	5504.11
780.786	5584.31
781.179	5606.95
781.572	5651.95
781.965	5667.02
782.358	5610.69
782.751	5667.06
783.143	5615.86
783.536	5690.78
783.929	5730.44
784.322	5842.69
784.714	5873.77
785.107	5872.37
785.499	5946.24
785.891	5924.75
786.284	5904.73
786.676	6046.41
787.068	6029.07
787.46	6083.16
787.852	6103.44
788.245	6194.07
788.636	6225.47
789.028	6293.49
789.42	6336.03
789.812	6345.01
790.204	6437.75
790.595	6538.88
790.987	6343.9
791.378	6368.62
791.77	6501.74
792.161	6638.65
792.553	6696.7
792.944	6586.65
793.335	6519.8
793.726	6591.02
794.117	6684.67
794.508	6827.53
794.899	6796.14
795.29	6938.18
795.681	6995.14
796.072	6852.43
796.463	6676.84
796.853	6688.92
797.244	6852.59
797.634	6887.18
798.025	6887.1
798.415	6898.35
798.806	6990.4
799.196	7076.99
799.586	7129.3
799.976	7093.53
800.366	7327.73
800.756	7558.55
801.146	7522.37
801.536	7546.98
801.926	7622.72
802.316	7655.22
802.706	7727.62
803.095	7602.2
803.485	7709.76
803.874	7758.73
804.264	8020.08
804.653	7999.3
805.043	8154.5
805.432	8265.95
805.821	8274.08
806.21	8303.53
806.599	8429.01
806.988	8479.26
807.377	8594.3
807.766	8724.77
808.155	9007.79
808.544	8743.85
808.933	8758.05
809.321	8742.47
809.71	9044.91
810.098	9202.04
810.487	9667.64
810.875	10154.4
811.264	10182.02
811.652	10484.69
812.04	10640.9
812.428	10815.25
812.816	11603.89
813.204	12030.28
813.592	12587.05
813.98	12936.29
814.368	12854.34
814.756	13352.26
815.144	13269.81
815.531	13751.87
815.919	13672.89
816.306	13993.33
816.694	13678.01
817.081	13726.97
817.469	14084.86
817.856	14089.34
818.243	14366.58
818.63	14766.67
819.017	14331.56
819.404	14403.53
819.791	14791.45
820.178	15417.66
820.565	15671.9
820.952	16635.41
821.339	16138.2
821.725	16326.73
822.112	15565.45
822.498	15523.67
822.885	15654.1
823.271	15557.74
823.657	15986.54
824.044	15989.84
824.43	16070.36
824.816	16036.31
825.202	15590.14
825.588	16625.01
825.974	16640.06
826.36	17167.62
826.746	17203.29
827.132	17568.41
827.517	17544.12
827.903	16735.36
828.289	16783.66
828.674	15979.23
829.06	15865.68
829.445	16265.39
829.83	16626.76
830.216	17108.24
830.601	17478.78
830.986	17062.69
831.371	16922.58
831.756	17492.44
832.141	17040.03
832.526	17024.96
832.911	17313.19
833.295	17194.01
833.68	17678.18
834.065	17047.65
834.449	16113.68
834.834	16037.36
835.218	16027.12
835.603	16373.81
835.987	16151.14
836.371	17007.94
836.755	16895.94
837.139	17297.47
837.524	17542.62
837.908	17342.82
838.291	17400.17
838.675	17471.43
839.059	17680.2
839.443	17661.58
839.827	17423.8
840.21	17908.46
840.594	17757.05
840.977	17972.11
841.361	17954.8
841.744	18334
842.127	18174.6
842.511	18422.67
842.894	19026.33
843.277	19409.65
843.66	19955.49
844.043	20038.5
844.426	19225.35
844.809	18905.12
845.191	18928.77
845.574	18460.91
845.957	18085.92
846.339	17979.43
846.722	17442.17
847.104	17495.76
847.487	17311.21
847.869	17322.42
848.252	17601.39
848.634	17923.79
849.016	18186.71
849.398	18310.25
849.78	19156.11
850.162	19160.21
850.544	19578.89
850.926	20218.56
851.307	20135.46
851.689	20423.46
852.071	20882.16
852.452	21209.78
852.834	21195.62
853.215	21595.41
853.597	21751.37
853.978	22055.7
854.359	22523.26
854.741	21510.86
855.122	21403.51
855.503	21115.89
855.884	21246.82
856.265	21184.8
856.646	21297.4
857.026	20905.89
857.407	20853.34
857.788	21014.19
858.169	21306.28
858.549	20442.46
858.93	21077.13
859.31	21125.58
859.69	21340.57
860.071	20935.53
860.451	20720.03
860.831	19978.93
861.211	21143.23
861.591	21689.45
861.971	21666.12
862.351	21867.13
862.731	22251.84
863.111	22514.67
863.491	22852.15
863.87	23738.87
864.25	24096.13
864.629	23690.1
865.009	24201.27
865.388	25064.68
865.768	26863.36
866.147	26761.95
866.526	25274.56
866.905	25588.01
867.284	27022.17
867.663	25651.78
868.042	24583.33
868.421	24494.45
868.8	24902.11
869.179	25145.15
869.558	23679.93
869.936	21823.06
870.315	22204.96
870.693	22753.25
871.072	24533.93
871.45	23385.59
871.828	23694.66
872.207	24913.9
872.585	24554.13
872.963	25213.66
873.341	24346.61
873.719	24067.84
874.097	23778.52
874.475	24237.4
874.853	24797.13
875.23	23772.12
875.608	24759.69
875.986	26784.89
876.363	25611.45
876.741	26387.01
877.118	25727.82
877.495	26999.89
877.873	27438.46
878.25	28870.38
878.627	27679.74
879.004	28042.15
879.381	27895.3
879.758	27159.25
880.135	25271.34
880.512	26726.75
880.889	26011.44
881.265	25737.17
881.642	25510.62
882.019	25941.09
882.395	25407.01
882.772	26418.39
883.148	25274.2
883.524	25187.74
883.901	25040.67
884.277	25410.23
884.653	25242.73
885.029	25953.75
885.405	28741.79
885.781	28520.37
886.157	27338.57
886.532	27680.24
886.908	27665.33
887.284	30759.55
887.659	31730.93
888.035	32709.18
888.411	33549.86
888.786	33985.02
889.161	35163.51
889.537	34515.54
889.912	35609.62
890.287	35574.15
890.662	36476.17
891.037	35788.75
891.412	33368.5
891.787	33036.3
892.162	31877.58
892.536	32616.29
892.911	31379.44
893.286	30724.48
893.66	29468.93
894.035	30210.66
894.409	32890.32
894.784	31566.75
895.158	32093.67
895.532	33989.57
895.906	34909.87
896.281	35738.79
896.655	35174.66
897.029	40195.57
897.402	41838.95
897.776	46578.74
898.15	46429.88
898.524	45931.92
898.898	46534.77
899.271	52121.91
899.645	45129.63
900.018	43353.37
900.392	44923.38
900.765	45273.09
901.138	41913.3
901.511	41299.59
901.884	37937.2
902.258	34989.15
902.631	36145.81
903.003	41596.35
903.376	37517.75
903.749	42072.16
904.122	45043.43
904.495	49606.04
904.867	50220.92
905.24	43586.22
905.612	40543.68
905.985	41440.07
906.357	43296.97
906.729	41310.48
907.102	35285.1
907.474	33933.06
907.846	34161.64
908.218	33701.22
908.59	29773.84
908.962	28812.01
909.334	31025.12
909.705	32609.85
910.077	31669.12
910.449	32973.09
910.82	33911.24
911.192	37322.93
911.563	38771.42
911.935	41495.44
912.306	41547.35
912.677	42922.82
913.048	42491.34
913.419	46102.93
913.79	46326.98
914.161	49673.36
914.532	47503.16
914.903	43646.23
915.274	41434.48
915.645	40840.62
916.015	35943.32
916.386	34274.47
916.756	36487.48
917.127	37641.67
917.497	33630.46
917.868	36618.72
918.238	34781.1
918.608	35798.44
918.978	36546.17
919.348	38700.18
919.718	39989.22
920.088	38504.81
920.458	40023.41
920.828	42113.25
921.198	39905.6
921.567	42638.21
921.937	33033.12
922.306	33371.9
922.676	35980.63
923.045	30009.41
923.415	28533.33
923.784	25991.46
924.153	26755.49
924.522	26727.73
924.891	25131.46
925.26	26909.35
925.629	26272.32
925.998	30208.23
926.367	29473.37
926.736	28071.34
927.104	33457.58
927.473	35961.47
927.842	43436.92
928.21	42963.09
928.578	45149.47
928.947	42684.38
929.315	42991.12
929.683	50448.83
930.051	50838.18
930.42	59050.62
930.788	50459.97
931.156	50079.17
931.523	46932.6
931.891	43332.1
932.259	41640.87
932.627	48291.83
932.994	68356.98
933.362	56468.17
933.729	49004.12
934.097	46903.66
934.464	39672.31
934.831	45762.52
935.199	45088.72
935.566	43712.29
935.933	44270.66
936.3	53582.62
936.667	41672.53
937.034	37596.62
937.401	37159.41
937.767	32057.69
938.134	28517.73
938.501	40256.13
938.867	42884.73
939.234	72492.1
939.6	61798.83
939.967	68159.13
940.333	45660.54
940.699	38870.02
941.065	31125.29
941.431	40836.42
941.798	39394.36
942.163	51769.47
942.529	32307.26
942.895	29756.56
943.261	19252.76
943.627	25299.07
943.992	22144.64
944.358	22178.1
944.723	22258.43
945.089	21707.72
945.454	20071.23
945.82	21416.4
946.185	20569.09
946.55	23834.13
946.915	21381.92
947.28	25048.84
947.645	22041.06
948.01	20353.4
948.375	21220.95
948.74	25426.09
949.104	29679.95
949.469	42835.1
949.834	75694.29
950.198	71799.68
950.562	43045.59
950.927	35853.48
951.291	43209.55
951.655	36810.22
952.02	34550.78
952.384	26144.19
952.748	22752.53
953.112	22192.39
953.476	19301.53
953.839	17874.9
954.203	17688.74
954.567	22106.13
954.931	34813.1
955.294	29737.13
955.658	29907.83
956.021	50814.37
956.385	86065.13
956.748	127119.64
957.111	197297.37
957.474	221413.52
957.837	249035.91
958.2	188414.99
958.563	67803.13
958.926	45828.42
959.289	69649.79
959.652	77810.85
960.015	58337.13
960.377	83673.77
960.74	95464.43
961.102	164367.74
961.465	176628.19
961.827	94768.3
962.189	181778.88
962.552	125998.53
962.914	100997.44
963.276	65475.19
963.638	54080.53
964	53596.01
964.362	36202.76
964.724	34935.34
965.085	24924.51
965.447	20413.09
965.809	23208.61
966.17	23246.58
966.532	25125.04
966.893	23057.61
967.255	20990.02
967.616	24791.55
967.977	19856.98
968.338	21720.52
968.699	17873.25
969.061	17863.84
969.421	17982.69
969.782	20192.92
970.143	17053.15
970.504	17701.98
970.865	20116.17
971.225	20561.58
971.586	20090.51
971.946	28636.69
972.307	24846.38
972.667	32460.33
973.027	33449.14
973.388	40553.93
973.748	27551.73
974.108	29981.35
974.468	40492.97
974.828	31257.51
975.188	24075.83
975.548	22123.5
975.907	18583.18
976.267	20829.92
976.627	17522.25
976.986	18159
977.346	17313.68
977.705	16663.42
978.064	15177.57
978.424	12636.92
978.783	13050.8
979.142	14873.16
979.501	14226.65
979.86	15026.01
980.219	14474.98
980.578	18627.34
980.937	20867.09
981.296	18583.73
981.654	19107.54
982.013	29707.97
982.371	38556.89
982.73	36002.12
983.088	40746.08
983.447	43643.01
983.805	62379.19
984.163	130302
984.521	144527.79
984.879	211910.4
985.237	-344611.78
985.595	332387.91
985.953	82707.84
986.311	47681.61
986.669	27696.94
987.026	23908.4
987.384	32043.19
987.741	33158.38
988.099	23767.29
988.456	18991.02
988.814	17769.82
989.171	15460.02
989.528	15237.63
989.885	16056.78
990.242	12718.46
990.599	15820.71
990.956	12955.64
991.313	9060.24
991.67	7427.6
992.027	7879.15
992.383	6997.17
992.74	6150.8
993.096	6457.05
993.453	6697.05
993.809	6962.92
994.165	9290.13
994.522	8529.25
994.878	9386.79
995.234	11758.8
995.59	11598.17
995.946	10968.02
996.302	12505.43
996.658	14429.42
997.013	15870
997.369	18837.08
997.725	24094.97
998.08	15594.21
998.436	23974.25
998.791	33087.05
999.147	33117.48
999.502	36217.14
999.857	26241.06
1000.212	42781.89
1000.567	60873.51
1000.922	35107.51
1001.277	22294.08
1001.632	16532.08
1001.987	21321.82
1002.342	15297.29
1002.696	12239.95
1003.051	9778.04
1003.406	11819.35
1003.76	11760.86
1004.114	11582.14
1004.469	9749.2
1004.823	8078.24
1005.177	8718.33
1005.531	6911
1005.885	6129.85
1006.239	6927.69
1006.593	8686.01
1006.947	11618.14
1007.301	8712.95
1007.655	9502.66
1008.008	6976.19
1008.362	7824.28
1008.715	11152.89
1009.069	10101.4
1009.422	15239.05
1009.776	30471.98
1010.129	20199.65
1010.482	16822.08
1010.835	14180.57
1011.188	29529.57
1011.541	27743.62
1011.894	-169949.39
1012.247	500025.83
1012.6	34031.51
1012.952	21527.91
1013.305	11051.37
1013.657	7982.73
1014.01	7571.02
1014.362	6248.35
1014.715	5585.49
1015.067	4853.01
1015.419	4752.32
1015.771	4218.24
1016.123	3748.29
1016.475	3857.69
1016.827	4104.32
1017.179	4401.4
1017.531	4424.22
1017.883	4512.8
1018.234	4372.48
1018.586	5497.82
1018.938	5832.77
1019.289	8038.99
1019.64	9148.07
1019.992	8508.86
1020.343	7773.66
1020.694	6200.72
1021.045	5495.86
1021.396	6271.85
1021.747	6744.09
1022.098	8081.2
1022.449	5848.55
1022.8	5453.35
1023.151	3808.82
1023.501	3389.17
1023.852	3689.2
1024.202	3841.53
1024.553	4162.2
1024.903	4087.07
1025.253	3525.22
1025.604	3176.33
1025.954	3928.25
1026.304	4786.91
1026.654	5554.92
1027.004	8134.06
1027.354	13110.72
1027.703	12409.06
1028.053	16192.36
1028.403	23885.24
1028.753	34291.53
1029.102	46178.97
1029.452	235828.65
1029.801	10187.39
1030.15	6589.2
1030.499	5581.4
897.758	3312.42
901.051	3301.72
904.343	3334.66
907.636	3325
910.928	3396.82
914.22	3296.3
917.511	3310.33
920.803	3398.9
924.094	3448.36
927.384	3395.3
930.675	3360.67
933.965	3300.18
937.255	3289.22
940.544	3257.17
943.834	3106.7
947.123	3064.26
950.411	3171.31
953.7	3132.87
956.988	3074.99
960.276	3022.23
963.563	3149.76
966.851	3124.23
970.138	3206.17
973.424	3180.14
976.711	3131.71
979.997	3391.49
983.283	3405.46
986.568	3273.25
989.853	3321.07
993.138	3356.99
996.423	3435.92
999.708	3343.63
1002.992	3465.63
1006.275	3185.32
1009.559	3298.33
1012.842	3435.95
1016.125	3341.57
1019.408	3317.16
1022.69	3447.25
1025.972	3451.27
1029.254	3416.18
1032.536	3307.42
1035.817	3353.6
1039.098	3253.75
1042.379	3529.52
1045.659	3477.66
1048.939	3386.15
1052.219	3430.03
1055.498	3461.27
1058.778	3431.59
1062.057	3422.96
1065.335	3441.61
1068.614	3475.89
1071.892	3436.59
1075.17	3542.2
1078.447	3515.08
1081.724	3499.18
1085.001	3554.49
1088.278	3515.89
1091.554	3539.17
1094.83	3535.7
1098.106	3558.05
1101.382	3622.48
1104.657	3621.4
1107.932	3619.71
1111.206	3562.46
1114.481	3522.37
1117.755	3533.26
1121.029	3491.31
1124.302	3539.2
1127.575	3469.67
1130.848	3444.99
1134.121	3395.27
1137.393	3325.82
1140.665	3408.78
1143.937	3388.51
1147.208	3288.36
1150.48	3314.54
1153.75	3293.95
1157.021	3368.62
1160.291	3322.1
1163.561	3362.61
1166.831	3382.79
1170.101	3420.42
1173.37	3405.99
1176.639	3324.19
1179.907	3398.71
1183.176	3455.98
1186.444	3460.92
1189.711	3494.1
1192.979	3490.75
1196.246	3452.45
1199.513	3475.05
1202.78	3470.96
1206.046	3474.46
1209.312	3515.14
1212.578	3552.04
1215.843	3479.86
1219.108	3460.43
1222.373	3484.56
1225.638	3428.16
1228.902	3404.49
1232.166	3368.71
1235.43	3344.47
1238.693	3359.93
1241.956	3368.48
1245.219	3393.87
1248.482	3401.3
1251.744	3390.09
1255.006	3581
1258.268	3544.22
1261.529	3472.71
1264.79	3489.06
1268.051	3618.9
1271.312	3640.2
1274.572	3592.17
1277.832	3583.08
1281.092	3587.02
1284.351	3530.18
1287.61	3502.43
1290.869	3385.89
1294.128	3332.44
1297.386	3479.9
1300.644	3461.85
1303.902	3475.86
1307.159	3314.59
1310.416	3374.94
1313.673	3392.25
1316.93	3361.64
1320.186	3433.03
1323.442	3490.38
1326.697	3465.61
1329.953	3479.72
1333.208	3486.55
1336.463	3474.21
1339.717	3396.98
1342.972	3487.83
1346.226	3498.84
1349.479	3405.88
1352.733	3356.7
1355.986	3404.85
1359.238	3371.3
1362.491	3371.64
1365.743	3377.3
1368.995	3380.39
1372.247	3395.31
1375.498	3406.83
1378.749	3475.12
1382	3410.68
1385.251	3489.41
1388.501	3464.46
1391.751	3425.94
1395	3406.75
1398.25	3445.68
1401.499	3438.72
1404.748	3345.81
1407.996	3253.77
1411.244	3252.67
1414.492	3223.4
1417.74	3194.85
1420.987	3217.25
1424.234	3265.82
1427.481	3271.67
1430.728	3326.81
1433.974	3299.05
1437.22	3335.46
1440.465	3337.6
1443.711	3344.09
1446.956	3374.15
1450.201	3388.72
1453.445	3435.97
1456.689	3396.49
1459.933	3418.65
1463.177	3440.95
1466.42	3412.03
1469.663	3392.76
1472.906	3355.16
1476.148	3507.04
1479.391	3382.24
1482.633	3375.19
1485.874	3367.55
1489.115	3328.95
1492.356	3360.3
1495.597	3325.07
1498.838	3344.48
1502.078	3288.02
1505.318	3203.59
1508.557	3260.16
1511.797	3167.94
1515.036	3351.67
1518.274	3333.64
1521.513	3322.87
1524.751	3358.99
1527.989	3360.63
1531.227	3364.43
1534.464	3328.5
1537.701	3387.14
1540.938	3416.79
1544.174	3376.19
1547.41	3390.12
1550.646	3425.89
1553.882	3446.83
1557.117	3498.69
1560.352	3523.64
1563.587	3473.85
1566.821	3422.65
1570.055	3483.74
1573.289	3441.22
1576.523	3544.5
1579.756	3539.99
1582.989	3556.58
1586.222	3514.78
1589.454	3566.71
1592.686	3527.16
1595.918	3547.78
1599.15	3523.46
1602.381	3642.67
1605.612	3562.33
1608.843	3664.91
1612.073	3558.39
1615.303	3539.02
1618.533	3514.04
1621.762	3529.9
1624.992	3531.53
1628.221	3494.26
1631.449	3478.34
1634.678	3575.37
1637.906	3512.55
1641.134	3570.55
1644.361	3512.44
1647.588	3500.36
1650.815	3508.29
1654.042	3505.84
1657.269	3541.53
1660.495	3489.3
1663.72	3427.97
1666.946	3417.31
1670.171	3313.75
1673.396	3291.73
1676.621	3294.35
1679.845	3347.68
1683.069	3388.35
1686.293	3453
1689.517	3401.84
1692.74	3292.43
1695.963	3309.19
1699.185	3414.67
1702.408	3358.98
1705.63	3419.33
1708.852	3421.2
1712.073	3390.31
1715.294	3350.82
1718.515	3373.66
1721.736	3316.81
1724.956	3275.36
1728.176	3312.91
1731.396	3333.08
1734.616	3332.01
1737.835	3336.26
1741.054	3330.75
1744.272	3334.18
1747.491	3342.37
1750.709	3435.27
1753.927	3334.59
1757.144	3392.32
1760.361	3468.46
1763.578	3481.79
1766.795	3406.46
1770.011	3431.05
1773.227	3499.4
1776.443	3528.43
1779.658	3570.27
1782.874	3517.79
1786.089	3478.19
1789.303	3482
1792.518	3495.73
1795.732	3486.01
1798.945	3487.04
1802.159	3550.35
1805.372	3400.47
1808.585	3369.26
1811.797	3371.6
1815.01	3459.09
1818.222	3462.64
1821.434	3326.52
1824.645	3444.22
1827.856	3398.53
1831.067	3449.7
1834.278	3365.74
1837.488	3358.75
1840.698	3548.97
1843.908	3443
1847.117	3404.59
1850.326	3219.65
1853.535	3366.08
1856.744	3505.46
1859.952	3376.28
1863.16	3371.91
1866.368	3397.42
1869.575	3563.16
1872.782	3435.52
1875.989	3382.47
1879.196	3518.46
1882.402	3509.83
1885.608	3561.32
1888.814	3414.91
1892.019	3283.75
1895.224	3336.17
1898.429	3339.15
1901.634	3304.26
1904.838	3287.12
1908.042	3330.92
1911.246	3326.2
1914.449	3211.43
1917.652	3233.41
1920.855	3220.97
1924.058	3299.31
1927.26	3326.92
1930.462	3364.11
1933.664	3375.57
1936.865	3304.61
1940.066	3298.92
1943.267	3248.37
1946.467	3278.74
1949.668	3317.96
1952.868	3380.59
1956.067	3336.83
1959.267	3256.29
1962.466	3291.06
1965.665	3279.93
1968.863	3276.51
1972.061	3313.66
1975.259	3321.08
1978.457	3409.15
1981.654	3355.34
1984.852	3353.86
1988.048	3257.45
1991.245	3281.93
1994.441	3367.76
1997.637	3387.7
2000.833	3368.27
2004.028	3414.94
2007.223	3457.79
2010.418	3416.28
2013.613	3386.53
2016.807	3323.83
2020.001	3351.87
2023.194	3428.81
2026.388	3391.71
2029.581	3341.62
2032.774	3369.51
2035.966	3366.17
2039.158	3273.31
2042.35	3313.01
2045.542	3237.31
2048.733	3373.91
2051.924	3438.2
2055.115	3480.75
2058.306	3388.73
2061.496	3455.62
2064.686	3542.02
2067.875	3463.86
2071.065	3498.4
2074.254	3538.5
2077.442	3485.5
2080.631	3592.35
2083.819	3419.14
2087.007	3384.37
2090.195	3338.22
2093.382	3400.97
2096.569	3375.66
2099.756	3311.4
2102.942	3309.29
2106.128	3296.27
2109.314	3294.91
2112.5	3225.32
2115.685	3211.54
2118.87	3227.52
2122.055	3301.85
2125.239	3245.76
2128.424	3198.04
2131.608	3365.48
2134.791	3344.93
2137.974	3435.35
2141.157	3414.56
2144.34	3337.53
2147.523	3353.64
2150.705	3346.12
2153.887	3343.92
2157.068	3260.1
2160.25	3291.16
2163.431	3357.09
2166.611	3265.44
2169.792	3277.46
2172.972	3142.57
2176.152	3267.72
2179.331	3314.53
2182.511	3297.14
2185.69	3333.63
2188.868	3316.79
2192.047	3404.59
2195.225	3361.39
2198.403	3305.55
2201.58	3307.69
2204.758	3310.86
2207.935	3410.61
2211.111	3253.31
2214.288	3230.47
2217.464	3285
2220.64	3274.31
2223.815	3341.17
2226.991	3244.92
2230.166	3269.33
2233.34	3284.17
2236.515	3325.01
2239.689	3416.63
2242.863	3349.33
2246.036	3414.28
2249.209	3439.23
2252.382	3493.84
2255.555	3458.29
2258.727	3370.49
2261.9	3424.91
2265.071	3416.17
2268.243	3427.1
2271.414	3334.35
2274.585	3263.42
2277.756	3342.04
2280.926	3295.89
2284.096	3352.77
2287.266	3225.46
2290.436	3296.27
2293.605	3340.26
2296.774	3358.67
2299.942	3405.18
2303.111	3420.44
2306.279	3463.84
2309.447	3454.56
2312.614	3434.23
2315.781	3450.92
2318.948	3402.76
2322.115	3447.21
2325.281	3345.55
2328.447	3384.24
2331.613	3363.38
2334.779	3309.2
2337.944	3326.88
2341.109	3319.37
2344.274	3292.9
2347.438	3251.83
2350.602	3287.07
2353.766	3313.32
2356.929	3292.14
2360.092	3339.45
2363.255	3262.48
2366.418	3149.79
2369.58	3328.9
2372.742	2986.54
2375.904	3028.1
2379.066	2986.55
2382.227	3039.74
2385.388	2994.6
2388.548	2891.85
2391.709	2968.11
2394.869	2937.7
2398.029	3099.58
2401.188	3138.38
2404.347	3032.84
2407.506	3261.9
2410.665	3280.73
2413.823	3315.45
2416.981	3240.64
2420.139	3294.3
2423.296	3356.92
2426.453	3332.23
2429.61	3356.46
2432.767	3239.78
2435.923	3296.6
2439.079	3163.42
2442.235	3261.02
2445.391	3164.04
2448.546	3166.69
2451.701	3243.07
2454.855	3176.99
2458.009	3261.92
2461.163	3281.61
2464.317	3224.16
2467.471	3267.8
2470.624	3304.08
2473.777	3368.02
2476.929	3355.65
2480.082	3384.68
2483.234	3355.29
2486.385	3214.91
2489.537	3218.36
2492.688	3142.17
2495.839	3160.82
2498.989	3161.79
2502.14	3139.99
2505.29	3108.57
2508.439	3140.09
2511.589	3034.41
2514.738	3069.5
2517.887	3095.07
2521.035	3264.4
2524.183	3259.3
2527.331	3225.07
2530.479	3171.23
2533.627	3195.29
